Dust emission spectrum from A.P. Jones, M. Kohler, N. Ysard, M. Bocchio, and L. Verstraete (2017), A&A, 602A, 46J 
inside the DustPedia framework.

lambda    nu*dP/dnu     j_nu    j_nu(carb.) j_nu(sil)
 (um)   (erg s-1 H-1) (Jy cm2 sr-1 H-1)
0.9927057738263894 2.0715725945183737e-25 5.458711449530291e-18 5.458711449495063e-18 3.5229453963559275e-29
1.0001793341362166 2.1056213541545968e-25 5.590203094063077e-18 5.590203094020636e-18 4.244253215583069e-29
1.0077091589558085 2.139616495263975e-25 5.723221789926999e-18 5.72322178987593e-18 5.106706540109237e-29
1.0114953028030835 2.1565897641268e-25 5.790297033553757e-18 5.790297033497768e-18 5.598886029285824e-29
1.0152956718711033 2.173544608478932e-25 5.85774585891233e-18 5.857745858850967e-18 6.13652723206997e-29
1.0229392996569957 2.207375671191669e-25 5.993707547502231e-18 5.993707547428585e-18 7.364622936122786e-29
1.0267826658714554 2.2242106667708827e-25 6.062110948548568e-18 6.062110948467926e-18 8.064353343644282e-29
1.0306404723013447 2.241019783808403e-25 6.130872950459637e-18 6.130872950371357e-18 8.827717869483877e-29
1.03451277320114 2.2578013981671973e-25 6.19999055635426e-18 6.19999055625766e-18 9.660222228356572e-29
1.0383996230291617 2.274553894996998e-25 6.2694607328541174e-18 6.26946073274844e-18 1.056782226071236e-28
1.0403485208654093 2.2829187223134364e-25 6.304327077347715e-18 6.304327077237198e-18 1.1051775873583237e-28
1.0423010764483396 2.2912756690436663e-25 6.3392804108036016e-18 6.339280410688031e-18 1.1556958420826945e-28
1.0462171883269815 2.3079651249516934e-25 6.40944648599062e-18 6.409446485864276e-18 1.2634592715163665e-28
1.0471985131304309 2.3121322532302974e-25 6.4270417623013566e-18 6.42704176217217e-18 1.2918697814903862e-28
1.048180758391296 2.316297237834657e-25 6.444658443073681e-18 6.444658442941593e-18 1.3208924577862023e-28
1.0501480137395462 2.3246206775597626e-25 6.4799558198679095e-18 6.479955819729827e-18 1.3808248250089758e-28
1.0521189612883777 2.332935247622048e-25 6.515338218808427e-18 6.515338218664091e-18 1.4433598735478624e-28
1.0531058218030118 2.3370827234057454e-25 6.533043225106923e-18 6.533043224959357e-18 1.4756389304133709e-28
1.0540936079674168 2.3412068685347e-25 6.5507104336117315e-18 6.550710433460867e-18 1.508616364669666e-28
1.058054026499678 2.357679189796774e-25 6.621585444071554e-18 6.621585443906782e-18 1.6477298975604114e-28
1.0590464539527713 2.3617910847715423e-25 6.639355485680579e-18 6.63935548551214e-18 1.684383272328396e-28
1.06003981227728 2.365900457556698e-25 6.657145940419873e-18 6.657145940247692e-18 1.7218172637653065e-28
1.0620293250338977 2.374111540815575e-25 6.692787883402998e-18 6.69278788322309e-18 1.7990907043093776e-28
1.0660195594769086 2.390502390470457e-25 6.7643144556149686e-18 6.764314455418598e-18 1.9637219677969229e-28
1.070024785945596 2.4068502195040583e-25 6.8361618348752354e-18 6.8361618346609634e-18 2.142727414806995e-28
1.0740450607676866 2.42315352077176e-25 6.9083266662342494e-18 6.90832666600052e-18 2.3372972380048825e-28
1.07808044048254 2.4394107994841884e-25 6.98080556634753e-18 6.98080556609266e-18 2.5487144199244823e-28
1.0861967418109137 2.4717524707232504e-25 7.126608569382129e-18 7.126608569079357e-18 3.027728108227264e-28
1.0902777775684922 2.4877682173768284e-25 7.199734946262506e-18 7.199734945932662e-18 3.298418641599266e-28
1.0943741465085532 2.50373094858873e-25 7.273156212917519e-18 7.273156212558302e-18 3.5921585695382836e-28
1.1026131145906286 2.5354916939086297e-25 7.42086923653665e-18 7.420869236111016e-18 4.256358072338993e-28
1.1109141095355224 2.567023505260661e-25 7.569719052599645e-18 7.569719052095953e-18 5.036936306416458e-28
1.1192775983109025 2.598285945959664e-25 7.719589184621903e-18 7.719589184026595e-18 5.953086711001708e-28
1.1277040513999907 2.6291329524337573e-25 7.870043307331662e-18 7.870043306628965e-18 7.026958680477019e-28
1.1361939428280308 2.6597146403073604e-25 8.021525096293889e-18 8.021525095465482e-18 8.284075015165138e-28
1.1447477501889525 2.690020832029102e-25 8.174004547524192e-18 8.174004546548811e-18 9.753809952814433e-28
1.1533659546722406 2.7200582380136954e-25 8.327502338802667e-18 8.327502337655676e-18 1.1469941203383343e-27
1.1707974979042381 2.779424877567796e-25 8.637859965042045e-18 8.637859963461817e-18 1.5802288305249146e-27
1.1884924949847024 2.8375886276971865e-25 8.951901844273203e-18 8.951901842106829e-18 2.166374915263781e-27
1.2064549276569216 2.8950085876267096e-25 9.271081331515352e-18 9.271081328559847e-18 2.955505086979705e-27
1.2246888378427687 2.951053388628657e-25 9.593393511983322e-18 9.593393507970698e-18 4.012623488667344e-27
1.2431983285522175 3.0055919106373943e-25 9.9183599144953e-18 9.918359909073468e-18 5.421831064943845e-27
1.2619875648066055 3.058604378990871e-25 1.024584577885634e-17 1.0245845771564961e-17 7.291379195913606e-27
1.3004222497298317 3.1591667077979696e-25 1.0905017543386809e-17 1.0905017530383237e-17 1.3003575871059147e-26
1.3400274889804893 3.2523518013236512e-25 1.1568596053662572e-17 1.1568596030891311e-17 2.277126196003785e-26
1.3808389325824078 3.337819658458268e-25 1.2234192921684805e-17 1.2234192882512221e-17 3.91725868065938e-26
1.4228933163050095 3.4159999995073406e-25 1.2902077146733637e-17 1.2902077080502724e-17 6.623091070151969e-26
1.466228494730424 3.488804902960589e-25 1.3578374180380682e-17 1.3578374070267712e-17 1.1011296674826747e-25
1.5108834753276823 3.5548094283603954e-25 1.4256625048023344e-17 1.4256624867926347e-17 1.8009699313400253e-25
1.5568984535646726 3.6128639162738003e-25 1.4930739691477146e-17 1.4930739401399054e-17 2.900780872491713e-25
1.6043148490894465 3.6630858695913483e-25 1.5599336830832115e-17 1.5599336369879928e-17 4.609521861976451e-25
1.6531753430134553 3.705640253410251e-25 1.626116316662586e-17 1.6261162444792194e-17 7.218336635255774e-25
1.7035239163302658 3.7410519370197465e-25 1.6916534770949652e-17 1.6916533656744754e-17 1.114204898626124e-24
1.755405889504358 3.772306691791052e-25 1.7577373381339765e-17 1.7577371685211072e-17 1.6961286894964654e-24
1.8088679632656115 3.798677274686217e-25 1.823932234660033e-17 1.823931979933328e-17 2.547267045360509e-24
1.8639582606462262 3.819674635351649e-25 1.8898702427531233e-17 1.889869865192457e-17 3.77560667058254e-24
1.9207263702978936 3.8356676865169546e-25 1.9555814358273652e-17 1.9555808832892706e-17 5.525380948186576e-24
1.979223391128241 3.8475043534956113e-25 2.0213586063546243e-17 2.0213578076774257e-17 7.986771972982974e-24
2.039501978296691 3.856197115496599e-25 2.087626443831522e-17 2.0876253031292473e-17 1.1407022744754825e-23
2.1016163906111602 3.8645663942821532e-25 2.1558753799759255e-17 2.1558737695223074e-17 1.610453618520887e-23
2.1656225393682647 3.8742498747777274e-25 2.2271005417286998e-17 2.2270982934376028e-17 2.2482910963222277e-23
2.231578038680979 3.8853705157563603e-25 2.3015157541816283e-17 2.3015126494458946e-17 3.104735733916683e-23
2.299542257339062 3.8989109798444978e-25 2.3798750021918482e-17 2.3798707598863868e-17 4.242305460694465e-23
2.369576372248914 3.917036219017612e-25 2.463756204946123e-17 2.4637504673505815e-17 5.737595540334873e-23
2.4417434235010123 3.9423017755713413e-25 2.5551672084743214e-17 2.5551595252277915e-17 7.683246529562776e-23
2.5161083711144245 3.979079497076886e-25 2.6575496778920312e-17 2.657539487463567e-17 1.0190428463724435e-22
2.5927381535095444 4.0345213957904866e-25 2.776643444987356e-17 2.77663005390296e-17 1.339108439592317e-22
2.6717017477616296 4.117167673226945e-25 2.9198192116027683e-17 2.919801772164372e-17 1.7439438396254012e-22
2.753070231689431 4.239872701683513e-25 3.0984146759780245e-17 3.0983921618164986e-17 2.2514161525988457e-22
2.836916847834745 4.431754435465724e-25 3.337272944114938e-17 3.337244122863998e-17 2.8821250940464797e-22
2.9233170693905177 4.756938250926437e-25 3.6912449808425266e-17 3.691208390852472e-17 3.6589990054978283e-22
2.967498994190263 5.032820325541289e-25 3.9643449757858754e-17 3.96430393663999e-17 4.1039145885088776e-22
3.0123486681368425 5.35497958906213e-25 4.2818602742059963e-17 4.2818143056053927e-17 4.596860060155532e-22
3.0578761833420214 6.075138503021313e-25 4.931119337912826e-17 4.9310679017912825e-17 5.143612154271845e-22
3.1040917844459814 7.00315399358475e-25 5.770290311109364e-17 5.770232862165289e-17 5.744894407461506e-22
3.127460860933648 7.9844506939453255e-25 6.628364150447503e-17 6.628303456951471e-17 6.069349603045007e-22
3.1510058709225794 9.291898131037542e-25 7.771826295014869e-17 7.771762200947015e-17 6.409406785622845e-22
3.162844764501044 1.0508651732125564e-24 8.8225536744048e-17 8.822487813327408e-17 6.586107739208422e-22
3.1747281389236908 1.1923734300902278e-24 1.0048199853703947e-16 1.0048132184625458e-16 6.766907849405627e-22
3.1986289994194426 1.5870994714358793e-24 1.3475269212211201e-16 1.347519779222198e-16 7.141998921984133e-22
3.2227097969389145 2.517492082324016e-24 2.1535687751989328e-16 2.153561233743032e-16 7.54145590070215e-22
3.2348180950136065 3.3997864088813206e-24 2.919247589495246e-16 2.9192398343322506e-16 7.755162995525262e-22
3.240889293275058 4.0594020281930126e-24 3.49217254363706e-16 3.4921646757248505e-16 7.867912209996103e-22
3.2469718861334385 4.822466334973384e-24 4.1563983709191226e-16 4.156390386323659e-16 7.984595463050437e-22
3.2714166318528037 8.89277917115726e-24 7.722231167593634e-16 7.722222699155583e-16 8.468438054885316e-22
3.2744851364798273 9.147199529954792e-24 7.950612900252238e-16 7.950604374351548e-16 8.525900689485721e-22
3.2775565192852394 9.408927007997643e-24 8.185773470461917e-16 8.185764886768056e-16 8.583693859658416e-22
3.283707930232385 9.157128113520136e-24 7.981660389421072e-16 7.981651701495787e-16 8.687925283160057e-22
3.2898708863219004 8.358758558079706e-24 7.299448821447437e-16 7.299440037851419e-16 8.783596019895767e-22
3.29141343181113 8.170485144289765e-24 7.138380848945831e-16 7.138372041303399e-16 8.807642428358721e-22
3.292184975758714 8.077974556484645e-24 7.059210665859678e-16 7.059201846174687e-16 8.819684990536794e-22
3.295272960557952 7.494043773295904e-24 6.555065766929752e-16 6.555056900248871e-16 8.866680880443376e-22
3.3076538914384823 5.471198591343568e-24 4.803656797670118e-16 4.803647741788112e-16 9.055882006140997e-22
3.310756385682612 5.0595134806094916e-24 4.446368122185886e-16 4.446359018520895e-16 9.103664989493282e-22
3.313861789986515 4.679675330699446e-24 4.116418752036816e-16 4.116409600394804e-16 9.151642010506509e-22
3.3200813396944477 4.146990088023158e-24 3.65469512676757e-16 3.654685872295847e-16 9.254471723588045e-22
3.345076488085796 3.1967046454508926e-24 2.8384287557304662e-16 2.838419043827767e-16 9.711902700414048e-22
3.3482140837626964 3.2323265415132422e-24 2.8727503104718545e-16 2.8727405366241395e-16 9.77384771597296e-22
3.3513546224236106 3.2683421761916697e-24 2.9074840193218234e-16 2.9074741832004444e-16 9.83612137931454e-22
3.3576445397418455 3.531593985651884e-24 3.147566532023307e-16 3.1475565658346817e-16 9.966188624907676e-22
3.3702598118196083 4.5026096203396766e-24 4.0280709328380235e-16 4.028060693688859e-16 1.0239149165026956e-21
3.382922481734668 4.7236945139697396e-24 4.2417325596435007e-16 4.241722053552838e-16 1.0506090664990627e-21
3.389271646505754 4.838230354069354e-24 4.3527362604906964e-16 4.3527256187604017e-16 1.0641730294911619e-21
3.395632727569191 4.961640495637924e-24 4.47214048017679e-16 4.47212969863631e-16 1.078154047999619e-21
3.421196662673239 5.554175145543079e-24 5.043906686782422e-16 5.043895324549644e-16 1.1362232777650391e-21
3.4276182099114902 5.4346754129195204e-24 4.944649194568067e-16 4.9446377009622e-16 1.14936058662692e-21
3.4340518103208963 4.911197100971815e-24 4.476758225389376e-16 4.476746606664796e-16 1.1618724578573385e-21
3.4469541582030403 4.1656837195669144e-24 3.8114588356259193e-16 3.8114469749753477e-16 1.1860650571687118e-21
3.472904465399547 3.9567043132325885e-24 3.6475047498628006e-16 3.6474923341805103e-16 1.2415682289667491e-21
3.4990501388274233 3.637116788743887e-24 3.378133786910484e-16 3.378120798932638e-16 1.2987977844882409e-21
3.5253949054701885 2.4999462808449397e-24 2.339418296726536e-16 2.339404746047545e-16 1.3550678991354763e-21
3.5519380250092896 1.4312649910023653e-24 1.3494439825378596e-16 1.349429860712518e-16 1.4121825342013085e-21
3.578680990867387 1.0075648734850087e-24 9.571178986562773e-17 9.571031495883774e-17 1.4749067899433366e-21
3.605625307711299 8.362019540481737e-25 8.003154564783091e-17 8.003000431064326e-17 1.5413371876670117e-21
3.660119384959845 7.112112830660738e-25 6.909765715512181e-17 6.90959746445848e-17 1.6825105370082322e-21
3.715437065384467 6.227330282507809e-25 6.141595970181605e-17 6.141412597605869e-17 1.8337257573592543e-21
3.8285932144167436 5.778776843046603e-25 5.872791495224864e-17 5.872574767584865e-17 2.167276399992438e-21
3.94519561050918 5.693237757602619e-25 5.962073082063848e-17 5.961818646540653e-17 2.5443552319470455e-21
4.06534921144712 5.756801419427315e-25 6.212244482232617e-17 6.211947642981203e-17 2.9683925141458084e-21
4.189162171576248 5.906729670489075e-25 6.568159664659117e-17 6.56781523030893e-17 3.444343501845292e-21
4.316745939156006 6.119622542583131e-25 7.012139670184513e-17 7.011742118743253e-17 3.97551441259528e-21
4.448215356677963 6.387597677924147e-25 7.542108789211087e-17 7.541652715827933e-17 4.560733831547211e-21
4.58368876423945 6.711553978899257e-25 8.165967394813555e-17 8.165446765480549e-17 5.20629333004945e-21
4.723288106065518 7.098881139866671e-25 8.900282153086572e-17 8.899689942068727e-17 5.922110178420171e-21
4.867139040275056 7.564415014772196e-25 9.772789265862099e-17 9.772119212479127e-17 6.7005338297617254e-21
4.940699165968905 7.845184270206678e-25 1.028871157845274e-16 1.028799983966159e-16 7.117387911468751e-21
5.015371051989984 8.135884200923494e-25 1.0831217092328584e-16 1.0830461798578926e-16 7.552937496587393e-21
5.091171501069577 8.490573016470488e-25 1.1474246118395099e-16 1.147344457077826e-16 8.015476168354705e-21
5.129500256944802 8.672586730965654e-25 1.180845667981499e-16 1.180763125140069e-16 8.254284142995722e-21
5.168117569889187 8.86232927320755e-25 1.2157651771140258e-16 1.2156801796899475e-16 8.49974240780833e-21
5.20702561229733 9.095236017401457e-25 1.2571095343328243e-16 1.2570218949982348e-16 8.763933458968169e-21
5.246226572918644 9.334066815654097e-25 1.299832469325615e-16 1.2997421263607944e-16 9.034296482027553e-21
5.265937586045735 9.455762803416558e-25 1.3217268420396788e-16 1.3216351238059643e-16 9.171823371450495e-21
5.285722656980489 9.579011719046116e-25 1.3439852718403995e-16 1.3438921625351294e-16 9.310930527008272e-21
5.305582063971359 9.70383863060946e-25 1.3666145343373974e-16 1.3665200180314608e-16 9.451630593631206e-21
5.3255160863122235 9.83795544425483e-25 1.3907081034539208e-16 1.390612156898752e-16 9.594655516874038e-21
5.365609099470188 1.017209482256831e-24 1.448768060077667e-16 1.4486691478150867e-16 9.89122625803528e-21
5.406003951863644 1.0518937798401091e-24 1.5094463406734767e-16 1.5093443924506833e-16 1.0194822279363566e-20
5.446702915881641 1.0879099096247796e-24 1.5728816782807472e-16 1.5727766226222563e-16 1.0505565849131497e-20
5.487708281020852 1.1268280917519382e-24 1.641413931778425e-16 1.6413056870793595e-16 1.0824469906561226e-20
5.529022354014368 1.180946928548305e-24 1.733197922632997e-16 1.7330863359553135e-16 1.11586677683115e-20
5.570647458961463 1.2382558918708728e-24 1.8309880546139042e-16 1.8308730451901154e-16 1.1500942378862919e-20
5.612585937458331 1.2989849156106236e-24 1.9352476320083847e-16 1.9351291175445415e-16 1.1851446384331898e-20
5.654840148729818 1.365744686057443e-24 2.0500256039034517e-16 2.049903488901774e-16 1.2211500167856952e-20
5.67608639626678 1.411229283611329e-24 2.1262582416353474e-16 2.1261342433984714e-16 1.2399823687564347e-20
5.686739436050992 1.4346746397871197e-24 2.1656395995878824e-16 2.165514651011526e-16 1.249485763568703e-20
5.6974124697621304 1.4586036689230106e-24 2.2058927659417171e-16 2.2057668611720084e-16 1.2590476970896767e-20
5.718818669136295 1.5079593778289161e-24 2.2891033543288964e-16 2.288975519491977e-16 1.278348369201074e-20
5.740305295436557 1.5623696821670822e-24 2.380609852592423e-16 2.38048005335159e-16 1.29799240833496e-20
5.7835210386641895 1.703557877394918e-24 2.6152827294306446e-16 2.6151488453165993e-16 1.3388411404657439e-20
5.827062130521658 1.866217725909017e-24 2.8865653358304003e-16 2.886427236828807e-16 1.3809900159353022e-20
5.8489554468988025 1.9803564157224848e-24 3.074617579377886e-16 3.0744772206946423e-16 1.403586832440631e-20
5.870931020387893 2.1028428115701532e-24 3.2770511563040705e-16 3.2769085069856315e-16 1.4264931843983223e-20
5.892989160043636 2.234349004080105e-24 3.4950716707150496e-16 3.494926699434403e-16 1.4497128064589818e-20
5.915130176081913 2.383919867577734e-24 3.7430479688492585e-16 3.742900592647147e-16 1.4737620211243842e-20
5.95966208400165 2.8021881038296165e-24 4.43290428136161e-16 4.4327515465642954e-16 1.527347973152437e-20
6.004529249263818 3.405127747168443e-24 5.427274743960189e-16 5.427116031109069e-16 1.58712851117838e-20
6.027089341400364 3.824282972772266e-24 6.118248072976901e-16 6.118085966959629e-16 1.6210601727004058e-20
6.049734195844842 4.319624181408933e-24 6.936680481943683e-16 6.936514789253721e-16 1.6569268996149782e-20
6.095279466722835 5.750545432814386e-24 9.304051266011854e-16 9.303876979393667e-16 1.742866181912152e-20
6.141167624020661 7.952769458190388e-24 1.2963992695240116e-15 1.2963807525577758e-15 1.8516966235366925e-20
6.164241091010745 9.359136394092688e-24 1.5313865403266701e-15 1.5313673539816839e-15 1.9186344986446396e-20
6.187401249150058 1.0961185656259261e-23 1.8002600639830524e-15 1.800240185421971e-15 1.987856108129532e-20
6.1990139391386085 1.1743430866853577e-23 1.9323555614094003e-15 1.9323353295674666e-15 2.0231841934342192e-20
6.204828454712694 1.2155487882105121e-23 2.0020347287358613e-15 2.002014317942189e-15 2.0410793671984114e-20
6.210648424152782 1.2456279918194057e-23 2.053500142684649e-15 2.0534795759041506e-15 2.0566780498130995e-20
6.233982942956859 1.3478179580664256e-23 2.230315390229323e-15 2.23029426415287e-15 2.1126076452166648e-20
6.239830258556775 1.3608795935952574e-23 2.254041515358397e-15 2.2540203003007964e-15 2.121505760051617e-20
6.245683058788269 1.3620095799010501e-23 2.2580291139641853e-15 2.2580078095926722e-15 2.1304371511863324e-20
6.257405133728602 1.3591961195212664e-23 2.2575939530545445e-15 2.2575724855868317e-15 2.146746771278487e-20
6.269149208991335 1.339089938094444e-23 2.2283724792496496e-15 2.228350919565121e-15 2.155968452988017e-20
6.280915325867298 1.288678029189083e-23 2.1485071135544653e-15 2.1484855498516483e-15 2.1563702816711768e-20
6.304513850009849 1.1643636062058955e-23 1.9485414949273515e-15 1.9485200034080944e-15 2.149151925716366e-20
6.32820103803542 1.0102788474321949e-23 1.6970356306818427e-15 1.6970142968062857e-15 2.1333875557031257e-20
6.3519772230701035 8.689728504970676e-24 1.4651583789749362e-15 1.4651371755628981e-15 2.1203412037912922e-20
6.375842739491607 7.500941433772783e-24 1.2694710584983247e-15 1.2694499579666246e-15 2.1100531700093718e-20
6.399797922933955 6.5481720500679846e-24 1.1123866699219534e-15 1.112365568177434e-15 2.110174451930183e-20
6.42384311029221 5.756027754078722e-24 9.814930710225822e-16 9.81471946985151e-16 2.1124037431306385e-20
6.447978639727206 5.178768090299177e-24 8.863790577271537e-16 8.863578285940482e-16 2.122913310598268e-20
6.472204850670314 4.697881904974643e-24 8.070933759976986e-16 8.0707202421911e-16 2.1351778588247493e-20
6.496522083828205 4.3853342974731476e-24 7.562285298126019e-16 7.562069868380865e-16 2.154297451528782e-20
6.520930681187647 4.122043828900114e-24 7.13496130058634e-16 7.134743836091729e-16 2.1746449461419866e-20
6.57002334288761 3.852714205866745e-24 6.718976775036669e-16 6.718754233458007e-16 2.2254157866043803e-20
