Dust emission spectrum from A.P. Jones, M. Kohler, N. Ysard, M. Bocchio, and L. Verstraete (2017), A&A, 602A, 46J 
inside the DustPedia framework.

lambda    nu*dP/dnu     j_nu    j_nu(carb.) j_nu(sil)
 (um)   (erg s-1 H-1) (Jy cm2 sr-1 H-1)
0.9927057738263894 2.225909229335623e-21 5.865397248419597e-14 5.865396029414457e-14 1.219005138474302e-20
1.0001793341362166 2.263306937083325e-21 6.008841721486781e-14 6.008840254652606e-14 1.4668341738214866e-20
1.0077091589558085 2.30085959847374e-21 6.154528074865562e-14 6.154526312174829e-14 1.7626907362323256e-20
1.0114953028030835 2.3196924563268133e-21 6.228216683604938e-14 6.228214752278203e-14 1.9313267355807608e-20
1.0152956718711033 2.3385621881172537e-21 6.302471511196307e-14 6.302469395808463e-14 2.115387842754445e-20
1.0229392996569957 2.3763915315867336e-21 6.452637874278277e-14 6.452635338986254e-14 2.5352920244342872e-20
1.0267826658714554 2.395308274165938e-21 6.528439383420189e-14 6.528436609175935e-14 2.7742442559621134e-20
1.0306404723013447 2.41425869022039e-21 6.60481152653214e-14 6.604808491829632e-14 3.034702504896248e-20
1.03451277320114 2.4332422640907484e-21 6.681756451621938e-14 6.681753133118192e-14 3.318503744740326e-20
1.0383996230291617 2.4522584997403733e-21 6.759276359529969e-14 6.759272731897169e-14 3.627632800153897e-20
1.0403485208654093 2.461778716215439e-21 6.798252634832292e-14 6.798248842473632e-14 3.792358663895436e-20
1.0423010764483396 2.4713069212791177e-21 6.837373506299604e-14 6.837369542066144e-14 3.9642334607798397e-20
1.0462171883269815 2.4903870734872723e-21 6.916050205591193e-14 6.916045874970827e-14 4.3306203661727333e-20
1.0471985131304309 2.495162018120887e-21 6.935810212312182e-14 6.935805785152457e-14 4.4271597270756014e-20
1.048180758391296 2.4999389121172484e-21 6.955606626810181e-14 6.955602101053369e-14 4.5257568111838463e-20
1.0501480137395462 2.5094985223395598e-21 6.995308831139867e-14 6.995304101848157e-14 4.729291710390397e-20
1.0521189612883777 2.519065853298634e-21 7.035157125094284e-14 7.03515218352604e-14 4.9415682455127514e-20
1.0531058218030118 2.523846089355972e-21 7.055118515981199e-14 7.055113464878355e-14 5.051102844135525e-20
1.0540936079674168 2.528607567689618e-21 7.075058679689013e-14 7.075053516706467e-14 5.162982546409611e-20
1.058054026499678 2.5476716480931694e-21 7.155182763750671e-14 7.155177129085497e-14 5.634665173779829e-20
1.0590464539527713 2.5524421817293542e-21 7.175304839795574e-14 7.175299080923793e-14 5.758871781375565e-20
1.06003981227728 2.5572145098060907e-21 7.195463417898445e-14 7.195457532204412e-14 5.885694032557377e-20
1.0620293250338977 2.5667645280711484e-21 7.235890242596513e-14 7.235884095200818e-14 6.147395693788788e-20
1.0660195594769086 2.5858858698038745e-21 7.317183718123122e-14 7.31717701356765e-14 6.70455547079165e-20
1.070024785945596 2.6050353594973392e-21 7.399065865746189e-14 7.399058555958636e-14 7.309787554849012e-20
1.0740450607676866 2.624212707902981e-21 7.481539437131083e-14 7.481531470115558e-14 7.967015526710882e-20
1.07808044048254 2.643417650836841e-21 7.564607262969012e-14 7.564598582505422e-14 8.680463589333746e-20
1.0861967418109137 2.681880121640585e-21 7.732453020001182e-14 7.732442725450259e-14 1.0294550922189356e-19
1.0902777775684922 2.701070704112239e-21 7.817043808537843e-14 7.817032603193425e-14 1.120534441840489e-19
1.0943741465085532 2.7202869411478846e-21 7.902235612848224e-14 7.902223420136865e-14 1.2192711361399534e-19
1.1026131145906286 2.758795905045239e-21 8.074435310049674e-14 8.074420888121101e-14 1.4421928570954288e-19
1.1109141095355224 2.7974063521983065e-21 8.249079184005597e-14 8.249062147570411e-14 1.7036435185411994e-19
1.1192775983109025 2.8360880164541998e-21 8.426106607896612e-14 8.4260865091601e-14 2.0098736512122342e-19
1.1277040513999907 2.874702959258814e-21 8.605132260100634e-14 8.605108579329175e-14 2.3680771460498367e-19
1.1361939428280308 2.913415825605478e-21 8.786671249188389e-14 8.786643383965551e-14 2.786522283869598e-19
1.1447477501889525 2.952227973744668e-21 8.970757622168476e-14 8.970724875176533e-14 3.274699194165169e-19
1.1533659546722406 2.9911548959988494e-21 9.157469146815401e-14 9.15743071190413e-14 3.843491127163076e-19
1.1707974979042381 3.0694746551084384e-21 9.539272837002837e-14 9.539220091206701e-14 5.274579613461087e-19
1.1884924949847024 3.148283611504964e-21 9.932068938053958e-14 9.931996916153005e-14 7.2021900952354735e-19
1.2064549276569216 3.228121723753206e-21 1.0337855015995733e-13 1.0337757159952247e-13 9.78560434876055e-19
1.2246888378427687 3.3084952701176197e-21 1.0755378801710936e-13 1.0755246497562239e-13 1.3230414869422279e-18
1.2431983285522175 3.3893575056762256e-21 1.1184774453649542e-13 1.1184596443165144e-13 1.7801048439426313e-18
1.2619875648066055 3.4708475785019045e-21 1.1626795951616475e-13 1.1626557592880482e-13 2.3835873599401503e-18
1.3004222497298317 3.635322729873935e-21 1.2548643934267264e-13 1.2548222593589926e-13 4.213406773379258e-18
1.3400274889804893 3.80265465464078e-21 1.3526020036705502e-13 1.3525288918645659e-13 7.311180598415944e-18
1.3808389325824078 3.9737720568082304e-21 1.4565164971269805e-13 1.4563919028494192e-13 1.2459427756126691e-17
1.4228933163050095 4.150497875084395e-21 1.5676242327112392e-13 1.5674156007716854e-13 2.086319395534115e-17
1.466228494730424 4.33634389170186e-21 1.68769826843485e-13 1.687354826575681e-13 3.434418591690245e-17
1.5108834753276823 4.531697710333926e-21 1.817445249576026e-13 1.8168892083060343e-13 5.560412699912248e-17
1.5568984535646726 4.7373526493576226e-21 1.9577869765778315e-13 1.9569006340290665e-13 8.863425487650717e-17
1.6043148490894465 4.955625591821875e-21 2.1103647461844852e-13 2.1089711047638272e-13 1.3936414206568004e-16
1.6531753430134553 5.1892025523735005e-21 2.277136031517383e-13 2.274977104743218e-13 2.158926774163983e-16
1.7035239163302658 5.441339278218639e-21 2.4605005931526536e-13 2.45720477523449e-13 3.295817918163497e-16
1.755405889504358 5.718325518474009e-21 2.6645008204923645e-13 2.659540116580101e-13 4.960703912263539e-16
1.8088679632656115 6.02295796855441e-21 2.8919190529962394e-13 2.884554764352156e-13 7.364288644083161e-16
1.8639582606462262 6.358478243845595e-21 3.146000633410139e-13 3.1352137232304926e-13 1.0786910179646795e-15
1.9207263702978936 6.7295916748778035e-21 3.431023129649646e-13 3.4154274620060814e-13 1.5595667643563585e-15
1.979223391128241 7.142065624428141e-21 3.7522181889075806e-13 3.7299534585093593e-13 2.2264730398221276e-15
2.039501978296691 7.60220914645947e-21 4.1156020738433784e-13 4.0842049278387493e-13 3.13971460046295e-15
2.1016163906111602 8.119189875256179e-21 4.529346832625961e-13 4.485594698805531e-13 4.375213382043036e-15
2.1656225393682647 8.701344986679136e-21 5.001941216998352e-13 4.941672546772798e-13 6.026867022555261e-15
2.231578038680979 9.355352099761833e-21 5.5416826159053e-13 5.459590783897669e-13 8.209183200763157e-15
2.299542257339062 1.0089713064056762e-20 6.158708425139497e-13 6.048108603679262e-13 1.1059982146023702e-14
2.369576372248914 1.0914334294608175e-20 6.864950267919963e-13 6.717518009902265e-13 1.4743225801769773e-14
2.4417434235010123 1.1839818754642505e-20 7.673871346837066e-13 7.47936139273077e-13 1.9450995410629493e-14
2.5161083711144245 1.2878848769305923e-20 8.601532194476736e-13 8.347470474182416e-13 2.540617202943198e-14
2.5927381535095444 1.4046291008315003e-20 9.666956257888696e-13 9.338318583826279e-13 3.286376740624178e-14
2.6717017477616296 1.535615712272641e-20 1.0890302786280467e-12 1.0469203703676227e-12 4.210990826042395e-14
2.753070231689431 1.682400505034391e-20 1.2294648406782544e-12 1.1760032186766831e-12 5.3461622001570987e-14
2.836916847834745 1.8476149620410913e-20 1.391321544040766e-12 1.3240537665446494e-12 6.726777749611658e-14
2.9233170693905177 2.035752921687832e-20 1.5796847379619104e-12 1.495795604200142e-12 8.388913376176869e-14
2.967498994190263 2.1409021988517257e-20 1.6863854313642626e-12 1.5931973427056483e-12 9.318808865861447e-14
3.0123486681368425 2.252803685589255e-20 1.8013496497003302e-12 1.697965898377075e-12 1.0338375132325537e-13
3.0578761833420214 2.3948126280035828e-20 1.943841585628599e-12 1.829260205234973e-12 1.1458138039362522e-13
3.1040917844459814 2.5518025298880432e-20 2.1025728446876753e-12 1.9758340569016614e-12 1.2673878778601368e-13
3.127460860933648 2.6640216503638014e-20 2.2115617316890317e-12 2.078324657523589e-12 1.332370741654425e-13
3.1510058709225794 2.7960506903414187e-20 2.3386416823495114e-12 2.1986391338964554e-12 1.4000254845305577e-13
3.162844764501044 2.89827389909861e-20 2.4332500200529474e-12 2.289749418481555e-12 1.435006015713922e-13
3.1747281389236908 3.011160722746343e-20 2.5375225554539004e-12 2.390454947786143e-12 1.4706760766775675e-13
3.1986289994194426 3.301428220412333e-20 2.803077869756879e-12 2.6486475040271924e-12 1.5443036572968617e-13
3.2227097969389145 3.9142488426787225e-20 3.3484133456220006e-12 3.1861893373428448e-12 1.622240082791566e-13
3.2348180950136065 4.4689069550212216e-20 3.837254546945758e-12 3.670873456883193e-12 1.66381090062564e-13
3.240889293275058 4.877479954178914e-20 4.1959385790881515e-12 4.027364725300882e-12 1.6857385378726962e-13
3.2469718861334385 5.349037210570132e-20 4.610240487686509e-12 4.439397777829011e-12 1.708427098574974e-13
3.2714166318528037 7.804128435344095e-20 6.77687848527507e-12 6.596666408989862e-12 1.8021207628520962e-13
3.2744851364798273 7.960534927972333e-20 6.919181273348493e-12 6.737866919716485e-12 1.8131435363200724e-13
3.2775565192852394 8.12094911185361e-20 7.065231746221152e-12 6.882809777889864e-12 1.8242196833128843e-13
3.283707930232385 7.984852361332501e-20 6.959865475041742e-12 6.7754665397428134e-12 1.843989352989309e-13
3.2898708863219004 7.525676190926273e-20 6.571943407714827e-12 6.385748820197317e-12 1.8619458751751098e-13
3.29141343181113 7.417298063067132e-20 6.4803371537032494e-12 6.293691757498122e-12 1.866453962051275e-13
3.292184975758714 7.364031404030608e-20 6.435307349331498e-12 6.248436264177756e-12 1.8687108515374247e-13
3.295272960557952 7.029086891270952e-20 6.148366389042383e-12 5.96061807747279e-12 1.8774831156959396e-13
3.3076538914384823 5.862304393731056e-20 5.1470437200931856e-12 4.955773789165237e-12 1.9126993092794703e-13
3.310756385682612 5.623205663540047e-20 4.9417483524221455e-12 4.749591126852517e-12 1.9215722556962985e-13
3.313861789986515 5.401989214085755e-20 4.751793260802904e-12 4.558745981682759e-12 1.9304727912014471e-13
3.3200813396944477 5.097229834668478e-20 4.492130591432733e-12 4.297167264228261e-12 1.9496332720447108e-13
3.345076488085796 4.5973706189006376e-20 4.0821128045119555e-12 3.878606423282464e-12 2.035063812294909e-13
3.3482140837626964 4.627039179338194e-20 4.112309838840201e-12 3.907645980413081e-12 2.046638584271194e-13
3.3513546224236106 4.656931876417419e-20 4.1427593195064524e-12 3.936932958204859e-12 2.0582636130159413e-13
3.3576445397418455 4.831138288147764e-20 4.305797679215209e-12 4.097540173075976e-12 2.0825750613923157e-13
3.3702598118196083 5.438523918615721e-20 4.8653474232277964e-12 4.651990805305257e-12 2.1335661792253914e-13
3.382922481734668 5.605815423860973e-20 5.033850037596893e-12 4.815542842934518e-12 2.18307194662377e-13
3.389271646505754 5.691700325524611e-20 5.120564458019304e-12 4.8997490991708244e-12 2.2081535884848031e-13
3.395632727569191 5.785290997976511e-20 5.214532186360403e-12 4.991132011184701e-12 2.2340017517570153e-13
3.421196662673239 6.228875013821808e-20 5.656621102155717e-12 5.4225271258024895e-12 2.3409397635322804e-13
3.4276182099114902 6.1735301412879e-20 5.616883902246205e-12 5.380409632672019e-12 2.364742695741852e-13
3.4340518103208963 5.873674401679033e-20 5.354095885455796e-12 5.115373291823075e-12 2.3872259363272175e-13
3.4469541582030403 5.450147037838778e-20 4.986699058609931e-12 4.743667213046097e-12 2.4303184556383394e-13
3.472904465399547 5.381168561546929e-20 4.960653193722996e-12 4.707685438829547e-12 2.529677548934502e-13
3.4990501388274233 5.2492446594175824e-20 4.875469161346916e-12 4.6123475914361414e-12 2.631215699107749e-13
3.5253949054701885 4.637853092432381e-20 4.340044610198177e-12 4.0670807345082805e-12 2.7296387568989644e-13
3.5519380250092896 4.0581805205846704e-20 3.826186847286822e-12 3.543348365723996e-12 2.828384815628267e-13
3.578680990867387 3.87056639879994e-20 3.676774047724989e-12 3.3831150569692646e-12 2.9365899075572347e-13
3.605625307711299 3.837558005071177e-20 3.672865115564646e-12 3.3678209292958375e-12 3.0504418626881055e-13
3.660119384959845 3.905147531980378e-20 3.794041963756101e-12 3.4651281118781883e-12 3.289138518779126e-13
3.715437065384467 3.9954064781372893e-20 3.940400012874166e-12 3.5863955040192528e-12 3.540045088549135e-13
3.8285932144167436 4.2638109545880456e-20 4.333178697059672e-12 3.925503384392971e-12 4.0767531266670164e-13
3.94519561050918 4.561800246093013e-20 4.777208964558715e-12 4.3113916023206096e-12 4.658173622381051e-13
4.06534921144712 4.8745914866984617e-20 5.260239473292978e-12 4.731969943355844e-12 5.282695299371348e-13
4.189162171576248 5.1964331748629296e-20 5.7783248401827005e-12 5.183271675447677e-12 5.950531647350217e-13
4.316745939156006 5.523340097730432e-20 6.3288923363675314e-12 5.6630839428051e-12 6.658083935624297e-13
4.448215356677963 5.851558305291037e-20 6.909184258339062e-12 6.169759013378988e-12 7.394252449600738e-13
4.58368876423945 6.178784488583683e-20 7.517745194627671e-12 6.701855060045223e-12 8.158901345824493e-13
4.723288106065518 6.503304387923854e-20 8.153572772880008e-12 7.257988774669444e-12 8.955839982105625e-13
4.867139040275056 6.821676219645802e-20 8.813213448012933e-12 7.83702896235948e-12 9.76184485653455e-13
4.940699165968905 6.979251959997328e-20 9.15306868220595e-12 8.136018381456621e-12 1.01705030074933e-12
5.015371051989984 7.133572018637355e-20 9.496849422814e-12 8.438702610443019e-12 1.05814681237098e-12
5.091171501069577 7.288822103863637e-20 9.850187798949765e-12 8.749790482945231e-12 1.1003973160045355e-12
5.129500256944802 7.36496356108175e-20 1.0028017690376695e-11 8.906463723753028e-12 1.1215539666236673e-12
5.168117569889187 7.440560231303963e-20 1.0207219511451106e-11 9.064264964690389e-12 1.142954546760717e-12
5.20702561229733 7.519373192428548e-20 1.039299663507714e-11 9.226565123460236e-12 1.166431511616904e-12
5.246226572918644 7.597190730964363e-20 1.0579606277518461e-11 9.389619592549453e-12 1.1899866849690084e-12
5.265937586045735 7.635715092501777e-20 1.0673205119189882e-11 9.47141521592176e-12 1.2017899032681197e-12
5.285722656980489 7.67397738203186e-20 1.0766990249505838e-11 9.553382031668929e-12 1.213608217836909e-12
5.305582063971359 7.711973335279308e-20 1.0860954360030638e-11 9.635514236734185e-12 1.2254401232964526e-12
5.3255160863122235 7.750314736895223e-20 1.0955960890443873e-11 9.718573350372734e-12 1.2373875400711403e-12
5.365609099470188 7.83092103650089e-20 1.1153246677864031e-11 9.891132114887954e-12 1.2621145629760753e-12
5.406003951863644 7.910615016168913e-20 1.1351572865511037e-11 1.006465811133135e-11 1.2869147541796868e-12
5.446702915881641 7.98937693606691e-20 1.155090554139042e-11 1.0239129508870556e-11 1.3117760325198642e-12
5.487708281020852 8.068310662221875e-20 1.1752846440220652e-11 1.0416043647953279e-11 1.3368027922673714e-12
5.529022354014368 8.156192326863412e-20 1.1970305570710181e-11 1.0607416302973607e-11 1.3628892677365723e-12
5.570647458961463 8.243702788409677e-20 1.2189823953560876e-11 1.0800777869845611e-11 1.389046083715266e-12
5.612585937458331 8.330880490333399e-20 1.2411473411054836e-11 1.0996212470265731e-11 1.4152609407891055e-12
5.654840148729818 8.419427729930116e-20 1.2637825058208206e-11 1.1196161140486423e-11 1.4416639177217868e-12
5.67608639626678 8.470916021294666e-20 1.2762883546738573e-11 1.1307385183296634e-11 1.4554983634419377e-12
5.686739436050992 8.496763609703889e-20 1.2825854191053653e-11 1.1363431086957625e-11 1.4624231040960295e-12
5.6974124697621304 8.522684506577128e-20 1.2889127115211147e-11 1.1419774518946606e-11 1.4693525962645395e-12
5.718818669136295 8.574759869551368e-20 1.3016605001797188e-11 1.1533379951150399e-11 1.4832250506467887e-12
5.740305295436557 8.629212569700941e-20 1.314848124488092e-11 1.1651254336036069e-11 1.497226908844852e-12
5.7835210386641895 8.755984301652402e-20 1.34420877782533e-11 1.1915934964031751e-11 1.5261528142215512e-12
5.827062130521658 8.890775030266295e-20 1.3751773254930677e-11 1.2196331266503965e-11 1.5554419884267103e-12
5.8489554468988025 8.977395865790091e-20 1.3937924974945801e-11 1.2366600749005662e-11 1.5713242259401425e-12
5.870931020387893 9.066767622489265e-20 1.4129568390817176e-11 1.2542319818754786e-11 1.587248572062387e-12
5.892989160043636 9.15912715317821e-20 1.4327128744477229e-11 1.272391529201062e-11 1.6032134524666095e-12
5.915130176081913 9.260409424481882e-20 1.4539983981189412e-11 1.2920200231397437e-11 1.6197837497919788e-12
5.95966208400165 9.528963895064717e-20 1.5074285980175222e-11 1.3416361284300069e-11 1.6579246958751538e-12
6.004529249263818 9.892569914480034e-20 1.5767307083960044e-11 1.4066246670925394e-11 1.7010604130346491e-12
6.027089341400364 1.0136986463486355e-19 1.6217575513524015e-11 1.4491400061323516e-11 1.726175452200497e-12
6.049734195844842 1.0417310277813804e-19 1.6728666625551848e-11 1.497584635103243e-11 1.75282027451942e-12
6.095279466722835 1.1206678252066045e-19 1.8131759882104407e-11 1.63127967928774e-11 1.81896308922701e-12
6.141167624020661 1.2379154562532644e-19 2.0179545020840913e-11 1.8273933323086573e-11 1.9056116977543377e-12
6.164241091010745 1.3121503586028561e-19 2.1470030069414618e-11 1.9509648906668494e-11 1.9603811627461222e-12
6.187401249150058 1.3941905152774685e-19 2.2898120558743812e-11 2.0881574908032594e-11 2.0165456507112185e-12
6.1990139391386085 1.4339523605648674e-19 2.3595368765312698e-11 2.1550258954984033e-11 2.0451098103286657e-12
6.204828454712694 1.4546839626110953e-19 2.395895451280025e-11 2.189942527745837e-11 2.0595292353418783e-12
6.210648424152782 1.4697274996860595e-19 2.4229430055634498e-11 2.2157701255379737e-11 2.0717288002547674e-12
6.233982942956859 1.5198090721239116e-19 2.5149194247499792e-11 2.3035295243957567e-11 2.113899003542223e-12
6.239830258556775 1.5256494468988173e-19 2.526951838632887e-11 2.3150041741960866e-11 2.1194766443679985e-12
6.245683058788269 1.525525775455687e-19 2.5291170237818637e-11 2.3166109879119466e-11 2.1250603586991762e-12
6.257405133728602 1.5226493932821772e-19 2.529086136669352e-11 2.3156187764101454e-11 2.1346736025920653e-12
6.269149208991335 1.5109047318463612e-19 2.5142885682537666e-11 2.300545480189589e-11 2.137430880641774e-12
6.280915325867298 1.4838272147157894e-19 2.47386333427961e-11 2.2606912608784214e-11 2.1317207340118894e-12
6.304513850009849 1.4179918191493514e-19 2.3729837349377307e-11 2.1617182300585816e-11 2.1126550487914935e-12
6.32820103803542 1.3386012599860436e-19 2.2485416172433397e-11 2.0399959626747778e-11 2.0854565456856237e-12
6.3519772230701035 1.2665821533195508e-19 2.1355597629255507e-11 1.9294735450913166e-11 2.0608621783423442e-12
6.375842739491607 1.2054262799991856e-19 2.0400822871677658e-11 1.8361875473211667e-11 2.038947398465986e-12
6.399797922933955 1.1580727171112528e-19 1.9673042239344946e-11 1.7646390947204134e-11 2.0266512921408136e-12
6.42384311029221 1.118314947376538e-19 1.9069025011098733e-11 1.705274503396124e-11 2.016279977137485e-12
6.447978639727206 1.0901448172250197e-19 1.8658521081260297e-11 1.664513374360567e-11 2.013387337654625e-12
6.472204850670314 1.0665619272607477e-19 1.832347181124246e-11 1.6311499365286573e-11 2.0119724459558847e-12
6.496522083828205 1.0518361085570451e-19 1.813837714575677e-11 1.612177975006079e-11 2.0165973956959808e-12
