Dust emission spectrum from A.P. Jones, M. Kohler, N. Ysard, M. Bocchio, and L. Verstraete (2017), A&A, 602A, 46J 
inside the DustPedia framework.

lambda    nu*dP/dnu     j_nu    j_nu(carb.) j_nu(sil)
 (um)   (erg s-1 H-1) (Jy cm2 sr-1 H-1)
0.9927057738263894 2.4159157848299325e-24 6.366075314304004e-17 6.366075098122017e-17 2.161819847763306e-24
1.0001793341362166 2.456152205533297e-24 6.520825613670137e-17 6.520825353375206e-17 2.6029492890926205e-24
1.0077091589558085 2.4963997363272513e-24 6.677574882667666e-17 6.677574569668784e-17 3.1299888350420633e-24
1.0114953028030835 2.5165236534821575e-24 6.75669507850305e-17 6.756694735445137e-17 3.430579145096706e-24
1.0152956718711033 2.5366455505600136e-24 6.836310104405816e-17 6.836309728525732e-17 3.758800838371823e-24
1.0229392996569957 2.576857319391351e-24 6.99696447942377e-17 6.996964028617487e-17 4.508062814770743e-24
1.0267826658714554 2.596899470828695e-24 7.07787843551974e-17 7.07787794204907e-17 4.9347066975395194e-24
1.0306404723013447 2.6169323273082052e-24 7.159276207464734e-17 7.15927566746967e-17 5.39995065096618e-24
1.03451277320114 2.636954358134721e-24 7.241155989735896e-17 7.241155399024599e-17 5.907112971312754e-24
1.0383996230291617 2.6569640456047265e-24 7.32351596027846e-17 7.323515314300351e-17 6.459781111041518e-24
1.0403485208654093 2.666963789954571e-24 7.364875442555536e-17 7.364874767117584e-17 6.754379536569278e-24
1.0423010764483396 2.676959885426428e-24 7.406354281793492e-17 7.406353575610281e-17 7.061832102359491e-24
1.0462171883269815 2.696940387134787e-24 7.489669103041165e-17 7.489668331295725e-17 7.71745441437617e-24
1.0471985131304309 2.701932942667535e-24 7.510572043273329e-17 7.510571254248043e-17 7.890252877122907e-24
1.048180758391296 2.706924424307887e-24 7.531504619064554e-17 7.531503812389096e-17 8.066754592212918e-24
1.0501480137395462 2.7169040745014768e-24 7.573458560159465e-17 7.573457717042332e-17 8.431171335515425e-24
1.0521189612883777 2.7268791554779255e-24 7.615530691589808e-17 7.615529810457161e-17 8.811326472851428e-24
1.0531058218030118 2.7318576062832136e-24 7.636590544247863e-17 7.63658964349589e-17 9.007519767433225e-24
1.0540936079674168 2.7368108658639267e-24 7.657612718801515e-17 7.657611798007947e-17 9.207935662506562e-24
1.058054026499678 2.7566103626596114e-24 7.741990993243261e-17 7.741989987930077e-17 1.0053131818749991e-23
1.0590464539527713 2.7615567404471668e-24 7.763157805077253e-17 7.763156777501415e-17 1.0275758377976847e-23
1.06003981227728 2.7665016754774502e-24 7.784353453775064e-17 7.784352403465097e-17 1.0503099665660139e-23
1.0620293250338977 2.7763871293870744e-24 7.826831140719897e-17 7.826830043489102e-17 1.0972307954263128e-23
1.0660195594769086 2.7961397610417123e-24 7.912131224354024e-17 7.912130027193925e-17 1.1971600959454103e-23
1.070024785945596 2.8158668691402632e-24 7.997889302340042e-17 7.997887996577377e-17 1.3057626665801295e-23
1.0740450607676866 2.835567082095384e-24 8.08410342935952e-17 8.084102005608054e-17 1.42375146896368e-23
1.07808044048254 2.855239045584958e-24 8.170771658011379e-17 8.170770106116819e-17 1.5518945610149052e-23
1.0861967418109137 2.894459656507767e-24 8.345366793853481e-17 8.34536495183787e-17 1.8420156091842496e-23
1.0902777775684922 2.9139300976153763e-24 8.433070335181355e-17 8.433068329338593e-17 2.005842764129981e-23
1.0943741465085532 2.9333657270639314e-24 8.521213980511796e-17 8.52121179698093e-17 2.1835308654207675e-23
1.1026131145906286 2.9721275538206365e-24 8.698813718931986e-17 8.698811133924839e-17 2.5850071489257724e-23
1.1109141095355224 3.0107353406756197e-24 8.878150365176783e-17 8.878147308831185e-17 3.056345597158933e-23
1.1192775983109025 3.0491456498831238e-24 9.059107531169356e-17 9.059103922197096e-17 3.60897225990603e-23
1.1277040513999907 3.08719327389794e-24 9.241200503454558e-17 9.241196247399694e-17 4.256054865628971e-23
1.1361939428280308 3.125054521021776e-24 9.424959688444623e-17 9.424954675697985e-17 5.012746638936755e-23
1.1447477501889525 3.1627210286575265e-24 9.610370210886655e-17 9.610364314423485e-17 5.896463165113182e-23
1.1533659546722406 3.2002029263267547e-24 9.797473076565433e-17 9.797466149362488e-17 6.927202947426388e-23
1.1707974979042381 3.2747315276361313e-24 1.0177167437452764e-16 1.0177157912611676e-16 9.524841090079117e-23
1.1884924949847024 3.348420680489587e-24 1.056345270505363e-16 1.056343967368575e-16 1.3031367880045445e-22
1.2064549276569216 3.42181990360764e-24 1.0958161148030081e-16 1.0958143406733414e-16 1.7741296670199132e-22
1.2246888378427687 3.49424501774798e-24 1.1359220951987217e-16 1.135919691615735e-16 2.4035829871044754e-22
1.2431983285522175 3.5655688260767295e-24 1.1766266335682858e-16 1.1766233929025651e-16 3.240665720598814e-22
1.2619875648066055 3.6358153078195906e-24 1.2179412015559603e-16 1.2179368530818637e-16 4.348474096495938e-22
1.3004222497298317 3.7722025203533765e-24 1.3021134516302383e-16 1.3021057316876006e-16 7.719942637567476e-22
1.3400274889804893 3.903285459100653e-24 1.3883963210896433e-16 1.3883828657751803e-16 1.3455314462908265e-21
1.3808389325824078 4.029045087245834e-24 1.476775857635755e-16 1.4767528231682966e-16 2.303446745860998e-21
1.4228933163050095 4.1503882403634415e-24 1.5675828241741225e-16 1.5675440733626924e-16 3.875081142985483e-21
1.466228494730424 4.269997071626431e-24 1.661876189708175e-16 1.6618120956029413e-16 6.409410523421428e-21
1.5108834753276823 4.3867824875079246e-24 1.7593267473829568e-16 1.759222472223084e-16 1.0427515987289163e-20
1.5568984535646726 4.500010486896171e-24 1.8597015206169245e-16 1.8595344794309715e-16 1.6704118595326407e-20
1.6043148490894465 4.61048672763546e-24 1.9633865538208056e-16 1.9631225871153144e-16 2.6396670549206573e-20
1.6531753430134553 4.7191724504399475e-24 2.0708765012315342e-16 2.0704654919238253e-16 4.1100930770976646e-20
1.7035239163302658 4.8275085185386795e-24 2.1829345618754545e-16 2.1823038456947145e-16 6.30716180740755e-20
1.755405889504358 4.939956397280733e-24 2.30181332476217e-16 2.3008589629442915e-16 9.543618178784235e-20
1.8088679632656115 5.056753887086513e-24 2.4279968395476234e-16 2.426572405330608e-16 1.4244342170152896e-19
1.8639582606462262 5.178466927329201e-24 2.5621633995901007e-16 2.5600654545617324e-16 2.0979450283685007e-19
1.9207263702978936 5.3068345017075495e-24 2.705642897852636e-16 2.702592676006298e-16 3.0502218463381634e-19
1.979223391128241 5.4443221805125425e-24 2.860276814332382e-16 2.855897345312522e-16 4.379469019859609e-19
2.039501978296691 5.593700705508916e-24 3.0282574157767404e-16 3.022045599711024e-16 6.211816065716593e-19
2.1016163906111602 5.760175344231494e-24 3.2133540847807654e-16 3.20464642194157e-16 8.707662839196312e-19
2.1656225393682647 5.947697110782699e-24 3.4190152637540775e-16 3.4069477042787436e-16 1.206755947533388e-18
2.231578038680979 6.15842307521849e-24 3.6479681078168283e-16 3.6314292028409163e-16 1.6538904975911954e-18
2.299542257339062 6.395841566248089e-24 3.903988457335966e-16 3.881565348268769e-16 2.2423109067196998e-18
2.369576372248914 6.66493636790676e-24 4.192143603951579e-16 4.162060227513395e-16 3.008337643818421e-18
2.4417434235010123 6.971316395298163e-24 4.518395614344802e-16 4.478444473898166e-16 3.995114044663581e-18
2.5161083711144245 7.322894718021617e-24 4.890818721619417e-16 4.838284386142942e-16 5.253433547647255e-18
2.5927381535095444 7.73078423046648e-24 5.32049015294182e-16 5.252066778141515e-16 6.842337480030466e-18
2.6717017477616296 8.207130924216574e-24 5.820345549804826e-16 5.732053043931841e-16 8.829250587298514e-18
2.753070231689431 8.768417494912922e-24 6.4077851772656e-16 6.2948818790452e-16 1.1290329822039967e-17
2.836916847834745 9.448552163930526e-24 7.115104854502238e-16 6.971994120442167e-16 1.4311073406007344e-17
2.9233170693905177 1.0317426975605508e-23 8.006021631980623e-16 7.826192440119555e-16 1.7982919186106858e-17
2.967498994190263 1.0886325529510608e-23 8.57514219187693e-16 8.374560334112477e-16 2.0058185776445488e-17
3.0123486681368425 1.1516823928869127e-23 9.208892404888977e-16 8.985460379272144e-16 2.2343202561683197e-17
3.0578761833420214 1.2581124351242468e-23 1.0211952460054066e-15 9.963326510844742e-16 2.486259492093246e-17
3.1040917844459814 1.3870031147719664e-23 1.142829451127124e-15 1.1152169494275737e-15 2.761250169955048e-17
3.127460860933648 1.5061092153817583e-23 1.2503102232775117e-15 1.221222082034138e-15 2.908814124337403e-17
3.1510058709225794 1.6591297067215782e-23 1.3877108530137601e-15 1.3570821686223918e-15 3.062868439136801e-17
3.162844764501044 1.795006059777293e-23 1.5069999189195525e-15 1.4755730770709948e-15 3.142684184855774e-17
3.1747281389236908 1.9509598166270928e-23 1.6440851204250007e-15 1.6118432450248838e-15 3.224187540011664e-17
3.1986289994194426 2.3777342391295354e-23 2.0188154280194483e-15 1.984887721329666e-15 3.39277066897821e-17
3.2227097969389145 3.360716915442303e-23 2.8748988178338598e-15 2.8391822396383535e-15 3.5716578195506216e-17
3.2348180950136065 4.2841802761723803e-23 3.678637843691631e-15 3.641965979489459e-15 3.667186420217249e-17
3.240889293275058 4.9726959401202055e-23 4.27784981860328e-15 4.240674053260776e-15 3.7175765342503615e-17
3.2469718861334385 5.7690458683742e-23 4.972238515212063e-15 4.934541345309633e-15 3.7697169902431926e-17
3.2714166318528037 9.995038827633724e-23 8.679401441385096e-15 8.639547502186577e-15 3.985393919851636e-17
3.2744851364798273 1.0260393891321015e-22 8.918185261714662e-15 8.878076568229077e-15 4.010869348558431e-17
3.2775565192852394 1.0533197869940759e-22 9.16388995361506e-15 9.12352517783786e-15 4.0364775777203077e-17
3.283707930232385 1.0277600745461324e-22 8.958301964478977e-15 8.917478049164809e-15 4.082391531417112e-17
3.2898708863219004 9.456626861637341e-23 8.258183714772233e-15 8.216940866567444e-15 4.124284820479034e-17
3.29141343181113 9.262958798434477e-23 8.092852079601543e-15 8.051504006336118e-15 4.13480732654255e-17
3.292184975758714 9.167788045007013e-23 8.011580959697637e-15 7.97018020000703e-15 4.1400759690608294e-17
3.295272960557952 8.567698357632135e-23 7.494195110738527e-15 7.452589205342755e-15 4.1605905395772044e-17
3.3076538914384823 6.485595330383032e-23 5.694286832326693e-15 5.651856401725755e-15 4.2430430600939055e-17
3.310756385682612 6.061011043661165e-23 5.326497576503177e-15 5.2838592014133334e-15 4.2638375089842775e-17
3.313861789986515 5.668952784754924e-23 4.986624476807159e-15 4.9437774299537086e-15 4.28470468534514e-17
3.3200813396944477 5.1210395068764167e-23 4.51311378433681e-15 4.469818407873172e-15 4.329537646363772e-17
3.345076488085796 4.159015769165163e-23 3.6928872898953e-15 3.647595257340843e-15 4.529203255445616e-17
3.3482140837626964 4.198877544078577e-23 3.731778523446441e-15 3.686216062086982e-15 4.556246135945844e-17
3.3513546224236106 4.239145809815784e-23 3.771101076074005e-15 3.7252669058871905e-15 4.583417018681397e-17
3.3576445397418455 4.518196181631882e-23 4.026885067818731e-15 3.980483010598098e-15 4.640205722063336e-17
3.3702598118196083 5.535036431020337e-23 4.951688296333039e-15 4.904094946063601e-15 4.759335026943707e-17
3.382922481734668 5.777156757912695e-23 5.1877092918968e-15 5.138955810543393e-15 4.875348135340683e-17
3.389271646505754 5.902333884557815e-23 5.310061911217022e-15 5.26071996246318e-15 4.9341948753840087e-17
3.395632727569191 6.037707966381621e-23 5.442046481940751e-15 5.392098065995758e-15 4.9948415944993986e-17
3.421196662673239 6.686343682695382e-23 6.072061598261867e-15 6.0196002061395256e-15 5.246139212234086e-17
3.4276182099114902 6.568312562534366e-23 5.976070133792887e-15 5.923045508796387e-15 5.3024624996497515e-17
3.4340518103208963 6.029469511854218e-23 5.49610953846398e-15 5.44255101809584e-15 5.355852036814105e-17
3.4469541582030403 5.2630024630705906e-23 4.815468141656443e-15 4.760882481148086e-15 5.4585660508356834e-17
3.472904465399547 5.0658496423386524e-23 4.6699751029474576e-15 4.613026783847113e-15 5.694831910034644e-17
3.4990501388274233 4.7550085531409616e-23 4.416425422501031e-15 4.3570538413844834e-15 5.937158111654777e-17
3.5253949054701885 3.5980347583299494e-23 3.3669956872234124e-15 3.3052611449266373e-15 6.173454229677544e-17
3.5519380250092896 2.5074789561295735e-23 2.364134112104314e-15 2.3000174447342627e-15 6.411666737005143e-17
3.578680990867387 2.0897034894565356e-23 1.98507576561827e-15 1.9183470355592273e-15 6.672873005904222e-17
3.605625307711299 1.9358944712710506e-23 1.8528134979458192e-15 1.783329362717278e-15 6.948413522854082e-17
3.660119384959845 1.8564751608407037e-23 1.8036564834539206e-15 1.728363887055122e-15 7.529259639879917e-17
3.715437065384467 1.8156485091810892e-23 1.7906517016730652e-15 1.709207235757913e-15 8.144446591515165e-17
3.8285932144167436 1.876981584377391e-23 1.9075181106342535e-15 1.812751275719755e-15 9.476683491449884e-17
3.94519561050918 1.9821264089417118e-23 2.0757226399368845e-15 1.9662756283003574e-15 1.0944701163652629e-16
4.06534921144712 2.1086704214244317e-23 2.2754955809547797e-15 2.149989032591542e-15 1.2550654836323754e-16
4.189162171576248 2.2499268473589573e-23 2.501871524794726e-15 2.358857456157418e-15 1.4301406863730835e-16
4.316745939156006 2.4031223827792686e-23 2.7536060721617507e-15 2.5916561158261124e-15 1.6194995633563838e-16
4.448215356677963 2.5669111824624305e-23 3.0308614234241737e-15 2.8487562917818964e-15 1.821051316422768e-16
4.58368876423945 2.741071153321651e-23 3.3350693051506445e-15 3.1315225226109296e-15 2.0354678253971573e-16
4.723288106065518 2.926093780368625e-23 3.668614777252297e-15 3.4421647352027525e-15 2.264500420495425e-16
4.867139040275056 3.1226703007029075e-23 4.0343104834861804e-15 3.784011536476296e-15 2.502989470098851e-16
4.940699165968905 3.227269557765009e-23 4.232462173242253e-15 3.9698023894069205e-15 2.626597838353332e-16
5.015371051989984 3.3334488351423116e-23 4.437785384838435e-15 4.1625022338726165e-15 2.75283150965818e-16
5.091171501069577 3.44738749982299e-23 4.658834281468924e-15 4.370406922646041e-15 2.884273588228836e-16
5.129500256944802 3.504962540383624e-23 4.77230146049931e-15 4.477210170549468e-15 2.9509128994984077e-16
5.168117569889187 3.5634923400178875e-23 4.888522827744476e-15 4.586649303819888e-15 3.018735239245884e-16
5.20702561229733 3.62729222396379e-23 5.013507763659964e-15 4.704271838657482e-15 3.092359250024812e-16
5.246226572918644 3.691743338514822e-23 5.1410044031079066e-15 4.824323124540079e-15 3.166812785678283e-16
5.265937586045735 3.7242151356907464e-23 5.205709166683351e-15 4.885274652063011e-15 3.2043451462033913e-16
5.285722656980489 3.756852268809918e-23 5.271059547532861e-15 4.946851723841109e-15 3.24207823691752e-16
5.305582063971359 3.789655681225124e-23 5.3370616837754154e-15 5.009060707520344e-15 3.2800097625507176e-16
5.3255160863122235 3.8235188459651824e-23 5.4049834571042075e-15 5.073143089832955e-15 3.318403672712509e-16
5.365609099470188 3.898775166246494e-23 5.5528591040559846e-15 5.2130745606481195e-15 3.397845434078642e-16
5.406003951863644 3.9752960465422495e-23 5.7044695819562964e-15 5.356652197459364e-15 3.478173844969327e-16
5.446702915881641 4.0531273545106193e-23 5.859942720667964e-15 5.504005579107469e-15 3.5593714156049574e-16
5.487708281020852 4.134050789230277e-23 6.021937693772002e-15 5.657764667779485e-15 3.6417302599251773e-16
5.529022354014368 4.232047775696284e-23 6.211097413443475e-15 5.838331834925075e-15 3.7276557851840005e-16
5.570647458961463 4.3331253770758846e-23 6.407319243668634e-15 6.0258650429723e-15 3.814542006963354e-16
5.612585937458331 4.4374875606359326e-23 6.6110369647752985e-15 6.220799778555104e-15 3.902371862201934e-16
5.654840148729818 4.5480432758974916e-23 6.826755585017622e-15 6.42760395816755e-15 3.9915162685007154e-16
5.67608639626678 4.6167439710959083e-23 6.9559142742155124e-15 6.5521018347002744e-15 4.0381243951523985e-16
5.686739436050992 4.651772108395804e-23 7.021844261285041e-15 6.615691346710697e-15 4.061529145743432e-16
5.6974124697621304 4.6872659967187146e-23 7.088701594889626e-15 6.680201525906214e-15 4.0850006898341124e-16
5.718818669136295 4.759694325958379e-23 7.225282330097136e-15 6.812068015006911e-15 4.132143150902241e-16
5.740305295436557 4.8375060085645574e-23 7.370992024109355e-15 6.9530046994589226e-15 4.179873246504342e-16
5.7835210386641895 5.0283028421074235e-23 7.719393485720734e-15 7.291528110669936e-15 4.27865375050797e-16
5.827062130521658 5.2408377051632484e-23 8.106246254342301e-15 7.668306714431148e-15 4.379395399111538e-16
5.8489554468988025 5.383065455129064e-23 8.357519660542247e-15 7.914154037710984e-15 4.43365622831262e-16
5.870931020387893 5.533435371216448e-23 8.623255471976467e-15 8.174426080267785e-15 4.488293917086842e-16
5.892989160043636 5.692588386388572e-23 8.904609067776099e-15 8.450278340961319e-15 4.543307268147792e-16
5.915130176081913 5.87067845163188e-23 9.217688628299205e-15 8.757658805841306e-15 4.600298224578966e-16
5.95966208400165 6.354862565146558e-23 1.005303585223402e-14 9.580101649026687e-15 4.729342032073322e-16
6.004529249263818 7.033873106793799e-23 1.1210963199976049e-14 1.0723549353120419e-14 4.874138468556328e-16
6.027089341400364 7.498510516486696e-23 1.1996431185748383e-14 1.1500692114676632e-14 4.957390710717526e-16
6.049734195844842 8.041636532207136e-23 1.2913684346875752e-14 1.2409134017271656e-14 5.045503296040972e-16
6.095279466722835 9.592985357425725e-23 1.5520897730897188e-14 1.4994831671826592e-14 5.260660590705925e-16
6.141167624020661 1.195016189913727e-22 1.9480234197887088e-14 1.8926418956317637e-14 5.538152415694457e-16
6.164241091010745 1.3451335374779692e-22 2.2009716575302232e-14 2.143857046263966e-14 5.711461126625713e-16
6.187401249150058 1.5147069010382722e-22 2.487747610607785e-14 2.42885087477811e-14 5.88967358296747e-16
6.1990139391386085 1.5974535620745965e-22 2.62857448540093e-14 2.5687704282670514e-14 5.980405713387894e-16
6.204828454712694 1.6409157800076914e-22 2.702623218721154e-14 2.6423606180103868e-14 6.026260071076639e-16
6.210648424152782 1.6727348213114284e-22 2.757614004177427e-14 2.6969587125775976e-14 6.065529159982906e-16
6.233982942956859 1.780659180542349e-22 2.946563778400857e-14 2.884530773565947e-14 6.203300483491004e-16
6.239830258556775 1.794417968844394e-22 2.97211642875387e-14 2.909885797961544e-14 6.2230630792327e-16
6.245683058788269 1.7956882216053007e-22 2.9770101061124063e-14 2.9145814353689785e-14 6.242867074342896e-16
6.257405133728602 1.7928908322963247e-22 2.9779510427860535e-14 2.915171935485005e-14 6.277910730104805e-16
6.269149208991335 1.7719482983121012e-22 2.948689785714341e-14 2.8857636059587397e-14 6.292617975560149e-16
6.280915325867298 1.7192443140281168e-22 2.866354942787262e-14 2.8035334812377133e-14 6.282146154954759e-16
6.304513850009849 1.5892440612154552e-22 2.6595712733893062e-14 2.5971874537311255e-14 6.238381965818001e-16
6.32820103803542 1.4286864478572728e-22 2.3998639714653543e-14 2.3381606148007867e-14 6.170335666456815e-16
6.3519772230701035 1.281847541237968e-22 2.1612984393458524e-14 2.1001985521497183e-14 6.109988719613451e-16
6.375842739491607 1.1581224586275634e-22 1.9600245601239688e-14 1.8994495008761703e-14 6.057505924779907e-16
6.399797922933955 1.0600843882233968e-22 1.800844164502111e-14 1.740504548356024e-14 6.033961614608717e-16
6.42384311029221 9.78519465328126e-23 1.668529263778707e-14 1.608367556468895e-14 6.016170730981253e-16
6.447978639727206 9.198808503914768e-23 1.5744345125601993e-14 1.5142241854267473e-14 6.02103271334522e-16
6.472204850670314 8.711595059600756e-23 1.4966469590333387e-14 1.4363426743505777e-14 6.030428468276129e-16
6.496522083828205 8.403181365882761e-23 1.4490857615420104e-14 1.3885031808278207e-14 6.058258071418985e-16
6.520930681187647 8.145598785681574e-23 1.409944544947959e-14 1.3490549020090934e-14 6.088964293886523e-16
