Dust emission spectrum from A.P. Jones, M. Kohler, N. Ysard, M. Bocchio, and L. Verstraete (2017), A&A, 602A, 46J 
inside the DustPedia framework.

lambda    nu*dP/dnu     j_nu    j_nu(carb.) j_nu(sil)
 (um)   (erg s-1 H-1) (Jy cm2 sr-1 H-1)
0.9927057738263894 2.3016070276411005e-23 6.064865246503638e-16 6.064865246501611e-16 2.0269171212463015e-28
1.0001793341362166 2.339631941467835e-23 6.211476575480258e-16 6.211476575477815e-16 2.44215505226141e-28
1.0077091589558085 2.377602630385825e-23 6.359806634568441e-16 6.359806634565501e-16 2.9387146277357247e-28
1.0114953028030835 2.396562964129044e-23 6.434608775739925e-16 6.434608775736704e-16 3.2221176506990047e-28
1.0152956718711033 2.4155041447894603e-23 6.509831611520469e-16 6.509831611516937e-16 3.5317203919862233e-28
1.0229392996569957 2.4533030626748967e-23 6.661476465003618e-16 6.661476464999382e-16 4.239002986805797e-28
1.0267826658714554 2.4721149587160413e-23 6.737776857738156e-16 6.737776857733514e-16 4.64203443315424e-28
1.0306404723013447 2.490899384266692e-23 6.814481410496492e-16 6.814481410491409e-16 5.08175152804618e-28
1.03451277320114 2.5096545265681476e-23 6.891586822944284e-16 6.891586822938722e-16 5.5613320658585065e-28
1.0383996230291617 2.528378582915252e-23 6.969089753486554e-16 6.96908975348047e-16 6.084214020720785e-28
1.0403485208654093 2.537728393344798e-23 7.0079892327069725e-16 7.007989232700609e-16 6.363043425168014e-28
1.0423010764483396 2.5470697610020588e-23 7.046986820058114e-16 7.046986820051458e-16 6.654115516825044e-28
1.0462171883269815 2.5657262792598747e-23 7.125274600915036e-16 7.125274600907759e-16 7.275056220745428e-28
1.0471985131304309 2.5703847854976272e-23 7.144907190536825e-16 7.144907190529387e-16 7.43876787679459e-28
1.048180758391296 2.5750409872301288e-23 7.164563929250799e-16 7.164563929243192e-16 7.606010479063202e-28
1.0501480137395462 2.5843463671876477e-23 7.203949635426728e-16 7.203949635418776e-16 7.951380248359083e-28
1.0521189612883777 2.5936421996020715e-23 7.243431280918003e-16 7.243431280909691e-16 8.31176326074292e-28
1.0531058218030118 2.5982793299353876e-23 7.263187992179059e-16 7.263187992170561e-16 8.497789840592126e-28
1.0540936079674168 2.6028906078532818e-23 7.282903058065137e-16 7.28290305805645e-16 8.687845003677133e-28
1.058054026499678 2.6213095201759278e-23 7.361996084250661e-16 7.361996084241173e-16 9.48962486255286e-28
1.0590464539527713 2.625907563709781e-23 7.381827249844621e-16 7.38182724983492e-16 9.700887320841096e-28
1.06003981227728 2.630502879712788e-23 7.401681465934251e-16 7.401681465924334e-16 9.91665365592991e-28
1.0620293250338977 2.6396852220987577e-23 7.441458822272287e-16 7.441458822261925e-16 1.0362065412730806e-27
1.0660195594769086 2.65801600201153e-23 7.521287632815984e-16 7.521287632804673e-16 1.1311077552013341e-27
1.070024785945596 2.676300161238711e-23 7.601478842626281e-16 7.601478842613938e-16 1.2343038217222121e-27
1.0740450607676866 2.694536014318802e-23 7.682028745301474e-16 7.682028745288009e-16 1.3464824716840592e-27
1.07808044048254 2.712721889276013e-23 7.762933602087437e-16 7.762933602072751e-16 1.4683851400065558e-27
1.0861967418109137 2.7489049474629194e-23 7.925700403679138e-16 7.925700403661694e-16 1.7446207858009233e-27
1.0902777775684922 2.766825773097712e-23 8.007342512718489e-16 8.007342512699479e-16 1.9007423441462164e-27
1.0943741465085532 2.784688794864689e-23 8.089318311469576e-16 8.089318311448874e-16 2.070173184403886e-27
1.1026131145906286 2.8202350761600066e-23 8.254255285772426e-16 8.254255285747893e-16 2.453341023757695e-27
1.1109141095355224 2.8555312435310463e-23 8.420479678177169e-16 8.420479678148132e-16 2.9037306313053145e-27
1.1192775983109025 2.890532228041286e-23 8.587862071180585e-16 8.587862071146261e-16 3.432445426236184e-27
1.1277040513999907 2.9250754533662285e-23 8.755917221263092e-16 8.755917221222571e-16 4.052302117900278e-27
1.1361939428280308 2.959327773078314e-23 8.925138674712855e-16 8.925138674665074e-16 4.778073077013947e-27
1.1447477501889525 2.993277762519987e-23 9.095493146938096e-16 9.095493146881829e-16 5.626764280036586e-27
1.1533659546722406 3.0269327645954754e-23 9.26700367083844e-16 9.267003670772262e-16 6.617936155128456e-27
1.1707974979042381 3.093466491011992e-23 9.613834348095205e-16 9.613834348003993e-16 9.120926938140545e-27
1.1884924949847024 3.15867691777166e-23 9.964857291033948e-16 9.96485729090886e-16 1.2508779190763865e-26
1.2064549276569216 3.223073935524388e-23 1.0321689794443835e-15 1.0321689794273116e-15 1.7071820175495797e-26
1.2246888378427687 3.2859542025925386e-23 1.0682101465631029e-15 1.0682101465399157e-15 2.318716251135639e-26
1.2431983285522175 3.347170572033772e-23 1.1045558883473864e-15 1.1045558883160436e-15 3.134298799868429e-26
1.2619875648066055 3.406700100257629e-23 1.1411911943175267e-15 1.141191194275359e-15 4.216802758122393e-26
1.3004222497298317 3.5197089391957874e-23 1.2149560716376104e-15 1.2149560715623432e-15 7.526729735601652e-26
1.3400274889804893 3.6245380657170395e-23 1.2892460387077065e-15 1.2892460385757853e-15 1.3192144366066356e-25
1.3808389325824078 3.7207983051617407e-23 1.363793402458796e-15 1.3637934022316475e-15 2.271484689787049e-25
1.4228933163050095 3.8089575450974374e-23 1.4386259983187305e-15 1.438625997934314e-15 3.844164126684015e-25
1.466228494730424 3.891136589696598e-23 1.5144242819951023e-15 1.514424281355356e-15 6.397462084590103e-25
1.5108834753276823 3.9657375357489655e-23 1.5904659370761945e-15 1.5904659360287803e-15 1.047414097334709e-24
1.5568984535646726 4.0314673120516874e-23 1.6660685374782633e-15 1.6660685357894418e-15 1.6888208899983808e-24
1.6043148490894465 4.0884453775303796e-23 1.7410740241715897e-15 1.7410740214850494e-15 2.6865406033417984e-24
1.6531753430134553 4.136844340362087e-23 1.8153381389802486e-15 1.815338134768537e-15 4.21171110623244e-24
1.7035239163302658 4.177238551247694e-23 1.888891209968785e-15 1.8888912034602023e-15 6.508583139749675e-24
1.755405889504358 4.21294939362432e-23 1.963058430258867e-15 1.963058420339203e-15 9.919664259022431e-24
1.8088679632656115 4.243156131681008e-23 2.0373484467452287e-15 2.0373484318294065e-15 1.4915822679344313e-23
1.8639582606462262 4.2673026920014716e-23 2.1113443275493607e-15 2.111344305412663e-15 2.2136697703953497e-23
1.9207263702978936 4.2857914783773814e-23 2.1850730923336676e-15 2.1850730598950954e-15 3.243857284910903e-23
1.979223391128241 4.299559827543755e-23 2.25885443197643e-15 2.2588543850231795e-15 4.6953250828924004e-23
2.039501978296691 4.309729662916077e-23 2.333155007536504e-15 2.333154940380528e-15 6.715597628473482e-23
2.1016163906111602 4.31944424664663e-23 2.4096321699381427e-15 2.409632074986269e-15 9.495187330142422e-23
2.1656225393682647 4.330526137615123e-23 2.489389538305466e-15 2.4893894055421925e-15 1.3276327365515298e-22
2.231578038680979 4.3431057104258347e-23 2.572657144044702e-15 2.5726569604121286e-15 1.836325730959985e-22
2.299542257339062 4.358274404831876e-23 2.6602680498146722e-15 2.6602677984761603e-15 2.5133851260422307e-22
2.369576372248914 4.378445860315632e-23 2.75397585143565e-15 2.7539755109062346e-15 3.405294153685904e-22
2.4417434235010123 4.406470473561246e-23 2.8560139482275563e-15 2.856013491374742e-15 4.56852813816789e-22
2.5161083711144245 4.447229915289917e-23 2.9702182219713913e-15 2.970217614851804e-15 6.071195867153934e-22
2.5927381535095444 4.5087128866340975e-23 3.10299211575992e-15 3.1029913163011086e-15 7.9945881161718345e-22
2.6717017477616296 4.600458035314233e-23 3.2625598031946855e-15 3.2625587597605635e-15 1.0434341224469663e-21
2.753070231689431 4.7368269258644983e-23 3.4615789428863805e-15 3.461577592679622e-15 1.3502067582029899e-21
2.836916847834745 4.95035314694359e-23 3.727796713847698e-15 3.727794981097223e-15 1.7327504736984885e-21
2.9233170693905177 5.31268383996264e-23 4.122487306881916e-15 4.1224851012094505e-15 2.205672464849749e-21
2.967498994190263 5.620380078668212e-23 4.427164906682613e-15 4.427162429211796e-15 2.4774708166569884e-21
3.0123486681368425 5.97973958752056e-23 4.781420538408735e-15 4.781417759222861e-15 2.7791858746651084e-21
3.0578761833420214 6.78375342346343e-23 5.506293835677427e-15 5.506290721194748e-15 3.1144826806996806e-21
3.1040917844459814 7.819810470620143e-23 6.44317926389532e-15 6.443175779822908e-15 3.484072412579214e-21
3.127460860933648 8.915772671970934e-23 7.401509536184551e-15 7.401505852317521e-15 3.6838670304925735e-21
3.1510058709225794 1.0375977018424891e-22 8.67855952476528e-15 8.678555631223494e-15 3.893541791250831e-21
3.162844764501044 1.1735177924725952e-22 9.8522855032939e-15 9.85228150066536e-15 4.0026285399488576e-21
3.1747281389236908 1.3315812419312343e-22 1.122131213487026e-14 1.1221308020547979e-14 4.114322281660897e-21
3.1986289994194426 1.7724631342369962e-22 1.5049099525535387e-14 1.504909517921708e-14 4.346318304802152e-21
3.2227097969389145 2.811719259185597e-22 2.4052630964454545e-14 2.4052626370470263e-14 4.593984279585888e-21
3.2348180950136065 3.797255738738059e-22 3.260537083462123e-14 3.260536610781437e-14 4.726806865056555e-21
3.240889293275058 4.534071150432663e-22 3.90051506908421e-14 3.900514589381935e-14 4.797022748014028e-21
3.2469718861334385 5.386452627005207e-22 4.642488172816044e-14 4.642487685837293e-14 4.869787506902232e-21
3.2714166318528037 9.93320178325666e-22 8.625703947923297e-14 8.625703430705431e-14 5.172178673380549e-21
3.2744851364798273 1.021743421310813e-21 8.880845333721232e-14 8.880844812914533e-14 5.208066994931998e-21
3.2775565192852394 1.050983056733367e-21 9.143560383028026e-14 9.143559858610776e-14 5.2441725142697485e-21
3.283707930232385 1.0228641318299779e-21 8.915627283550679e-14 8.915626752649131e-14 5.3090154707908176e-21
3.2898708863219004 9.336896863734343e-22 8.1536271605887e-14 8.153626623759576e-14 5.3682912255890556e-21
3.29141343181113 9.126601349840563e-22 7.973719447638535e-14 7.973718909319328e-14 5.383192085689606e-21
3.292184975758714 9.023269595636483e-22 7.885288635789415e-14 7.885288096723934e-14 5.3906548377989695e-21
3.295272960557952 8.371028238644741e-22 7.322167083767812e-14 7.322166541796337e-14 5.4197147756663e-21
3.3076538914384823 6.111465719331561e-22 5.3658048334863364e-14 5.36580427981573e-14 5.536706057674147e-21
3.310756385682612 5.651587569777941e-22 4.9666907512568734e-14 4.966690194630742e-14 5.566261318523254e-21
3.313861789986515 5.227278585598851e-22 4.5981112088524865e-14 4.5981106492584635e-14 5.5959402258050115e-21
3.3200813396944477 4.632233405693793e-22 4.082334535289226e-14 4.082333969315471e-14 5.659737536357973e-21
3.345076488085796 3.5707355029577854e-22 3.170539494515451e-14 3.1705389000441025e-14 5.944713481200886e-21
3.3482140837626964 3.610542075047661e-22 3.208891717421913e-14 3.2088911190778524e-14 5.98344059946026e-21
3.3513546224236106 3.6507887534849715e-22 3.24770461183649e-14 3.2477040095982865e-14 6.022382030298427e-21
3.3576445397418455 3.944913384518801e-22 3.5159413543259226e-14 3.515940743936795e-14 6.103891281150877e-21
3.3702598118196083 5.029765747751555e-22 4.499669062132443e-14 4.4996684345977084e-14 6.275347363282785e-21
3.382922481734668 5.276856239810652e-22 4.738454796085529e-14 4.738454151813758e-14 6.442717700860685e-21
3.389271646505754 5.404866278094631e-22 4.8625128838643686e-14 4.8625122310815934e-14 6.5278277512849896e-21
3.395632727569191 5.542802998808207e-22 4.995967298801329e-14 4.995966637239329e-14 6.6156200188117034e-21
3.421196662673239 6.205120329863021e-22 5.6350487883336934e-14 5.6350480902561324e-14 6.980775622365336e-21
3.4276182099114902 6.071654710352161e-22 5.524194232808877e-14 5.524193526482124e-14 7.063267529480955e-21
3.4340518103208963 5.486798522744429e-22 5.00144260406285e-14 5.0014418898925965e-14 7.141702546555192e-21
3.4469541582030403 4.653858925029826e-22 4.2581225349018116e-14 4.258121805581399e-14 7.293204124436162e-21
3.472904465399547 4.420437649472346e-22 4.074999304092538e-14 4.074998539815418e-14 7.642771189029942e-21
3.4990501388274233 4.063421525642805e-22 3.7740832487740865e-14 3.7740824484016534e-14 8.003724337307957e-21
3.5253949054701885 2.7928234596894787e-22 2.6134890782198856e-14 2.613488242406073e-14 8.358138130491572e-21
3.5519380250092896 1.5986120276643946e-22 1.5072243048672446e-14 1.5072234330542032e-14 8.71813041647034e-21
3.578680990867387 1.1251111197781442e-22 1.0687788142039575e-14 1.0687779026769367e-14 9.11527021175046e-21
3.605625307711299 9.336010366495377e-23 8.935345537015482e-15 8.935335999819945e-15 9.537195538974762e-21
3.660119384959845 7.939212540404553e-23 7.713333565709932e-15 7.713323128495458e-15 1.0437214471689338e-20
3.715437065384467 6.95028079352735e-23 6.854593313134527e-15 6.854581907594206e-15 1.1405540322399611e-20
3.8285932144167436 6.449576600002198e-23 6.554504462284312e-15 6.5544909040377786e-15 1.3558246533042733e-20
3.94519561050918 6.355511940802379e-23 6.6556199263579095e-15 6.6556039073554444e-15 1.6019002463532323e-20
4.06534921144712 6.429355651669307e-23 6.938007108705696e-15 6.937988287868343e-15 1.8820837351044393e-20
4.189162171576248 6.601395254071238e-23 7.340613242365078e-15 7.340591233182062e-15 2.2009183015956388e-20
4.316745939156006 6.845974237795451e-23 7.844426220713194e-15 7.844400597942341e-15 2.5622770852867017e-20
4.448215356677963 7.15487856123434e-23 8.448070026220006e-15 8.448040350158579e-15 2.967606142699476e-20
4.58368876423945 7.529825297419428e-23 9.161560506059408e-15 9.16152627034892e-15 3.423571049206201e-20
4.723288106065518 7.979914118788415e-23 1.0004884687497393e-14 1.000484528937963e-14 3.9398117759015083e-20
4.867139040275056 8.522719286232038e-23 1.1010863284707375e-14 1.101081812918454e-14 4.515552283519767e-20
4.940699165968905 8.850142559802606e-23 1.1606682659042195e-14 1.1606634359353124e-14 4.829968907418241e-20
5.015371051989984 9.190401497197299e-23 1.22350848811868e-14 1.2235033250146341e-14 5.163104045892692e-20
5.091171501069577 9.604192602673375e-23 1.2979202873324337e-14 1.2979147659660606e-14 5.521366373006624e-20
5.129500256944802 9.817075918112475e-23 1.3366775023139885e-14 1.3366717938755278e-14 5.708438460272451e-20
5.168117569889187 1.0039150103592225e-22 1.3772055548270814e-14 1.3771996528106935e-14 5.902016387613351e-20
5.20702561229733 1.0310123709580289e-22 1.4250267712313073e-14 1.4250206610856405e-14 6.110145666290422e-20
5.246226572918644 1.0588317160228543e-22 1.47449538472349e-14 1.4744890599621327e-14 6.324761357779118e-20
5.265937586045735 1.0730195134353867e-22 1.4998670360338016e-14 1.4998606014697275e-14 6.434564073633033e-20
5.285722656980489 1.0873967874229836e-22 1.525674369974137e-14 1.5256678239098636e-14 6.546064273917886e-20
5.305582063971359 1.1019666626172245e-22 1.5519257015853634e-14 1.5519190422971327e-14 6.659288230822692e-20
5.3255160863122235 1.1175932617114558e-22 1.5798465588043183e-14 1.5798397840122385e-14 6.774792079864882e-20
5.365609099470188 1.1562786897245857e-22 1.6468383980306588e-14 1.6468313826775907e-14 7.015353068111564e-20
5.406003951863644 1.1964564001431084e-22 1.7168907826851978e-14 1.716883519043924e-14 7.263641273961106e-20
5.446702915881641 1.2381980144755156e-22 1.7901656688869068e-14 1.7901581489778664e-14 7.519909040829676e-20
5.487708281020852 1.2832654943325737e-22 1.8692912219583838e-14 1.8692834367806894e-14 7.785177694380838e-20
5.529022354014368 1.3454408577268938e-22 1.9746148139818174e-14 1.9746067481965213e-14 8.065785296242117e-20
5.570647458961463 1.4112721660677516e-22 2.0868242944315493e-14 2.0868159386224384e-14 8.355809111083449e-20
5.612585937458331 1.481020118418511e-22 2.2064464665310555e-14 2.2064378109519658e-14 8.655579089420382e-20
5.654840148729818 1.557613363852416e-22 2.338026506328528e-14 2.3380175397638116e-14 8.966564716064067e-20
5.67608639626678 1.6095085657307514e-22 2.424999886701773e-14 2.4249907557719187e-14 9.130929854351305e-20
5.686739436050992 1.6362527612825348e-22 2.4699215254089063e-14 2.469912311213071e-14 9.214195835325998e-20
5.6974124697621304 1.6635448593576598e-22 2.5158318529296704e-14 2.5158225547365365e-14 9.298193134136825e-20
5.718818669136295 1.719825217806213e-22 2.6107186525194842e-14 2.6107091841102387e-14 9.468409245147832e-20
5.740305295436557 1.7817946681417377e-22 2.7149515192789353e-14 2.7149418763919945e-14 9.642886940201271e-20
5.7835210386641895 1.9420854483346046e-22 2.981467550650541e-14 2.9814575393594656e-14 1.0011291075269679e-19
5.827062130521658 2.126543839966688e-22 3.289223785816068e-14 3.289213389202592e-14 1.0396613476640793e-19
5.8489554468988025 2.25559180922351e-22 3.501936405729915e-14 3.501925798044979e-14 1.0607684935600863e-19
5.870931020387893 2.3940219116635413e-22 3.730822023723365e-14 3.73081120048222e-14 1.0823241145746016e-19
5.892989160043636 2.542587513419032e-22 3.977232550616378e-14 3.9772215072240476e-14 1.1043392331576827e-19
5.915130176081913 2.7114310149573647e-22 4.257280830300439e-14 4.2572695566457776e-14 1.1273654660408527e-19
5.95966208400165 3.182755838577819e-22 5.034941074825911e-14 5.034929276484081e-14 1.179834183079585e-19
6.004529249263818 3.8612330092735243e-22 6.154239707805873e-14 6.154227302176084e-14 1.2405629787404027e-19
6.027089341400364 4.332468936410778e-22 6.931265262050475e-14 6.931252499175628e-14 1.2762874845083157e-19
6.049734195844842 4.889139054964085e-22 7.851237522477266e-14 7.851224374464984e-14 1.3148012282269646e-19
6.095279466722835 6.496204547336119e-22 1.0510484761674865e-13 1.0510470650581841e-13 1.4111093026888785e-19
6.141167624020661 8.968222465072382e-22 1.4619306033918647e-13 1.461929063785345e-13 1.5396065198884413e-19
6.164241091010745 1.0546724471495186e-21 1.7257053664028138e-13 1.72570374563683e-13 1.6207659843426993e-19
6.187401249150058 1.2344549960989036e-21 2.0274631777559287e-13 2.0274614705566714e-13 1.7071992575008264e-19
6.1990139391386085 1.322249020246792e-21 2.1757315019870306e-13 2.1757297504809681e-13 1.7515060620657761e-19
6.204828454712694 1.3684923687144993e-21 2.2539360614310018e-13 2.253934287206487e-13 1.7742245149065318e-19
6.210648424152782 1.4022653172481689e-21 2.3117271351977886e-13 2.311725341542581e-13 1.7936552072749622e-19
6.233982942956859 1.5170399219744435e-21 2.510337145548807e-13 2.5103352823211505e-13 1.863227656140937e-19
6.239830258556775 1.5317358694503735e-21 2.537032854746132e-13 2.53703098095342e-13 1.873792711225934e-19
6.245683058788269 1.533054989537425e-21 2.541599450376153e-13 2.5415975659549185e-13 1.8844212341023158e-19
6.257405133728602 1.5300056842758294e-21 2.541304769304964e-13 2.541302865733952e-13 1.903571011055549e-19
6.269149208991335 1.5075694184168571e-21 2.5087382908268775e-13 2.5087363779296355e-13 1.9128972420949754e-19
6.280915325867298 1.451153556626478e-21 2.419389225743046e-13 2.4193873157474927e-13 1.9099955526702852e-19
6.304513850009849 1.311974913109457e-21 2.1955663547641201e-13 2.195564461832227e-13 1.892931892943215e-19
6.32820103803542 1.1394160415184351e-21 1.9139563552596528e-13 1.9139544924643338e-13 1.8627953190431277e-19
6.3519772230701035 9.811774759064742e-22 1.654344435805478e-13 1.654342600173961e-13 1.8356315166659681e-19
6.375842739491607 8.48061716660782e-22 1.4352729115760765e-13 1.4352710988403202e-13 1.8127357560402677e-19
6.399797922933955 7.414302992624222e-22 1.259522772568568e-13 1.2595209699871193e-13 1.802581448662649e-19
6.42384311029221 6.527937108089529e-22 1.113115730743476e-13 1.1131139350658796e-13 1.7956775963481812e-19
6.447978639727206 5.882648814634927e-22 1.0068527152283887e-13 1.006850915514154e-13 1.7997142341157578e-19
6.472204850670314 5.345362539986083e-22 9.183301721059949e-14 9.183283658151311e-14 1.8062908637367233e-19
6.496522083828205 4.996965497114413e-22 8.617012102325978e-14 8.616993880538662e-14 1.8221787313020402e-19
