Dust emission spectrum from A.P. Jones, M. Kohler, N. Ysard, M. Bocchio, and L. Verstraete (2017), A&A, 602A, 46J 
inside the DustPedia framework.

lambda    nu*dP/dnu     j_nu    j_nu(carb.) j_nu(sil)
 (um)   (erg s-1 H-1) (Jy cm2 sr-1 H-1)
0.9927057738263894 2.6900023613614416e-22 7.088309011271286e-15 7.088307804052944e-15 1.2072183432619322e-21
1.0001793341362166 2.735270277122804e-22 7.26185471860864e-15 7.261853265708723e-15 1.4528999171970773e-21
1.0077091589558085 2.7807101345091077e-22 7.43807166775927e-15 7.438069921502736e-15 1.746256532987125e-21
1.0114953028030835 2.8034923460231553e-22 7.527186526057392e-15 7.527184612562458e-15 1.913494936174758e-21
1.0152956718711033 2.826314944877129e-22 7.616974871255102e-15 7.61697277520399e-15 2.0960511125654066e-21
1.0229392996569957 2.87205579166469e-22 7.798519617666574e-15 7.798517105072506e-15 2.5125940665586674e-21
1.0267826658714554 2.8949220468133853e-22 7.890142286144256e-15 7.890139536470824e-15 2.7496734308122774e-21
1.0306404723013447 2.917824339346717e-22 7.982441942521898e-15 7.982438934401482e-15 3.0081204182493347e-21
1.03451277320114 2.940761923370877e-22 8.075420702718263e-15 8.075417412954939e-15 3.2897633225055157e-21
1.0383996230291617 2.9637340753737186e-22 8.169080736687382e-15 8.169077140109486e-15 3.596577894880172e-21
1.0403485208654093 2.975232894541668e-22 8.216166924885997e-15 8.21616316480098e-15 3.760085018310132e-21
1.0423010764483396 2.9867400948427575e-22 8.263424271118355e-15 8.263420340419897e-15 3.930698456406839e-21
1.0462171883269815 3.009779304883113e-22 8.358453592185078e-15 8.358449297755295e-15 4.294429783290214e-21
1.0471985131304309 3.0155442163950965e-22 8.382318350414523e-15 8.382313960137888e-15 4.390276637684003e-21
1.048180758391296 3.0213111514478607e-22 8.40622615408957e-15 8.406221665920124e-15 4.488169444740127e-21
1.0501480137395462 3.0328510528352777e-22 8.454171048346115e-15 8.454166358086301e-15 4.690259814607433e-21
1.0521189612883777 3.044398931351012e-22 8.502288578711654e-15 8.50228367766892e-15 4.9010427325438446e-21
1.0531058218030118 3.050168151349859e-22 8.526390690858556e-15 8.526385681046959e-15 5.0098115968097425e-21
1.0540936079674168 3.055914153984118e-22 8.550465574729214e-15 8.550460453816744e-15 5.120912468235457e-21
1.058054026499678 3.078916618013179e-22 8.647194049799213e-15 8.647188460450979e-15 5.589348235071405e-21
1.0590464539527713 3.0846718029528013e-22 8.671483599253213e-15 8.67147788654386e-15 5.712709351637787e-21
1.06003981227728 3.090428798055348e-22 8.69581620030512e-15 8.69581036163288e-15 5.838672239940313e-21
1.0620293250338977 3.101948184775053e-22 8.744610718195032e-15 8.744604619582208e-15 6.098612826070564e-21
1.0660195594769086 3.125008312454166e-22 8.842718160884389e-15 8.842711508808542e-15 6.652075846155603e-21
1.070024785945596 3.1480964868202904e-22 8.941519036502464e-15 8.941511783134206e-15 7.253368259856694e-21
1.0740450607676866 3.1712122218399995e-22 9.0410160844649e-15 9.041008178063632e-15 7.90640126387256e-21
1.07808044048254 3.1943550602872313e-22 9.14121212813301e-15 9.141203512746596e-15 8.615386412194649e-21
1.0861967418109137 3.2406847774029325e-22 9.343610324600256e-15 9.343600104907822e-15 1.0219692432781522e-20
1.0902777775684922 3.2637899722128756e-22 9.44558361830812e-15 9.445572493166739e-15 1.112514138172993e-20
1.0943741465085532 3.2869193405375063e-22 9.548261500088215e-15 9.548249393244685e-15 1.210684352981036e-20
1.1026131145906286 3.3332494414630865e-22 9.755744141178707e-15 9.755729817461008e-15 1.4323717696830993e-20
1.1109141095355224 3.379673098074134e-22 9.966085542116014e-15 9.966068617672195e-15 1.6924443819384523e-20
1.1192775983109025 3.4261523228007166e-22 1.017920620210683e-14 1.0179186230678083e-14 1.9971428745889948e-20
1.1277040513999907 3.472518243032813e-22 1.039463178644864e-14 1.0394608249925698e-14 2.353652293992947e-20
1.1361939428280308 3.5189696637640284e-22 1.0612981950468952e-14 1.061295424813412e-14 2.770233483296607e-20
1.1447477501889525 3.5655069387719755e-22 1.0834291535864171e-14 1.0834258972150545e-14 3.2563713627434126e-20
1.1533659546722406 3.612147892159955e-22 1.1058649259667692e-14 1.1058611030197688e-14 3.8229470006665884e-20
1.1707974979042381 3.705885848852206e-22 1.1517103148629896e-14 1.1517050657790073e-14 5.2490839825030145e-20
1.1884924949847024 3.800057551528597e-22 1.1988257167311768e-14 1.1988185455961546e-14 7.171135022098983e-20
1.2064549276569216 3.8953112419470683e-22 1.2474487118970145e-14 1.2474389632857268e-14 9.748611288025601e-20
1.2246888378427687 3.991030643226281e-22 1.2974190038847688e-14 1.2974058163323815e-14 1.318755238720905e-19
1.2431983285522175 4.087148875768536e-22 1.3487464292981916e-14 1.348728676139423e-14 1.7753158769136134e-19
1.2619875648066055 4.183818221578242e-22 1.4015135974925516e-14 1.4014898124516074e-14 2.378504094418906e-19
1.3004222497298317 4.378281193343067e-22 1.511323638142746e-14 1.5112815459443007e-14 4.2092198444998044e-19
1.3400274889804893 4.575189974974794e-22 1.6273923585913727e-14 1.6273192340166604e-14 7.312457471212899e-19
1.3808389325824078 4.775538709932551e-22 1.7503900108634063e-14 1.7502652457884307e-14 1.2476507497522706e-18
1.4228933163050095 4.981400795715278e-22 1.8814524992502338e-14 1.881243326194573e-14 2.0917305566026284e-18
1.466228494730424 5.196891919080913e-22 2.0226222163467995e-14 2.0222774548986555e-14 3.4476144814377284e-18
1.5108834753276823 5.42229684296155e-22 2.1746215809053572e-14 2.1740626948904023e-14 5.588860149554749e-18
1.5568984535646726 5.65837995078031e-22 2.338416283547932e-14 2.337524257792196e-14 8.920257557358728e-18
1.6043148490894465 5.907737705844995e-22 2.5158239162972294e-14 2.5144195116732853e-14 1.4044046239434744e-17
1.6531753430134553 6.173383641465313e-22 2.7090163053918176e-14 2.7068378269199614e-14 2.178478471855962e-17
1.7035239163302658 6.459003013059448e-22 2.920674475937167e-14 2.917344340768837e-14 3.330135168330053e-17
1.755405889504358 6.77192831585506e-22 3.1554357120135495e-14 3.1504165128193424e-14 5.0191991942076375e-17
1.8088679632656115 7.115195249699659e-22 3.416356019056436e-14 3.4088945610091705e-14 7.461458047264464e-17
1.8639582606462262 7.492352738946307e-22 3.7070106334438925e-14 3.696066002770818e-14 1.0944630673074423e-16
1.9207263702978936 7.908671093539921e-22 4.032166401421337e-14 4.016320068525622e-14 1.5846332895714953e-16
1.979223391128241 8.370653448094236e-22 4.397679855188393e-14 4.375024400468289e-14 2.265545472010424e-16
2.039501978296691 8.885426233440487e-22 4.810296313718363e-14 4.7783010173471517e-14 3.199529637121345e-16
2.1016163906111602 9.463518335900083e-22 5.279289862506671e-14 5.234637318000767e-14 4.465254450590265e-16
2.1656225393682647 1.0114415058225993e-21 5.814240171263186e-14 5.752637387665769e-14 6.160278359741931e-16
2.231578038680979 1.0845596992754728e-21 6.424435518081012e-14 6.340396392167865e-14 8.403912591314639e-16
2.299542257339062 1.1666713881023367e-21 7.121301529248952e-14 7.007899626854053e-14 1.1340190239489683e-15
2.369576372248914 1.2589164140158581e-21 7.918392767167178e-14 7.766982717719349e-14 1.514100494478288e-15
2.4417434235010123 1.3625238234449999e-21 8.831074820311451e-14 8.630990664645896e-14 2.000841556655529e-15
2.5161083711144245 1.4789844374627553e-21 9.877848930321398e-14 9.616071796951555e-14 2.6177713336984285e-15
2.5927381535095444 1.6100761036201218e-21 1.1080886232781186e-13 1.0741694750138265e-13 3.3919148264291732e-15
2.6717017477616296 1.7575059718911353e-21 1.246390749301764e-13 1.2028534972722586e-13 4.3537252029505385e-15
2.753070231689431 1.923214940421449e-21 1.4054472423419534e-13 1.3500762132080766e-13 5.537102913387748e-15
2.836916847834745 2.110540154473697e-21 1.5893138163583853e-13 1.519518470578289e-13 6.979534578009602e-15
2.9233170693905177 2.3253075419746567e-21 1.8043706561794424e-13 1.7171694867291054e-13 8.72011694503367e-15
2.967498994190263 2.446609095094538e-21 1.9271902922159048e-13 1.8302268271426147e-13 9.696346507329003e-15
3.0123486681368425 2.5760676817002358e-21 2.0598326635022774e-13 1.9521549411244344e-13 1.0767772237784211e-14
3.0578761833420214 2.7435916127837406e-21 2.2269414352290154e-13 2.107485931588107e-13 1.1945550364090896e-14
3.1040917844459814 2.9302167695541752e-21 2.4143695041259156e-13 2.2821105223116213e-13 1.3225898181429384e-14
3.127460860933648 3.0669112372626328e-21 2.546024175851143e-13 2.406915174303149e-13 1.3910900154799407e-14
3.1510058709225794 3.2292714348274467e-21 2.7009913687172496e-13 2.554746039028414e-13 1.462453296888356e-14
3.162844764501044 3.3571140610253468e-21 2.8184699378656027e-13 2.6685330209472606e-13 1.499369169183418e-14
3.1747281389236908 3.49893955564232e-21 2.9485765988985246e-13 2.7948740741287404e-13 1.5370252476978313e-14
3.1986289994194426 3.8665525544473215e-21 3.2828967265172186e-13 3.1214176831946045e-13 1.614790433226137e-14
3.2227097969389145 4.652408021934635e-21 3.979865802109768e-13 3.810150394553006e-13 1.6971540755676177e-14
3.2348180950136065 5.367600751830383e-21 4.608923523907379e-13 4.4348137101264283e-13 1.7410981378095073e-14
3.240889293275058 5.895442671170865e-21 5.071659048762325e-13 4.895231295305236e-13 1.76427753457089e-14
3.2469718861334385 6.504953492655743e-21 5.606504270169926e-13 5.42767813382058e-13 1.788261363493458e-14
3.2714166318528037 9.68661613700838e-21 8.411576134076789e-13 8.222841845074697e-13 1.8873428900209304e-14
3.2744851364798273 9.888964374763259e-21 8.595344123702103e-13 8.405443048090657e-13 1.8990107561144346e-14
3.2775565192852394 1.0096566921948425e-20 8.784020705249097e-13 8.592947091260826e-13 1.9107361398827458e-14
3.283707930232385 9.918005360594701e-21 8.644866550665027e-13 8.451697797836336e-13 1.9316875282869255e-14
3.2898708863219004 9.319649413181986e-21 8.138565488244343e-13 7.943491640648347e-13 1.9507384759599604e-14
3.29141343181113 9.178418306793785e-21 8.018990831972919e-13 7.823438646366179e-13 1.9555218560673965e-14
3.292184975758714 9.109004293700442e-21 7.960210794899398e-13 7.764419130303969e-13 1.9579166459543053e-14
3.295272960557952 8.672432981924152e-21 7.585806845481157e-13 7.389083954812337e-13 1.967228906688199e-14
3.3076538914384823 7.152075156060068e-21 6.279449350497558e-13 6.078987014682322e-13 2.0046233581523426e-14
3.310756385682612 6.840627134400182e-21 6.011634625092985e-13 5.81022989829416e-13 2.014047267988231e-14
3.313861789986515 6.552509406177658e-21 5.763834173610468e-13 5.561484039457827e-13 2.0235013415264035e-14
3.3200813396944477 6.154729555671049e-21 5.424093049714977e-13 5.219708699240358e-13 2.043843504746189e-14
3.345076488085796 5.4954323674177686e-21 4.879522817050995e-13 4.666071250840805e-13 2.134515662101918e-14
3.3482140837626964 5.5326683246587105e-21 4.917193372412242e-13 4.702513432383747e-13 2.1467994002849502e-14
3.3513546224236106 5.570198199883492e-21 4.955191769268005e-13 4.73927800886852e-13 2.1591376039948435e-14
3.3576445397418455 5.793842194284976e-21 5.163816638222544e-13 4.945322971415116e-13 2.1849366680742706e-14
3.3702598118196083 6.578336640244014e-21 5.885033089986435e-13 5.661128123162282e-13 2.2390496682415387e-14
3.382922481734668 6.790483209277758e-21 6.097645315403744e-13 5.868482837119494e-13 2.291624782842494e-14
3.389271646505754 6.899501152422605e-21 6.207168044445849e-13 5.975341153957914e-13 2.318268904879352e-14
3.395632727569191 7.018242074426429e-21 6.325844145362035e-13 6.091271416440454e-13 2.3457272892158218e-14
3.421196662673239 7.582104043344828e-21 6.885527424318854e-13 6.63959059459909e-13 2.4593682971976337e-14
3.4276182099114902 7.50802425046386e-21 6.831051211374967e-13 6.582580674489909e-13 2.4847053688505845e-14
3.4340518103208963 7.116617255188635e-21 6.487089436465386e-13 6.236223612674295e-13 2.508658237910884e-14
3.4469541582030403 6.563086798847292e-21 6.0050010640383e-13 5.749540146527894e-13 2.5546091751040634e-14
3.472904465399547 6.4652518646113906e-21 5.960020011190344e-13 5.693970529096539e-13 2.6604948209380623e-14
3.4990501388274233 6.2852212007674275e-21 5.837678394663625e-13 5.560798891364951e-13 2.7687950329867328e-14
3.5253949054701885 5.480755020434034e-21 5.128821636257581e-13 4.841429435940969e-13 2.873922003166115e-14
3.5519380250092896 4.71811956790954e-21 4.44839921316788e-13 4.1504478089035087e-13 2.9795140426437185e-14
3.578680990867387 4.464227447943295e-21 4.240711547753987e-13 3.9311879862044117e-13 3.0952356154957515e-14
3.605625307711299 4.410967186549865e-21 4.221665831231872e-13 3.8999590630324305e-13 3.2170676819944096e-14
3.660119384959845 4.478053990079504e-21 4.350648628557998e-13 4.003366528935536e-13 3.47282099622462e-14
3.715437065384467 4.5747856822195135e-21 4.5118026563140843e-13 4.1375896832506454e-13 3.7421297306343827e-14
3.8285932144167436 4.8828873486208235e-21 4.962326816206181e-13 4.530341438014742e-13 4.319853781914413e-14
3.94519561050918 5.2305457555673176e-21 5.477532711878687e-13 4.982714358856777e-13 4.948183530219107e-14
4.06534921144712 5.599136923288776e-21 6.042106531516565e-13 5.479511053268645e-13 5.625954782479218e-14
4.189162171576248 5.981762923147877e-21 6.651595069885798e-13 6.016198692822825e-13 6.353963770629717e-14
4.316745939156006 6.373910568870694e-21 7.303514365989081e-13 6.590619901223249e-13 7.12894464765834e-14
4.448215356677963 6.771486991173619e-21 7.995383261012822e-13 7.201433415183407e-13 7.93949845829416e-14
4.58368876423945 7.172041155556503e-21 8.726243492142887e-13 7.847638848389515e-13 8.786046437533726e-14
4.723288106065518 7.573808443895702e-21 9.495726269529757e-13 8.52839388258649e-13 9.673323869432677e-14
4.867139040275056 7.973207096417006e-21 1.0300925130917905e-12 9.24325073750915e-13 1.0576743934087544e-13
4.940699165968905 8.173025465505149e-21 1.0718664959505995e-12 9.61495285490179e-13 1.1037121046042038e-13
5.015371051989984 8.37017161899722e-21 1.114312146860641e-12 9.992947582765636e-13 1.1501738858407763e-13
5.091171501069577 8.570020789287665e-21 1.1581612640901205e-12 1.0383534479742782e-12 1.1980781611584213e-13
5.129500256944802 8.668646545246655e-21 1.1803091785370394e-12 1.0580957235295468e-12 1.2221345500749217e-13
5.168117569889187 8.766956136067073e-21 1.2026815581925244e-12 1.0780314178731352e-12 1.2465014031938929e-13
5.20702561229733 8.869585028310191e-21 1.225920897855933e-12 1.0986052796137903e-12 1.2731561824214266e-13
5.246226572918644 8.971362276707255e-21 1.249323388363798e-12 1.1193286069337953e-12 1.2999478143000298e-13
5.265937586045735 9.021918658821361e-21 1.261084092946393e-12 1.1297449755996252e-12 1.3133911734676793e-13
5.285722656980489 9.072246808968e-21 1.2728835135999018e-12 1.1401970947902799e-12 1.326864188096217e-13
5.305582063971359 9.122341758827917e-21 1.2847209552189575e-12 1.150684423949953e-12 1.3403653126900455e-13
5.3255160863122235 9.172992781919671e-21 1.2967079864332806e-12 1.1613074710759693e-12 1.3540051535731105e-13
5.365609099470188 9.279701361792925e-21 1.321668267405157e-12 1.1834453759103964e-12 1.3822289149476044e-13
5.406003951863644 9.385708596891275e-21 1.346830237779197e-12 1.2057713734428917e-12 1.410588643363052e-13
5.446702915881641 9.49099408698357e-21 1.3721918125772116e-12 1.228284615626055e-12 1.4390719695115657e-13
5.487708281020852 9.597005381039354e-21 1.3979646452813428e-12 1.25118527516489e-12 1.4677937011645332e-13
5.529022354014368 9.715247535555473e-21 1.4258428079565757e-12 1.2760695686132163e-12 1.49773239343359e-13
5.570647458961463 9.833577455147888e-21 1.4540744746461489e-12 1.301293553350934e-12 1.5278092129521478e-13
5.612585937458331 9.952055035682117e-21 1.482672409045443e-12 1.3268712532420101e-12 1.5580115580343242e-13
5.654840148729818 1.0072932433924469e-20 1.5119787473268738e-12 1.3531304344158465e-12 1.5884831291102736e-13
5.67608639626678 1.0143118640564218e-20 1.5282342746031473e-12 1.3677904653414525e-12 1.604438092616951e-13
5.686739436050992 1.0178415310617064e-20 1.5364305359851258e-12 1.375187529392404e-12 1.6124300659272171e-13
5.6974124697621304 1.0213853884417795e-20 1.5446736406921897e-12 1.3826304972246037e-12 1.62043143467586e-13
5.718818669136295 1.0285176157382677e-20 1.561304076746782e-12 1.3976579210435636e-12 1.6364615570321833e-13
5.740305295436557 1.035983186168658e-20 1.578545595362782e-12 1.413280387477234e-12 1.6526520788554862e-13
5.7835210386641895 1.0533464864951423e-20 1.6170855776557678e-12 1.4484746588847664e-12 1.686109187710015e-13
5.827062130521658 1.0718664785585917e-20 1.657905494461406e-12 1.4859014964146353e-12 1.7200399804677084e-13
5.8489554468988025 1.083716903028984e-20 1.6825330100522688e-12 1.5086924693237298e-12 1.738405407285392e-13
5.870931020387893 1.0959668726800507e-20 1.7079448295545118e-12 1.5322611177502404e-12 1.7568371180427107e-13
5.892989160043636 1.1086494908385218e-20 1.7342006200046011e-12 1.5566672646035178e-12 1.7753335540108345e-13
5.915130176081913 1.12255300011593e-20 1.7625465453580577e-12 1.5830945187998363e-12 1.794520265582213e-13
5.95966208400165 1.1592678905436039e-20 1.8338967281363666e-12 1.6500468226966185e-12 1.8384990543974876e-13
6.004529249263818 1.2089089833848004e-20 1.926823802345397e-12 1.7380104629411747e-12 1.8881333940422242e-13
6.027089341400364 1.2422144466384762e-20 1.987346699624707e-12 1.7956525108352675e-12 1.9169418878943903e-13
6.049734195844842 1.2804383999964077e-20 2.0561955588204057e-12 1.8614470115664574e-12 1.9474854725394906e-13
6.095279466722835 1.387940783099316e-20 2.2456082385605404e-12 2.043307626540127e-12 2.0230061202041342e-13
6.141167624020661 1.547681536762396e-20 2.522911325749809e-12 2.3107541189434074e-12 2.1215720680640112e-13
6.164241091010745 1.6488204148105766e-20 2.6978786122301568e-12 2.4795086014468433e-12 2.183700107833142e-13
6.187401249150058 1.7608549824168088e-20 2.8920200813315927e-12 2.667275366894036e-12 2.2474471443755672e-13
6.1990139391386085 1.815227959853009e-20 2.9869174376871105e-12 2.75893001505699e-12 2.2798742263012154e-13
6.204828454712694 1.843599167579278e-20 3.0364470724337808e-12 2.8068223128134922e-12 2.296247596202888e-13
6.210648424152782 1.864257093710252e-20 3.0733511394065567e-12 2.842337322297958e-12 2.3101381710859823e-13
6.233982942956859 1.9333240284648456e-20 3.199187478679364e-12 2.963355979311999e-12 2.3583149936736614e-13
6.239830258556775 1.9415725850383734e-20 3.2158504193573843e-12 2.9793693942461124e-12 2.3648102511127044e-13
6.245683058788269 1.941685766791552e-20 3.219054444465597e-12 2.9819230432743718e-12 2.3713140119122704e-13
6.257405133728602 1.9383484630002993e-20 3.2195528710921835e-12 2.9812942047706185e-12 2.3825866632156496e-13
6.269149208991335 1.9229839647045864e-20 3.200027438846948e-12 2.961408273682462e-12 2.3861916516448605e-13
6.280915325867298 1.886767162237808e-20 3.145652038655276e-12 2.907619846691339e-12 2.38032191963937e-13
6.304513850009849 1.7983966847676703e-20 3.0095844166997518e-12 2.773582460260023e-12 2.3600195643972943e-13
6.32820103803542 1.691355772556303e-20 2.841087901110491e-12 2.6080271575240297e-12 2.330607435864613e-13
6.3519772230701035 1.594178699130713e-20 2.6879139863560212e-12 2.457503664223371e-12 2.304103221326501e-13
6.375842739491607 1.5117926961877813e-20 2.5585816009954387e-12 2.3305229402805876e-12 2.280586607148514e-13
6.399797922933955 1.4479361282319865e-20 2.4597167509166826e-12 2.2329311274854747e-12 2.267856234312075e-13
6.42384311029221 1.3944501645575293e-20 2.377756384912657e-12 2.152028453232297e-12 2.2572793168036084e-13
6.447978639727206 1.356643250434084e-20 2.321981106364232e-12 2.096471092303355e-12 2.2551001406087724e-13
6.472204850670314 1.3251010100603301e-20 2.2765158200657773e-12 2.051057556206166e-12 2.2545826385961138e-13
6.496522083828205 1.305579913427468e-20 2.2514059624895993e-12 2.0253202346067737e-12 2.2608572788282562e-13
6.520930681187647 1.2892654297985926e-20 2.2316257006542577e-12 2.0048108983076946e-12 2.2681480234656417e-13
6.57002334288761 1.2742120289846355e-20 2.2221739199297963e-12 1.992964952556348e-12 2.2920896737344777e-13
