Dust emission spectrum from A.P. Jones, M. Kohler, N. Ysard, M. Bocchio, and L. Verstraete (2017), A&A, 602A, 46J 
inside the DustPedia framework.

lambda    nu*dP/dnu     j_nu    j_nu(carb.) j_nu(sil)
 (um)   (erg s-1 H-1) (Jy cm2 sr-1 H-1)
0.9927057738263894 2.2258681508885786e-21 5.865289004378427e-14 5.865287785373288e-14 1.219005138474302e-20
1.0001793341362166 2.2632651831607212e-21 6.008730869216563e-14 6.008729402382388e-14 1.4668341738214863e-20
1.0077091589558085 2.3008171701373677e-21 6.154414584069537e-14 6.1544128213788e-14 1.7626907362323256e-20
1.0114953028030835 2.3196496912650596e-21 6.228101862318883e-14 6.228099930992148e-14 1.9313267355807608e-20
1.0152956718711033 2.3385190866952943e-21 6.302355352008678e-14 6.302353236620835e-14 2.1153878427544446e-20
1.0229392996569957 2.376347759003228e-21 6.452519018177997e-14 6.452516482885972e-14 2.5352920244342866e-20
1.0267826658714554 2.3952641675986986e-21 6.52831917047986e-14 6.528316396235605e-14 2.7742442559621134e-20
1.0306404723013447 2.4142142501826678e-21 6.604689949637922e-14 6.604686914935419e-14 3.0347025048962483e-20
1.03451277320114 2.4331974911280654e-21 6.681633503719592e-14 6.681630185215848e-14 3.318503744740326e-20
1.0383996230291617 2.4522133944303406e-21 6.75915203362557e-14 6.759148405992772e-14 3.627632800153897e-20
1.0403485208654093 2.4617334449583116e-21 6.798127617323195e-14 6.79812382496453e-14 3.792358663895435e-20
1.0423010764483396 2.471261484231244e-21 6.837247795460267e-14 6.837243831226806e-14 3.9642334607798385e-20
1.0462171883269815 2.4903413053427724e-21 6.915923102945766e-14 6.915918772325399e-14 4.3306203661727333e-20
1.0471985131304309 2.495116167306117e-21 6.935682760648915e-14 6.935678333489188e-14 4.4271597270756014e-20
1.048180758391296 2.4998929786747422e-21 6.955478825704506e-14 6.955474299947697e-14 4.5257568111838463e-20
1.0501480137395462 2.5094524237711488e-21 6.99518032987962e-14 6.995175600587912e-14 4.729291710390397e-20
1.0521189612883777 2.519019589780324e-21 7.035027921993046e-14 7.035022980424799e-14 4.9415682455127514e-20
1.0531058218030118 2.523799743557281e-21 7.05498896168553e-14 7.054983910582685e-14 5.051102844135525e-20
1.0540936079674168 2.5285611400732402e-21 7.074928774948384e-14 7.074923611965837e-14 5.162982546409611e-20
1.058054026499678 2.5476248936874684e-21 7.155051453140825e-14 7.155045818475651e-14 5.634665173779829e-20
1.0590464539527713 2.5523953457490744e-21 7.175173176701155e-14 7.175167417829373e-14 5.758871781375565e-20
1.06003981227728 2.5571675923012896e-21 7.195331401914584e-14 7.195325516220552e-14 5.885694032557376e-20
1.0620293250338977 2.566717447669373e-21 7.235757519623253e-14 7.235751372227557e-14 6.147395693788787e-20
1.0660195594769086 2.585838464229704e-21 7.317049576357813e-14 7.317042871802342e-14 6.70455547079165e-20
1.070024785945596 2.6049876296046544e-21 7.398930298826357e-14 7.398922989038803e-14 7.309787554849012e-20
1.0740450607676866 2.6241646545756174e-21 7.481402438760992e-14 7.481394471745468e-14 7.96701552671088e-20
1.07808044048254 2.6433692749883514e-21 7.564468826920238e-14 7.564460146456649e-14 8.680463589333746e-20
1.0861967418109137 2.6818311041812926e-21 7.732311691834394e-14 7.732301397283473e-14 1.0294550922189354e-19
1.0902777775684922 2.7010213689247893e-21 7.816901029853446e-14 7.816889824509024e-14 1.1205344418404895e-19
1.0943741465085532 2.7202372892848074e-21 7.902091377799077e-14 7.902079185087713e-14 1.2192711361399534e-19
1.1026131145906286 2.7587456231012564e-21 8.074288145011764e-14 8.074273723083191e-14 1.4421928570954295e-19
1.1109141095355224 2.797355444719037e-21 8.248929066441437e-14 8.248912030006251e-14 1.7036435185411994e-19
1.1192775983109025 2.836036488787794e-21 8.4259535175807e-14 8.425933418844187e-14 2.0098736512122337e-19
1.1277040513999907 2.874650819650759e-21 8.60497618546278e-14 8.604952504691323e-14 2.3680771460498367e-19
1.1361939428280308 2.913363079324834e-21 8.786512169861793e-14 8.786484304638954e-14 2.786522283869598e-19
1.1447477501889525 2.9521746262629616e-21 8.970595518383674e-14 8.970562771391732e-14 3.274699194165169e-19
1.1533659546722406 2.991100952655161e-21 9.157303998395249e-14 9.157265563483975e-14 3.843491127163076e-19
1.1707974979042381 3.069419534113333e-21 9.53910153270147e-14 9.539048786905337e-14 5.274579613461086e-19
1.1884924949847024 3.148227336755923e-21 9.931891404910217e-14 9.931819383009261e-14 7.2021900952354735e-19
1.2064549276569216 3.228064310047907e-21 1.0337671152247056e-13 1.0337573296203569e-13 9.78560434876055e-19
1.2246888378427687 3.308436744780714e-21 1.0755188545380933e-13 1.075505624123224e-13 1.3230414869422279e-18
1.2431983285522175 3.389297898638302e-21 1.1184577752276523e-13 1.118439974179213e-13 1.7801048439426313e-18
1.2619875648066055 3.470786920091772e-21 1.1626592755439923e-13 1.1626354396703932e-13 2.3835873599401503e-18
1.3004222497298317 3.6352600772717375e-21 1.2548427665931563e-13 1.2548006325254225e-13 4.213406773379258e-18
1.3400274889804893 3.802590154483937e-21 1.3525790610030437e-13 1.35250594919706e-13 7.311180598415944e-18
1.3808389325824078 3.973705862530957e-21 1.4564922347748664e-13 1.4563676404973052e-13 1.2459427756126691e-17
1.4228933163050095 4.1504301316549976e-21 1.5675986463250451e-13 1.5673900143854925e-13 2.086319395534115e-17
1.466228494730424 4.336274706224932e-21 1.6876713415553108e-13 1.687327899696142e-13 3.434418591690246e-17
1.5108834753276823 4.5316272182415274e-21 1.8174169785997487e-13 1.816860937329758e-13 5.560412699912248e-17
1.5568984535646726 4.737281008954891e-21 1.957757370032183e-13 1.9568710274834183e-13 8.863425487650716e-17
1.6043148490894465 4.955552959158801e-21 2.1103338153950758e-13 2.1089401739744186e-13 1.3936414206568e-16
1.6531753430134553 5.189129080310392e-21 2.2771037903626916e-13 2.274944863588528e-13 2.1589267741639825e-16
1.7035239163302658 5.441265109291033e-21 2.4604670549590144e-13 2.4571712370408515e-13 3.295817918163496e-16
1.755405889504358 5.718250736097279e-21 2.6644659750286865e-13 2.659505271116423e-13 4.960703912263537e-16
1.8088679632656115 6.022882670667215e-21 2.8918828987684046e-13 2.884518610124322e-13 7.364288644083156e-16
1.8639582606462262 6.358402538187074e-21 3.1459631763267724e-13 3.1351762661471255e-13 1.0786910179646785e-15
1.9207263702978936 6.729515661977029e-21 3.4309843751407083e-13 3.415388707497146e-13 1.5595667643563562e-15
1.979223391128241 7.141989388110126e-21 3.752178136727419e-13 3.729913406329198e-13 2.226473039822123e-15
2.039501978296691 7.602132750580344e-21 4.115560715465501e-13 4.0841635694608734e-13 3.1397146004629405e-15
2.1016163906111602 8.119113327864274e-21 4.529304130128249e-13 4.4855519963078186e-13 4.375213382043018e-15
2.1656225393682647 8.701268263469757e-21 5.001897112899055e-13 4.941628442673504e-13 6.026867022555226e-15
2.231578038680979 9.355275174096739e-21 5.541637048660325e-13 5.459545216652693e-13 8.20918320076309e-15
2.299542257339062 1.0089635889921974e-20 6.158661318448643e-13 6.048061496988406e-13 1.105998214602358e-14
2.369576372248914 1.0914256783157785e-20 6.864901514396592e-13 6.717469256378898e-13 1.4743225801769562e-14
2.4417434235010123 1.1839740766445648e-20 7.673820799493254e-13 7.479310845386963e-13 1.945099541062912e-14
2.5161083711144245 1.287877007832392e-20 8.601479638302871e-13 8.347417918008559e-13 2.5406172029431325e-14
2.5927381535095444 1.4046211246750913e-20 9.666901364283644e-13 9.338263690221232e-13 3.2863767406240674e-14
2.6717017477616296 1.5356075753411637e-20 1.089024508066647e-12 1.046914599806225e-12 4.2109908260422095e-14
2.753070231689431 1.682392128109556e-20 1.2294587189881294e-12 1.1759970969865614e-12 5.346162200156794e-14
2.836916847834745 1.8476062081389315e-20 1.3913149520327342e-12 1.3240471745366221e-12 6.726777749611162e-14
2.9233170693905177 2.035743526606426e-20 1.5796774476534695e-12 1.4957883138917088e-12 8.388913376176074e-14
2.967498994190263 2.140892258525311e-20 1.6863776013841458e-12 1.593189512725541e-12 9.318808865860448e-14
3.0123486681368425 2.2527931082686002e-20 1.8013411920380057e-12 1.6979574407147622e-12 1.0338375132324282e-13
3.0578761833420214 2.3948006242460828e-20 1.9438318423181034e-12 1.829250461924494e-12 1.1458138039360946e-13
3.1040917844459814 2.551788687383098e-20 2.1025614390735418e-12 1.9758226512875477e-12 1.2673878778599397e-13
3.127460860933648 2.6640058623878952e-20 2.21154862515766e-12 2.0783115509922394e-12 1.332370741654204e-13
3.1510058709225794 2.796032309907396e-20 2.338626308790909e-12 2.1986237603378774e-12 1.4000254845303114e-13
3.162844764501044 2.898253105652774e-20 2.4332325628855926e-12 2.289731961314227e-12 1.4350060157136608e-13
3.1747281389236908 3.0111371228014555e-20 2.537502667643858e-12 2.390435059976129e-12 1.4706760766772909e-13
3.1986289994194426 3.3013967913943646e-20 2.803051184946895e-12 2.6486208192172395e-12 1.5443036572965512e-13
3.2227097969389145 3.914198958733471e-20 3.3483706727939e-12 3.1861466645147787e-12 1.6222400827912113e-13
3.2348180950136065 4.468839569681517e-20 3.837196686107799e-12 3.670815596045274e-12 1.6638109006252566e-13
3.240889293275058 4.877399484487484e-20 4.195869353609854e-12 4.0272954998226245e-12 1.685738537872296e-13
3.2469718861334385 5.3489416045814934e-20 4.610158086577237e-12 4.4393153767197815e-12 1.7084270985745535e-13
3.2714166318528037 7.803952087199088e-20 6.776725349667462e-12 6.5965132733823025e-12 1.802120762851585e-13
3.2744851364798273 7.960353533073511e-20 6.91902360753855e-12 6.737709253906595e-12 1.813143536319552e-13
3.2775565192852394 8.120762525235158e-20 7.065069415724807e-12 6.882647447393572e-12 1.8242196833123542e-13
3.283707930232385 7.984670770144021e-20 6.95970719406345e-12 6.775308258764572e-12 1.843989352988767e-13
3.2898708863219004 7.525510437481261e-20 6.571798660288467e-12 6.385604072771012e-12 1.8619458751745633e-13
3.29141343181113 7.41713604449513e-20 6.4801956014880346e-12 6.2935502052829595e-12 1.8664539620507277e-13
3.292184975758714 7.363871220633758e-20 6.435167367664605e-12 6.248296282510919e-12 1.8687108515368766e-13
3.295272960557952 7.028938291775822e-20 6.148236408554815e-12 5.960488096985277e-12 1.8774831156953916e-13
3.3076538914384823 5.862195922252505e-20 5.146948483236654e-12 4.955678552308761e-12 1.9126993092789195e-13
3.310756385682612 5.623105358617984e-20 4.941660203114971e-12 4.749502977545396e-12 1.921572255695747e-13
3.313861789986515 5.401896443891524e-20 4.751711656644456e-12 4.5586643775243666e-12 1.9304727912008938e-13
3.3200813396944477 5.097147631328425e-20 4.492058146565511e-12 4.297094819361095e-12 1.9496332720441534e-13
3.345076488085796 4.597307267637194e-20 4.082056553444742e-12 3.878550172215311e-12 2.0350638122943056e-13
3.3482140837626964 4.6269751216729083e-20 4.112252907191907e-12 3.907589048764848e-12 2.0466385842705818e-13
3.3513546224236106 4.656867104539233e-20 4.14270169910119e-12 3.9368753377996585e-12 2.0582636130153198e-13
3.3576445397418455 4.831068294761537e-20 4.305735296947924e-12 4.097477790808758e-12 2.0825750613916728e-13
3.3702598118196083 5.438434664370229e-20 4.865267575658894e-12 4.651910957736424e-12 2.133566179224697e-13
3.382922481734668 5.605721785132544e-20 5.033765952895388e-12 4.815458758233083e-12 2.1830719466230325e-13
3.389271646505754 5.691604415336186e-20 5.12047817197578e-12 4.899662813127375e-12 2.2081535884840425e-13
3.395632727569191 5.78519264044591e-20 5.214443532477776e-12 4.9910433573021526e-12 2.2340017517562307e-13
3.421196662673239 6.228764905979683e-20 5.656521110047688e-12 5.422427133694551e-12 2.3409397635313893e-13
3.4276182099114902 6.173422404382212e-20 5.616785879611278e-12 5.380311610037184e-12 2.364742695740942e-13
3.4340518103208963 5.87357704881043e-20 5.3540071443105484e-12 5.115284550677919e-12 2.387225936326293e-13
3.4469541582030403 5.450064473220088e-20 4.986623514793693e-12 4.743591669229953e-12 2.4303184556373933e-13
3.472904465399547 5.381090143338464e-20 4.960580903563003e-12 4.707613148669656e-12 2.5296775489334665e-13
3.4990501388274233 5.249172581676853e-20 4.8754022159433486e-12 4.612280646032687e-12 2.6312156991066207e-13
3.5253949054701885 4.6378035727400544e-20 4.339998270292729e-12 4.067034394602952e-12 2.7296387568977644e-13
3.5519380250092896 4.058152199220886e-20 3.826160144968119e-12 3.5433216634054195e-12 2.8283848156270004e-13
3.578680990867387 3.870546482424516e-20 3.676755128526933e-12 3.383096137771346e-12 2.936589907555865e-13
3.605625307711299 3.837541488625685e-20 3.672849307940007e-12 3.367805121671346e-12 3.050441862686607e-13
3.660119384959845 3.9051334965026604e-20 3.794028327602534e-12 3.465114475724801e-12 3.2891385187773287e-13
3.715437065384467 3.995394198971379e-20 3.94038790276077e-12 3.5863833939060726e-12 3.540045088546981e-13
3.8285932144167436 4.263799567098545e-20 4.3331671243076334e-12 3.92549181164124e-12 4.0767531266639306e-13
3.94519561050918 4.561789028675043e-20 4.77719721745301e-12 4.311379855215344e-12 4.658173622376673e-13
4.06534921144712 4.874580141483741e-20 5.260227230513976e-12 4.731957700577456e-12 5.282695299365192e-13
4.189162171576248 5.1964215277354196e-20 5.778311888820883e-12 5.1832587240867174e-12 5.950531647341643e-13
4.316745939156006 5.523328020133326e-20 6.3288784973117385e-12 5.6630701037504955e-12 6.658083935612458e-13
4.448215356677963 5.851545683276761e-20 6.909169354988913e-12 6.169744110030459e-12 7.39425244958453e-13
4.58368876423945 6.178771205198592e-20 7.517729032694102e-12 6.701838898113855e-12 8.158901345802483e-13
4.723288106065518 6.503290310129194e-20 8.153555122726116e-12 7.257971124518521e-12 8.955839982075951e-13
4.867139040275056 6.82166118330566e-20 8.813194021926017e-12 7.837009536276532e-12 9.761844856494834e-13
4.940699165968905 6.979236345226102e-20 9.153048203926288e-12 8.135997903181542e-12 1.017050300744746e-12
5.015371051989984 7.133555802699929e-20 9.496827834707008e-12 8.438681022341308e-12 1.0581468123656985e-12
5.091171501069577 7.288805156626123e-20 9.850164896281846e-12 8.749767580283386e-12 1.1003973159984563e-12
5.129500256944802 7.364946237582776e-20 1.0027994102974975e-11 8.906440136357824e-12 1.1215539666171498e-12
5.168117569889187 7.440542515271517e-20 1.0207195207981147e-11 9.064240661227415e-12 1.1429545467537318e-12
5.20702561229733 7.519354997343702e-20 1.0392971486510796e-11 9.22653997490138e-12 1.1664315116094162e-12
5.246226572918644 7.597172044032774e-20 1.0579580254691635e-11 9.389593569730651e-12 1.1899866849609856e-12
5.265937586045735 7.635696154717944e-20 1.0673178647949282e-11 9.471388744689464e-12 1.201789903259816e-12
5.285722656980489 7.673958190037813e-20 1.0766963322137867e-11 9.553355104309553e-12 1.213608217828316e-12
5.305582063971359 7.711953885661623e-20 1.0860926968674264e-11 9.6354868453867e-12 1.2254401232875614e-12
5.3255160863122235 7.75029501095649e-20 1.0955933005561691e-11 9.718545465499753e-12 1.23738754006194e-12
5.365609099470188 7.830900626434891e-20 1.115321760867795e-11 9.891103045711732e-12 1.262114562966218e-12
5.406003951863644 7.910593895533679e-20 1.1351542557825815e-11 1.0064627803656684e-11 1.2869147541691296e-12
5.446702915881641 7.989355077150178e-20 1.1550873938139699e-11 1.0239097905631138e-11 1.3117760325085622e-12
5.487708281020852 8.068288006146714e-20 1.175281343785083e-11 1.0416010645595555e-11 1.3368027922552745e-12
5.529022354014368 8.156168570986515e-20 1.1970270705776378e-11 1.0607381438052782e-11 1.3628892677235998e-12
5.570647458961463 8.243677867961964e-20 1.2189787104116119e-11 1.0800741020414758e-11 1.3890460837013606e-12
5.612585937458331 8.330854335924102e-20 1.2411434445815091e-11 1.0996173505040881e-11 1.4152609407742065e-12
5.654840148729818 8.419400220361262e-20 1.2637783765482648e-11 1.1196119847776823e-11 1.4416639177058244e-12
5.67608639626678 8.470887593578852e-20 1.276284071552344e-11 1.1307342352098055e-11 1.4554983634253882e-12
5.686739436050992 8.49673470880386e-20 1.2825810565180699e-11 1.136338746110152e-11 1.462423104079179e-12
5.6974124697621304 8.522655122787281e-20 1.2889082677170276e-11 1.1419730080922889e-11 1.469352596247384e-12
5.718818669136295 8.574729489935387e-20 1.3016558885116683e-11 1.1533333834487678e-11 1.4832250506290071e-12
5.740305295436557 8.629181093578575e-20 1.3148433284165932e-11 1.1651206375339521e-11 1.4972269088264137e-12
5.7835210386641895 8.755949989345649e-20 1.3442035102389193e-11 1.1915882288187538e-11 1.526152814201651e-12
5.827062130521658 8.890737453887439e-20 1.3751715133806247e-11 1.2196273145401026e-11 1.5554419884052218e-12
5.8489554468988025 8.977356006005489e-20 1.3937863090330753e-11 1.2366538864413028e-11 1.5713242259177194e-12
5.870931020387893 9.066725313147418e-20 1.4129502456322755e-11 1.2542253884283762e-11 1.5872485720389914e-12
5.892989160043636 9.159082214780231e-20 1.4327058449764356e-11 1.2723844997322149e-11 1.603213452442203e-12
5.915130176081913 9.260361498134314e-20 1.4539908730917641e-11 1.2920124981151153e-11 1.6197837497664858e-12
5.95966208400165 9.528907628208529e-20 1.5074196969167236e-11 1.3416272273320225e-11 1.6579246958470092e-12
6.004529249263818 9.892501641232043e-20 1.5767198266405454e-11 1.40661378534023e-11 1.701060413003145e-12
6.027089341400364 1.0136909851339122e-19 1.621745294620211e-11 1.4491277494035264e-11 1.7261754521668485e-12
6.049734195844842 1.0417223814646591e-19 1.6728527778434775e-11 1.497570750395141e-11 1.7528202744833683e-12
6.095279466722835 1.1206563350305463e-19 1.813157397767439e-11 1.6312610888489954e-11 1.8189630891844327e-12
6.141167624020661 1.2378995916158916e-19 2.0179286407732497e-11 1.827367471003024e-11 1.9056116977022645e-12
6.164241091010745 1.31213170078852e-19 2.1469724781356584e-11 1.950934361866878e-11 1.960381162687798e-12
6.187401249150058 1.3941686761258196e-19 2.289776187352692e-11 2.0881216222880935e-11 2.016545650645987e-12
6.1990139391386085 1.433928967909971e-19 2.3594983844353076e-11 2.1549874034093197e-11 2.0451098102598764e-12
6.204828454712694 1.4546597516801408e-19 2.3958555753613812e-11 2.1899026518342575e-11 2.059529235271237e-12
6.210648424152782 1.4697026911834326e-19 2.4229021071057894e-11 2.215729227087531e-11 2.0717288001825882e-12
6.233982942956859 1.5197822329082782e-19 2.514875012286612e-11 2.303485111940154e-11 2.1138990034645757e-12
6.239830258556775 1.525622347717331e-19 2.5269069539271482e-11 2.3149592894981896e-11 2.119476644289595e-12
6.245683058788269 1.5254986530304483e-19 2.5290720584404052e-11 2.316566022578404e-11 2.1250603586200092e-12
6.257405133728602 1.5226223250174407e-19 2.529041176895034e-11 2.3155738166438775e-11 2.1346736025115634e-12
6.269149208991335 1.510878060812204e-19 2.5142441851269737e-11 2.3005010970708894e-11 2.1374308805608422e-12
6.280915325867298 1.4838015421989092e-19 2.473820532599213e-11 2.260648459206048e-11 2.1317207339316537e-12
6.304513850009849 1.4179686098308165e-19 2.3729448945617573e-11 2.1616793896903872e-11 2.1126550487136994e-12
6.32820103803542 1.3385811044739944e-19 2.2485077606282194e-11 2.039962106067061e-11 2.085456545611583e-12
6.3519772230701035 1.266564798112451e-19 2.1355305006452767e-11 1.9294442828180914e-11 2.0608621782718574e-12
6.375842739491607 1.2054112804127216e-19 2.0400569016330653e-11 1.836162161793203e-11 2.0389473983986208e-12
6.399797922933955 1.158059604505867e-19 1.967281948576842e-11 1.7646168193692858e-11 2.0266512920755584e-12
6.42384311029221 1.1183034032392846e-19 1.9068828165440414e-11 1.7052548188366402e-11 2.016279977074015e-12
6.447978639727206 1.0901344149783042e-19 1.8658343040199543e-11 1.6644955702607553e-11 2.013387337591992e-12
6.472204850670314 1.0665524757475973e-19 1.8323309434796834e-11 1.6311336988902984e-11 2.0119724458938538e-12
6.496522083828205 1.0518272735612362e-19 1.8138224790760814e-11 1.612162739512709e-11 2.016597395633724e-12
6.520930681187647 1.0394468111696572e-19 1.7992076454199915e-11 1.5969958254362096e-11 2.02211819983782e-12
6.57002334288761 1.0275706746738256e-19 1.7920414359644806e-11 1.5878960653358173e-11 2.0414537062866353e-12
