Dust emission spectrum from A.P. Jones, M. Kohler, N. Ysard, M. Bocchio, and L. Verstraete (2017), A&A, 602A, 46J 
inside the DustPedia framework.

lambda    nu*dP/dnu     j_nu    j_nu(carb.) j_nu(sil)
 (um)   (erg s-1 H-1) (Jy cm2 sr-1 H-1)
0.9927057738263894 5.565861079756921e-20 1.4666360079757593e-12 1.4666359677735898e-12 4.020216904515575e-20
1.0001793341362166 5.659187383112591e-20 1.50245469141628e-12 1.5024546430488331e-12 4.8367446706605724e-20
1.0077091589558085 5.75291671561939e-20 1.538837374611192e-12 1.538837316498119e-12 5.811307335377777e-20
1.0114953028030835 5.799928832828265e-20 1.5572414964672814e-12 1.5572414328001435e-12 6.366713809405206e-20
1.0152956718711033 5.847037363315678e-20 1.5757881742227912e-12 1.57578810449421e-12 6.972858178692739e-20
1.0229392996569957 5.94149218448885e-20 1.6132988604686017e-12 1.6132987769141475e-12 8.355445430489982e-20
1.0267826658714554 5.988731429108109e-20 1.6322354220618849e-12 1.6322353306408914e-12 9.14209933543773e-20
1.0306404723013447 6.036059496754803e-20 1.6513158055717952e-12 1.6513157055772188e-12 9.999457683980584e-20
1.03451277320114 6.08347519434598e-20 1.6705405880861877e-12 1.6705404787506889e-12 1.0933549944672662e-19
1.0383996230291617 6.130977375618867e-20 1.6899103597855263e-12 1.6899102402766272e-12 1.195088992244937e-19
1.0403485208654093 6.15476055250343e-20 1.6996498047209775e-12 1.6996496797914305e-12 1.2492954692473175e-19
1.0423010764483396 6.178564942236178e-20 1.709425724471796e-12 1.709425593886675e-12 1.3058512079358926e-19
1.0462171883269815 6.22623684488158e-20 1.7290873001041053e-12 1.7290871574640015e-12 1.4264010367942343e-19
1.0471985131304309 6.238167879835999e-20 1.7340256132813635e-12 1.7340254674651171e-12 1.458162460451528e-19
1.048180758391296 6.250104107974852e-20 1.7389731141416183e-12 1.7389729650816255e-12 1.4905999313843042e-19
1.0501480137395462 6.273992084344598e-20 1.7488957193408078e-12 1.7488955635850102e-12 1.5575579734912857e-19
1.0521189612883777 6.297900657094696e-20 1.7588551971707106e-12 1.758855034431939e-12 1.6273877178895935e-19
1.0531058218030118 6.30984694214664e-20 1.7638444032815705e-12 1.7638442369397434e-12 1.6634182681939546e-19
1.0540936079674168 6.321746935034291e-20 1.7688284688785644e-12 1.7688282988566462e-12 1.7002191825397035e-19
1.058054026499678 6.369395645595273e-20 1.788856502484625e-12 1.788856316948669e-12 1.8553595603348138e-19
1.0590464539527713 6.38131994330823e-20 1.7938865060786972e-12 1.7938863164577804e-12 1.8962091666251089e-19
1.06003981227728 6.393249063924049e-20 1.7989257289357107e-12 1.7989255351439329e-12 1.9379177786558148e-19
1.0620293250338977 6.417121725331007e-20 1.8090318753458187e-12 1.8090316729477243e-12 2.023980941843478e-19
1.0660195594769086 6.464924401278919e-20 1.829355275123678e-12 1.829355054404491e-12 2.2071918717653307e-19
1.070024785945596 6.512802956345309e-20 1.8498274070999094e-12 1.849827166481259e-12 2.406186504045774e-19
1.0740450607676866 6.560756730306284e-20 1.8704489947552046e-12 1.8704487325301293e-12 2.6222507511417407e-19
1.07808044048254 6.608785120793196e-20 1.891220780353314e-12 1.8912204946764303e-12 2.856768838750251e-19
1.0861967418109137 6.70499075915021e-20 1.933196999609189e-12 1.9331966608854157e-12 3.3872377287341945e-19
1.0902777775684922 6.753001421653684e-20 1.9543549108809855e-12 1.954354542229522e-12 3.686514639436759e-19
1.0943741465085532 6.801082057231441e-20 1.9756648471752393e-12 1.9756644460840113e-12 4.0109122820084805e-19
1.1026131145906286 6.897452170825041e-20 2.018744165004668e-12 2.0187436906869004e-12 4.743177673176499e-19
1.1109141095355224 6.994099590143447e-20 2.0624419221245988e-12 2.062441361945882e-12 5.60178716315393e-19
1.1192775983109025 7.090948946476827e-20 2.1067432120413108e-12 2.1067425513217537e-12 6.607195568987874e-19
1.1277040513999907 7.187656576586367e-20 2.1515522249872673e-12 2.151551446693551e-12 7.782937155807126e-19
1.1361939428280308 7.28463229905657e-20 2.1969973740266606e-12 2.1969964584214055e-12 9.156052555718664e-19
1.1447477501889525 7.381879047880941e-20 2.2430871979953345e-12 2.243086122238528e-12 1.0757568073087166e-18
1.1533659546722406 7.479434329453392e-20 2.2898409306459306e-12 2.289839668340642e-12 1.2623052889274632e-18
1.1707974979042381 7.67576598485008e-20 2.3854644259925957e-12 2.385462694523072e-12 1.7314695235578205e-18
1.1884924949847024 7.873394324805638e-20 2.48386438009221e-12 2.4838620170247864e-12 2.363067423584178e-18
1.2064549276569216 8.073644157691343e-20 2.5855333192304076e-12 2.5855301101544347e-12 3.2090759722561725e-18
1.2246888378427687 8.275271443060393e-20 2.690155850031832e-12 2.6901515134937612e-12 4.336538071159934e-18
1.2431983285522175 8.478129391908348e-20 2.7977563558445766e-12 2.7977505242229997e-12 5.831621577272005e-18
1.2619875648066055 8.682534615085166e-20 2.9085131521682794e-12 2.9085053476555644e-12 7.804512715303201e-18
1.3004222497298317 9.094833945771352e-20 3.1394140577645337e-12 3.139400276747044e-12 1.3781017489806402e-17
1.3400274889804893 9.513508454440024e-20 3.3839493107027558e-12 3.3839254239144695e-12 2.388678828647526e-17
1.3808389325824078 9.940149345625673e-20 3.6433875166555495e-12 3.64334685541578e-12 4.0661239770231334e-17
1.4228933163050095 1.0378255410162357e-19 3.919820022533133e-12 3.919752013584164e-12 6.800894896898754e-17
1.466228494730424 1.0835119449498303e-19 4.217011563173391e-12 4.216899739916947e-12 1.118232564447795e-16
1.5108834753276823 1.1309773528992977e-19 4.5358043470499615e-12 4.535623516920876e-12 1.8083012908444078e-16
1.5568984535646726 1.180161904471998e-19 4.8772083858732135e-12 4.87692048512932e-12 2.8790074389419773e-16
1.6043148490894465 1.2313048027886786e-19 5.243540294692762e-12 5.2430881628530266e-12 4.5213183973518795e-16
1.6531753430134553 1.2846460032769395e-19 5.637308762342878e-12 5.636609214268285e-12 6.995480745933981e-16
1.7035239163302658 1.3404530140396573e-19 6.061348626688801e-12 6.060282028325324e-12 1.0665983634770426e-15
1.755405889504358 1.3996154888195251e-19 6.5216235177332844e-12 6.520020155999358e-12 1.6033617339254168e-15
1.8088679632656115 1.4620093234267979e-19 7.019827533498257e-12 7.017450354262594e-12 2.377179235663636e-15
1.8639582606462262 1.527452513725121e-19 7.557416085105394e-12 7.553938614162043e-12 3.4774709433509185e-15
1.9207263702978936 1.5959446453257057e-19 8.136783413166633e-12 8.131762323270996e-12 5.0210898956386095e-15
1.979223391128241 1.667546774269305e-19 8.760769875687668e-12 8.753611224461465e-12 7.158651226202726e-15
2.039501978296691 1.742245589052999e-19 9.43198144290784e-12 9.421900164070898e-12 1.0081278836944368e-14
2.1016163906111602 1.8205123806846797e-19 1.0155855586454467e-11 1.0141826540759705e-11 1.4029045694763243e-14
2.1656225393682647 1.9023852917851872e-19 1.0935802931798699e-11 1.09165047929923e-11 1.9298138806397685e-14
2.231578038680979 1.9872946663967703e-19 1.1771824500044921e-11 1.174557567107838e-11 2.6248828966545593e-14
2.299542257339062 2.0749263864704492e-19 1.2665242843647153e-11 1.2629929279800953e-11 3.5313563846198565e-14
2.369576372248914 2.1651273655598374e-19 1.3618321820712062e-11 1.3571316457115696e-11 4.7005363596372024e-14
2.4417434235010123 2.2577862640519707e-19 1.463363728621019e-11 1.457171388618812e-11 6.192340002206844e-14
2.5161083711144245 2.353161553743025e-19 1.5716307587651224e-11 1.5635546869193763e-11 8.076071845746314e-14
2.5927381535095444 2.4519964273000215e-19 1.6875160989600016e-11 1.6770853441711677e-11 1.0430754788834039e-13
2.6717017477616296 2.5548287360255095e-19 1.8118373158107017e-11 1.798492602530639e-11 1.3344713280062217e-13
2.753070231689431 2.662684857066678e-19 1.9458371557627198e-11 1.9289217539838607e-11 1.6915401778859314e-13
2.836916847834745 2.779234967111342e-19 2.0928654319954783e-11 2.0716158310858425e-11 2.1249600909636355e-13
2.9233170693905177 2.91308066223845e-19 2.2604654099058196e-11 2.2340085429281e-11 2.645686697771936e-13
2.967498994190263 2.99510576029346e-19 2.3592402876988627e-11 2.3298767590365965e-11 2.936352866226628e-13
3.0123486681368425 3.0824940250997364e-19 2.464772926214559e-11 2.4322251785077986e-11 3.254774770675974e-13
3.0578761833420214 3.2289975194248154e-19 2.6209397698817184e-11 2.5848975853872774e-11 3.60421844944414e-13
3.1040917844459814 3.400475613654865e-19 2.8018420706742785e-11 2.7620101624648423e-11 3.983190820943468e-13
3.127460860933648 3.561957647089164e-19 2.9569914422894204e-11 2.915135548197963e-11 4.185589409145808e-13
3.1510058709225794 3.767501676833279e-19 3.151171933398717e-11 3.1072100442008316e-11 4.3961889197884734e-13
3.162844764501044 3.95487059665356e-19 3.3203172969977016e-11 3.2752669770760865e-11 4.505031992161545e-13
3.1747281389236908 4.166670024561128e-19 3.5112769267308815e-11 3.4651170456934216e-11 4.61598810374586e-13
3.1986289994194426 4.740260168920073e-19 4.024718239892652e-11 3.976269070352186e-11 4.844916954046573e-13
3.2227097969389145 6.072340824129001e-19 5.194536135000586e-11 5.143664923771736e-11 5.087121122884991e-13
3.2348180950136065 7.322808722719874e-19 6.287774919121685e-11 6.235612104649617e-11 5.216281447206682e-13
3.240889293275058 8.257388513663917e-19 7.103564822919799e-11 7.050720713091675e-11 5.284410982812471e-13
3.2469718861334385 9.340758235109308e-19 8.050634180688788e-11 7.997085133436524e-11 5.354904725226216e-13
3.2714166318528037 1.5016870423762403e-18 1.304021415512133e-10 1.2983755032411085e-10 5.645912271024545e-13
3.2744851364798273 1.5370875635003252e-18 1.3360141725522593e-10 1.3303340533569897e-10 5.680119195269693e-13
3.2775565192852394 1.573427947362418e-18 1.3688834803644228e-10 1.3631689912322983e-10 5.714489132124561e-13
3.283707930232385 1.5381895934161644e-18 1.340737706952308e-10 1.3349619312141266e-10 5.775775738181301e-13
3.2898708863219004 1.4266727433521477e-18 1.2458697787109492e-10 1.2400383921933044e-10 5.831386517644746e-13
3.29141343181113 1.400312301585306e-18 1.223423375681166e-10 1.2175780291199355e-10 5.845346561230706e-13
3.292184975758714 1.3873504257011506e-18 1.2123829870858724e-10 1.206530651893975e-10 5.852335191897344e-13
3.295272960557952 1.3066757146870776e-18 1.1429537249762639e-10 1.1370742362283838e-10 5.87948874788006e-13
3.3076538914384823 1.0248967361100011e-18 8.998489254464653e-11 8.938604557242467e-11 5.988469722218729e-13
3.310756385682612 9.668936896458012e-19 8.497191075110817e-11 8.437031847828828e-11 6.015922728198778e-13
3.313861789986515 9.131209208767768e-19 8.032155685921235e-11 7.971721096930727e-11 6.04345889905096e-13
3.3200813396944477 8.380063399971761e-19 7.385254418218187e-11 7.324226787586554e-11 6.102763063163595e-13
3.345076488085796 7.067450349005479e-19 6.27535431803552e-11 6.211681769043104e-11 6.3672548992415e-13
3.3482140837626964 7.120074746610553e-19 6.32801069947978e-11 6.263979762845989e-11 6.403093663379205e-13
3.3513546224236106 7.173167939398744e-19 6.381177375991622e-11 6.316786524457287e-11 6.439085153433573e-13
3.3576445397418455 7.548433409784712e-19 6.727612649238134e-11 6.66246900494797e-11 6.514364429016416e-13
3.3702598118196083 8.907987213582133e-19 7.969157308915452e-11 7.902434786295082e-11 6.67225226203697e-13
3.382922481734668 9.231099424707863e-19 8.289243700093465e-11 8.220989280271182e-11 6.825441982228212e-13
3.389271646505754 9.397583114021886e-19 8.454579006758837e-11 8.385548654214678e-11 6.903035254415918e-13
3.395632727569191 9.581163046493446e-19 8.63591530766242e-11 8.566085305960044e-11 6.983000170237612e-13
3.421196662673239 1.047334316104295e-18 9.511145078912738e-11 9.438007841708749e-11 7.313723720399081e-13
3.4276182099114902 1.0310475040184795e-18 9.380814534363592e-11 9.306942238618308e-11 7.387229574528324e-13
3.4340518103208963 9.57566474334284e-19 8.728612397748912e-11 8.65404632685676e-11 7.456607089215339e-13
3.4469541582030403 8.519957774876051e-19 7.795471410294007e-11 7.719576686164821e-11 7.589472412918457e-13
3.472904465399547 8.221887637360553e-19 7.579382191844868e-11 7.500422271799324e-11 7.895992004554095e-13
3.4990501388274233 7.775137898874747e-19 7.221504713668542e-11 7.13941470803433e-11 8.209000563421247e-13
3.5253949054701885 6.208586207107745e-19 5.8099169094156835e-11 5.7247966454279416e-11 8.512026398774137e-13
3.5519380250092896 4.716904892585638e-19 4.447253977088689e-11 4.359096546354723e-11 8.815743073396582e-13
3.578680990867387 4.134270937857282e-19 3.927275371193805e-11 3.8357901525438e-11 9.14852186500066e-13
3.605625307711299 3.909353002932375e-19 3.7415789546174955e-11 3.646594046315863e-11 9.498490830163124e-13
3.660119384959845 3.765281418733564e-19 3.6581551890260374e-11 3.5558411363834034e-11 1.023140526426349e-12
3.715437065384467 3.6666523374071273e-19 3.6161719706326395e-11 3.5061656166086486e-11 1.1000635402399098e-12
3.8285932144167436 3.653019891562968e-19 3.712450702586378e-11 3.5860307740481876e-11 1.264199285381907e-12
3.94519561050918 3.68281476190738e-19 3.8567176873781894e-11 3.712577455960093e-11 1.4414023141809671e-12
4.06534921144712 3.7257819561989114e-19 4.0205431303032585e-11 3.857438481168875e-11 1.6310464913438308e-12
4.189162171576248 3.773034300699101e-19 4.195535108207384e-11 4.012228352241452e-11 1.833067559659301e-12
4.316745939156006 3.820828772232744e-19 4.378078030192768e-11 4.173455221652775e-11 2.04622808539993e-12
4.448215356677963 3.867483407460233e-19 4.5665024740589574e-11 4.339801041363283e-11 2.2670143269567476e-12
4.58368876423945 3.912747673551957e-19 4.7606515609963296e-11 4.511125216160125e-11 2.4952634483620455e-12
4.723288106065518 3.9572950736535987e-19 4.961492103415898e-11 4.688291464547546e-11 2.732006388683504e-12
4.867139040275056 4.0019723885423963e-19 5.1703182235039586e-11 4.8733118656614386e-11 2.970063578425189e-12
4.940699165968905 4.0267741763522244e-19 5.2809872483668453e-11 4.971963433694278e-11 3.090238146725675e-12
5.015371051989984 4.049828705124703e-19 5.3914943734045047e-11 5.070421910070119e-11 3.210724633343864e-12
5.091171501069577 4.078721678342347e-19 5.5120256659883675e-11 5.178596473765293e-11 3.3342919222307506e-12
5.129500256944802 4.092443284087293e-19 5.572205932769468e-11 5.2326043625337414e-11 3.3960157023572586e-12
5.168117569889187 4.106367488427143e-19 5.633257852374975e-11 5.2874198276611815e-11 3.4583802471379165e-12
5.20702561229733 4.125703928431436e-19 5.702393796425459e-11 5.349695768557835e-11 3.5269802786762242e-12
5.246226572918644 4.144732546418983e-19 5.7718227723319524e-11 5.4122524083066685e-11 3.595703640252853e-12
5.265937586045735 4.1541347537597717e-19 5.8066509531206776e-11 5.44364095813389e-11 3.6300999498678712e-12
5.285722656980489 4.163464112309834e-19 5.841557157357457e-11 5.475105847471006e-11 3.664513098864513e-12
5.305582063971359 4.1727221055457646e-19 5.876543184881504e-11 5.506649347485986e-11 3.698938373955181e-12
5.3255160863122235 4.1829760640262946e-19 5.913117559596532e-11 5.539749006826403e-11 3.733685527701289e-12
5.365609099470188 4.211519121358142e-19 5.998286974176565e-11 5.617725042750816e-11 3.805619314257495e-12
5.406003951863644 4.2402161461902094e-19 6.084624577306921e-11 5.696859324933564e-11 3.877652523733573e-12
5.446702915881641 4.269108263102755e-19 6.172204251680366e-11 5.777229521903953e-11 3.949747297764148e-12
5.487708281020852 4.3002507693099993e-19 6.26403581393868e-11 5.861814024422191e-11 4.022217895164885e-12
5.529022354014368 4.349545794161022e-19 6.383541506055591e-11 5.973765188811295e-11 4.097763172442964e-12
5.570647458961463 4.400442614339625e-19 6.506860104413738e-11 6.089521149514288e-11 4.173389548994494e-12
5.612585937458331 4.453108570212519e-19 6.634309384207865e-11 6.209403527446373e-11 4.249058567614917e-12
5.654840148729818 4.510728512342786e-19 6.7707449547207e-11 6.338228928123451e-11 4.3251602659724875e-12
5.67608639626678 4.553642923828823e-19 6.860841755975158e-11 6.424335327225552e-11 4.36506428749605e-12
5.686739436050992 4.575575624724102e-19 6.906825763144392e-11 6.46832319522492e-11 4.385025679194692e-12
5.6974124697621304 4.597836756982183e-19 6.953454908485676e-11 6.512955657536996e-11 4.404992509486788e-12
5.718818669136295 4.64337992499058e-19 7.048715448172581e-11 6.604221444999191e-11 4.444940031733905e-12
5.740305295436557 4.69407858646284e-19 7.152449167009314e-11 6.703925370771028e-11 4.48523796238284e-12
5.7835210386641895 4.831101242483467e-19 7.416651826892392e-11 6.959804560163923e-11 4.568472667284666e-12
5.827062130521658 4.987096413123852e-19 7.7137728533553e-11 7.248508617967453e-11 4.652642353878473e-12
5.8489554468988025 5.101811983151585e-19 7.920857420181063e-11 7.451021159239357e-11 4.698362609417086e-12
5.870931020387893 5.22335823081537e-19 8.140034070022946e-11 7.665617332849633e-11 4.744167371733147e-12
5.892989160043636 5.352280268036241e-19 8.372283427692283e-11 7.893278265198573e-11 4.790051624937093e-12
5.915130176081913 5.499201160775631e-19 8.634423503525553e-11 8.150653189518915e-11 4.8377031400664034e-12
5.95966208400165 5.919679360733717e-19 9.364600451561984e-11 8.869820200825941e-11 4.9478025073604666e-12
6.004529249263818 6.528205885152252e-19 1.0405003733948437e-10 9.897747773033507e-11 5.072559609149296e-12
6.027089341400364 6.954163264008116e-19 1.1125561652238666e-10 1.0611021629827945e-10 5.1454002241072375e-12
6.049734195844842 7.453789177269472e-19 1.1969688040227548e-10 1.1447415669663528e-10 5.222723705640185e-12
6.095279466722835 8.900986884107247e-19 1.4401284061728068e-10 1.385975014135037e-10 5.4153392037769464e-12
6.141167624020661 1.1113003153495142e-18 1.8115562441674694e-10 1.754871354531759e-10 5.6684889635710515e-12
6.164241091010745 1.2522268364434666e-18 2.048953281603794e-10 1.9906644062484027e-10 5.8288875355391114e-12
6.187401249150058 1.4106468496303541e-18 2.316839863325243e-10 2.2569069072768474e-10 5.993295604839608e-12
6.1990139391386085 1.4874539763298356e-18 2.4475726013036887e-10 2.3868036263673296e-10 6.0768974936358814e-12
6.204828454712694 1.5277373778052922e-18 2.516215981142799e-10 2.455025058585237e-10 6.1190922557561835e-12
6.210648424152782 1.5567182846841137e-18 2.566353069064699e-10 2.5048059769394213e-10 6.154709212527787e-12
6.233982942956859 1.6533722750428015e-18 2.7359344848740274e-10 2.6731597027021675e-10 6.277478217185955e-12
6.239830258556775 1.6646709563069785e-18 2.757214864993601e-10 2.6942803686661164e-10 6.293449632748482e-12
6.245683058788269 1.6639404148972325e-18 2.758589921968507e-10 2.6954955666633115e-10 6.309435530519515e-12
6.257405133728602 1.6573528191108242e-18 2.7528254743843515e-10 2.68945752452153e-10 6.336794986282161e-12
6.269149208991335 1.63338506247985e-18 2.718107438270408e-10 2.654669058539492e-10 6.343837973091626e-12
6.280915325867298 1.5791133208495888e-18 2.632726038705632e-10 2.569468044845976e-10 6.325799385965647e-12
6.304513850009849 1.4477304110729273e-18 2.4227507321669046e-10 2.3600797902120074e-10 6.267094195489697e-12
6.32820103803542 1.2883058602307785e-18 2.1640569369384798e-10 2.1022137278790144e-10 6.184320905946557e-12
6.3519772230701035 1.1430191088332138e-18 1.9272224945549084e-10 1.8661297223568604e-10 6.109277219804793e-12
6.375842739491607 1.0205407860545039e-18 1.7271791859087964e-10 1.6667572172724716e-10 6.042196863632479e-12
6.399797922933955 9.23116756180979e-19 1.5681670648019303e-10 1.5081314464746394e-10 6.0035618327291035e-12
6.42384311029221 8.41761683971791e-19 1.4353357828846117e-10 1.3756294627785317e-10 5.970632010607975e-12
6.447978639727206 7.823817913518644e-19 1.339096138134437e-10 1.279498182293808e-10 5.959795584062875e-12
6.472204850670314 7.326131039673218e-19 1.2586250470771047e-10 1.199091824503654e-10 5.953322257345067e-12
6.496522083828205 6.997389680184305e-19 1.206664156349657e-10 1.1470174442910893e-10 5.964671205856726e-12
6.520930681187647 6.717698001555109e-19 1.162785192483293e-10 1.1029987131432834e-10 5.978647934000968e-12
6.57002334288761 6.410595996040869e-19 1.117981851494526e-10 1.0576717491968457e-10 6.03101022976802e-12
