Dust emission spectrum from A.P. Jones, M. Kohler, N. Ysard, M. Bocchio, and L. Verstraete (2017), A&A, 602A, 46J 
inside the DustPedia framework.

lambda    nu*dP/dnu     j_nu    j_nu(carb.) j_nu(sil)
 (um)   (erg s-1 H-1) (Jy cm2 sr-1 H-1)
0.9927057738263894 9.68980153437041e-22 2.5533177412805758e-14 2.5533176617976e-14 7.948297532288537e-22
1.0001793341362166 9.852716439865917e-22 2.615792522164014e-14 2.6157924265136823e-14 9.565033094358954e-22
1.0077091589558085 1.0016278338566208e-21 2.6792363289470432e-14 2.6792362139941646e-14 1.1495287881061299e-21
1.0114953028030835 1.0098294411061673e-21 2.7113234582191458e-14 2.7113233322630705e-14 1.2595607476585086e-21
1.0152956718711033 1.018046336024317e-21 2.743655081089226e-14 2.7436549431228274e-14 1.3796639813635296e-21
1.0229392996569957 1.0345168563942044e-21 2.8090331750556938e-14 2.8090330096874395e-14 1.6536825450623723e-21
1.0267826658714554 1.0427517722788377e-21 2.842031570924538e-14 2.8420313899615847e-14 1.80962953213028e-21
1.0306404723013447 1.0510004717401942e-21 2.875275983580148e-14 2.8752757856179726e-14 1.9796217589820744e-21
1.03451277320114 1.0592627009800882e-21 2.908767240602318e-14 2.9087670241163244e-14 2.1648599430943343e-21
1.0383996230291617 1.0675382139568674e-21 2.942506188991679e-14 2.942505952327525e-14 2.366641542049141e-21
1.0403485208654093 1.0716808771276416e-21 2.9594688176655705e-14 2.959468570248589e-14 2.4741698114949948e-21
1.0423010764483396 1.0758267725809286e-21 2.976493696058345e-14 2.976493437421542e-14 2.5863680343900887e-21
1.0462171883269815 1.08412814690885e-21 3.0107306503229293e-14 3.010730367767658e-14 2.825552706410163e-21
1.0471985131304309 1.0862054667893073e-21 3.019328971230597e-14 3.0193286823728106e-14 2.88857786702622e-21
1.048180758391296 1.0882835703793518e-21 3.027942953841363e-14 3.027942658546625e-14 2.952947371273081e-21
1.0501480137395462 1.0924421153360326e-21 3.0452179624297204e-14 3.045217653846822e-14 3.0858289767961206e-21
1.0521189612883777 1.0966037554126048e-21 3.0625557935271466e-14 3.062555471084954e-14 3.2244219304292715e-21
1.0531058218030118 1.098682971443055e-21 3.071240598906371e-14 3.071240269312626e-14 3.295937447589385e-21
1.0540936079674168 1.100753920702828e-21 3.079915871637621e-14 3.0799155347391055e-14 3.3689851617049057e-21
1.058054026499678 1.109044931839415e-21 3.114773124889059e-14 3.114772757192579e-14 3.67696479567352e-21
1.0590464539527713 1.1111194730827453e-21 3.123526554243062e-14 3.12352617843635e-14 3.75806712372469e-21
1.06003981227728 1.1131947238085273e-21 3.1322956605502775e-14 3.132295276462413e-14 3.840878647104089e-21
1.0620293250338977 1.1173473421930211e-21 3.14988096591832e-14 3.149880564741642e-14 4.011766777162564e-21
1.0660195594769086 1.1256609681324163e-21 3.185240386796318e-14 3.185239949236052e-14 4.375602663184886e-21
1.070024785945596 1.133985635396607e-21 3.220852406674639e-14 3.220851929589103e-14 4.770855353345239e-21
1.0740450607676866 1.1423211792752967e-21 3.256718072769192e-14 3.256717552760047e-14 5.2000914453650554e-21
1.07808044048254 1.1506674447871359e-21 3.2928384613544444e-14 3.292837894747003e-14 5.666074409240082e-21
1.0861967418109137 1.16737879300328e-21 3.365811022127883e-14 3.365810350087371e-14 6.720405118203457e-21
1.0902777775684922 1.175714564784878e-21 3.4025811487522954e-14 3.402580417212583e-14 7.315397125900452e-21
1.0943741465085532 1.1840600377318138e-21 3.439608247344112e-14 3.439607451298718e-14 7.960453949206029e-21
1.1026131145906286 1.2007796926523303e-21 3.514438285271987e-14 3.5144373435750965e-14 9.416968897363891e-21
1.1109141095355224 1.2175370780703716e-21 3.5903113462842785e-14 3.590310233739493e-14 1.1125447865411038e-20
1.1192775983109025 1.234318566697534e-21 3.667199244437668e-14 3.667197931756624e-14 1.3126810446350641e-20
1.1277040513999907 1.2510635074617232e-21 3.744931946036337e-14 3.744930399220333e-14 1.5468160050126976e-20
1.1361939428280308 1.267843277514695e-21 3.823732258576568e-14 3.823730438212201e-14 1.8203643671751183e-20
1.1447477501889525 1.2846579570244338e-21 3.903612885707667e-14 3.9036107461656015e-14 2.1395420644460886e-20
1.1533659546722406 1.3015138083958423e-21 3.9846055984871067e-14 3.984603087008374e-14 2.5114787331748466e-20
1.1707974979042381 1.3354001128033998e-21 4.1501388523913264e-14 4.150135404912583e-14 3.4474787447610765e-20
1.1884924949847024 1.3694564495045159e-21 4.320301962134715e-14 4.3202972535479366e-14 4.708586777146762e-20
1.2064549276569216 1.4039129844254611e-21 4.4959422630414616e-14 4.495935863808589e-14 6.3992328730412e-20
1.2246888378427687 1.4385466149193302e-21 4.67648054604181e-14 4.676471891783342e-14 8.654258468660935e-20
1.2431983285522175 1.4733292440263726e-21 4.8619407255810266e-14 4.861929078424578e-14 1.1647156447960006e-19
1.2619875648066055 1.5083116782913378e-21 5.052607963413615e-14 5.052592363398961e-14 1.560001465205562e-19
1.3004222497298317 1.5786610567687988e-21 5.4493251263479194e-14 5.4492975351023505e-14 2.7591245567052046e-19
1.3400274889804893 1.6498055352843847e-21 5.868348496935035e-14 5.868300592542351e-14 4.790439268148545e-19
1.3808389325824078 1.7220041032541597e-21 6.311704216181407e-14 6.311622531356951e-14 8.1684824454955855e-19
1.4228933163050095 1.7958590042792958e-21 6.782878050705319e-14 6.782741188099492e-14 1.3686260582724854e-18
1.466228494730424 1.872648741485582e-21 7.28831964743356e-14 7.288094211560082e-14 2.2543587347731416e-18
1.5108834753276823 1.9522080102800667e-21 7.829364183707498e-14 7.828998969611516e-14 3.6521409598619136e-18
1.5568984535646726 2.0344527622843508e-21 8.407702396829564e-14 8.407119868523992e-14 5.82528305572571e-18
1.6043148490894465 2.1198427662717725e-21 9.027399989169613e-14 9.026483464518531e-14 9.1652465108155e-18
1.6531753430134553 2.2088568736571608e-21 9.692949012308136e-14 9.691528278045654e-14 1.420734262482481e-17
1.7035239163302658 2.302050368608248e-21 1.0409562807636942e-13 1.0407392484802149e-13 2.1703228347927024e-17
1.755405889504358 2.401096201679382e-21 1.1188105291989582e-13 1.1184836442017747e-13 3.268849971835639e-17
1.8088679632656115 2.505912099163608e-21 1.2032119404685782e-13 1.2027263418407045e-13 4.855986278737717e-17
1.8639582606462262 2.6163511412701757e-21 1.2944987828850686e-13 1.2937870072480692e-13 7.117756369996264e-17
1.9207263702978936 2.7326133047740214e-21 1.3931988604997002e-13 1.392169057908693e-13 1.0298025910074239e-16
1.979223391128241 2.8550375990503256e-21 1.4999475743447007e-13 1.4984763597522299e-13 1.4712145924703017e-16
2.039501978296691 2.9838696303285704e-21 1.61537518924717e-13 1.6132990231803654e-13 2.0761660668050154e-16
2.1016163906111602 3.12023209273738e-21 1.740643286267771e-13 1.7377480141779196e-13 2.8952720898512014e-16
2.1656225393682647 3.2645205225625123e-21 1.876599511976637e-13 1.8726082976985675e-13 3.9912142780691837e-16
2.231578038680979 3.416096955132996e-21 2.0235395641591608e-13 2.0180990255719402e-13 5.440538587221154e-16
2.299542257339062 3.574781157840951e-21 2.1820278431161863e-13 2.174692333620188e-13 7.335509495998926e-16
2.369576372248914 3.740707650613738e-21 2.352848217318869e-13 2.3430621569169005e-13 9.786060401968465e-16
2.4417434235010123 3.9140944131104334e-21 2.53688486184011e-13 2.52396367069316e-13 1.292119114695045e-15
2.5161083711144245 4.0958352483042925e-21 2.735528569566444e-13 2.7186377251496145e-13 1.6890844416829527e-15
2.5927381535095444 4.2877141187938516e-21 2.950896062752455e-13 2.929029162773578e-13 2.1866899978877342e-15
2.6717017477616296 4.491206488592843e-21 3.185080625679331e-13 3.1570380130119083e-13 2.8042612667422984e-15
2.753070231689431 4.7087132939208794e-21 3.441034059599067e-13 3.405401463815261e-13 3.563259578380607e-15
2.836916847834745 4.9475392584214666e-21 3.7256777530231793e-13 3.680804179079931e-13 4.487357394324903e-15
2.9233170693905177 5.224283309763345e-21 4.053891080446053e-13 3.99787971570021e-13 5.6011364745842734e-15
2.967498994190263 5.393100421062917e-21 4.248137063357215e-13 4.185886955331417e-13 6.225010802579696e-15
3.0123486681368425 5.573662862819023e-21 4.456720179264372e-13 4.3876264629654155e-13 6.909371629895826e-15
3.0578761833420214 5.867060402188026e-21 4.762224761055865e-13 4.685611636738107e-13 7.66131243177597e-15
3.1040917844459814 6.20998677373477e-21 5.116755471238288e-13 5.031973431034215e-13 8.478204020407322e-15
3.127460860933648 6.5249799316491485e-21 5.416771261939084e-13 5.327620858852127e-13 8.915040308695576e-15
3.1510058709225794 6.924203929159744e-21 5.79146579200391e-13 5.697765977316949e-13 9.369981468696002e-15
3.162844764501044 7.283387060844645e-21 6.114778081314333e-13 6.018725466824553e-13 9.605261448977815e-15
3.1747281389236908 7.689588899684137e-21 6.480061036834981e-13 6.381608858671618e-13 9.845217816336468e-15
3.1986289994194426 8.787926096276971e-21 7.461389288801907e-13 7.357982927016054e-13 1.0340636178585324e-14
3.2227097969389145 1.132408315072779e-20 9.687097747950314e-13 9.578445813533082e-13 1.0865193441722903e-14
3.2348180950136065 1.3701106738103694e-20 1.1764539888194631e-12 1.165308963582198e-12 1.1145025237265036e-14
3.240889293275058 1.5476074438312873e-20 1.3313567333663921e-12 1.320064103694732e-12 1.1292629671660661e-14
3.2469718861334385 1.753289654076696e-20 1.511129317607554e-12 1.4996839612386372e-12 1.144535636891647e-14
3.2714166318528037 2.8323732026424416e-20 2.459550631218038e-12 2.447474461675657e-12 1.2076169542380335e-14
3.2744851364798273 2.89984964718353e-20 2.520507171423123e-12 2.508356754007891e-12 1.2150417415232069e-14
3.2775565192852394 2.969128339090805e-20 2.5831438556029935e-12 2.570918827661807e-12 1.222502794118575e-14
3.283707930232385 2.9028312339085203e-20 2.530205189840384e-12 2.51784691982876e-12 1.2358270011624179e-14
3.2898708863219004 2.6917357383230577e-20 2.3506106949049207e-12 2.3381313378522527e-12 1.2479357052667757e-14
3.29141343181113 2.641848897881929e-20 2.3081277605197e-12 2.2956180022463894e-12 1.2509758273310393e-14
3.292184975758714 2.6173205149574512e-20 2.2872338562058332e-12 2.274708877883801e-12 1.2524978322032145e-14
3.295272960557952 2.4643254927684774e-20 2.155553952564443e-12 2.142969803371982e-12 1.2584149192461045e-14
3.3076538914384823 1.9303332169475396e-20 1.694812960002861e-12 1.6819912376731395e-12 1.2821722329721598e-14
3.310756385682612 1.820534347795939e-20 1.5999099360852386e-12 1.5870283491197037e-12 1.2881586965535026e-14
3.313861789986515 1.7187911645716312e-20 1.5119134727708468e-12 1.4989718323872302e-12 1.2941640383616206e-14
3.3200813396944477 1.576753362162365e-20 1.3895747774878683e-12 1.3765038888355736e-12 1.3070888652294926e-14
3.345076488085796 1.329130837353165e-20 1.1801663297984191e-12 1.1665192484281261e-12 1.3647081370292753e-14
3.3482140837626964 1.3393203858425473e-20 1.1903293200226007e-12 1.1766041755447512e-12 1.3725144477849313e-14
3.3513546224236106 1.349601781245844e-20 1.200592043270332e-12 1.1867884932732313e-12 1.3803549997100373e-14
3.3576445397418455 1.4212637873272465e-20 1.2667147889431522e-12 1.2527472812376623e-12 1.3967507705489711e-14
3.3702598118196083 1.6805399058902225e-20 1.503424573121237e-12 1.4891131734580484e-12 1.4311399663188754e-14
3.382922481734668 1.7427637963125802e-20 1.5649483506448319e-12 1.5503029583444076e-12 1.4645392300424024e-14
3.389271646505754 1.7748347773497142e-20 1.5967382961111686e-12 1.5819236667544505e-12 1.4814629356718324e-14
3.395632727569191 1.8101000196321112e-20 1.6315211829801831e-12 1.6165321446278689e-12 1.4989038352313883e-14
3.421196662673239 1.9810070894149082e-20 1.7990096896532485e-12 1.7832989670120932e-12 1.571072264115483e-14
3.4276182099114902 1.9505067673207782e-20 1.7746361987147932e-12 1.7587647094114784e-12 1.5871489303315046e-14
3.4340518103208963 1.811309324715757e-20 1.6510829745646324e-12 1.6350595686738524e-12 1.6023405890779437e-14
3.4469541582030403 1.6116886638108012e-20 1.474640277922602e-12 1.4583255729355e-12 1.63147049871018e-14
3.472904465399547 1.5571073113157486e-20 1.43542601732353e-12 1.4184398582916109e-12 1.6986159031919066e-14
3.4990501388274233 1.4741147184682504e-20 1.3691495284536733e-12 1.3514769070192378e-12 1.7672621434435887e-14
3.5253949054701885 1.1774425784045438e-20 1.1018359603845062e-12 1.0834974788727016e-12 1.8338481511804587e-14
3.5519380250092896 8.951058819735962e-21 8.439354373627076e-13 8.249285431490825e-13 1.9006894213625082e-14
3.578680990867387 7.857972623100717e-21 7.464537959433552e-13 7.26714417657194e-13 1.9739378286161213e-14
3.605625307711299 7.445904302264166e-21 7.126355387848151e-13 6.921252334386941e-13 2.051030534612086e-14
3.660119384959845 7.204999908959866e-21 7.000010058413837e-13 6.778734170105021e-13 2.2127588830881473e-14
3.715437065384467 7.05221656770577e-21 6.95512569402816e-13 6.716835286844174e-13 2.3829040718398808e-14
3.8285932144167436 7.100236282143946e-21 7.215749696587773e-13 6.941013701112948e-13 2.7473599547482577e-14
3.94519561050918 7.236057842566735e-21 7.577745304209968e-13 7.263452358708186e-13 3.1429294550177974e-14
4.06534921144712 7.401652467119015e-21 7.987226125794993e-13 7.63035719986296e-13 3.5686892593203163e-14
4.189162171576248 7.579631075986111e-21 8.428390985119627e-13 8.025895683130537e-13 4.0249530198908994e-14
4.316745939156006 7.762371072484285e-21 8.894475068242387e-13 8.443529342878282e-13 4.509457253641042e-14
4.448215356677963 7.946080463174898e-21 9.38227582933278e-13 8.880793242895363e-13 5.014825864374141e-14
4.58368876423945 8.129806708325339e-21 9.89155964699688e-13 9.337446392321134e-13 5.541132546757438e-14
4.723288106065518 8.314412234081893e-21 1.0424264523154643e-12 9.815149614311901e-13 6.091149088427424e-14
4.867139040275056 8.500947858493878e-21 1.098273585186736e-12 1.0317813666111869e-12 6.649221857554941e-14
4.940699165968905 8.599593931934523e-21 1.127809604084108e-12 1.058480960800253e-12 6.932864328385494e-14
5.015371051989984 8.695064668310697e-21 1.157564816908519e-12 1.0853788818267165e-12 7.218593508180248e-14
5.091171501069577 8.802402658637105e-21 1.189565584589994e-12 1.1144380675920303e-12 7.512751699796387e-14
5.129500256944802 8.854714454962138e-21 1.2056438903080263e-12 1.1290413719834383e-12 7.660251832458797e-14
5.168117569889187 8.90748345186558e-21 1.2219595845120428e-12 1.1438640905697869e-12 7.809549394225635e-14
5.20702561229733 8.97118257451481e-21 1.2399633310324097e-12 1.1602323119713122e-12 7.973101906109752e-14
5.246226572918644 9.034329053436003e-21 1.2580919415033084e-12 1.1767185355670128e-12 8.137340593629521e-14
5.265937586045735 9.065698334667212e-21 1.2672036175055695e-12 1.1850066905115846e-12 8.2196926993985e-14
5.285722656980489 9.096933622079082e-21 1.276347202151822e-12 1.1933253348017943e-12 8.302186735002852e-14
5.305582063971359 9.128036544822294e-21 1.2855229653930869e-12 1.2016748386124012e-12 8.384812678068567e-14
5.3255160863122235 9.161147697481752e-21 1.2950335475717455e-12 1.2103508949828966e-12 8.468265258884887e-14
5.365609099470188 9.243550914388713e-21 1.3165195134394997e-12 1.2301098790916778e-12 8.640963434782183e-14
5.406003951863644 9.326345614210955e-21 1.3383117695939506e-12 1.2501685059096583e-12 8.814326368429265e-14
5.446702915881641 9.40960576103632e-21 1.3604248265817882e-12 1.2705420894840415e-12 8.988273709774683e-14
5.487708281020852 9.497467246787129e-21 1.3834652481238922e-12 1.2918300341815321e-12 9.163521394236021e-14
5.529022354014368 9.622047934404591e-21 1.4121645171545072e-12 1.318702625841157e-12 9.346189131335044e-14
5.570647458961463 9.750015868517276e-21 1.4417183640918052e-12 1.3464231933208763e-12 9.529517077092938e-14
5.612585937458331 9.881706665021249e-21 1.4721918009874885e-12 1.3750575672166764e-12 9.713423377081202e-14
5.654840148729818 1.00235754512766e-20 1.5045701094465655e-12 1.4055820889003689e-12 9.898802054619668e-14
5.67608639626678 1.0123179541948467e-20 1.525230108430091e-12 1.4252711012299752e-12 9.995900720011585e-14
5.686739436050992 1.0173971148891781e-20 1.5357596903207264e-12 1.4353144926154166e-12 1.004451977053096e-13
5.6974124697621304 1.0225445874010527e-20 1.5464267341836078e-12 1.4454948984853042e-12 1.00931835698303e-13
5.718818669136295 1.0330517624324882e-20 1.5681869746280913e-12 1.4662805726375738e-12 1.0190640199051789e-13
5.740305295436557 1.0446136497635992e-20 1.5916959828165757e-12 1.4888056099159125e-12 1.0289037290066317e-13
5.7835210386641895 1.0750101891903773e-20 1.650343448295894e-12 1.5454200637868644e-12 1.049233845090299e-13
5.827062130521658 1.109313339757969e-20 1.7158262879321274e-12 1.6088428121161955e-12 1.0698347581593225e-13
5.8489554468988025 1.1339749834904669e-20 1.7605615792865037e-12 1.6524620164712727e-12 1.0809956281523085e-13
5.870931020387893 1.1600458116106605e-20 1.8078048665301227e-12 1.6985857471412106e-12 1.0921911938891216e-13
5.892989160043636 1.1876379653583561e-20 1.8577580316279168e-12 1.7474159893707469e-12 1.1034204225716975e-13
5.915130176081913 1.2189270626479568e-20 1.913865699964034e-12 1.80235848982123e-12 1.115072101428045e-13
5.95966208400165 1.3074837245767771e-20 2.068365857583212e-12 1.9541821764111177e-12 1.141836811720944e-13
6.004529249263818 1.4346681224335046e-20 2.286650794033476e-12 2.1694432391604422e-12 1.1720755487303422e-13
6.027089341400364 1.5232706582576045e-20 2.4369921985011622e-12 2.31802671795643e-12 1.1896548054473209e-13
6.049734195844842 1.6270231468133523e-20 2.6127596365315206e-12 2.4919297426990585e-12 1.2082989383246223e-13
6.095279466722835 1.926686788890657e-20 3.1172682429557355e-12 2.991819022773811e-12 1.254492201819256e-13
6.141167624020661 2.3838571505704722e-20 3.885980456111906e-12 3.754490678062738e-12 1.31489778049168e-13
6.164241091010745 2.6751664074272172e-20 4.377234882540938e-12 4.241932084767798e-12 1.3530279777313936e-13
6.187401249150058 3.002575641149422e-20 4.931416349802367e-12 4.792202352374446e-12 1.3921399742792304e-13
6.1990139391386085 3.161508451438159e-20 5.2021921939547946e-12 5.060988849224522e-12 1.4120334473027396e-13
6.204828454712694 3.2448562192338214e-20 5.3443472641063625e-12 5.2021395668855145e-12 1.4220769722084686e-13
6.210648424152782 3.3050267569223984e-20 5.4485552359846985e-12 5.305496695784432e-12 1.4305854020026607e-13
6.233982942956859 3.5062565821513775e-20 5.802013521532022e-12 5.6560091516269736e-12 1.46004369905048e-13
6.239830258556775 3.530138071926057e-20 5.8470108645299536e-12 5.700613255260651e-12 1.4639760926930238e-13
6.245683058788269 3.529305969059925e-20 5.851115695385827e-12 5.704324377340142e-12 1.4679131804568436e-13
6.257405133728602 3.517093338344393e-20 5.841812332256656e-12 5.694340974413961e-12 1.4747135784269424e-13
6.269149208991335 3.469112751858627e-20 5.772932171125438e-12 5.62525487063643e-12 1.4767730048900727e-13
6.280915325867298 3.358733551248817e-20 5.599740791680183e-12 5.452443219893368e-12 1.4729757178681424e-13
6.304513850009849 3.0906919478387805e-20 5.172217232060041e-12 5.026208170226468e-12 1.4600906183357244e-13
6.32820103803542 2.7646101945390315e-20 4.643907983428187e-12 4.4997502434385055e-12 1.4415773998968212e-13
6.3519772230701035 2.4672737815509058e-20 4.160022781145204e-12 4.01753642824618e-12 1.4248635289902462e-13
6.375842739491607 2.2164643453495985e-20 3.751178919949936e-12 3.6101789393907294e-12 1.4099998055920654e-13
6.399797922933955 2.0172615730387112e-20 3.426872211720149e-12 3.2866926353498324e-12 1.4017957637031589e-13
6.42384311029221 1.8508801957706868e-20 3.1560412233151384e-12 3.0165489388698724e-12 1.3949228444526615e-13
6.447978639727206 1.7298048337659304e-20 2.9606708620094716e-12 2.8213477424392406e-12 1.3932311957023133e-13
6.472204850670314 1.6283922251517556e-20 2.7975683617215766e-12 2.658311969658803e-12 1.3925639206277454e-13
