Dust emission spectrum from A.P. Jones, M. Kohler, N. Ysard, M. Bocchio, and L. Verstraete (2017), A&A, 602A, 46J 
inside the DustPedia framework.

lambda    nu*dP/dnu     j_nu    j_nu(carb.) j_nu(sil)
 (um)   (erg s-1 H-1) (Jy cm2 sr-1 H-1)
0.9927057738263894 1.8031095857510883e-21 4.751296173034012e-14 4.751295185572428e-14 9.87461582572661e-21
1.0001793341362166 1.833403797409093e-21 4.8674941298067846e-14 4.8674929415899755e-14 1.1882168080655399e-20
1.0077091589558085 1.86382353008783e-21 4.9855081336252634e-14 4.9855067057482754e-14 1.4278769867735344e-20
1.0114953028030835 1.879079186551458e-21 5.045199982253919e-14 5.045198417772445e-14 1.564481473120282e-20
1.0152956718711033 1.894364712943767e-21 5.1053504994689673e-14 5.1053487858878184e-14 1.7135811499331975e-20
1.0229392996569957 1.9250085734092053e-21 5.226993558926204e-14 5.226991505199441e-14 2.0537267610414613e-20
1.0267826658714554 1.9403321811404736e-21 5.288396973740641e-14 5.288394726449356e-14 2.2472912844847817e-20
1.0306404723013447 1.9556830662490955e-21 5.350262633631277e-14 5.350260175354405e-14 2.4582768714762396e-20
1.03451277320114 1.971060811022486e-21 5.412592278603247e-14 5.4125895904316744e-14 2.6881715721526186e-20
1.0383996230291617 1.9864650136435315e-21 5.475387691458977e-14 5.475384752875772e-14 2.9385832042643e-20
1.0403485208654093 1.9941769155299076e-21 5.506960630143215e-14 5.5069575581229496e-14 3.0720202645087325e-20
1.0423010764483396 2.001895288614891e-21 5.538650699718379e-14 5.5386474884700224e-14 3.211248355990158e-20
1.0462171883269815 2.017351267183425e-21 5.602383177574298e-14 5.6023796695322855e-14 3.508042013386864e-20
1.0471985131304309 2.021219236428007e-21 5.6183898758994384e-14 5.618386289655204e-14 3.5862442350912057e-20
1.048180758391296 2.0250887847642286e-21 5.6344260665375894e-14 5.6344224004242626e-14 3.6661133263999044e-20
1.0501480137395462 2.032832597764653e-21 5.666587047883478e-14 5.666583216895628e-14 3.8309878518106986e-20
1.0521189612883777 2.040582664988872e-21 5.698866369905286e-14 5.698862366961703e-14 4.002943585793341e-20
1.0531058218030118 2.0444549205793272e-21 5.715036200542927e-14 5.71503210887026e-14 4.09167266878792e-20
1.0540936079674168 2.0483119813761438e-21 5.731188835991471e-14 5.731184653690053e-14 4.182301415442425e-20
1.058054026499678 2.0637549408940537e-21 5.796093775562712e-14 5.796089211172281e-14 4.5643904313082475e-20
1.0590464539527713 2.0676193369867547e-21 5.812393770065457e-14 5.812389105060805e-14 4.665004653046455e-20
1.06003981227728 2.0714851866755503e-21 5.828723333254002e-14 5.82871856551631e-14 4.7677376907546945e-20
1.0620293250338977 2.079221229660089e-21 5.861471297175388e-14 5.861466317444878e-14 4.9797305104772604e-20
1.0660195594769086 2.0947105740216256e-21 5.927323508509631e-14 5.927318077448885e-14 5.431060745092734e-20
1.070024785945596 2.11022271978816e-21 5.993652576800121e-14 5.993646655467915e-14 5.921332207192592e-20
1.0740450607676866 2.1257574326523594e-21 6.060460731048e-14 6.060454277324786e-14 6.453723214188679e-20
1.07808044048254 2.141314498610607e-21 6.1277502642697e-14 6.127743232614095e-14 7.031655604106843e-20
1.0861967418109137 2.172471227233634e-21 6.263714610633764e-14 6.263706271478147e-14 8.339155615228155e-20
1.0902777775684922 2.1880166604232504e-21 6.33223782787305e-14 6.332228750924328e-14 9.076948721084568e-20
1.0943741465085532 2.203582875228595e-21 6.40124790112987e-14 6.401238024359315e-14 9.876770553935659e-20
1.1026131145906286 2.2347772658288737e-21 6.5407391798376e-14 6.540727497277814e-14 1.1682559786621128e-19
1.1109141095355224 2.26605386347909e-21 6.682210376898326e-14 6.68219657644358e-14 1.38004547467608e-19
1.1192775983109025 2.2973881509214505e-21 6.825612381235219e-14 6.825596100147028e-14 1.6281088190334682e-19
1.1277040513999907 2.3286683902980637e-21 6.970633061023117e-14 6.970613878288505e-14 1.9182734612745192e-19
1.1361939428280308 2.360027953159665e-21 7.117689682693802e-14 7.117667110322142e-14 2.2572371661597107e-19
1.1447477501889525 2.3914679397642643e-21 7.266809826207296e-14 7.266783299332663e-14 2.6526874634564345e-19
1.1533659546722406 2.4230008997499015e-21 7.418056487762117e-14 7.418025353358239e-14 3.113440387776053e-19
1.1707974979042381 2.4864442363168498e-21 7.727338593509792e-14 7.727295866497673e-14 4.272701211934702e-19
1.1884924949847024 2.5502838497426085e-21 8.045525160022356e-14 8.045466818299216e-14 5.834172313934256e-19
1.2064549276569216 2.6149571363285334e-21 8.374234326262502e-14 8.374155057455076e-14 7.926880742070567e-19
1.2246888378427687 2.6800641541622023e-21 8.712451684985105e-14 8.712344511307221e-14 1.0717367788460724e-18
1.2431983285522175 2.745567037271458e-21 9.060285911954652e-14 9.060141713616935e-14 1.4419833771536698e-18
1.2619875648066055 2.8115785032912976e-21 9.418347772514043e-14 9.418154688754808e-14 1.930837592360412e-18
1.3004222497298317 2.944812472650096e-21 1.0165095623781576e-13 1.0164754314529533e-13 3.4130925204062714e-18
1.3400274889804893 3.08036058646035e-21 1.0956824323211257e-13 1.0956232077146304e-13 5.9224606495278834e-18
1.3808389325824078 3.21897514633126e-21 1.1798589192957016e-13 1.1797579910398502e-13 1.0092825585143313e-17
1.4228933163050095 3.3621328334389982e-21 1.2698623302357203e-13 1.2696933268257224e-13 1.6900340999748667e-17
1.466228494730424 3.512678385620669e-21 1.3671289401943317e-13 1.3668507332934147e-13 2.782069009169245e-17
1.5108834753276823 3.670925783289124e-21 1.4722311709298357e-13 1.4717807467477619e-13 4.504241820739643e-17
1.5568984535646726 3.837517658206397e-21 1.5859157317838048e-13 1.5851977452977098e-13 7.179864860951071e-17
1.6043148490894465 4.014330813783661e-21 1.7095121638954558e-13 1.7083832372655784e-13 1.1289266298770298e-16
1.6531753430134553 4.203541070442216e-21 1.8446061287565163e-13 1.842857278664102e-13 1.7488500924144368e-16
1.7035239163302658 4.407785763487027e-21 1.9931415651589652e-13 1.9904717703610412e-13 2.6697947979237896e-16
1.755405889504358 4.632159937574386e-21 2.1583930320938602e-13 2.154374587559649e-13 4.018444534211792e-16
1.8088679632656115 4.878929070669161e-21 2.342614378408462e-13 2.336648897304658e-13 5.965481103803842e-16
1.8639582606462262 5.150719050520205e-21 2.5484345112194623e-13 2.5396965173744196e-13 8.737993845042125e-16
1.9207263702978936 5.4513414550981644e-21 2.7793184971210577e-13 2.766685143768778e-13 1.2633353352279735e-15
1.979223391128241 5.785468167232248e-21 3.039504259689971e-13 3.021468596655689e-13 1.803566303428236e-15
2.039501978296691 6.1582098695718354e-21 3.333865304426181e-13 3.308431879657522e-13 2.5433424768660177e-15
2.1016163906111602 6.5769928529283315e-21 3.669021442323961e-13 3.633579794098156e-13 3.544164822580344e-15
2.1656225393682647 7.04857069085932e-21 4.051849031788753e-13 4.003028075582644e-13 4.8820956206107576e-15
2.231578038680979 7.578352624105887e-21 4.489069416775565e-13 4.4225704925364074e-13 6.649892423915633e-15
2.299542257339062 8.173225621023564e-21 4.988894448552837e-13 4.899302476144856e-13 8.959197240798318e-15
2.369576372248914 8.841214425699534e-21 5.560989401838988e-13 5.441561118700964e-13 1.194282831380253e-14
2.4417434235010123 9.590908024773047e-21 6.2162602153514e-13 6.058696394621051e-13 1.575638207303477e-14
2.5161083711144245 1.0432579803043127e-20 6.967716808756297e-13 6.761912763740575e-13 2.0580404501572205e-14
2.5927381535095444 1.1378272585221976e-20 7.830769226307653e-13 7.564554534112969e-13 2.6621469219468322e-14
2.6717017477616296 1.2439336583618126e-20 8.821747574825889e-13 8.480634027881602e-13 3.411135469442846e-14
2.753070231689431 1.362837458832686e-20 9.9593451986026e-13 9.526276491979707e-13 4.330687066228933e-14
2.836916847834745 1.4966703066448847e-20 1.1270474015109296e-12 1.072556781310922e-12 5.4490620200007635e-14
2.9233170693905177 1.6490724594424366e-20 1.2796320065279462e-12 1.2116771684632566e-12 6.795483806468964e-14
2.967498994190263 1.7342491895131434e-20 1.3660654695571157e-12 1.2905779637218839e-12 7.548750583523221e-14
3.0123486681368425 1.8248955827878868e-20 1.4591928448194114e-12 1.3754462883268503e-12 8.374655649256094e-14
3.0578761833420214 1.9399306803359013e-20 1.574619193826993e-12 1.4818019384719737e-12 9.281725535501872e-14
3.1040917844459814 2.0671011836176013e-20 1.7032002927306465e-12 1.600534864989174e-12 1.0266542774147299e-13
3.127460860933648 2.1580048777879113e-20 1.791487319129807e-12 1.6835579200155205e-12 1.0792939911428633e-13
3.1510058709225794 2.2649557023964286e-20 1.8944291076685414e-12 1.7810193001982554e-12 1.1340980747028617e-13
3.162844764501044 2.347762155223502e-20 1.971067093780832e-12 1.854823669815312e-12 1.162434239655201e-13
3.1747281389236908 2.4392067258922583e-20 2.0555336145329582e-12 1.9364007183463685e-12 1.1913289618658961e-13
3.1986289994194426 2.6743394530384354e-20 2.270648106380301e-12 2.145550968946106e-12 1.250971374341959e-13
3.2227097969389145 3.1707580507924335e-20 2.7124000030989397e-12 2.580989584150986e-12 1.3141041894795378e-13
3.2348180950136065 3.620061798671618e-20 3.1083884128689243e-12 2.9736105277576487e-12 1.3477788511127546e-13
3.240889293275058 3.951028525234945e-20 3.3989423169042834e-12 3.2623881718992084e-12 1.365541450050736e-13
3.2469718861334385 4.333015983673792e-20 3.73454977696753e-12 3.59615773306029e-12 1.383920439072396e-13
3.2714166318528037 6.321775661266127e-20 5.489646386846148e-12 5.343664637934062e-12 1.4598174891208607e-13
3.2744851364798273 6.448473570783243e-20 5.604919515629966e-12 5.458044861102514e-12 1.4687465452745125e-13
3.2775565192852394 6.578417931871634e-20 5.723228476377108e-12 5.575456592683582e-12 1.4777188369352506e-13
3.283707930232385 6.468172036747046e-20 5.637875969152388e-12 5.488502632873515e-12 1.4937333627887299e-13
3.2898708863219004 6.096213942725817e-20 5.323637639528178e-12 5.172809725638804e-12 1.5082791388937303e-13
3.29141343181113 6.008421665011552e-20 5.2494315072447275e-12 5.0982384133851796e-12 1.511930938595481e-13
3.292184975758714 5.965272725133912e-20 5.212954875207297e-12 5.0615789608170265e-12 1.5137591439026988e-13
3.295272960557952 5.693949144777526e-20 4.980516827319624e-12 4.8284303110151115e-12 1.520865163045124e-13
3.3076538914384823 4.748790789677519e-20 4.169390084585799e-12 4.014450861828244e-12 1.5493922275755506e-13
3.310756385682612 4.5551075942145126e-20 4.003089482351255e-12 3.847431501859683e-12 1.5565798049157164e-13
3.313861789986515 4.375910035176621e-20 3.849215352154528e-12 3.6928363790601964e-12 1.563789730943311e-13
3.3200813396944477 4.129038082298803e-20 3.638874228611582e-12 3.4809431505966736e-12 1.579310780149079e-13
3.345076488085796 3.7241244714477314e-20 3.306737144052224e-12 3.1418857197801147e-12 1.6485142427210922e-13
3.3482140837626964 3.7481576463029155e-20 3.3311984119875597e-12 3.165409367167933e-12 1.6578904481962594e-13
3.3513546224236106 3.772372384234343e-20 3.3558641754189143e-12 3.1891334389755676e-12 1.6673073644334688e-13
3.3576445397418455 3.9134892126973075e-20 3.4879342640647738e-12 3.319234165841834e-12 1.687000982229383e-13
3.3702598118196083 4.40550516649751e-20 3.9412005041417795e-12 3.768369843354059e-12 1.728306607877211e-13
3.382922481734668 4.541020538259761e-20 4.077696941278043e-12 3.900856039525886e-12 1.7684090175215725e-13
3.389271646505754 4.61059205870636e-20 4.147940417798047e-12 3.969067764334275e-12 1.7887265346377127e-13
3.395632727569191 4.6864056796801504e-20 4.224059474896194e-12 4.043092977247047e-12 1.8096649764914705e-13
3.421196662673239 5.0457332661403333e-20 4.5821759476253e-12 4.3925468795724764e-12 1.8962906805282408e-13
3.4276182099114902 5.000900858388537e-20 4.549986617924226e-12 4.358429380713808e-12 1.9155723721041695e-13
3.4340518103208963 4.758001124964722e-20 4.337113790115012e-12 4.143735286067476e-12 1.9337850404753415e-13
3.4469541582030403 4.41492053591654e-20 4.039502040484933e-12 3.8426328040382515e-12 1.968692364466823e-13
3.472904465399547 4.359044155077118e-20 4.018403449388824e-12 3.81348557685255e-12 2.0491787253627345e-13
3.4990501388274233 4.252178497940636e-20 3.949399671828637e-12 3.73625664754386e-12 2.1314302428477768e-13
3.5253949054701885 3.756917514002206e-20 3.5156761722810287e-12 3.2945603359595605e-12 2.2111583632146803e-13
3.5519380250092896 3.2873506704307984e-20 3.099422964015828e-12 2.87030815079524e-12 2.291148132205885e-13
3.578680990867387 3.1353728552737574e-20 2.9783903326877944e-12 2.7405103085631455e-12 2.3788002412464834e-13
3.605625307711299 3.108634230734093e-20 2.975223881443748e-12 2.7281212192641667e-12 2.471026621795814e-13
3.660119384959845 3.1633854857539293e-20 3.0733838304953677e-12 2.806945418995365e-12 2.664384115000023e-13
3.715437065384467 3.236500224158557e-20 3.191941945012634e-12 2.9051787136539505e-12 2.867632313586836e-13
3.8285932144167436 3.453922694926294e-20 3.5101144029007625e-12 3.179874852044142e-12 3.302395508566202e-13
3.94519561050918 3.69531050215694e-20 3.869803477881647e-12 3.4924656511673428e-12 3.7733782671430354e-13
4.06534921144712 3.9486887068211954e-20 4.2610849052779174e-12 3.833157368639699e-12 4.2792753663821883e-13
4.189162171576248 4.209398274567978e-20 4.6807627065847804e-12 4.198736732108953e-12 4.820259744758263e-13
4.316745939156006 4.4742109625708574e-20 5.1267528291335546e-12 4.5874112059963555e-12 5.393416231372005e-13
4.448215356677963 4.7400858636993316e-20 5.596821380560107e-12 4.99784603620979e-12 5.98975344350318e-13
4.58368876423945 5.0051571703041484e-20 6.089789397078535e-12 5.428873263034537e-12 6.609161340440004e-13
4.723288106065518 5.2680362372290345e-20 6.604844901643688e-12 5.879372330374132e-12 7.254725712695562e-13
4.867139040275056 5.525935029347491e-20 7.13919033173048e-12 6.3484269078020896e-12 7.907634239283898e-13
4.940699165968905 5.653580094188909e-20 7.414491868048748e-12 6.5906248736971845e-12 8.238669943515634e-13
5.015371051989984 5.778587876779647e-20 7.692973281674045e-12 6.83581583995413e-12 8.571574417199162e-13
5.091171501069577 5.90434903234291e-20 7.97919690868793e-12 7.08781422224534e-12 8.913826864425922e-13
5.129500256944802 5.966027823900827e-20 8.123248956111569e-12 7.214728212541138e-12 9.085207435704334e-13
5.168117569889187 6.027265307861134e-20 8.268412342427986e-12 7.342555945329009e-12 9.258563970989764e-13
5.20702561229733 6.091108165338114e-20 8.418902087476282e-12 7.474028050386132e-12 9.448740370901487e-13
5.246226572918644 6.154144675463623e-20 8.570066218809687e-12 7.606111188521138e-12 9.639550302885486e-13
5.265937586045735 6.185351539003958e-20 8.645886457303107e-12 7.672370167383056e-12 9.735162899200527e-13
5.285722656980489 6.21634610972375e-20 8.721857599901806e-12 7.738767821536869e-12 9.830897783649369e-13
5.305582063971359 6.247124933324149e-20 8.79797372636866e-12 7.805299450185645e-12 9.926742761830138e-13
5.3255160863122235 6.278183589208974e-20 8.874934270599021e-12 7.872581926043997e-12 1.0023523445550259e-12
5.365609099470188 6.343479150041112e-20 9.03474666983864e-12 8.012364069135083e-12 1.0223826007035583e-12
5.406003951863644 6.408035681265415e-20 9.195401850804184e-12 8.152929723583393e-12 1.0424721272207914e-12
5.446702915881641 6.471837192525879e-20 9.35687234290453e-12 8.294261205207298e-12 1.0626111376972332e-12
5.487708281020852 6.535777876356707e-20 9.520455639849959e-12 8.437571442583944e-12 1.0828841972660141e-12
5.529022354014368 6.606966885251834e-20 9.696609562717603e-12 8.592593877537768e-12 1.1040156851798389e-12
5.570647458961463 6.67785519910939e-20 9.874431593890371e-12 8.749227441093645e-12 1.125204152796727e-12
5.612585937458331 6.748473959268508e-20 1.0053979913389088e-11 8.907540276478282e-12 1.1464396369108042e-12
5.654840148729818 6.820202120688771e-20 1.0237337266579366e-11 9.069509758064338e-12 1.1678275085150262e-12
5.67608639626678 6.861910484394629e-20 1.0338641558990218e-11 9.15960738429007e-12 1.1790341747001527e-12
5.686739436050992 6.882848460577572e-20 1.0389651263648906e-11 9.205007666027243e-12 1.1846435976216614e-12
5.6974124697621304 6.90384582067089e-20 1.0440905831698354e-11 9.250648962165706e-12 1.1902568695326446e-12
5.718818669136295 6.9460297448502e-20 1.0544169970345727e-11 9.342675645509482e-12 1.2014943248362441e-12
5.740305295436557 6.990139443626656e-20 1.0650997021019348e-11 9.438160416631663e-12 1.212836604387684e-12
5.7835210386641895 7.092831557964207e-20 1.0888834551762192e-11 9.65256636419318e-12 1.2362681875690083e-12
5.827062130521658 7.202019503110842e-20 1.113969691587195e-11 9.87970287727899e-12 1.2599940385929603e-12
5.8489554468988025 7.272187170687001e-20 1.1290490104713486e-11 1.0017630575324125e-11 1.2728595293893627e-12
5.870931020387893 7.344583236562424e-20 1.1445731870931823e-11 1.0159972740443987e-11 1.2857591304878347e-12
5.892989160043636 7.419399564616561e-20 1.1605766684011393e-11 1.0307075117414822e-11 1.2986915665965684e-12
5.915130176081913 7.501443806065169e-20 1.177819119828847e-11 1.0466076774392801e-11 1.3121144238956671e-12
5.95966208400165 7.718987780375723e-20 1.221100536849829e-11 1.0867994668786058e-11 1.3430106997122308e-12
6.004529249263818 8.0135287663261e-20 1.2772390791988889e-11 1.139443777563882e-11 1.3779530163500695e-12
6.027089341400364 8.211519689146003e-20 1.3137133123260957e-11 1.1738835536130714e-11 1.3982975871302408e-12
6.049734195844842 8.438597482825397e-20 1.3551145191293323e-11 1.2131263824420083e-11 1.4198813668732378e-12
6.095279466722835 9.078029200121416e-20 1.4687728331005515e-11 1.321426762601012e-11 1.4734607049953997e-12
6.141167624020661 1.0027799858603924e-19 1.6346547551732003e-11 1.480289668149153e-11 1.543650870240481e-12
6.164241091010745 1.0629143625275834e-19 1.739191181487683e-11 1.580389464881816e-11 1.5880171660586715e-12
6.187401249150058 1.1293714268889486e-19 1.854874409567833e-11 1.691523058803753e-11 1.6335135076407998e-12
6.1990139391386085 1.1615807207091913e-19 1.911355370621548e-11 1.745690164946569e-11 1.6566520567497938e-12
6.204828454712694 1.1783744649845084e-19 1.940807827078317e-11 1.7739745682266993e-11 1.6683325885161773e-12
6.210648424152782 1.1905605620391332e-19 1.9627178419867522e-11 1.794896350904165e-11 1.6782149108258747e-12
6.233982942956859 1.231129405611938e-19 2.0372238285349057e-11 1.865986317752208e-11 1.7123751078269803e-12
6.239830258556775 1.2358604321974897e-19 2.0469707492655742e-11 1.8752814187273215e-11 1.7168933053825168e-12
6.245683058788269 1.2357602514885668e-19 2.0487246689877227e-11 1.8765830267063885e-11 1.7214164228133417e-12
6.257405133728602 1.2334302228418521e-19 2.0486996487182927e-11 1.8757792805129635e-11 1.7292036820532912e-12
6.269149208991335 1.223916397508264e-19 2.0367127998817325e-11 1.8635690769044976e-11 1.731437229772348e-12
6.280915325867298 1.201982111036463e-19 2.0039661245346934e-11 1.8312849550160045e-11 1.7268116951868862e-12
6.304513850009849 1.1486517994212896e-19 1.9222480696460116e-11 1.751111326078154e-11 1.7113674356785737e-12
6.32820103803542 1.084341055587308e-19 1.821443071702365e-11 1.652509557314833e-11 1.689335143875321e-12
6.3519772230701035 1.0260015959740592e-19 1.7299215209349316e-11 1.5629802863280707e-11 1.6694123460686078e-12
6.375842739491607 9.764619561919627e-20 1.6525794849285646e-11 1.4874134686973645e-11 1.6516601623120042e-12
6.399797922933955 9.381029512346116e-20 1.5936252285200602e-11 1.4294552649081729e-11 1.6416996361188715e-12
6.42384311029221 9.05896958837453e-20 1.544696492349869e-11 1.3813666626146414e-11 1.6332982973522732e-12
6.447978639727206 8.830775953887381e-20 1.511443403628857e-11 1.3483478936902739e-11 1.6309550993858299e-12
6.472204850670314 8.639741502015398e-20 1.4843025596759173e-11 1.3213216637903775e-11 1.6298089588554007e-12
6.496522083828205 8.520454225999188e-20 1.469308868054977e-11 1.3059533256609412e-11 1.6335554239403555e-12
