Dust emission spectrum from A.P. Jones, M. Kohler, N. Ysard, M. Bocchio, and L. Verstraete (2017), A&A, 602A, 46J 
inside the DustPedia framework.

lambda    nu*dP/dnu     j_nu    j_nu(carb.) j_nu(sil)
 (um)   (erg s-1 H-1) (Jy cm2 sr-1 H-1)
0.9927057738263894 2.4221527021185915e-24 6.38250994560945e-17 6.382509521664322e-17 4.239451263080316e-24
1.0001793341362166 2.462737126278879e-24 6.538307885235002e-17 6.538307374829303e-17 5.104056989621172e-24
1.0077091589558085 2.5033837932564678e-24 6.69625641129107e-17 6.696255797599143e-17 6.1369192667986996e-24
1.0114953028030835 2.523727117171939e-24 6.776035889225637e-17 6.776035216631142e-17 6.725944962205772e-24
1.0152956718711033 2.5440820045063466e-24 6.856351495384955e-17 6.856350758477418e-17 7.369075377568743e-24
1.0229392996569957 2.5848014289913764e-24 7.018535193593213e-17 7.018534309886695e-17 8.837065175139458e-24
1.0267826658714554 2.605118429068339e-24 7.100279297755759e-17 7.100278330467093e-17 9.67288664212979e-24
1.0306404723013447 2.625440800680205e-24 7.182553275174263e-17 7.182552216747499e-17 1.0584267653621623e-23
1.03451277320114 2.64576729105843e-24 7.265356568646484e-17 7.265355410876749e-17 1.1577697370967544e-23
1.0383996230291617 2.6660966624942454e-24 7.348688625170233e-17 7.348687359151164e-17 1.2660190679404189e-23
1.0403485208654093 2.6762620460576444e-24 7.390552768318284e-17 7.390551444600102e-17 1.3237181830898708e-23
1.0423010764483396 2.6864276928056302e-24 7.432548897597748e-17 7.432547513664946e-17 1.3839328021756412e-23
1.0462171883269815 2.706759175801248e-24 7.51693684631621e-17 7.516935333986408e-17 1.5123298023180446e-23
1.0471985131304309 2.711841977491393e-24 7.538116220535705e-17 7.538114674366527e-17 1.5461691797590456e-23
1.048180758391296 2.716924714606779e-24 7.559328533135354e-17 7.559326952402188e-17 1.5807331672719045e-23
1.0501480137395462 2.7270899217412753e-24 7.601851940954439e-17 7.60185028886013e-17 1.6520943084944305e-23
1.0521189612883777 2.737254651132902e-24 7.644507005205393e-17 7.644505278670621e-17 1.726534771013182e-23
1.0531058218030118 2.7423295869027135e-24 7.66586374940852e-17 7.665861984456964e-17 1.764951554755175e-23
1.0540936079674168 2.747380745203798e-24 7.687187302664344e-17 7.687185498469838e-17 1.804194503633344e-23
1.058054026499678 2.767582310376018e-24 7.772805910559615e-17 7.772803940876729e-17 1.9696828847910305e-23
1.0590464539527713 2.7726318464623254e-24 7.794291619727651e-17 7.794289606456679e-17 2.0132709721677086e-23
1.06003981227728 2.7776810054382956e-24 7.81580973538985e-17 7.81580767760849e-17 2.0577813599046616e-23
1.0620293250338977 2.787778122585957e-24 7.858943153972325e-17 7.858941004328732e-17 2.149643593005337e-23
1.0660195594769086 2.8079670714821874e-24 7.945598518635962e-17 7.945596173360096e-17 2.3452758641958313e-23
1.070024785945596 2.828148065708923e-24 8.032771509213126e-17 8.032768951340722e-17 2.5578724045568495e-23
1.0740450607676866 2.8483200333434988e-24 8.120461651166482e-17 8.120458862340302e-17 2.788826179912492e-23
1.07808044048254 2.8684819223304563e-24 8.20866849265644e-17 8.208665453018782e-17 3.039637658998964e-23
1.0861967418109137 2.90873842550463e-24 8.386535640126947e-17 8.386532032706532e-17 3.607420414131229e-23
1.0902777775684922 2.9287561478795585e-24 8.475977721591588e-17 8.475973793588215e-17 3.928003373088141e-23
1.0943741465085532 2.948758477081969e-24 8.565928799206946e-17 8.565924523523437e-17 4.275683506207819e-23
1.1026131145906286 2.988713223498858e-24 8.747356605575299e-17 8.747351544419671e-17 5.061155627761299e-23
1.1109141095355224 3.0285954286463855e-24 8.930816750161709e-17 8.930810766994501e-17 5.983167208194335e-23
1.1192775983109025 3.068364521657677e-24 9.116207403076134e-17 9.116200339054745e-17 7.064021385051967e-23
1.1277040513999907 3.107859103304698e-24 9.303061571477976e-17 9.303053242062243e-17 8.329415730923202e-23
1.1361939428280308 3.1472567753040443e-24 9.491920232715241e-17 9.491910423798399e-17 9.808916843772328e-23
1.1447477501889525 3.1865519437657427e-24 9.682783779639314e-17 9.682772243140776e-17 1.1536498540034417e-22
1.1533659546722406 3.2257566288389082e-24 9.875706150571387e-17 9.875692599406125e-17 1.3551165263526057e-22
1.1707974979042381 3.3040170201875118e-24 1.0268180504835062e-16 1.026816187767257e-16 1.8627162488948922e-22
1.1884924949847024 3.381852280711939e-24 1.0668921271133397e-16 1.0668895794254281e-16 2.547687911783352e-22
1.2064549276569216 3.459824176659867e-24 1.1079867421344166e-16 1.107983274717937e-16 3.46741647968496e-22
1.2246888378427687 3.5372886014423265e-24 1.149914862599577e-16 1.14991016645408e-16 4.696145497254995e-22
1.2431983285522175 3.6141391780328024e-24 1.1926546987946084e-16 1.1926483692003575e-16 6.329594251047996e-22
1.2619875648066055 3.6904368041412585e-24 1.2362385476058865e-16 1.2362300570658296e-16 8.490540056932502e-22
1.3004222497298317 3.8406245992995214e-24 1.3257318307876584e-16 1.3257167675225292e-16 1.5063265129332674e-21
1.3400274889804893 3.987994156237487e-24 1.418527154384161e-16 1.4185009184382033e-16 2.6235945957508463e-21
1.3808389325824078 4.132824156068951e-24 1.5148142563250736e-16 1.5147693745027907e-16 4.4881822282901885e-21
1.4228933163050095 4.2763395091023295e-24 1.6151540474244884e-16 1.6150785982669357e-16 7.544915755212339e-21
1.466228494730424 4.421572100811073e-24 1.720868954277058e-16 1.7207442547011182e-16 1.2469957594057682e-20
1.5108834753276823 4.56787504904967e-24 1.8319542341981237e-16 1.8317515158206354e-16 2.0271837748828404e-20
1.5568984535646726 4.714982993987557e-24 1.94854235765338e-16 1.9482178731279212e-16 3.244845254588609e-20
1.6043148490894465 4.864214531723318e-24 2.0714371324919372e-16 2.0709247759988727e-16 5.123564930641527e-20
1.6531753430134553 5.017118512845979e-24 2.2016217761183613e-16 2.2008246628649524e-16 7.971132534088202e-20
1.7035239163302658 5.175767162986048e-24 2.3404124468997113e-16 2.3391902536858864e-16 1.2221932138248628e-19
1.755405889504358 5.345358951175859e-24 2.490713980031534e-16 2.488866207349098e-16 1.847772682436156e-19
1.8088679632656115 5.526959968786543e-24 2.65376596056797e-16 2.6510104675330614e-16 2.7554930349073974e-19
1.8639582606462262 5.722005486472822e-24 2.8310913703673467e-16 2.8270366202497283e-16 4.0547501176183815e-19
1.9207263702978936 5.9332334831792726e-24 3.025006909467425e-16 3.019117038037497e-16 5.889871429929071e-19
1.979223391128241 6.164237110054081e-24 3.2384976309897713e-16 3.230048903875292e-16 8.448727114480891e-19
2.039501978296691 6.4190010688052956e-24 3.475049633839848e-16 3.463077418601977e-16 1.19722152378716e-18
2.1016163906111602 6.704179077493668e-24 3.7399731668481368e-16 3.723206994700059e-16 1.6766172148077693e-18
2.1656225393682647 7.025270507032488e-24 4.0384549932779813e-16 4.0152427022867247e-16 2.3212290991256487e-18
2.231578038680979 7.385968214420633e-24 4.375109693255258e-16 4.3433291753909508e-16 3.1780517864307796e-18
2.299542257339062 7.791533107369601e-24 4.755911321606691e-16 4.712869102646649e-16 4.304221896004353e-18
2.369576372248914 8.248788516938668e-24 5.188362515829112e-16 5.13067810945082e-16 5.76844063782923e-18
2.4417434235010123 8.765288171247117e-24 5.681142181144317e-16 5.604620954728948e-16 7.65212264153697e-18
2.5161083711144245 9.350985211829637e-24 6.245340852306879e-16 6.144832038891552e-16 1.0050881341532954e-17
2.5927381535095444 1.0018934291580782e-23 6.895243697431483e-16 6.764488138154624e-16 1.307555592768577e-17
2.6717017477616296 1.0782736863969098e-23 7.6469176744502555e-16 7.478394252451628e-16 1.6852342199862892e-17
2.753070231689431 1.1659717245871568e-23 8.520689552310818e-16 8.30545644171479e-16 2.152331105960294e-17
2.836916847834745 1.2683274929814687e-23 9.550969234059952e-16 9.278495113233435e-16 2.724741208265173e-17
2.9233170693905177 1.3918768271919392e-23 1.0800557167885587e-15 1.045862014845486e-15 3.419370194307242e-17
2.967498994190263 1.4670924073669512e-23 1.1556264754063622e-15 1.1175136117676318e-15 3.8112863638730276e-17
3.0123486681368425 1.5489795764720891e-23 1.238569448070274e-15 1.196144562522685e-15 4.2424885547589415e-17
3.0578761833420214 1.6716489818722412e-23 1.3568580562588002e-15 1.3096822238203526e-15 4.7175832438446985e-17
3.1040917844459814 1.8152764296860285e-23 1.49570779163186e-15 1.4433511519310369e-15 5.2356639700823315e-17
3.127460860933648 1.9370805601754362e-23 1.6080849934150214e-15 1.5529501722408137e-15 5.513482117420763e-17
3.1510058709225794 2.0894816039803594e-23 1.7476610100277899e-15 1.6896272171566833e-15 5.803379287110676e-17
3.162844764501044 2.219848329464256e-23 1.8636768574092677e-15 1.8041416440393065e-15 5.953521336996158e-17
3.1747281389236908 2.367909435778387e-23 1.9954509758215706e-15 1.934382975496617e-15 6.10680003249533e-17
3.1986289994194426 2.766646224541666e-23 2.349021177413508e-15 2.2847838936758225e-15 6.423728373768469e-17
3.2227097969389145 3.66635557850815e-23 3.1363550050821335e-15 3.06875619390808e-15 6.759881117405365e-17
3.2348180950136065 4.504412613726949e-23 3.8677416999973065e-15 3.798348159345748e-15 6.939354065155897e-17
3.240889293275058 5.127631203406111e-23 4.411135624919208e-15 4.340795396553571e-15 7.034022836563764e-17
3.2469718861334385 5.848244606779574e-23 5.040498505934997e-15 4.9691787153637196e-15 7.13197905712771e-17
3.2714166318528037 9.654936737321247e-23 8.384066663423553e-15 8.308696154442348e-15 7.537050898120722e-17
3.2744851364798273 9.894865452205891e-23 8.600473254458149e-15 8.524624612790218e-15 7.584864166793114e-17
3.2775565192852394 1.0141390718018628e-22 8.8230174410517e-15 8.74668820566543e-15 7.632923538626997e-17
3.283707930232385 9.91575284204625e-23 8.642903179851414e-15 8.565712935300193e-15 7.719024455122026e-17
3.2898708863219004 9.182627859999821e-23 8.018908746404174e-15 7.940933503834984e-15 7.797524256918937e-17
3.29141343181113 9.0096438327891e-23 7.871536127417468e-15 7.793363730209855e-15 7.817239720761311e-17
3.292184975758714 8.924631660979902e-23 7.79909054794979e-15 7.720819437450001e-15 7.827111049978869e-17
3.295272960557952 8.389043040574233e-23 7.337924692743466e-15 7.259269336300565e-15 7.865535644290122e-17
3.3076538914384823 6.528466587015973e-23 5.731927360249646e-15 5.6517279553245764e-15 8.019940492506836e-17
3.310756385682612 6.148478439545599e-23 5.403365093959479e-15 5.32277634792893e-15 8.058874603055149e-17
3.313861789986515 5.797382013424034e-23 5.099595665584935e-15 5.0186162435653336e-15 8.09794220196017e-17
3.3200813396944477 5.308279779227158e-23 4.67812650353072e-15 4.5963074389832415e-15 8.181906454747813e-17
3.345076488085796 4.4621556568062073e-23 3.962052279946446e-15 3.8764931441085235e-15 8.555913583792278e-17
3.3482140837626964 4.50039424983351e-23 3.9997533703393614e-15 3.9136876518629245e-15 8.606571847643701e-17
3.3513546224236106 4.538996177867249e-23 4.037844919374175e-15 3.951270255698111e-15 8.657466367606318e-17
3.3576445397418455 4.7948713462714267e-23 4.273474424352795e-15 4.185835931044309e-15 8.763849330848517e-17
3.3702598118196083 5.717400206571784e-23 5.114832402849199e-15 5.024962325446209e-15 8.987007740299109e-17
3.382922481734668 5.945429122852119e-23 5.3388127062138976e-15 5.246770578453965e-15 9.204212775993369e-17
3.389271646505754 6.063115720206124e-23 5.45471003146744e-15 5.36156638074835e-15 9.314365071908982e-17
3.395632727569191 6.190719110960921e-23 5.579962023018924e-15 5.485683167272339e-15 9.42788557465832e-17
3.421196662673239 6.800799278987665e-23 6.176002027281571e-15 6.077020623450129e-15 9.898140383144121e-17
3.4276182099114902 6.699331174998488e-23 6.095275243090502e-15 5.9952411195953204e-15 1.0003412349518413e-16
3.4340518103208963 6.218157915753217e-23 5.668106782073544e-15 5.5670753824148695e-15 1.0103139965867303e-16
3.4469541582030403 5.534626463938601e-23 5.063994858462506e-15 4.9610460830688065e-15 1.0294877539370068e-16
3.472904465399547 5.373290505959254e-23 4.953390774572892e-15 4.8460298822410264e-15 1.0736089233186398e-16
3.4990501388274233 5.110576237711006e-23 4.7466747047063554e-15 4.63479144685555e-15 1.1188325785080535e-16
3.5253949054701885 4.0888529417805084e-23 3.8262971720306136e-15 3.7100086858233065e-15 1.162884862073064e-16
3.5519380250092896 3.123729179965403e-23 2.94515520988892e-15 2.824429525848049e-15 1.207256840408716e-16
3.578680990867387 2.766268361226981e-23 2.627766241849146e-15 2.5021757485844892e-15 1.255904932646564e-16
3.605625307711299 2.647705696664795e-23 2.5340765863893566e-15 2.4033567035867883e-15 1.307198828025687e-16
3.660119384959845 2.617335390941823e-23 2.542869437104572e-15 2.4013472234363408e-15 1.415222136682309e-16
3.715437065384467 2.6221549557882116e-23 2.5860546300067564e-15 2.4331069346126764e-15 1.5294769539408044e-16
3.8285932144167436 2.764270699079363e-23 2.8092424907506775e-15 2.6316066750905565e-15 1.7763581566012117e-16
3.94519561050918 2.949650986007607e-23 3.0889338358783718e-15 2.8841770773232285e-15 2.0475675855514336e-16
4.06534921144712 3.1577534101088654e-23 3.407575625589583e-15 3.1732474190430665e-15 2.3432820654651633e-16
4.189162171576248 3.3821848450856354e-23 3.760918700732318e-15 3.4944650010701418e-15 2.6645369966217717e-16
4.316745939156006 3.619909159638335e-23 4.147855271160205e-15 3.846784984917046e-15 3.0107028624315907e-16
4.448215356677963 3.8689874821698384e-23 4.568278399165536e-15 4.2305143678437735e-15 3.3776403132176386e-16
4.58368876423945 4.128686089081408e-23 5.023384463993914e-15 4.64675377728879e-15 3.76630686705125e-16
4.723288106065518 4.398937054212182e-23 5.5152044645857014e-15 5.09724305090779e-15 4.179614136779123e-16
4.867139040275056 4.679298860443695e-23 6.045385080776408e-15 5.584612616400329e-15 4.607724643760801e-16
4.940699165968905 4.82496280410154e-23 6.3277864430398535e-15 5.844913202189277e-15 4.828732408505786e-16
5.015371051989984 4.971638363640337e-23 6.618689879463304e-15 6.113309225898239e-15 5.053806535650636e-16
5.091171501069577 5.1252190416294656e-23 6.926272771020572e-15 6.3975108892815275e-15 5.287618817390432e-16
5.129500256944802 5.202306902377506e-23 7.083378650165104e-15 6.542789277322771e-15 5.405893728423306e-16
5.168117569889187 5.2801360782148164e-23 7.243474459614176e-15 6.690861446330392e-15 5.526130132837824e-16
5.20702561229733 5.363061121664527e-23 7.412622670104573e-15 6.846937041730896e-15 5.656856283736771e-16
5.246226572918644 5.446354394872826e-23 7.584419976550024e-15 7.005533436737929e-15 5.78886539812096e-16
5.265937586045735 5.488136282537995e-23 7.67131873779805e-15 7.085784836609769e-15 5.8553390118828e-16
5.285722656980489 5.53000690559117e-23 7.758887923179557e-15 7.166676047093978e-15 5.92211876085576e-16
5.305582063971359 5.571965242723246e-23 7.847130373240907e-15 7.248210409964498e-15 5.989199632764087e-16
5.3255160863122235 5.614871065946482e-23 7.93726576167899e-15 7.33155912657362e-15 6.05706635105368e-16
5.365609099470188 5.707674336172551e-23 8.129197003969697e-15 7.509448930247608e-15 6.1974807372208765e-16
5.406003951863644 5.801300704462287e-23 8.324749406568516e-15 7.690824307244422e-15 6.339250993240932e-16
5.446702915881641 5.895772798402381e-23 8.524008221518542e-15 7.875774416539637e-15 6.482338049789036e-16
5.487708281020852 5.99276898952282e-23 8.729472207281394e-15 8.066745328318727e-15 6.627268789626698e-16
5.529022354014368 6.105509570953684e-23 8.960653734034382e-15 8.282810854341983e-15 6.778428796923995e-16
5.570647458961463 6.220529196289537e-23 9.198191364609236e-15 8.505087055414363e-15 6.931043091948748e-16
5.612585937458331 6.337979233668467e-23 9.442418581057546e-15 8.733911315567942e-15 7.085072654896049e-16
5.654840148729818 6.460562611060436e-23 9.697507084232707e-15 8.973388652375447e-15 7.241184318572577e-16
5.67608639626678 6.534194029028476e-23 9.844880678151158e-15 9.112598275422427e-15 7.322824027287298e-16
5.686739436050992 6.571543877585596e-23 9.919737379508142e-15 9.18335778312927e-15 7.363795963788683e-16
5.6974124697621304 6.609260887408768e-23 9.995395658452904e-15 9.254908808490025e-15 7.404868499628777e-16
5.718818669136295 6.685830925736121e-23 1.01491845361333e-14 9.400453238389627e-15 7.487312977436702e-16
5.740305295436557 6.767166138584056e-23 1.0311248718867678e-14 9.554175156538035e-15 7.570735623296408e-16
5.7835210386641895 6.961700049412467e-23 1.0687522947295901e-14 9.913191754525048e-15 7.743311927708538e-16
5.827062130521658 7.174714639822772e-23 1.1097463219999972e-14 1.030555556385407e-14 7.919076561459018e-16
5.8489554468988025 7.314095576551832e-23 1.1355555322455472e-14 1.055417136227034e-14 8.013839601851323e-16
5.870931020387893 7.460220823857695e-23 1.1625940437674489e-14 1.081502192298086e-14 8.109185146936293e-16
5.892989160043636 7.613618722743853e-23 1.1909573240749509e-14 1.1089062289764351e-14 8.205109509851577e-16
5.915130176081913 7.78375914025049e-23 1.2221461063424954e-14 1.13910105596287e-14 8.304505037962576e-16
5.95966208400165 8.239571431991098e-23 1.3034539482749517e-14 1.2181523661364586e-14 8.530158213849309e-16
6.004529249263818 8.868792751077548e-23 1.4135556279016551e-14 1.325719013043497e-14 8.783661485815813e-16
6.027089341400364 9.295469086514457e-23 1.4871280768419784e-14 1.3978308949938347e-14 8.929718184814385e-16
6.049734195844842 9.790792774338598e-23 1.5722571753535685e-14 1.4814136120351626e-14 9.084356331840596e-16
6.095279466722835 1.11959956178594e-22 1.8114475995301686e-14 1.716817365283436e-14 9.463023424673256e-16
6.141167624020661 1.331328341896885e-22 2.170228998847984e-14 2.0707018158014543e-14 9.952718304652983e-16
6.164241091010745 1.4658878474153576e-22 2.3985556194877288e-14 2.2959635286228278e-14 1.025920908649014e-15
6.187401249150058 1.6169627858431396e-22 2.6556922030035296e-14 2.54995020217394e-14 1.0574200082958963e-15
6.1990139391386085 1.6906031699838096e-22 2.781850103852882e-14 2.674504775410503e-14 1.0734532844237814e-15
6.204828454712694 1.729202176849145e-22 2.84803279361099e-14 2.7398773537735353e-14 1.081554398374562e-15
6.210648424152782 1.7574709384996458e-22 2.897307098648104e-14 2.7884594404843353e-14 1.0884765816376809e-15
6.233982942956859 1.853098953432643e-22 3.0664342248324495e-14 2.955164594933316e-14 1.112696298991331e-15
6.239830258556775 1.8651726357323193e-22 3.089308248898225e-14 2.977696102314574e-14 1.1161214658365091e-15
6.245683058788269 1.8661909859740457e-22 3.093894228594973e-14 2.9819389129133686e-14 1.1195531568160446e-15
6.257405133728602 1.8634770803747654e-22 3.095193201251621e-14 2.9826334351951525e-14 1.1255976605646838e-15
6.269149208991335 1.8446508975666808e-22 3.0696737963771075e-14 2.956873652829277e-14 1.128001435478304e-15
6.280915325867298 1.7976719340713825e-22 2.997110876965898e-14 2.8845208964783295e-14 1.1258998048756848e-15
6.304513850009849 1.6819697822847894e-22 2.8147460952298876e-14 2.7029845274341178e-14 1.117615677957697e-15
6.32820103803542 1.5396817661761388e-22 2.5863105258050276e-14 2.4758115888921274e-14 1.1049893691289999e-15
6.3519772230701035 1.409840506660673e-22 2.3771049120471057e-14 2.2677307888700075e-14 1.0937412317709898e-15
6.375842739491607 1.3002855372936016e-22 2.200623577656603e-14 2.09223329366405e-14 1.0839028399255278e-15
6.399797922933955 1.214151197053136e-22 2.0625689070855568e-14 1.9546459798666383e-14 1.0792292721891915e-15
6.42384311029221 1.1424121401869552e-22 1.9479919968263597e-14 1.840433698694206e-14 1.0755829813215371e-15
6.447978639727206 1.0912544889282422e-22 1.867751381740021e-14 1.7601539819448276e-14 1.075973997951935e-15
6.472204850670314 1.0487780612279596e-22 1.801794602824023e-14 1.6940775952614303e-14 1.0771700756259283e-15
6.496522083828205 1.0222830772991959e-22 1.7628750196848754e-14 1.6547103904740893e-14 1.0816462921078618e-15
6.520930681187647 1.000240964539972e-22 1.7313451456332858e-14 1.6226823103506147e-14 1.0866283528267118e-15
