Dust emission spectrum from A.P. Jones, M. Kohler, N. Ysard, M. Bocchio, and L. Verstraete (2017), A&A, 602A, 46J 
inside the DustPedia framework.

lambda    nu*dP/dnu     j_nu    j_nu(carb.) j_nu(sil)
 (um)   (erg s-1 H-1) (Jy cm2 sr-1 H-1)
0.9927057738263894 1.443593225610157e-20 3.803950143941064e-13 3.8039496160775615e-13 5.278635028327912e-20
1.0001793341362166 1.4678013035401583e-20 3.896857985568079e-13 3.896857350492647e-13 6.350754312024796e-20
1.0077091589558085 1.492114308148336e-20 3.9912298023309183e-13 3.9912290392932215e-13 7.630376964598239e-20
1.0114953028030835 1.504309218618988e-20 4.0389680740434766e-13 4.038967238079663e-13 8.359638130946814e-20
1.0152956718711033 1.516529254572222e-20 4.0870764401318443e-13 4.087075524579916e-13 9.155519292570471e-20
1.0229392996569957 1.5410313823990892e-20 4.1843767457293883e-13 4.1843756486406476e-13 1.0970887385983318e-19
1.0267826658714554 1.5532857276090386e-20 4.2334975531942057e-13 4.233496352816043e-13 1.2003781619417338e-19
1.0306404723013447 1.5655632633703798e-20 4.2829918472738433e-13 4.282990534322604e-13 1.3129512374234172e-19
1.03451277320114 1.5778636899305737e-20 4.332861156311234e-13 4.332859720711587e-13 1.435599647797517e-19
1.0383996230291617 1.590186720245046e-20 4.3831070445994196e-13 4.383105475420749e-13 1.5691786702721156e-19
1.0403485208654093 1.596356625661447e-20 4.4083717049998187e-13 4.408370064646827e-13 1.6403529912261981e-19
1.0423010764483396 1.6025320802936703e-20 4.4337311138690397e-13 4.4337293992570956e-13 1.7146119455028065e-19
1.0462171883269815 1.6148995093960958e-20 4.4847350047992713e-13 4.484733131902695e-13 1.8728965765026492e-19
1.0471985131304309 1.6179947857084534e-20 4.4975455207658006e-13 4.497543606165762e-13 1.9146000386413813e-19
1.048180758391296 1.6210914221047796e-20 4.510379907126432e-13 4.5103779499352666e-13 1.9571911660265224e-19
1.0501480137395462 1.627288760525775e-20 4.53612039855201e-13 4.5361183534434326e-13 2.0451085781684315e-19
1.0521189612883777 1.633491495965459e-20 4.561956695802175e-13 4.561954559005573e-13 2.136796599873447e-19
1.0531058218030118 1.6365908096438395e-20 4.574899465105368e-13 4.574897280999846e-13 2.18410552111919e-19
1.0540936079674168 1.6396781313497757e-20 4.587828947179071e-13 4.587826714753122e-13 2.232425947641891e-19
1.058054026499678 1.6520402076717725e-20 4.639785361588268e-13 4.639782925459522e-13 2.43612874577138e-19
1.0590464539527713 1.6551339084699948e-20 4.652834226359684e-13 4.652831736594488e-13 2.4897651956890833e-19
1.06003981227728 1.6582288758968227e-20 4.66590705209287e-13 4.665904507563331e-13 2.5445295394241026e-19
1.0620293250338977 1.6644225989905534e-20 4.692124700914145e-13 4.692122043381741e-13 2.6575324043543083e-19
1.0660195594769086 1.6768251199560772e-20 4.744848799847864e-13 4.744845901755397e-13 2.898092467462284e-19
1.070024785945596 1.6892476005542465e-20 4.797959541887494e-13 4.797956382510609e-13 3.159376886028092e-19
1.0740450607676866 1.7016898864090982e-20 4.851458861012216e-13 4.851455417938125e-13 3.443074091969644e-19
1.07808044048254 1.7141518390828522e-20 4.905348743378796e-13 4.905344992377191e-13 3.7510016046957076e-19
1.0861967418109137 1.7391153710202493e-20 5.014253916222658e-13 5.014249468703496e-13 4.447519163477747e-19
1.0902777775684922 1.7515737854130852e-20 5.069148687450128e-13 5.069143846973665e-13 4.84047646442086e-19
1.0943741465085532 1.7640507438336468e-20 5.124439043519203e-13 5.124433777101353e-13 5.266417850136323e-19
1.1026131145906286 1.7890601075362602e-20 5.236215581469468e-13 5.236209353570724e-13 6.227898744241841e-19
1.1109141095355224 1.8141432714524477e-20 5.34960231486646e-13 5.349594959594184e-13 7.355272275843798e-19
1.1192775983109025 1.8392809109250222e-20 5.464561377294514e-13 5.464552701898435e-13 8.67539607882798e-19
1.1277040513999907 1.8643841414937844e-20 5.580845168547304e-13 5.580834949376132e-13 1.0219171171528803e-18
1.1361939428280308 1.889559525979017e-20 5.698787730412422e-13 5.698775708309912e-13 1.2022102510822527e-18
1.1447477501889525 1.9148081272438174e-20 5.81841231613106e-13 5.818398191202728e-13 1.4124928330717122e-18
1.1533659546722406 1.940140007234009e-20 5.939770046851655e-13 5.939753472499891e-13 1.6574351764681714e-18
1.1707974979042381 1.991131761846714e-20 6.188013020099997e-13 6.187990285516528e-13 2.273458346804269e-18
1.1884924949847024 2.042477781092404e-20 6.443520543105066e-13 6.443489515499409e-13 3.1027605655857252e-18
1.2064549276569216 2.0945258330851347e-20 6.707586095767432e-13 6.707543959879647e-13 4.213588778428873e-18
1.2246888378427687 2.1469582104218225e-20 6.979411164069521e-13 6.979354224351321e-13 5.693971819876397e-18
1.2431983285522175 2.1997428228444115e-20 7.259082964350889e-13 7.259006393850686e-13 7.657050020153116e-18
1.2619875648066055 2.252968901482726e-20 7.547093068887643e-13 7.54699059388399e-13 1.0247500365404843e-17
1.3004222497298317 2.360481968572955e-20 8.148065505564469e-13 8.147884557711716e-13 1.8094785275387342e-17
1.3400274889804893 2.4699329236131272e-20 8.785536749527862e-13 8.785223110636334e-13 3.136388915275075e-17
1.3808389325824078 2.5818563404868673e-20 9.463341881143273e-13 9.462807989938781e-13 5.338912044902369e-17
1.4228933163050095 2.6973257972975838e-20 1.0187677263356937e-12 1.0186784290592543e-12 8.929727643904852e-17
1.466228494730424 2.8184558648198363e-20 1.0969386196097215e-12 1.0967917931641661e-12 1.4682644555523922e-16
1.5108834753276823 2.945290040791712e-20 1.1812136941645292e-12 1.180976260146357e-12 2.374340181720137e-16
1.5568984535646726 3.0780567325581544e-20 1.2720563213691105e-12 1.271678301230522e-12 3.7802013858869096e-16
1.6043148490894465 3.2178719413221594e-20 1.3703382906709723e-12 1.3697446314174209e-12 5.936592535511687e-16
1.6531753430134553 3.36598246140138e-20 1.4770670188633954e-12 1.4761484965402844e-12 9.18522323111572e-16
1.7035239163302658 3.5238648116015656e-20 1.5934443738589874e-12 1.5920439062682262e-12 1.4004675907618889e-15
1.755405889504358 3.6947957519002e-20 1.7216204780026173e-12 1.7195152280589454e-12 2.1052499436716644e-15
1.8088679632656115 3.87962780706289e-20 1.862800576121575e-12 1.859679286429993e-12 3.1212896915819216e-15
1.8639582606462262 4.0792965132418315e-20 2.0183240269711004e-12 2.0137580295715705e-12 4.565997399530003e-15
1.9207263702978936 4.2954654434501056e-20 2.19000527834487e-12 2.183412474614869e-12 6.592803730000493e-15
1.979223391128241 4.5302417676790466e-20 2.3800475177228858e-12 2.3706480479888593e-12 9.399469734026607e-15
2.039501978296691 4.785827830296479e-20 2.590899903431189e-12 2.577662958046659e-12 1.3236945384529627e-14
2.1016163906111602 5.0659996524628626e-20 2.826103322191723e-12 2.8076828703163007e-12 1.842045187542275e-14
2.1656225393682647 5.373720108695846e-20 3.0890663617461022e-12 3.06372747235171e-12 2.5338889394391988e-14
2.231578038680979 5.710634558516584e-20 3.382718674963078e-12 3.3482533733820197e-12 3.446530158105781e-14
2.299542257339062 6.079322905624392e-20 3.710787111616699e-12 3.664419609683094e-12 4.636750193360512e-14
2.369576372248914 6.48302370755759e-20 4.077723307422912e-12 4.016004209997994e-12 6.171909742491804e-14
2.4417434235010123 6.925245777781692e-20 4.488535360651974e-12 4.4072285465687574e-12 8.130681408321647e-14
2.5161083711144245 7.410630332525939e-20 4.949415629330586e-12 4.843374993343095e-12 1.0604063598749095e-13
2.5927381535095444 7.945104138916445e-20 5.4679896728474e-12 5.3310315213148436e-12 1.3695815153255544e-13
2.6717017477616296 8.533981888582592e-20 6.052142212178499e-12 5.876923131625886e-12 1.7521908055261302e-13
2.753070231689431 9.183609699297151e-20 6.711199385646187e-12 6.489096363672836e-12 2.2210302197335382e-13
2.836916847834745 9.907055791643225e-20 7.460374831398723e-12 7.1813628020388035e-12 2.790120293599214e-13
2.9233170693905177 1.0729337346127994e-19 8.325652034467346e-12 7.978267432876477e-12 3.4738460159086775e-13
2.967498994190263 1.119533378194118e-19 8.818547526015848e-12 8.432997804114397e-12 3.855497219014517e-13
3.0123486681368425 1.1690650357342402e-19 9.347884620696313e-12 8.920525388051169e-12 4.273592326451448e-13
3.0578761833420214 1.2357739379546932e-19 1.0030633473963602e-11 9.557391501979154e-12 4.732419719844463e-13
3.1040917844459814 1.3104409512877138e-19 1.0797456019706652e-11 1.0274454124750937e-11 5.230018949557143e-13
3.127460860933648 1.368066743366809e-19 1.1357130132982594e-11 1.0807552849117662e-11 5.495772838649286e-13
3.1510058709225794 1.437528426571886e-19 1.2023615700374919e-11 1.144638622807761e-11 5.772294722973099e-13
3.162844764501044 1.4944400708243297e-19 1.2546593106442305e-11 1.1955072294447032e-11 5.915208119952746e-13
3.1747281389236908 1.5577857052739117e-19 1.3127550229503982e-11 1.2521460631019647e-11 6.060895984843359e-13
3.1986289994194426 1.7237646976328548e-19 1.4635625414261882e-11 1.3999476943908347e-11 6.361484703535341e-13
3.2227097969389145 2.0875384159633416e-19 1.7857682974306478e-11 1.7189732552963646e-11 6.679504213428322e-13
3.2348180950136065 2.421679150167347e-19 2.079389753188376e-11 2.010898807006057e-11 6.849094618231822e-13
3.240889293275058 2.6693084872947474e-19 2.2963199370468647e-11 2.2269344347705487e-11 6.938550227631527e-13
3.2469718861334385 2.955639230768077e-19 2.547413134789024e-11 2.4771020338526832e-11 7.03111009363407e-13
3.2714166318528037 4.449427035621141e-19 3.8637532171999224e-11 3.78962112187138e-11 7.413209532854228e-13
3.2744851364798273 4.5436986700453625e-19 3.9493168529472466e-11 3.874735613025712e-11 7.458123992153425e-13
3.2775565192852394 4.640414945780987e-19 4.037164442111323e-11 3.962131917204643e-11 7.503252490667957e-13
3.283707930232385 4.553272701250025e-19 3.9687853998832987e-11 3.8929481680834797e-11 7.583723179982021e-13
3.2898708863219004 4.267777361173905e-19 3.7269197588089795e-11 3.6503523449931124e-11 7.65674138158668e-13
3.29141343181113 4.200345047389702e-19 3.669753033723617e-11 3.593002321402172e-11 7.675071232144508e-13
3.292184975758714 4.1671955554008915e-19 3.641644462446869e-11 3.564801987836192e-11 7.684247461067761e-13
3.295272960557952 3.9597924513246145e-19 3.4636440254483585e-11 3.3864450185530844e-11 7.719900689527404e-13
3.3076538914384823 3.236328185814466e-19 2.841463278974372e-11 2.7628333274255422e-11 7.862995154883059e-13
3.310756385682612 3.0877410825102516e-19 2.7135481645526588e-11 2.634557748873556e-11 7.899041567910276e-13
3.313861789986515 2.9501296838749486e-19 2.5950452314451883e-11 2.5156932596623766e-11 7.935197178281218e-13
3.3200813396944477 2.759406726178225e-19 2.4318337157493815e-11 2.3517030669811082e-11 8.013064876827301e-13
3.345076488085796 2.437718044543383e-19 2.16450681668122e-11 2.080903330740755e-11 8.360348594046489e-13
3.3482140837626964 2.453987579340127e-19 2.1809967185874253e-11 2.0969226616299173e-11 8.407405695750822e-13
3.3513546224236106 2.470386648567187e-19 2.1976308828913378e-11 2.1130842495912216e-11 8.454663330011629e-13
3.3576445397418455 2.573308748536975e-19 2.293485753561978e-11 2.207950686477226e-11 8.553506708475217e-13
3.3702598118196083 2.9377203206160716e-19 2.6281083260752436e-11 2.5405001563054284e-11 8.760816976981611e-13
3.382922481734668 3.0323483244641776e-19 2.7229556403406554e-11 2.6333360551617032e-11 8.961958517895232e-13
3.389271646505754 3.0809852714398006e-19 2.7718226143892187e-11 2.681184212130838e-11 9.063840225838043e-13
3.395632727569191 3.134261328970993e-19 2.8250448570522065e-11 2.7333564975011747e-11 9.16883595510319e-13
3.421196662673239 3.3893148319634146e-19 3.077934580127388e-11 2.9819037461327145e-11 9.603083399467304e-13
3.4276182099114902 3.35168241801519e-19 3.0494726013055046e-11 2.95247661894792e-11 9.699598235758344e-13
3.4340518103208963 3.164559925848046e-19 2.8846265760693068e-11 2.7867196513722843e-11 9.790692469702254e-13
3.4469541582030403 2.898162453803804e-19 2.651720014110487e-11 2.552068537891975e-11 9.965147621851298e-13
3.472904465399547 2.840351964102208e-19 2.6183905746246582e-11 2.5147144273704624e-11 1.0367614725419583e-12
3.4990501388274233 2.743956217173331e-19 2.5485712297508048e-11 2.440785209864745e-11 1.077860198860599e-12
3.5253949054701885 2.3549967980380625e-19 2.2037763932273738e-11 2.092011576109789e-11 1.11764817117586e-12
3.5519380250092896 1.985440512692933e-19 1.871938997588416e-11 1.7561863123646375e-11 1.1575268522377837e-12
3.578680990867387 1.8545858609806656e-19 1.7617300571424372e-11 1.641607911693583e-11 1.2012214544885442e-12
3.605625307711299 1.8177523036357662e-19 1.7397415272781664e-11 1.6150242107671252e-11 1.2471731651104086e-12
3.660119384959845 1.8248576923805026e-19 1.772938565336009e-11 1.638597917804535e-11 1.3434064753147374e-12
3.715437065384467 1.8448115432441792e-19 1.8194132358064394e-11 1.6749724239095867e-11 1.4444081189685245e-12
3.8285932144167436 1.9354878015708249e-19 1.9669761627590405e-11 1.80098395912673e-11 1.6599220363231038e-12
3.94519561050918 2.0406716985394366e-19 2.137032444665505e-11 1.9477730856243944e-11 1.892593590411112e-12
4.06534921144712 2.1517544241682314e-19 2.321988127564853e-11 2.1078280624109467e-11 2.14160065153906e-12
4.189162171576248 2.2656816174393636e-19 2.519390499107213e-11 2.2787046142525718e-11 2.40685884854641e-12
4.316745939156006 2.380590837177436e-19 2.727788410427586e-11 2.4591140701100714e-11 2.6867434031751532e-12
4.448215356677963 2.494930980343578e-19 2.945871331307693e-11 2.648207261924921e-11 2.9766406938277145e-12
4.58368876423945 2.607844221838498e-19 3.1729717071840825e-11 2.8453380158617142e-11 3.2763369132236845e-12
4.723288106065518 2.71879501201031e-19 3.408712196546319e-11 3.049993625796511e-11 3.587185707498081e-12
4.867139040275056 2.8266382342373284e-19 3.6518540746487416e-11 3.261878060572821e-11 3.8997601407592144e-12
4.940699165968905 2.879904260621297e-19 3.776903548794414e-11 3.371148344172017e-11 4.057552046223971e-12
5.015371051989984 2.9316044036016434e-19 3.9028141183021794e-11 3.4812387675581e-11 4.215753507440797e-12
5.091171501069577 2.984032821949636e-19 4.032652090500774e-11 3.594852077382353e-11 4.378000131184212e-12
5.129500256944802 3.00956147730151e-19 4.09777122240412e-11 3.651866738417706e-11 4.459044839864142e-12
5.168117569889187 3.034866305106295e-19 4.163335232983881e-11 3.709242144292205e-11 4.540930886916767e-12
5.20702561229733 3.061845791369444e-19 4.231968834698866e-11 3.768868407895263e-11 4.631004268036025e-12
5.246226572918644 3.088385544593616e-19 4.300787521604365e-11 3.828663563177996e-11 4.72123958426371e-12
5.265937586045735 3.101487248220978e-19 4.335259916562501e-11 3.8586196454820756e-11 4.766402710804249e-12
5.285722656980489 3.114475156158686e-19 4.369770976548015e-11 3.888612181764933e-11 4.811587947830816e-12
5.305582063971359 3.127348050031903e-19 4.404318189735695e-11 3.9186392790665946e-11 4.856789106691005e-12
5.3255160863122235 3.140434994007432e-19 4.439365902075611e-11 3.949124612130584e-11 4.902412899450269e-12
5.365609099470188 3.1688029917686323e-19 4.513190884700996e-11 4.013504527127668e-11 4.9968635757332764e-12
5.406003951863644 3.196810008593368e-19 4.5873578319220433e-11 4.078213352267884e-11 5.091444796541593e-12
5.446702915881641 3.2244544792254216e-19 4.6618615456616085e-11 4.1432508603624305e-11 5.186106852991766e-12
5.487708281020852 3.2523422087752846e-19 4.7375814034728386e-11 4.209455166076618e-11 5.281262373962219e-12
5.529022354014368 3.2852324568591576e-19 4.8215190132160835e-11 4.283473511353884e-11 5.380455018621991e-12
5.570647458961463 3.3181026404506497e-19 4.906422281963626e-11 4.35844686711882e-11 5.4797541484480584e-12
5.612585937458331 3.350984831135718e-19 4.992348549561846e-11 4.4344376227350796e-11 5.579109268267673e-12
5.654840148729818 3.3848115500888666e-19 5.080708285310111e-11 4.512805034680758e-11 5.679032506293543e-12
5.67608639626678 3.405714571339333e-19 5.131291392591478e-11 4.5581486543725667e-11 5.731427382189131e-12
5.686739436050992 3.416246460988437e-19 5.156819820113572e-11 4.581056106361815e-11 5.757637137517576e-12
5.6974124697621304 3.426834674716528e-19 5.182511178390863e-11 4.6041257750067326e-11 5.783854033841292e-12
5.718818669136295 3.448188636267018e-19 5.234398412642875e-11 4.650767809926547e-11 5.836306027163271e-12
5.740305295436557 3.470899898646906e-19 5.288670530664601e-11 4.6997487192064355e-11 5.889218114581659e-12
5.7835210386641895 3.5262594783553406e-19 5.413473551797593e-11 4.813622836767737e-11 5.998507150298573e-12
5.827062130521658 3.586345590142659e-19 5.547166720738091e-11 4.936264336941845e-11 6.10902383796247e-12
5.8489554468988025 3.6269270876500017e-19 5.6310135358852635e-11 5.0141079799189e-11 6.169055559663649e-12
5.870931020387893 3.6691676949549482e-19 5.717997641700818e-11 5.095077817634782e-11 6.229198240660345e-12
5.892989160043636 3.7132073036267227e-19 5.808369968478162e-11 5.1794254389804647e-11 6.289445294976992e-12
5.915130176081913 3.762229906609374e-19 5.907164582921521e-11 5.271963302534785e-11 6.352012803867361e-12
5.95966208400165 3.896513169136138e-19 6.164065105493623e-11 5.5144075310660736e-11 6.496575744275486e-12
6.004529249263818 4.0835450274700376e-19 6.508572493892994e-11 5.842534031986573e-11 6.6603846190642e-12
6.027089341400364 4.211583397816368e-19 6.737867514336248e-11 6.062264916197028e-11 6.75602598139221e-12
6.049734195844842 4.359825837199306e-19 7.00123842248469e-11 6.315483077669695e-11 6.8575534481499564e-12
6.095279466722835 4.782756745593653e-19 7.738224916882191e-11 7.027178724841474e-11 7.110461920407173e-12
6.141167624020661 5.418964380468521e-19 8.833578668850995e-11 8.089293345161407e-11 7.442853236895892e-12
6.164241091010745 5.822948261401593e-19 9.527785702703663e-11 8.76243968650434e-11 7.65346016199326e-12
6.187401249150058 6.272388153315704e-19 1.0301741300920795e-10 9.514808136212774e-11 7.869331647080225e-12
6.1990139391386085 6.49012706862658e-19 1.0679360467572146e-10 9.881450187222957e-11 7.979102803491903e-12
6.204828454712694 6.603921531109312e-19 1.0876799334884161e-10 1.0073348787563554e-10 8.034505473206077e-12
6.210648424152782 6.686047590913535e-19 1.1022391735018009e-10 1.0214264601331975e-10 8.081271336860325e-12
6.233982942956859 6.959149262828072e-19 1.1515722587681648e-10 1.0691475608132232e-10 8.242469795494176e-12
6.239830258556775 6.990677222335924e-19 1.1578744184110312e-10 1.075240012185012e-10 8.263440622601947e-12
6.245683058788269 6.988865392544814e-19 1.1586600977571254e-10 1.07581579310538e-10 8.28443046517454e-12
6.257405133728602 6.970724080849144e-19 1.1578214730983495e-10 1.0746179326516835e-10 8.320354044666607e-12
6.269149208991335 6.903505075900442e-19 1.1488086262068405e-10 1.0655126097625866e-10 8.3296016444254e-12
6.280915325867298 6.751220467176637e-19 1.1255755798080135e-10 1.0425164140614362e-10 8.305916574657698e-12
6.304513850009849 6.382239656041616e-19 1.068056295652449e-10 9.857679422330451e-11 8.228835341940382e-12
6.32820103803542 5.936856242463934e-19 9.972550255114995e-11 9.160535039620418e-11 8.120152154945757e-12
6.3519772230701035 5.532081877684399e-19 9.327536656212308e-11 8.525374845141706e-11 8.021618110706031e-12
6.375842739491607 5.189229245271235e-19 8.782332725762335e-11 7.988978716017235e-11 7.93354009745102e-12
6.399797922933955 4.920536879367417e-19 8.358881824754216e-11 7.570600681282026e-11 7.882811434721887e-12
6.42384311029221 4.695249281208722e-19 8.006136928309007e-11 7.222179544391433e-11 7.839573839175738e-12
6.447978639727206 4.533209470926485e-19 7.758875989921957e-11 6.976341453131824e-11 7.82534536790131e-12
6.472204850670314 4.397262974313824e-19 7.554472187413963e-11 6.772787612951089e-11 7.816845744628725e-12
6.496522083828205 4.309725657220151e-19 7.431902054840328e-11 6.64872733796546e-11 7.831747168748667e-12
6.520930681187647 4.2355093012671003e-19 7.331361869793099e-11 6.546351977142499e-11 7.850098926506e-12
6.57002334288761 4.158183534093518e-19 7.25170285129646e-11 6.459817671685864e-11 7.918851796105955e-12
