Dust emission spectrum from A.P. Jones, M. Kohler, N. Ysard, M. Bocchio, and L. Verstraete (2017), A&A, 602A, 46J 
inside the DustPedia framework.

lambda    nu*dP/dnu     j_nu    j_nu(carb.) j_nu(sil)
 (um)   (erg s-1 H-1) (Jy cm2 sr-1 H-1)
0.9927057738263894 1.5329017100266082e-23 4.03928307299906e-16 4.0392830711527027e-16 1.8463572106419473e-25
1.0001793341362166 1.5582117743143905e-23 4.136888270434151e-16 4.136888268210616e-16 2.2235347407642516e-25
1.0077091589558085 1.5834894124141904e-23 4.2356474299519226e-16 4.2356474272776407e-16 2.674280589754198e-25
1.0114953028030835 1.596113021705454e-23 4.2854550496949396e-16 4.2854550467635325e-16 2.9314064845008716e-25
1.0152956718711033 1.6087248747205866e-23 4.335545466268777e-16 4.3355454630565703e-16 3.2122050110142952e-25
1.0229392996569957 1.6338961033524445e-23 4.436533180240749e-16 4.436533176387411e-16 3.85333898621058e-25
1.0267826658714554 1.6464249831223879e-23 4.487349631606747e-16 4.487349627388263e-16 4.21848452508718e-25
1.0306404723013447 1.6589366735154246e-23 4.538438282279242e-16 4.53843827766252e-16 4.616720655931377e-25
1.03451277320114 1.6714299941840173e-23 4.589797042361813e-16 4.589797037310915e-16 5.050897867164057e-25
1.0383996230291617 1.6839037716565667e-23 4.641423796343908e-16 4.64142379081981e-16 5.524098435408606e-25
1.0403485208654093 1.6901329669218723e-23 4.667337003082616e-16 4.667336997306253e-16 5.776363385809898e-25
1.0423010764483396 1.6963568395697805e-23 4.693316403654647e-16 4.693316397614993e-16 6.039654067204273e-25
1.0462171883269815 1.708788038896167e-23 4.74547269921814e-16 4.745472692616976e-16 6.601164783757944e-25
1.0471985131304309 1.711892286654074e-23 4.758552718390462e-16 4.75855271164129e-16 6.749171991355379e-25
1.048180758391296 1.7149950777039612e-23 4.771649046944811e-16 4.771649040044455e-16 6.900356617235819e-25
1.0501480137395462 1.721196218166582e-23 4.797890494010047e-16 4.797890486797528e-16 7.2125191285802745e-25
1.0521189612883777 1.7273913175670848e-23 4.824196763135359e-16 4.824196755597172e-16 7.538187013273131e-25
1.0531058218030118 1.7304818156082115e-23 4.837360863784545e-16 4.837360856078275e-16 7.706269232795733e-25
1.0540936079674168 1.7335552145302188e-23 4.850497571866667e-16 4.850497563988694e-16 7.8779750679972765e-25
1.058054026499678 1.7458321801078422e-23 4.903201844263748e-16 4.903201835661583e-16 8.602162204406688e-25
1.0590464539527713 1.7488971764584402e-23 4.916417094331531e-16 4.916417085538599e-16 8.792932172835625e-25
1.06003981227728 1.7519604399020602e-23 4.929647945676817e-16 4.929647936689066e-16 8.987749457714524e-25
1.0620293250338977 1.7580816985598138e-23 4.956156308524395e-16 4.95615629913454e-16 9.389854212397727e-25
1.0660195594769086 1.770302658314845e-23 5.009358664601052e-16 5.009358654354722e-16 1.024633085657219e-24
1.070024785945596 1.782493956615633e-23 5.062806591937573e-16 5.06280658076029e-16 1.1177285069411179e-24
1.0740450607676866 1.7946544997084934e-23 5.116497750033092e-16 5.116497737844238e-16 1.2188853109699185e-24
1.07808044048254 1.8067832030280272e-23 5.170429779005752e-16 5.170429765718105e-16 1.3287646749672032e-24
1.0861967418109137 1.830919431390884e-23 5.278945308702586e-16 5.278945292926641e-16 1.5775945814050262e-24
1.0902777775684922 1.8428762450980342e-23 5.333382913565686e-16 5.333382896384308e-16 1.7181378137405735e-24
1.0943741465085532 1.8547961277383378e-23 5.388047780357324e-16 5.388047761651362e-16 1.870596124148893e-24
1.1026131145906286 1.8785209904868707e-23 5.498049416601534e-16 5.498049394450025e-16 2.215150764745621e-24
1.1109141095355224 1.9020859055076214e-23 5.608930299662474e-16 5.608930273464542e-16 2.6197931956071008e-24
1.1192775983109025 1.925461137400674e-23 5.7206055379706e-16 5.720605507026834e-16 3.0943766833108603e-24
1.1277040513999907 1.948538816799525e-23 5.832753668860129e-16 5.832753632357516e-16 3.650261288549014e-24
1.1361939428280308 1.9714301372842108e-23 5.945704130119737e-16 5.945704087114483e-16 4.300525366791173e-24
1.1447477501889525 1.994127748230936e-23 6.059436078823462e-16 6.059436028221397e-16 5.060206394821149e-24
1.1533659546722406 2.0166367163593114e-23 6.173965960471817e-16 6.173965901006018e-16 5.946579553357646e-24
1.1707974979042381 2.0611614575490942e-23 6.405650384489209e-16 6.405650302673327e-16 8.181588282595831e-24
1.1884924949847024 2.1048396030311584e-23 6.640256921090488e-16 6.640256809083021e-16 1.120074668732949e-23
1.2064549276569216 2.1480116599222904e-23 6.878871062869078e-16 6.878870910279234e-16 1.5258984311035625e-23
1.2246888378427687 2.1902129899315694e-23 7.120025401246675e-16 7.120025194380952e-16 2.0686572429298678e-23
1.2431983285522175 2.2313475062654095e-23 7.363377437610454e-16 7.36337715851135e-16 2.790991037036278e-23
1.2619875648066055 2.271403127498156e-23 7.608844839761976e-16 7.608844464995067e-16 3.7476690942452086e-23
1.3004222497298317 2.347629801292174e-23 8.103701556893604e-16 8.103700890617636e-16 6.662759691738438e-23
1.3400274889804893 2.4186206057916373e-23 8.603019139590225e-16 8.603017976618326e-16 1.162971899563827e-22
1.3808389325824078 2.4841409685204197e-23 9.105183312263641e-16 9.105181318344128e-16 1.9939195128802123e-22
1.4228933163050095 2.544527341037669e-23 9.6105644206018e-16 9.610561061040063e-16 3.3595617365694155e-22
1.466228494730424 2.6012171648123234e-23 1.0123896569360466e-15 1.0123891003781484e-15 5.565578983335025e-22
1.5108834753276823 2.653179584468114e-23 1.0640622875324906e-15 1.0640613805862449e-15 9.069462456820045e-22
1.5568984535646726 2.6995864362478766e-23 1.1156474001885671e-15 1.1156459448996814e-15 1.4552888857741453e-21
1.6043148490894465 2.740549768168451e-23 1.1670695270948642e-15 1.167067223464462e-15 2.3036304019370326e-21
1.6531753430134553 2.7762192502328043e-23 1.2182659709834868e-15 1.21826237787424e-15 3.593109246844165e-21
1.7035239163302658 2.807010077838221e-23 1.2692922841906464e-15 1.2692867605443426e-15 5.523646303756227e-21
1.755405889504358 2.835167639647046e-23 1.321069686863314e-15 1.3210613135652148e-15 8.373298099121091e-21
1.8088679632656115 2.860181147521515e-23 1.3733139760766692e-15 1.3733014551466118e-15 1.2520930057370451e-20
1.8639582606462262 2.881709776649085e-23 1.4257909573595077e-15 1.4257724809048975e-15 1.8476454609995214e-20
1.9207263702978936 2.900050417701226e-23 1.4785651999404112e-15 1.4785382841740856e-15 2.6915766325408486e-20
1.979223391128241 2.915854039291092e-23 1.5318986323797194e-15 1.5318599094007154e-15 3.872297900380353e-20
2.039501978296691 2.9298877444157464e-23 1.5861510575069555e-15 1.5860960198405333e-15 5.503766642257507e-20
2.1016163906111602 2.9442686892034726e-23 1.6424808714579748e-15 1.6424035570796767e-15 7.731437829804882e-20
2.1656225393682647 2.960226905811751e-23 1.701677268803283e-15 1.7015698897541688e-15 1.0737904911401787e-19
2.231578038680979 2.9778481879333884e-23 1.7639410425071731e-15 1.763793548756986e-15 1.4749375018717435e-19
2.299542257339062 2.997860936617624e-23 1.829878737931142e-15 1.8296783110478125e-15 2.0042688332984053e-19
2.369576372248914 3.021861580778964e-23 1.9007049728020393e-15 1.900435442347922e-15 2.695304541177089e-19
2.4417434235010123 3.0517309047197986e-23 1.9779517603513798e-15 1.9775929534246062e-15 3.5880692677321766e-19
2.5161083711144245 3.090693735410955e-23 2.0642141347108633e-15 2.063741140300617e-15 4.72994410246266e-19
2.5927381535095444 3.14402343549704e-23 2.16378380646784e-15 2.1631661730129437e-15 6.176334548969843e-19
2.6717017477616296 3.217970025954364e-23 2.2821248610404843e-15 2.2813257672713403e-15 7.9909376914359065e-19
2.753070231689431 3.321934623908678e-23 2.4276037785925238e-15 2.426579155951397e-15 1.0246226411276972e-18
2.836916847834745 3.4772854260442044e-23 2.618522921404376e-15 2.6172205027939058e-15 1.302418610470792e-18
2.9233170693905177 3.7310867329136036e-23 2.8952142007042548e-15 2.8935728458507006e-15 1.6413548535543424e-18
2.967498994190263 3.941375947440912e-23 3.104615886171176e-15 3.1027822399468516e-15 1.8336462243238415e-18
3.0123486681368425 4.1857161888376895e-23 3.346913199201194e-15 3.3448674628964045e-15 2.045736304789067e-18
3.0578761833420214 4.722748967800483e-23 3.833400465132917e-15 3.831120505257821e-15 2.279959875096828e-18
3.1040917844459814 5.412040811972556e-23 4.459283158596985e-15 4.456747007416988e-15 2.536151179998946e-18
3.127460860933648 6.136843995563095e-23 5.094556694792458e-15 5.091882854284324e-15 2.6738405081339874e-18
3.1510058709225794 7.100858033203753e-23 5.9392208568539605e-15 5.936403113947145e-15 2.8177429068163697e-18
3.162844764501044 7.996891366410145e-23 6.713801647156427e-15 6.7109092875890906e-15 2.892359567336195e-18
3.1747281389236908 9.038038747291061e-23 7.616407521880837e-15 7.613438925395944e-15 2.968596484892254e-18
3.1986289994194426 1.1939336244468796e-22 1.0137094303469913e-14 1.0133967886215005e-14 3.12641725490648e-18
3.2227097969389145 1.877327904074012e-22 1.605945370557514e-14 1.6056159655359737e-14 3.2940502153956108e-18
3.2348180950136065 2.525161175160036e-22 2.1682452328228718e-14 2.167906871569282e-14 3.383612535898496e-18
3.240889293275058 3.0094757971513634e-22 2.5889548944799773e-14 2.588611808781499e-14 3.430856984781416e-18
3.2469718861334385 3.569783540984203e-22 3.0767332447044495e-14 3.0763852703175566e-14 3.479743868933405e-18
3.2714166318528037 6.557270842163774e-22 5.694143562672146e-14 5.693775352803596e-14 3.6820986854905575e-18
3.2744851364798273 6.744057409375746e-22 5.861836692578358e-14 5.861466088818384e-14 3.7060375997388554e-18
3.2775565192852394 6.936199270704692e-22 6.034498506334463e-14 6.034125495847679e-14 3.730104867839571e-18
3.283707930232385 6.751567073364211e-22 5.884892600380476e-14 5.884515267392493e-14 3.7733298798252e-18
3.2898708863219004 6.165786462203843e-22 5.38439319811745e-14 5.384011914326261e-14 3.8128379118859365e-18
3.29141343181113 6.027636459856347e-22 5.266219068951803e-14 5.265836792633697e-14 3.822763181064556e-18
3.292184975758714 5.959753196647196e-22 5.208131448976935e-14 5.207748675670087e-14 3.827733068468647e-18
3.295272960557952 5.531381540335015e-22 4.83831838667398e-14 4.83793367695805e-14 3.847097159272563e-18
3.3076538914384823 4.047056540644194e-22 3.553274540752273e-14 3.55288204455819e-14 3.924961940816458e-18
3.310756385682612 3.7448720037592323e-22 3.2910436078481537e-14 3.290649147151909e-14 3.944606962439936e-18
3.313861789986515 3.4660258531311995e-22 3.048846940999467e-14 3.048450508623751e-14 3.964323757154813e-18
3.3200813396944477 3.075034626619089e-22 2.7099929891328837e-14 2.7095923236844454e-14 4.0066544843792016e-18
3.345076488085796 2.3780636362277005e-22 2.111538273525293e-14 2.111118763126175e-14 4.195103991173366e-18
3.3482140837626964 2.40429760795988e-22 2.136834447580266e-14 2.1364123850295173e-14 4.220625507486077e-18
3.3513546224236106 2.4308201429783614e-22 2.162432921203628e-14 2.1620082940182433e-14 4.246271853848346e-18
3.3576445397418455 2.6242731120951725e-22 2.3389082244670082e-14 2.338478238188799e-14 4.299862782093896e-18
3.3702598118196083 3.3373648331876283e-22 2.985633534853229e-14 2.9851923054521864e-14 4.412294010429363e-18
3.382922481734668 3.50011164896731e-22 3.14299273585651e-14 3.142540544325482e-14 4.52191531028686e-18
3.389271646505754 3.5844143045136066e-22 3.2247348666967316e-14 3.2242771120459644e-14 4.577546507665589e-18
3.395632727569191 3.6753062710665153e-22 3.3127119883704744e-14 3.312248500271581e-14 4.63488098893277e-18
3.421196662673239 4.1118404787492165e-22 3.734080964729447e-14 3.733593704061259e-14 4.872606681858833e-18
3.4276182099114902 4.024293724981681e-22 3.661436831835804e-14 3.660944228775692e-14 4.9260306011147945e-18
3.4340518103208963 3.6399863219176238e-22 3.317997297181387e-14 3.317499623119389e-14 4.976740619969056e-18
3.4469541582030403 3.092575041958359e-22 2.829600915965326e-14 2.829093471906222e-14 5.0744405910435695e-18
3.472904465399547 2.939468180212644e-22 2.7097612812610298e-14 2.7092313825530932e-14 5.29898707935827e-18
3.4990501388274233 2.705192684684171e-22 2.5125678769833357e-14 2.5120149138503385e-14 5.5296313299716286e-18
3.5253949054701885 1.8706836571196685e-22 1.750562245431107e-14 1.749986739029992e-14 5.755064011149689e-18
3.5519380250092896 1.0860006386864166e-22 1.0239173291602123e-14 1.0233190532460152e-14 5.9827591419707704e-18
3.578680990867387 7.75144558098141e-23 7.363344536174719e-15 7.3571120138268e-15 6.232522347920357e-18
3.605625307711299 6.497254378265399e-23 6.218417785827849e-15 6.211921511714401e-15 6.496274113444984e-18
3.660119384959845 5.58882482016661e-23 5.429816856378964e-15 5.422763350926524e-15 7.05350545244054e-18
3.715437065384467 4.9477567427071155e-23 4.8796388651176025e-15 4.871993355623548e-15 7.645509494054516e-18
3.8285932144167436 4.6371101195101286e-23 4.712551048765359e-15 4.703617021013669e-15 8.934027751689067e-18
3.94519561050918 4.593254664822452e-23 4.810148664462926e-15 4.7997848033485426e-15 1.0363861114382483e-17
4.06534921144712 4.6590021654373636e-23 5.027594038119055e-15 5.015654147235423e-15 1.1939890883631517e-17
4.189162171576248 4.7882494300941675e-23 5.324433066270232e-15 5.310761282465548e-15 1.3671783804685223e-17
4.316745939156006 4.9637473497469997e-23 5.687685712923419e-15 5.672124607893967e-15 1.556110502945237e-17
4.448215356677963 5.1796481985443917e-23 6.1158313614952965e-15 6.098240185902429e-15 1.7591175592869902e-17
4.58368876423945 5.436574010853629e-23 6.614695531272858e-15 6.5949231289533e-15 1.9772402319558697e-17
4.723288106065518 5.739938106767711e-23 7.19649585405591e-15 7.174369538600892e-15 2.212631545501662e-17
4.867139040275056 6.100573208870039e-23 7.881589819546209e-15 7.856982792629144e-15 2.460702691706573e-17
4.940699165968905 6.316163596932546e-23 8.283449220938387e-15 8.257544744714714e-15 2.5904476223673944e-17
5.015371051989984 6.538879000616904e-23 8.705140860794343e-15 8.677902949303349e-15 2.7237911490995487e-17
5.091171501069577 6.808762399707966e-23 9.201430266764278e-15 9.172796402980686e-15 2.86338637835896e-17
5.129500256944802 6.947039718056942e-23 9.458979207521333e-15 9.429634012877796e-15 2.934519464353929e-17
5.168117569889187 7.090965149781349e-23 9.727632810141705e-15 9.697561723413943e-15 3.0071086727762227e-17
5.20702561229733 7.26683291033681e-23 1.004394489434911e-14 1.0013088254561347e-14 3.085663978776452e-17
5.246226572918644 7.446968048075687e-23 1.0370410945296891e-14 1.0338757286098177e-14 3.1653659198713316e-17
5.265937586045735 7.53867819387905e-23 1.0537566909725069e-14 1.0505510464037303e-14 3.205644568776504e-17
5.285722656980489 7.631506707115218e-23 1.0707401678944225e-14 1.0674939608535725e-14 3.2462070408502787e-17
5.305582063971359 7.725471559463576e-23 1.0879964228248951e-14 1.0847093704997773e-14 3.2870523251179174e-17
5.3255160863122235 7.826295799862686e-23 1.106336885806137e-14 1.1030084441293882e-14 3.3284416767488016e-17
5.365609099470188 8.076710663960067e-23 1.1503314356127508e-14 1.1469173256368592e-14 3.41410997589155e-17
5.406003951863644 8.336329313712355e-23 1.1962464289069983e-14 1.1927453989340563e-14 3.50102997294215e-17
5.446702915881641 8.605596404119031e-23 1.2441825186964179e-14 1.2405933232321631e-14 3.589195464255391e-17
5.487708281020852 8.896153524687962e-23 1.295873828629854e-14 1.2921949187694964e-14 3.678909860357792e-17
5.529022354014368 9.29916604433485e-23 1.3647772715809393e-14 1.3610046765587241e-14 3.7725950222152655e-17
5.570647458961463 9.725387887378899e-23 1.4380766661544355e-14 1.4342090033699694e-14 3.8676627844661505e-17
5.612585937458331 1.0176489693773071e-22 1.516109028315725e-14 1.5121449195165956e-14 3.964108799129895e-17
5.654840148729818 1.0671791727980428e-22 1.6018694054039887e-14 1.5978070842706205e-14 4.06232113336817e-17
5.67608639626678 1.100893777905453e-22 1.6586847336716876e-14 1.6545710777348404e-14 4.113655936847107e-17
5.686739436050992 1.1182637290586103e-22 1.688017720025697e-14 1.683878250786674e-14 4.139469239022259e-17
5.6974124697621304 1.13598634275165e-22 1.7179883124349383e-14 1.7138229326574528e-14 4.165379777485734e-17
5.718818669136295 1.1725235058251685e-22 1.7799070251336598e-14 1.7756895326717045e-14 4.2174924619549756e-17
5.740305295436557 1.212783153774997e-22 1.847938780359738e-14 1.8436684521498967e-14 4.270328209840954e-17
5.7835210386641895 1.317193467617908e-22 2.0221404701833904e-14 2.017760676108161e-14 4.379794075229176e-17
5.827062130521658 1.4373439356042732e-22 2.2232063936486326e-14 2.2187146087939737e-14 4.491784854659328e-17
5.8489554468988025 1.5216547868424046e-22 2.362456838691498e-14 2.3579048491504504e-14 4.5519895410477497e-17
5.870931020387893 1.6120682021672982e-22 2.512232458311412e-14 2.5076197350881284e-14 4.612723223283778e-17
5.892989160043636 1.7090744839606763e-22 2.6734130617576286e-14 2.6687390745905622e-14 4.67398716706672e-17
5.915130176081913 1.8193684919995248e-22 2.8566327380318725e-14 2.851895307132842e-14 4.737430899029964e-17
5.95966208400165 2.1277886347258615e-22 3.3660421781886073e-14 3.3611618743033003e-14 4.8803038853068764e-17
6.004529249263818 2.572163176275122e-22 4.099651255536825e-14 4.094611016316072e-14 5.040239220754119e-17
6.027089341400364 2.8810505135655294e-22 4.609225279162178e-14 4.604093483651929e-14 5.131795510250665e-17
6.049734195844842 3.2459206506204615e-22 5.2124706866866546e-14 5.207242054293875e-14 5.228632392779128e-17
6.095279466722835 4.299846847778449e-22 6.956904518907653e-14 6.951440860486275e-14 5.4636584213770794e-17
6.141167624020661 5.92129866526345e-22 9.652445358359173e-14 9.64668036077586e-14 5.764997583315223e-17
6.164241091010745 6.956846983697879e-22 1.1383124879632578e-13 1.137717256205616e-13 5.952317576417317e-17
6.187401249150058 8.135920972893386e-22 1.3362398987246627e-13 1.3356253794327575e-13 6.145192919050405e-17
6.1990139391386085 8.711627249262417e-22 1.4334789853919615e-13 1.4328546407325312e-13 6.243446594301811e-17
6.204828454712694 9.014837920867075e-22 1.4847629948338416e-13 1.484133681933268e-13 6.293129005733552e-17
6.210648424152782 9.23618474874024e-22 1.522646153101999e-13 1.522012563683997e-13 6.335894180021069e-17
6.233982942956859 9.988028355400697e-22 1.652779088286875e-13 1.6521304019170975e-13 6.486863697774323e-17
6.239830258556775 1.0084051185706754e-21 1.6702337313716996e-13 1.669582810515707e-13 6.509208559924745e-17
6.245683058788269 1.0092255883974788e-21 1.6731605965096817e-13 1.6725074354988532e-13 6.531610108282195e-17
6.257405133728602 1.0071321751755533e-21 1.6728237198056716e-13 1.6721665553234944e-13 6.571644821775212e-17
6.269149208991335 9.923116358538483e-22 1.6513005417116063e-13 1.6506415099463307e-13 6.590317652752783e-17
6.280915325867298 9.551866023251097e-22 1.5925042278860038e-13 1.5918459770002685e-13 6.582508857353723e-17
6.304513850009849 8.636497412476989e-22 1.445302265490794e-13 1.4446479795069577e-13 6.5428598383666e-17
6.32820103803542 7.502239634461801e-22 1.260203358899849e-13 1.259555594824049e-13 6.477640757998645e-17
6.3519772230701035 6.462130161324993e-22 1.0895673146147299e-13 1.0889252622942393e-13 6.420523204909181e-17
6.375842739491607 5.586928125845613e-22 9.455404530606996e-14 9.449032878313386e-14 6.371652293606744e-17
6.399797922933955 4.885760574562733e-22 8.299804730264198e-14 8.293451311912371e-14 6.353418351827208e-17
6.42384311029221 4.302655297152331e-22 7.336702569165317e-14 7.330361289614833e-14 6.341279550485019e-17
6.447978639727206 3.877846781753896e-22 6.637181114288368e-14 6.630827906029054e-14 6.353208259314687e-17
6.472204850670314 3.523886162444004e-22 6.05401590973764e-14 6.047645903066706e-14 6.370006670936543e-17
6.496522083828205 3.293901756929143e-22 5.68016555642056e-14 5.673759087548852e-14 6.406468871707698e-17
