Dust emission spectrum from A.P. Jones, M. Kohler, N. Ysard, M. Bocchio, and L. Verstraete (2017), A&A, 602A, 46J 
inside the DustPedia framework.

lambda    nu*dP/dnu     j_nu    j_nu(carb.) j_nu(sil)
 (um)   (erg s-1 H-1) (Jy cm2 sr-1 H-1)
0.9927057738263894 4.374674255865752e-21 1.152751514074347e-13 1.1527513650287059e-13 1.4904564154659583e-20
1.0001793341362166 4.4481011220345136e-21 1.1809240348954553e-13 1.1809238555631493e-13 1.7933230581783805e-20
1.0077091589558085 4.5218396359761715e-21 1.2095387744700252e-13 1.2095385589855094e-13 2.1548451621875886e-20
1.0114953028030835 4.5588227782151035e-21 1.2240129508304652e-13 1.2240127147410926e-13 2.3608937279658058e-20
1.0152956718711033 4.595880315702621e-21 1.2385988666781334e-13 1.2385986081004013e-13 2.5857773181370475e-20
1.0229392996569957 4.670177992923622e-21 1.2680977438359465e-13 1.268097433959124e-13 3.098768227650714e-20
1.0267826658714554 4.707333950824202e-21 1.282989111961908e-13 1.282988772895006e-13 3.390669025498334e-20
1.0306404723013447 4.7445582087812655e-21 1.2979931633921356e-13 1.2979927925097997e-13 3.708823361095642e-20
1.03451277320114 4.78184979984451e-21 1.3131103393330874e-13 1.3131099337859006e-13 4.0554718689616896e-20
1.0383996230291617 4.819207794955966e-21 1.3283410914288658e-13 1.3283406481253315e-13 4.433035344459449e-20
1.0403485208654093 4.837911414296101e-21 1.3359992026369211e-13 1.3359987392149942e-13 4.63421926610878e-20
1.0423010764483396 4.856631303907752e-21 1.3436858822058754e-13 1.343685397793048e-13 4.84412827002329e-20
1.0462171883269815 4.894119476296485e-21 1.359145185524557e-13 1.3591446563672293e-13 5.2915732784743597e-20
1.0471985131304309 4.903501527266007e-21 1.3630279605856128e-13 1.363027419638975e-13 5.409466380448621e-20
1.048180758391296 4.912887556646739e-21 1.3669179306803257e-13 1.3669173776932675e-13 5.52987058568234e-20
1.0501480137395462 4.931671502473965e-21 1.3747194870381738e-13 1.3747189091965126e-13 5.778416612327894e-20
1.0521189612883777 4.950471219095436e-21 1.382549917223807e-13 1.3825493134608281e-13 6.037629787441998e-20
1.0531058218030118 4.9598645999258536e-21 1.3864725239495818e-13 1.386471906811509e-13 6.171380726863394e-20
1.0540936079674168 4.969221388245588e-21 1.3903910343164313e-13 1.3903904035171032e-13 6.307993281331348e-20
1.058054026499678 5.006685780404667e-21 1.4061369260940554e-13 1.4061362377013138e-13 6.883927412573779e-20
1.0590464539527713 5.016061135807065e-21 1.4100914019561241e-13 1.4100906983980643e-13 7.035580599672086e-20
1.06003981227728 5.025440173822056e-21 1.4140530953078233e-13 1.4140523762653135e-13 7.190425094882225e-20
1.0620293250338977 5.044209258433547e-21 1.4219981675585388e-13 1.4219974165641104e-13 7.509944281313275e-20
1.0660195594769086 5.081791197168643e-21 1.4379752888956405e-13 1.4379744698790596e-13 8.190165803502604e-20
1.070024785945596 5.119431017301467e-21 1.454068834576841e-13 1.454067941673586e-13 8.929032550079194e-20
1.0740450607676866 5.157128186294756e-21 1.4702793638605825e-13 1.4702783907279161e-13 9.731326664729201e-20
1.07808044048254 5.1948822192923784e-21 1.4866074513002953e-13 1.4866063910806656e-13 1.0602196295144762e-19
1.0861967418109137 5.270501787832865e-21 1.5196021305128098e-13 1.5196008732884108e-13 1.2572243991622268e-19
1.0902777775684922 5.308236118130828e-21 1.5362320659847221e-13 1.5362306976052434e-13 1.3683794788259067e-19
1.0943741465085532 5.3460236312297095e-21 1.5529809626629005e-13 1.5529794737907793e-13 1.4888721211906048e-19
1.1026131145906286 5.421757370376555e-21 1.5868382678773276e-13 1.5868365069905587e-13 1.7608867695089412e-19
1.1109141095355224 5.497701873095483e-21 1.6211794916952992e-13 1.621177411820912e-13 2.0798743875996404e-19
1.1192775983109025 5.5737979050745065e-21 1.6559928706918901e-13 1.6559904172444158e-13 2.453447474710181e-19
1.1277040513999907 5.649775027407177e-21 1.6912029534761886e-13 1.691200063110195e-13 2.890365993249975e-19
1.1361939428280308 5.725956172310686e-21 1.7269108663161413e-13 1.7269074656195464e-13 3.4006965946813997e-19
1.1447477501889525 5.8023439695783996e-21 1.7631233717196843e-13 1.7631193757280897e-13 3.995991594819613e-19
1.1533659546722406 5.87896851381982e-21 1.7998557297189498e-13 1.7998510402220054e-13 4.689496944938816e-19
1.1707974979042381 6.033163943628258e-21 1.8749787307367348e-13 1.8749722967369617e-13 6.433999772918821e-19
1.1884924949847024 6.188362658979229e-21 1.9522778798597353e-13 1.952269096744901e-13 8.783114834475833e-19
1.2064549276569216 6.345617212364853e-21 2.0321436532499872e-13 2.0321317226985572e-13 1.1930551430294266e-18
1.2246888378427687 6.503955762544827e-21 2.1143299967073388e-13 2.1143138704555463e-13 1.6126251792964212e-18
1.2431983285522175 6.663276722416583e-21 2.198860614074212e-13 2.1988389225050908e-13 2.1691569120634314e-18
1.2619875648066055 6.823843869120762e-21 2.2858808540996455e-13 2.285851816528362e-13 2.9037571284033946e-18
1.3004222497298317 7.147893769661304e-21 2.4673565584246656e-13 2.467305257433367e-13 5.130099129962511e-18
1.3400274889804893 7.477380928694114e-21 2.659699958295328e-13 2.659610989551301e-13 8.896874402669784e-18
1.3808389325824078 7.813880090299923e-21 2.8640407893036666e-13 2.863889258675622e-13 1.5153062804618094e-17
1.4228933163050095 8.160605145305503e-21 3.082223570373183e-13 3.08196998127425e-13 2.5358909893295287e-17
1.466228494730424 8.523934147425051e-21 3.3175018541290137e-13 3.3170846527305937e-13 4.1720139842043826e-17
1.5108834753276823 8.903947646223789e-21 3.570943691853319e-13 3.5702686390522744e-13 6.750528010446286e-17
1.5568984535646726 9.301290751076516e-21 3.843907609514922e-13 3.8428322179454214e-13 1.0753915694999895e-16
1.6043148490894465 9.719306663426473e-21 4.13898946960407e-13 4.1372996203571633e-13 1.6898492469085053e-16
1.6531753430134553 1.01617337144268e-20 4.459191898998497e-13 4.456575747303008e-13 2.6161516954873866e-16
1.7035239163302658 1.063301306114279e-20 4.808105800104918e-13 4.804114518623821e-13 3.991281481097012e-16
1.755405889504358 1.1143052764921706e-20 5.192197110675651e-13 5.186193498462064e-13 6.003612213586974e-16
1.8088679632656115 1.169438877686707e-20 5.61505258604425e-13 5.606145896355574e-13 8.906689688676723e-16
1.8639582606462262 1.2289813471693493e-20 6.080662618270818e-13 6.067625104594591e-13 1.3037513676225693e-15
1.9207263702978936 1.293432228338667e-20 6.59445046068836e-13 6.575613544708821e-13 1.8836915979538054e-15
1.979223391128241 1.3634250180618846e-20 7.163009164303319e-13 7.136135477777908e-13 2.687368652541146e-15
2.039501978296691 1.439622274985357e-20 7.793671952895731e-13 7.755801569219473e-13 3.787038367625784e-15
2.1016163906111602 1.5231634293231798e-20 8.497073673817689e-13 8.44433804456625e-13 5.273562925143906e-15
2.1656225393682647 1.6149408154087782e-20 9.283437261679009e-13 9.210845496032227e-13 7.259176564678264e-15
2.231578038680979 1.7154477454979737e-20 1.016152769916813e-12 1.006272201797032e-12 9.88056811978075e-15
2.299542257339062 1.8254602574317334e-20 1.1142514554999524e-12 1.100949428487686e-12 1.3302027012266224e-14
2.369576372248914 1.9459571446092702e-20 1.223977446599345e-12 1.2062587251178349e-12 1.7718721481510175e-14
2.4417434235010123 2.0780013133057796e-20 1.3468377402833398e-12 1.3234788070291097e-12 2.3358933254229975e-14
2.5161083711144245 2.223004166207263e-20 1.4847011752835563e-12 1.454214057947641e-12 3.0487117335915344e-14
2.5927381535095444 2.3827769615268154e-20 1.6398777902115996e-12 1.600472472218885e-12 3.9405317992715384e-14
2.6717017477616296 2.5589576692777256e-20 1.8147654789534473e-12 1.7643137146738964e-12 5.045176427955051e-14
2.753070231689431 2.7535156317176695e-20 2.0122144800388334e-12 1.9482140720910164e-12 6.400040794781647e-14
2.836916847834745 2.97050337513791e-20 2.2368975286438854e-12 2.156435681330697e-12 8.046184731318759e-14
2.9233170693905177 3.217705620853834e-20 2.4968454699811023e-12 2.3965864928600657e-12 1.0025897712103638e-13
2.967498994190263 3.3583048392477455e-20 2.64533165411529e-12 2.5340098489671256e-12 1.1132180514816441e-13
3.0123486681368425 3.507890835254971e-20 2.804921692775342e-12 2.6814756424280326e-12 1.2344605034730954e-13
3.0578761833420214 3.7105206155125614e-20 3.0117864723213533e-12 2.875030025041872e-12 1.3675644727948158e-13
3.1040917844459814 3.937848419982932e-20 3.2446135848590267e-12 3.093414176525963e-12 1.5119940833306465e-13
3.127460860933648 4.114389924684844e-20 3.41559810725912e-12 3.256682033240152e-12 1.5891607401896844e-13
3.1510058709225794 4.327687840508399e-20 3.619716626372838e-12 3.452768982178086e-12 1.6694764419475197e-13
3.162844764501044 4.5030659481783527e-20 3.7805554927408605e-12 3.6094560778037917e-12 1.7109941493706832e-13
3.1747281389236908 4.698482615359463e-20 3.9594384726195195e-12 3.784106086382573e-12 1.753323862369468e-13
3.1986289994194426 5.2114023415040244e-20 4.424741535663205e-12 4.240673697911093e-12 1.8406783775211243e-13
3.2227097969389145 6.338192610655357e-20 5.421956952056536e-12 5.228644850858373e-12 1.9331210119816325e-13
3.2348180950136065 7.374266133285597e-20 6.3319591423903115e-12 6.133716798292263e-12 1.9824234409804976e-13
3.240889293275058 8.142349267296893e-20 7.004600272275762e-12 6.803757331948078e-12 2.0084294032768452e-13
3.2469718861334385 9.030552622159204e-20 7.783273453882824e-12 7.579739673305644e-12 2.0353378057717935e-13
3.2714166318528037 1.3667313161983774e-19 1.1868297822917725e-11 1.1653654044208698e-11 2.1464377870902649e-13
3.2744851364798273 1.3959923067030384e-19 1.213376225803277e-11 1.1917811996171089e-11 2.1595026186168155e-13
3.2775565192852394 1.4260145696884786e-19 1.2406337325314534e-11 1.2189074305819877e-11 2.172630194946542e-13
3.283707930232385 1.398933283569839e-19 1.2193572306175626e-11 1.197396733757799e-11 2.1960496859763795e-13
3.2898708863219004 1.3102576277820873e-19 1.1442080101310745e-11 1.1220349052485643e-11 2.2173104882510475e-13
3.29141343181113 1.289313147365284e-19 1.1264457516183953e-11 1.1042192729645892e-11 2.222647865380617e-13
3.292184975758714 1.2790169400338635e-19 1.1177121148090632e-11 1.0954589159769449e-11 2.2253198832118264e-13
3.295272960557952 1.2145820375336387e-19 1.0623990700100988e-11 1.0400420334630562e-11 2.2357036547042316e-13
3.3076538914384823 9.89841095547028e-20 8.690704290574953e-12 8.462965895370254e-12 2.2773839520469983e-13
3.310756385682612 9.436893229850932e-20 8.293267997109139e-12 8.064479547621588e-12 2.287884494875535e-13
3.313861789986515 9.009489548859352e-20 7.925086486643333e-12 7.695244761244221e-12 2.2984172539911217e-13
3.3200813396944477 8.416918110526837e-20 7.417734054823318e-12 7.185624394926723e-12 2.321096598965947e-13
3.345076488085796 7.415728688524183e-20 6.584598794310404e-12 6.342375702087247e-12 2.4222309222315785e-13
3.3482140837626964 7.465951988016609e-20 6.63541124824031e-12 6.3918178461844e-12 2.435934020559111e-13
3.3513546224236106 7.516579677160735e-20 6.686672971545802e-12 6.441703366793092e-12 2.4496960475270963e-13
3.3576445397418455 7.835591083014646e-20 6.983544640668738e-12 6.735696780682103e-12 2.478478599866349e-13
3.3702598118196083 8.966386012364234e-20 8.021401345978807e-12 7.76751667760095e-12 2.5388466837785485e-13
3.382922481734668 9.259137979542997e-20 8.314421460979103e-12 8.054677781988187e-12 2.597436789909166e-13
3.389271646505754 9.409644505960222e-20 8.465430093664578e-12 8.2027183739226e-12 2.6271171974197684e-13
3.395632727569191 9.574462344182449e-20 8.629875675795309e-12 8.364105204007563e-12 2.657704717877463e-13
3.421196662673239 1.0363724212570317e-19 9.411596949314617e-12 9.133173989181969e-12 2.7842296013265017e-13
3.4276182099114902 1.024642895308331e-19 9.322543265347458e-12 9.041306174776985e-12 2.812370905704741e-13
3.4340518103208963 9.664906273428386e-20 8.80995972420375e-12 8.52606556878083e-12 2.838941554229209e-13
3.4469541582030403 8.83695845102658e-20 8.08551624071117e-12 7.796531530793963e-12 2.889847099172096e-13
3.472904465399547 8.655890100369294e-20 7.97946921375913e-12 7.678743807252472e-12 3.007254065066577e-13
3.4990501388274233 8.354791368099369e-20 7.759883622794482e-12 7.44716464947938e-12 3.127189733150999e-13
3.5253949054701885 7.144165437153854e-20 6.685420189457143e-12 6.36108310378249e-12 3.2433708567465124e-13
3.5519380250092896 5.99391760520654e-20 5.651263808604075e-12 5.315276487741861e-12 3.359873208622133e-13
3.578680990867387 5.585046053348441e-20 5.30541276611796e-12 4.956659863472244e-12 3.48752902645717e-13
3.605625307711299 5.46822428290697e-20 5.233549613121745e-12 4.871368443583978e-12 3.6218116953776866e-13
3.660119384959845 5.48561206994224e-20 5.32954061781459e-12 4.939222521345474e-12 3.9031809646911504e-13
3.715437065384467 5.543053309710909e-20 5.466739730354047e-12 5.046868764180887e-12 4.1987096617315994e-13
3.8285932144167436 5.816101012451995e-20 5.9107228898095276e-12 5.427717304480081e-12 4.830055853294481e-13
3.94519561050918 6.134925316369571e-20 6.4246171768173806e-12 5.8733381652575324e-12 5.512790115598463e-13
4.06534921144712 6.47294508553429e-20 6.985045073068608e-12 6.3605702224608285e-12 6.244748506077803e-13
4.189162171576248 6.820826582545955e-20 7.584616283176471e-12 6.882024287500754e-12 7.025919956757167e-13
4.316745939156006 7.172962425391327e-20 8.21910404209316e-12 7.43392472777286e-12 7.851793143203019e-13
4.448215356677963 7.524743680956294e-20 8.884785535075305e-12 8.013878848643878e-12 8.709066864314264e-13
4.58368876423945 7.873633654735263e-20 9.579873141960459e-12 8.620139947250154e-12 9.597331947103052e-13
4.723288106065518 8.21806889197682e-20 1.0303473244724728e-11 9.251393933628364e-12 1.052079311096361e-12
4.867139040275056 8.554724292464652e-20 1.105221191255938e-11 9.907015146691423e-12 1.1451967658679557e-12
4.940699165968905 8.72174367423834e-20 1.1438291572859247e-11 1.0245989154455374e-11 1.1923024184038753e-12
5.015371051989984 8.884385507143041e-20 1.1827689011217887e-11 1.058808957997244e-11 1.239599431245448e-12
5.091171501069577 9.049785154320161e-20 1.2229971048813085e-11 1.094180828111517e-11 1.2881627676979186e-12
5.129500256944802 9.130546278091094e-20 1.2432007143026823e-11 1.1119557548844926e-11 1.3124495941818968e-12
5.168117569889187 9.210732196137342e-20 1.2635603027796148e-11 1.1298601149539189e-11 1.3370018782569561e-12
5.20702561229733 9.29618439390112e-20 1.2848838680085105e-11 1.1484865466122464e-11 1.3639732139626425e-12
5.246226572918644 9.380403027255088e-20 1.3062851028383196e-11 1.1671838124851281e-11 1.3910129035319128e-12
5.265937586045735 9.42203971634347e-20 1.317013027796703e-11 1.1765576315607624e-11 1.4045539623594035e-12
5.285722656980489 9.46335615426915e-20 1.3277581932830614e-11 1.1859475146735946e-11 1.4181067860946717e-12
5.305582063971359 9.504348588038207e-20 1.3385198800452808e-11 1.195352922141303e-11 1.4316695790397832e-12
5.3255160863122235 9.546043229820854e-20 1.349442955994081e-11 1.2049067724406251e-11 1.4453618355345545e-12
5.365609099470188 9.636384171917548e-20 1.3724690780445554e-11 1.2250987073460373e-11 1.4737037069851822e-12
5.406003951863644 9.725748276788462e-20 1.3956252454445724e-11 1.2454146252030325e-11 1.5021062024154025e-12
5.446702915881641 9.81413127255502e-20 1.4189104382887685e-11 1.265854948054016e-11 1.5305549023475285e-12
5.487708281020852 9.903430431449005e-20 1.4426005884629083e-11 1.2866834312226356e-11 1.5591715724027226e-12
5.529022354014368 1.0008558299692847e-19 1.4688900944009975e-11 1.3099900107829723e-11 1.5890008361802564e-12
5.570647458961463 1.0113799965427018e-19 1.4955105035254296e-11 1.3336219691795875e-11 1.618885343458422e-12
5.612585937458331 1.0219257751296845e-19 1.522480679060382e-11 1.3575996361674172e-11 1.648810428929645e-12
5.654840148729818 1.0327860154438182e-19 1.5502441976363672e-11 1.3823514468142876e-11 1.6789275082208022e-12
5.67608639626678 1.0394756468079782e-19 1.5661478164262732e-11 1.3966764426542894e-11 1.6947137377198411e-12
5.686739436050992 1.0428477298892109e-19 1.5741773622788188e-11 1.403916072559971e-11 1.7026128971884739e-12
5.6974124697621304 1.0462388621306538e-19 1.582260340209606e-11 1.4112087626373384e-11 1.7105157757226724e-12
5.718818669136295 1.0530809971508349e-19 1.5985916321092627e-11 1.4259584566909928e-11 1.7263317541826987e-12
5.740305295436557 1.0603553461057913e-19 1.615681879263799e-11 1.4414528139377079e-11 1.742290653260916e-12
5.7835210386641895 1.0780476573754746e-19 1.655006534998782e-11 1.4774809209354306e-11 1.7752561406335175e-12
5.827062130521658 1.0972540788926353e-19 1.6971736709805588e-11 1.5163123931790486e-11 1.8086127780150948e-12
5.8489554468988025 1.1101839601565924e-19 1.7236246430900797e-11 1.5409529949636774e-11 1.826716481264024e-12
5.870931020387893 1.123645831957464e-19 1.751079468532883e-11 1.566593408382534e-11 1.8448606015034818e-12
5.892989160043636 1.1376841520660501e-19 1.7796179750103924e-11 1.593313650867598e-11 1.863043241427945e-12
5.915130176081913 1.1533007928350876e-19 1.8108243690589787e-11 1.622632285552749e-11 1.8819208350623034e-12
5.95966208400165 1.1959785700915163e-19 1.891970962452483e-11 1.699425244658035e-11 1.92545717794448e-12
6.004529249263818 1.2553440136224167e-19 2.0008344373511484e-11 1.803360115266247e-11 1.97474322084902e-12
6.027089341400364 1.295940837284836e-19 2.073300429612896e-11 1.872952390795723e-11 2.0034803881717265e-12
6.049734195844842 1.3429392821839673e-19 2.1565627739685753e-11 1.9531650500257805e-11 2.033977239427958e-12
6.095279466722835 1.4769314829751306e-19 2.3895900648962098e-11 2.178608229666733e-11 2.1098183522947693e-12
6.141167624020661 1.6784497954087263e-19 2.7360796765705865e-11 2.5151458137828323e-11 2.2093386278775343e-12
6.164241091010745 1.8064064980727e-19 2.95572847859468e-11 2.7284962060551362e-11 2.272322725395435e-12
6.187401249150058 1.9488268287535812e-19 3.200744172616382e-11 2.967054634900434e-11 2.336895377159476e-12
6.1990139391386085 2.0178536279293772e-19 3.3203334904837606e-11 3.083360183443908e-11 2.3697330703985223e-12
6.204828454712694 2.0539334787687537e-19 3.382872160205033e-11 3.1442413476994185e-11 2.3863081250561407e-12
6.210648424152782 2.080002659705011e-19 3.429021976497098e-11 3.1889905086167737e-11 2.4003146788032324e-12
6.233982942956859 2.1668027178479664e-19 3.5855387000036343e-11 3.340672722460997e-11 2.448659775426359e-12
6.239830258556775 2.176896613967644e-19 3.605620486646477e-11 3.36012053233784e-11 2.454999543086371e-12
6.245683058788269 2.1764343547868007e-19 3.608236102199432e-11 3.362101541206213e-11 2.4613456099321883e-12
6.257405133728602 2.1709196557752264e-19 3.605848351871139e-11 3.3586245508636326e-11 2.472238010075064e-12
6.269149208991335 2.1498866006184796e-19 3.577614914456867e-11 3.330095168140013e-11 2.475197463168535e-12
6.280915325867298 2.1019362326308427e-19 3.5043857703440506e-11 3.2575496237130454e-11 2.4683614663100596e-12
6.304513850009849 1.9856292158190304e-19 3.322914680553202e-11 3.0783298073359824e-11 2.445848732172204e-12
6.32820103803542 1.8450683012011934e-19 3.0992895240144987e-11 2.8578963115483838e-11 2.4139321246611443e-12
6.3519772230701035 1.7172975702210542e-19 2.8955023425224575e-11 2.6569992226055537e-11 2.385031199169033e-12
6.375842739491607 1.6091081142958156e-19 2.723279736455585e-11 2.4873562027229285e-11 2.3592353373265737e-12
6.399797922933955 1.5243181430660169e-19 2.5894725582984916e-11 2.3550168530401342e-11 2.3445570525835676e-12
6.42384311029221 1.4532631009292532e-19 2.478041671922324e-11 2.2448310648930613e-11 2.33210607029263e-12
6.447978639727206 1.4022013576176499e-19 2.399956700971074e-11 2.1671272645174497e-11 2.3282943645362445e-12
6.472204850670314 1.3593982080280535e-19 2.3354382064836208e-11 2.102819294498702e-11 2.3261891198491933e-12
6.496522083828205 1.3319107428509083e-19 2.2968121346829215e-11 2.0637064579745363e-11 2.3310567670838518e-12
6.520930681187647 1.3086408387585724e-19 2.2651631395682387e-11 2.031467608331966e-11 2.3369553123627263e-12
