Dust emission spectrum from A.P. Jones, M. Kohler, N. Ysard, M. Bocchio, and L. Verstraete (2017), A&A, 602A, 46J 
inside the DustPedia framework.

lambda    nu*dP/dnu     j_nu    j_nu(carb.) j_nu(sil)
 (um)   (erg s-1 H-1) (Jy cm2 sr-1 H-1)
0.9927057738263894 8.373105404711178e-26 2.2063608324306536e-18 2.2063608324306444e-18 8.925130871329723e-33
1.0001793341362166 8.511481415869682e-26 2.2597087388087747e-18 2.259708738808764e-18 1.0755599315510947e-32
1.0077091589558085 8.6496613540303e-26 2.3136824027320906e-18 2.313682402732077e-18 1.2945161792750764e-32
1.0114953028030835 8.718660779791398e-26 2.3409011991776922e-18 2.340901199177678e-18 1.419508291860111e-32
1.0152956718711033 8.787590821872998e-26 2.3682731675180846e-18 2.368273167518069e-18 1.5560756211968004e-32
1.0229392996569957 8.925148217344525e-26 2.423453738800809e-18 2.4234537388007903e-18 1.8681328161940653e-32
1.0267826658714554 8.993608793894894e-26 2.4512180950730546e-18 2.451218095073034e-18 2.0459923984284966e-32
1.0306404723013447 9.061969720567852e-26 2.479129610506984e-18 2.4791296105069605e-18 2.2400719495295767e-32
1.03451277320114 9.130224400819146e-26 2.5071870851185468e-18 2.507187085118522e-18 2.4517798708811387e-32
1.0383996230291617 9.198366274624115e-26 2.5353893038987144e-18 2.5353893038986878e-18 2.68264022332246e-32
1.0403485208654093 9.232392869397512e-26 2.5495443086240327e-18 2.549544308624004e-18 2.805762635842932e-32
1.0423010764483396 9.266388819735769e-26 2.5637350371008964e-18 2.5637350371008667e-18 2.9343016379391536e-32
1.0462171883269815 9.334285552915235e-26 2.592223040528734e-18 2.5922230405287015e-18 3.208546864349841e-32
1.0471985131304309 9.351239322152885e-26 2.599367123951665e-18 2.5993671239516322e-18 3.280859398130449e-32
1.048180758391296 9.368184724981039e-26 2.6065200008856826e-18 2.606520000885649e-18 3.354734691570364e-32
1.0501480137395462 9.402050031134249e-26 2.6208520558241206e-18 2.620852055824085e-18 3.5073029982520434e-32
1.0521189612883777 9.435880672472004e-26 2.6352190458838e-18 2.6352190458837633e-18 3.6665170219439236e-32
1.0531058218030118 9.452756780022124e-26 2.6424083333393256e-18 2.642408333339288e-18 3.7487071291991314e-32
1.0540936079674168 9.469538853726741e-26 2.649582478349031e-18 2.649582478348992e-18 3.8326805881327705e-32
1.058054026499678 9.536572005267979e-26 2.6783638185255337e-18 2.6783638185254914e-18 4.186975508101768e-32
1.0590464539527713 9.553306017093828e-26 2.685580241197015e-18 2.6855802411969723e-18 4.2803393706639555e-32
1.06003981227728 9.570030123023822e-26 2.69280505778241e-18 2.6928050577823664e-18 4.3756978149920745e-32
1.0620293250338977 9.603448227693815e-26 2.707279790026936e-18 2.707279790026891e-18 4.5725616072320546e-32
1.0660195594769086 9.670161291981895e-26 2.7363290694140735e-18 2.736329069414025e-18 4.992063499372582e-32
1.070024785945596 9.7367050161165e-26 2.765510320884413e-18 2.765510320884358e-18 5.44831342129288e-32
1.0740450607676866 9.803073266105375e-26 2.79482219656122e-18 2.7948221965611616e-18 5.944366591091834e-32
1.07808044048254 9.869259956968767e-26 2.8242633367822364e-18 2.8242633367821713e-18 6.483517617228126e-32
1.0861967418109137 1.0000947648646735e-25 2.8834942033630496e-18 2.8834942033629726e-18 7.70559605637839e-32
1.0902777775684922 1.0066170845735514e-25 2.913203951512376e-18 2.913203951512292e-18 8.396476204853909e-32
1.0943741465085532 1.0131184001870141e-25 2.9430352294421475e-18 2.9430352294420558e-18 9.146395893665003e-32
1.1026131145906286 1.0260557077265381e-25 3.0030566673649287e-18 3.00305666736482e-18 1.0842835034529097e-31
1.1109141095355224 1.0389021204633384e-25 3.063547006461461e-18 3.0635470064613333e-18 1.2837670734512012e-31
1.1192775983109025 1.0516412395415942e-25 3.124459165663243e-18 3.124459165663091e-18 1.5180349604928347e-31
1.1277040513999907 1.064213914332167e-25 3.1856166065341367e-18 3.1856166065339572e-18 1.7927978653691342e-31
1.1361939428280308 1.0766808467093013e-25 3.2471988918253114e-18 3.2471988918250996e-18 2.114641297474505e-31
1.1447477501889525 1.0890378779825915e-25 3.3091939144356395e-18 3.3091939144353903e-18 2.491150668713416e-31
1.1533659546722406 1.1012876770403451e-25 3.3716100552850955e-18 3.371610055284802e-18 2.9310555913903134e-31
1.1707974979042381 1.1255051084569705e-25 3.4978299270668565e-18 3.497829927066453e-18 4.042678238544623e-31
1.1884924949847024 1.1492414318109373e-25 3.6255771511505295e-18 3.6255771511499756e-18 5.548612068475079e-31
1.2064549276569216 1.1726821389188797e-25 3.755440150471218e-18 3.75544015047046e-18 7.578767690389651e-31
1.2246888378427687 1.1955713198011683e-25 3.886607469281924e-18 3.8866074692808935e-18 1.0302089727242957e-30
1.2431983285522175 1.217855412723111e-25 4.018885020435931e-18 4.0188850204345364e-18 1.3937549997312903e-30
1.2619875648066055 1.2395260521670745e-25 4.152218200108838e-18 4.1522182001069614e-18 1.8767510419561765e-30
1.3004222497298317 1.2806667811333176e-25 4.420689063675919e-18 4.4206890636725635e-18 3.355913750188429e-30
1.3400274889804893 1.3188322563548484e-25 4.6910785082045094e-18 4.691078508198616e-18 5.892984486216835e-30
1.3808389325824078 1.3538806767831073e-25 4.96241231929122e-18 4.962412319281052e-18 1.0166682413254055e-29
1.4228933163050095 1.3859820812203424e-25 5.234791492527596e-18 5.234791492510356e-18 1.7240722871831974e-29
1.466228494730424 1.4159079680823884e-25 5.510691692530666e-18 5.510691692501914e-18 2.8752865448751043e-29
1.5108834753276823 1.4430767528079231e-25 5.78748441932394e-18 5.787484419276761e-18 4.717906785759256e-29
1.5568984535646726 1.467017728133005e-25 6.062686093122175e-18 6.0626860930459296e-18 7.624483547559395e-29
1.6043148490894465 1.4877741652111598e-25 6.335721071678851e-18 6.335721071557271e-18 1.2157748422741318e-28
1.6531753430134553 1.5054086855912733e-25 6.606063890397111e-18 6.60606389020604e-18 1.9107251312195868e-28
1.7035239163302658 1.520130108126754e-25 6.873824331607497e-18 6.87382433131145e-18 2.960466270999149e-28
1.755405889504358 1.5331468955956473e-25 7.143824093351134e-18 7.143824092898686e-18 4.524464025329603e-28
1.8088679632656115 1.5441602671133045e-25 7.414274714615894e-18 7.414274713933576e-18 6.8231855167030845e-28
1.8639582606462262 1.5529677228967918e-25 7.683658341722946e-18 7.683658340707143e-18 1.0158029025270935e-27
1.9207263702978936 1.5597155718686986e-25 7.952072668440765e-18 7.952072666947219e-18 1.49354814788624e-27
1.979223391128241 1.5647447921286405e-25 8.220680372834859e-18 8.220680370665106e-18 2.169750910263142e-27
2.039501978296691 1.5684635497868063e-25 8.49117896375773e-18 8.491178960641935e-18 3.1157928052152393e-27
2.1016163906111602 1.572015648281307e-25 8.769599192501612e-18 8.769599188076607e-18 4.42500251571279e-27
2.1656225393682647 1.5760642709822554e-25 9.059956650073345e-18 9.059956643855476e-18 6.21786676741567e-27
2.231578038680979 1.5806567587814838e-25 9.363087555064403e-18 9.363087546415854e-18 8.648549418118892e-27
2.299542257339062 1.5861901934024414e-25 9.682022517351449e-18 9.682022505438528e-18 1.1912921635793517e-26
2.369576372248914 1.5935428038276976e-25 1.0023141863524547e-17 1.0023141847265868e-17 1.6258676625276934e-26
2.4417434235010123 1.6037516975910388e-25 1.0394571449634304e-17 1.0394571427637188e-17 2.1997116886025423e-26
2.5161083711144245 1.618593125140109e-25 1.0810268157533209e-17 1.0810268128013949e-17 2.951925965224524e-26
2.5927381535095444 1.6409738802175495e-25 1.129353130375155e-17 1.1293531264436227e-17 3.931532411028474e-26
2.6717017477616296 1.6743644700002208e-25 1.1874283329588e-17 1.1874283277590685e-17 5.199730930025786e-26
2.753070231689431 1.7239901742584125e-25 1.259857744088211e-17 1.2598577372551445e-17 6.833066286469576e-26
2.836916847834745 1.8016888197430835e-25 1.3567374815999039e-17 1.3567374726719703e-17 8.927933411178864e-26
2.9233170693905177 1.9335314760948088e-25 1.5003638853302357e-17 1.500363873725725e-17 1.160451086742722e-25
2.967498994190263 2.0454953683130653e-25 1.611233614920087e-17 1.61123360172957e-17 1.3190516386406627e-25
3.0123486681368425 2.176256519125422e-25 1.7401422695911704e-17 1.7401422546049302e-17 1.4986240607435995e-25
3.0578761833420214 2.468831249116961e-25 2.0039216403888814e-17 2.003921623363344e-17 1.702553738931701e-25
3.1040917844459814 2.845841375882627e-25 2.344847897569074e-17 2.3448478782410665e-17 1.9328007998521225e-25
3.127460860933648 3.244664438928748e-25 2.693587608166454e-17 2.6935875875675923e-17 2.0598861865263876e-25
3.1510058709225794 3.7760363327021475e-25 3.15831039552617e-17 3.158310373573424e-17 2.195274724060118e-25
3.162844764501044 4.270663262148103e-25 3.58544148346129e-17 3.585441460790365e-17 2.2670924900941063e-25
3.1747281389236908 4.845869471034553e-25 4.083642228276861e-17 4.0836422048647124e-17 2.3412148538529966e-25
3.1986289994194426 6.450272659244147e-25 5.476604468706859e-17 5.4766044437292485e-17 2.497761108990898e-25
3.2227097969389145 1.0232238917410304e-24 8.753088197428547e-17 8.753088170696542e-17 2.6732002604679185e-25
3.2348180950136065 1.3818721028767004e-24 1.1865530124996605e-16 1.186553009726893e-16 2.7727674318226006e-25
3.240889293275058 1.6500083815027755e-24 1.419448954953581e-16 1.4194489521254085e-16 2.8281723486705462e-25
3.2469718861334385 1.9602009544372604e-24 1.6894625048205978e-16 1.689462501933066e-16 2.887531012285324e-25
3.2714166318528037 3.614821073648637e-24 3.1390056385006516e-16 3.1390056353562343e-16 3.1444169648465255e-25
3.2744851364798273 3.718257560827556e-24 3.2318554364935875e-16 3.2318554333199917e-16 3.173594917299017e-25
3.2775565192852394 3.824665034678136e-24 3.3274614148520587e-16 3.327461411648975e-16 3.2030840080185055e-25
3.283707930232385 3.722338142667322e-24 3.244514933180053e-16 3.244514929931126e-16 3.2489273262619052e-25
3.2898708863219004 3.397821921617316e-24 2.9672142159511916e-16 2.9672142126667224e-16 3.284469039157324e-25
3.29141343181113 3.3212928530925576e-24 2.901743639155407e-16 2.901743635862003e-16 3.2934036307242853e-25
3.292184975758714 3.2836891729995174e-24 2.869562595341185e-16 2.869562592043307e-16 3.297878324550223e-25
3.295272960557952 3.04633071651123e-24 2.664635916019872e-16 2.664635912706132e-16 3.3137395969773716e-25
3.3076538914384823 2.224046390782693e-24 1.9526901436771654e-16 1.9526901403004384e-16 3.376727289106452e-25
3.310756385682612 2.0566901495843567e-24 1.8074468134876827e-16 1.80744681009504e-16 3.3926435176766836e-25
3.313861789986515 1.902277825361207e-24 1.6733152534174406e-16 1.673315250008813e-16 3.4086279846146392e-25
3.3200813396944477 1.6857320347441653e-24 1.4856164402727834e-16 1.4856164368253666e-16 3.4474169058457316e-25
3.345076488085796 1.299436639454439e-24 1.1538001575860322e-16 1.1538001539401584e-16 3.6458737332311096e-25
3.3482140837626964 1.3139228050902717e-24 1.1677570622218223e-16 1.167757058546213e-16 3.6756092846246486e-25
3.3513546224236106 1.328569132185458e-24 1.1818816121922948e-16 1.181881608486702e-16 3.7055929943306706e-25
3.3576445397418455 1.4356057644441108e-24 1.2794972116563773e-16 1.2794972078842727e-16 3.772104636771524e-25
3.3702598118196083 1.8304008584814653e-24 1.637491391699807e-16 1.6374913877800472e-16 3.9197598396979067e-25
3.382922481734668 1.920321975203545e-24 1.7243901406262647e-16 1.7243901365714883e-16 4.054776622638288e-25
3.389271646505754 1.966907387146988e-24 1.7695373056929455e-16 1.769537301568834e-16 4.124112026259055e-25
3.395632727569191 2.0171056129644314e-24 1.818104248476035e-16 1.8181042442791609e-16 4.196873636498578e-25
3.421196662673239 2.2581390244576883e-24 2.0506811950801e-16 2.0506811905739194e-16 4.506179840007411e-25
3.4276182099114902 2.209568646506094e-24 2.010339348384374e-16 2.0103393438139245e-16 4.570449935923848e-25
3.4340518103208963 1.996727944407284e-24 1.820099675336046e-16 1.8200996707086386e-16 4.62740663401147e-25
3.4469541582030403 1.693603589493983e-24 1.5495896471697857e-16 1.5495896424387403e-16 4.731044962720615e-25
3.472904465399547 1.608654000348715e-24 1.4829445524990433e-16 1.4829445474850262e-16 5.014017074943714e-25
3.4990501388274233 1.4787250839271196e-24 1.37343161017698e-16 1.373431604868624e-16 5.308356227754277e-25
3.5253949054701885 1.0163234558081773e-24 9.510627112781009e-17 9.510627057030111e-17 5.575090004489334e-25
3.5519380250092896 5.817160895763311e-25 5.4846117354863524e-17 5.4846116770779755e-17 5.840837817663109e-25
3.578680990867387 4.0939022795595914e-25 3.888927899563698e-17 3.8889278378906755e-17 6.167302275774654e-25
3.605625307711299 3.3968686393962046e-25 3.251088403434429e-17 3.251088338099975e-17 6.533445370336945e-25
3.660119384959845 2.8883552181990436e-25 2.806178464280397e-17 2.806178390767251e-17 7.351314585233597e-25
3.715437065384467 2.5282326957511093e-25 2.4934254377870188e-17 2.4934253550799076e-17 8.270711022477957e-25
3.8285932144167436 2.345449935300104e-25 2.3836079514093594e-17 2.3836078465822334e-17 1.0482712603073336e-24
3.94519561050918 2.310451399819979e-25 2.4195511736513205e-17 2.419551040779582e-17 1.3287173854136589e-24
4.06534921144712 2.336296707450941e-25 2.5211302722274826e-17 2.5211301037706875e-17 1.6845679527040066e-24
4.189162171576248 2.3975415090413796e-25 2.6660159364848094e-17 2.666015722798767e-17 2.136860416498268e-24
4.316745939156006 2.4847583231135334e-25 2.847148216590985e-17 2.847147945431072e-17 2.7115991227002006e-24
4.448215356677963 2.594848989822217e-25 3.063848783158453e-17 3.063848439163707e-17 3.439947456690382e-24
4.58368876423945 2.7283086102654166e-25 3.319541081612584e-17 3.3195406452123343e-17 4.364002483098283e-24
4.723288106065518 2.8882961475378798e-25 3.621225676028563e-17 3.621225122258019e-17 5.5377054398484186e-24
4.867139040275056 3.0810285595950067e-25 3.9805117482612665e-17 3.980511046051528e-17 7.022097389196095e-24
4.940699165968905 3.1973437920775284e-25 4.1932154759923075e-17 4.193214685240102e-17 7.907522067364967e-24
5.015371051989984 3.318001425094187e-25 4.417220410262412e-17 4.4172195200544445e-17 8.902079677043918e-24
5.091171501069577 3.4650566173644205e-25 4.68271250534992e-17 4.6827115026800104e-17 1.0026699101223187e-23
5.129500256944802 3.540618411388162e-25 4.820849929508539e-17 4.8208488655580356e-17 1.0639505027320395e-23
5.168117569889187 3.6194224006751292e-25 4.9652496317310066e-17 4.965248502768043e-17 1.1289629640774814e-23
5.20702561229733 3.7159112387250894e-25 5.13599365425859e-17 5.1359924554236716e-17 1.1988349188118857e-23
5.246226572918644 3.814915978743814e-25 5.3125307059127014e-17 5.3125294330598585e-17 1.2728528406097828e-23
5.265937586045735 3.8653872465612673e-25 5.4030395906419006e-17 5.4030382791544137e-17 1.3114874871523478e-23
5.285722656980489 3.916518446288107e-25 5.4950795166441525e-17 5.4950781653989985e-17 1.3512451550346378e-23
5.305582063971359 3.968320358456678e-25 5.5886793723746e-17 5.588677980218436e-17 1.3921561633739103e-23
5.3255160863122235 4.0239359032158673e-25 5.688296008343382e-17 5.688294573924026e-17 1.4344193576685224e-23
5.365609099470188 4.162109646653785e-25 5.927915167714369e-17 5.927913643716062e-17 1.5239983085108302e-23
5.406003951863644 4.305581861887136e-25 6.1784230598678e-17 6.178421440952706e-17 1.6189150952379276e-23
5.446702915881641 4.454608013444344e-25 6.440396641561776e-17 6.440394922098248e-17 1.7194635275951026e-23
5.487708281020852 4.615591537295246e-25 6.723382482359013e-17 6.723380655992883e-17 1.826366127821459e-23
5.529022354014368 4.838654768153697e-25 7.101374490055418e-17 7.101372546698865e-17 1.9433565526387785e-23
5.570647458961463 5.074864941818355e-25 7.504116998958146e-17 7.504114931471148e-17 2.0674869956645444e-23
5.612585937458331 5.3251648486513135e-25 7.933512190603348e-17 7.933509991444721e-17 2.1991586267167378e-23
5.654840148729818 5.60019948572801e-25 8.406075051883084e-17 8.406072712286889e-17 2.3395961929988346e-23
5.67608639626678 5.787108620856786e-25 8.719268756135476e-17 8.719266339594461e-17 2.4165410137021524e-23
5.686739436050992 5.883444752674963e-25 8.881052598985813e-17 8.881050143069582e-17 2.4559162330303313e-23
5.6974124697621304 5.9817630694522905e-25 9.046410730767606e-17 9.0464082348627e-17 2.495904910139946e-23
5.718818669136295 6.18453672818703e-25 9.388212956933751e-17 9.388210379175686e-17 2.5777580644613872e-23
5.740305295436557 6.407955294670286e-25 9.763912909718442e-17 9.763910246354845e-17 2.663363595334312e-23
5.7835210386641895 6.986849904429311e-25 1.0726132719435735e-16 1.0726129866920347e-16 2.8525153901111e-23
5.827062130521658 7.653457557555442e-25 1.1837957049801266e-16 1.1837953992598332e-16 3.057202936987897e-23
5.8489554468988025 8.120563136139462e-25 1.260764273269142e-16 1.26076395561224e-16 3.17656902041708e-23
5.870931020387893 8.62175045141902e-25 1.3436057669517945e-16 1.343605436902505e-16 3.300492894725127e-23
5.892989160043636 9.159760167249552e-25 1.4328118934256834e-16 1.4328115505118457e-16 3.4291383821649817e-23
5.915130176081913 9.771462030838893e-25 1.5342399551534652e-16 1.5342395984481813e-16 3.567052840077994e-23
5.95966208400165 1.1480639304542443e-24 1.8161726922015733e-16 1.8161723021293822e-16 3.900721912610042e-23
6.004529249263818 1.3942886877742183e-24 2.222291891174701e-16 2.2222914591906355e-16 4.3198406555098655e-23
6.027089341400364 1.5653878513615303e-24 2.5043730480308437e-16 2.5043725895098187e-16 4.585210248583998e-23
6.049734195844842 1.7675531307236387e-24 2.838430101270976e-16 2.8384296131083587e-16 4.8816261754249525e-23
6.095279466722835 2.351388563289063e-24 3.804411250160026e-16 3.804410682073275e-16 5.68086750318343e-23
6.141167624020661 3.2497216399158364e-24 5.297446106405674e-16 5.297445422805957e-16 6.835997181804871e-23
6.164241091010745 3.82337970164352e-24 6.255996244857268e-16 6.255995485455335e-16 7.594019322674772e-23
6.187401249150058 4.4768217909776476e-24 7.35271140970401e-16 7.352710566738026e-16 8.429659815354468e-23
6.1990139391386085 4.795901500309869e-24 7.891549787424667e-16 7.89154890142834e-16 8.859963270299948e-23
6.204828454712694 4.963976685621448e-24 8.175775265984779e-16 8.175774357622443e-16 9.08362334028673e-23
6.210648424152782 5.0866959057672536e-24 8.385754685096136e-16 8.385753758102132e-16 9.269940040124395e-23
6.233982942956859 5.5036850192162706e-24 9.107278418327514e-16 9.107277425070403e-16 9.932571106163163e-23
6.239830258556775 5.557030823799142e-24 9.204178119739565e-16 9.204177117241463e-16 1.0024981005639136e-22
6.245683058788269 5.561732586874981e-24 9.220606294237242e-16 9.220605282417254e-16 1.0118199913051711e-22
6.257405133728602 5.550452915518287e-24 9.219176510893499e-16 9.219175482723065e-16 1.0281704368204376e-22
6.269149208991335 5.468672636147921e-24 9.100389192498129e-16 9.100388158819235e-16 1.0336788902225753e-22
6.280915325867298 5.2633328348290596e-24 8.775122862730048e-16 8.775121837027761e-16 1.0257022837190769e-22
6.304513850009849 4.756863579358736e-24 7.960525406914948e-16 7.960524409721343e-16 9.971936042597523e-23
6.32820103803542 4.129008285986873e-24 6.935782332283829e-16 6.935781379252245e-16 9.530315856355678e-23
6.3519772230701035 3.5532361731974465e-24 5.9910430442782235e-16 5.991042132955817e-16 9.113224057990203e-23
6.375842739491607 3.0688669147168837e-24 5.1937983585303405e-16 5.193797483775818e-16 8.747545219908192e-23
6.399797922933955 2.6807500215338607e-24 4.553989367637792e-16 4.553988517214979e-16 8.504228125891705e-23
6.42384311029221 2.3581011381248925e-24 4.0209325366786493e-16 4.02093170671516e-16 8.299634902666434e-23
6.447978639727206 2.1230824436152543e-24 3.6337904749467876e-16 3.6337896540515644e-16 8.208952235293708e-23
6.472204850670314 1.9273496964915375e-24 3.3111755568446783e-16 3.3111747421777475e-16 8.146669313196202e-23
6.496522083828205 1.8002718792941915e-24 3.1044770231680442e-16 3.1044762048027285e-16 8.183653152015992e-23
