Dust emission spectrum from A.P. Jones, M. Kohler, N. Ysard, M. Bocchio, and L. Verstraete (2017), A&A, 602A, 46J 
inside the DustPedia framework.

lambda    nu*dP/dnu     j_nu    j_nu(carb.) j_nu(sil)
 (um)   (erg s-1 H-1) (Jy cm2 sr-1 H-1)
0.9927057738263894 2.6231505267319637e-21 6.912150629914208e-14 6.912149193323615e-14 1.436590594079543e-20
1.0001793341362166 2.6672223481017366e-21 7.081194628603575e-14 7.08119289994788e-14 1.728655696910179e-20
1.0077091589558085 2.7114767832978735e-21 7.252880618279669e-14 7.252878540958704e-14 2.077320966105087e-20
1.0114953028030835 2.733670618663557e-21 7.339719930633029e-14 7.339717654575503e-14 2.276057528274446e-20
1.0152956718711033 2.755907910386574e-21 7.427226515911262e-14 7.42722402293877e-14 2.4929724919246636e-20
1.0229392996569957 2.8004884194647e-21 7.604192070929408e-14 7.604189083102235e-14 2.987827172004952e-20
1.0267826658714554 2.8227811172393986e-21 7.693521378987182e-14 7.69351810955617e-14 3.269431012228985e-20
1.0306404723013447 2.845113499900302e-21 7.78352316367485e-14 7.783519587295278e-14 3.576379571147708e-20
1.03451277320114 2.8674849598014414e-21 7.8741999565102e-14 7.874196045672488e-14 3.91083771154439e-20
1.0383996230291617 2.8898949124217743e-21 7.965554351275159e-14 7.965550076130618e-14 4.2751445379451816e-20
1.0403485208654093 2.9011141473139324e-21 8.011486477649843e-14 8.011482008376816e-14 4.4692730276321927e-20
1.0423010764483396 2.9123427969824536e-21 8.057589006809286e-14 8.057584334982792e-14 4.6718264942012513e-20
1.0462171883269815 2.9348280770642973e-21 8.150306649854636e-14 8.150301546243265e-14 5.1036113698090086e-20
1.0471985131304309 2.9404551796426937e-21 8.173593103653907e-14 8.17358788627145e-14 5.217382455306722e-20
1.048180758391296 2.9460845796074724e-21 8.196922463079748e-14 8.196917129501195e-14 5.333578555850527e-20
1.0501480137395462 2.9573502412252823e-21 8.243710077952221e-14 8.243704504508949e-14 5.573443272198662e-20
1.0521189612883777 2.9686250019914545e-21 8.290669855710731e-14 8.290664032100774e-14 5.823609956550994e-20
1.0531058218030118 2.9742583411556773e-21 8.314193635854202e-14 8.314187683158347e-14 5.952695855487153e-20
1.0540936079674168 2.9798695752471773e-21 8.337692401180704e-14 8.33768631663526e-14 6.084545445683742e-20
1.058054026499678 3.002335922232013e-21 8.432115754721606e-14 8.432109114300878e-14 6.640420728308781e-20
1.0590464539527713 3.0079578283658727e-21 8.45582889918843e-14 8.455822112390923e-14 6.786797506029254e-20
1.06003981227728 3.0135818493241532e-21 8.479585060425361e-14 8.479578124168556e-14 6.936256804778242e-20
1.0620293250338977 3.0248362107213045e-21 8.527226624507957e-14 8.527219379837239e-14 7.244670717988306e-20
1.0660195594769086 3.0473700426489328e-21 8.623028076973146e-14 8.623020175692814e-14 7.901280333304247e-20
1.070024785945596 3.069937048262493e-21 8.719523265193447e-14 8.719514650650557e-14 8.61454288794794e-20
1.0740450607676866 3.0925368867358332e-21 8.816715432105934e-14 8.816706043023635e-14 9.389082299426091e-20
1.07808044048254 3.1151692467808728e-21 8.914607913780172e-14 8.914597683903406e-14 1.0229876766798958e-19
1.0861967418109137 3.1604959438414556e-21 9.112408197689564e-14 9.112396065620094e-14 1.2132069470683266e-19
1.0902777775684922 3.1831113884336e-21 9.212095460129507e-14 9.212082254695101e-14 1.3205434404525707e-19
1.0943741465085532 3.2057570686001538e-21 9.312491006166575e-14 9.312476637125865e-14 1.436904070809427e-19
1.1026131145906286 3.251138577402507e-21 9.515422318568724e-14 9.515405322408265e-14 1.6996160458725345e-19
1.1109141095355224 3.296639691489266e-21 9.721234040546336e-14 9.721213963204766e-14 2.0077341572686554e-19
1.1192775983109025 3.342224743754928e-21 9.929854727723945e-14 9.929831041477746e-14 2.368624619772816e-19
1.1277040513999907 3.3877311793935897e-21 1.0140830295685504e-13 1.0140802388031575e-13 2.7907653927757753e-19
1.1361939428280308 3.433353026460823e-21 1.0354767781783324e-13 1.0354734942777345e-13 3.283900597999406e-19
1.1447477501889525 3.479091885995863e-21 1.0571707311252913e-13 1.0571668719109927e-13 3.859214298854831e-19
1.1533659546722406 3.524966015383949e-21 1.0791740532270899e-13 1.0791695236947463e-13 4.529532343580892e-19
1.1707974979042381 3.61726337614753e-21 1.1241683397170873e-13 1.1241621236551355e-13 6.216061951884583e-19
1.1884924949847024 3.710137294353474e-21 1.1704580630062336e-13 1.1704495752663373e-13 8.487739896271361e-19
1.2064549276569216 3.804224092406306e-21 1.218278630148117e-13 1.2182670978692768e-13 1.1532278840438728e-18
1.2246888378427687 3.898941943643718e-21 1.2674824687984662e-13 1.2674668768301002e-13 1.5591968366081542e-18
1.2431983285522175 3.99423576393021e-21 1.3180853910938127e-13 1.3180644126598867e-13 2.0978433925915126e-18
1.2619875648066055 4.090269539159458e-21 1.3701762535895034e-13 1.3701481631485908e-13 2.8090440912682804e-18
1.3004222497298317 4.284099132504999e-21 1.478813260542972e-13 1.4787636057847713e-13 4.965475820096617e-18
1.3400274889804893 4.481295669814358e-21 1.593994209974783e-13 1.5939080481289645e-13 8.616184581836037e-18
1.3808389325824078 4.682953635137857e-21 1.7164545744824577e-13 1.716307740837897e-13 1.4683364456090455e-17
1.4228933163050095 4.891221336715433e-21 1.8473921263803713e-13 1.8471462548310834e-13 2.4587154928824036e-17
1.466228494730424 5.110237324585812e-21 1.9888963835406955e-13 1.9884916392710262e-13 4.0474426966971523e-17
1.5108834753276823 5.340458436232052e-21 2.141800145529334e-13 2.1411448540681436e-13 6.552914611904047e-17
1.5568984535646726 5.5828196321936714e-21 2.30718976979134e-13 2.306145220159431e-13 1.0445496319089003e-16
1.6043148490894465 5.840051341980086e-21 2.4869995199720407e-13 2.4853571215167383e-13 1.642398455301849e-16
1.6531753430134553 6.1153190129682666e-21 2.683536271345581e-13 2.6809919884716365e-13 2.5442828739444636e-16
1.7035239163302658 6.412459506808332e-21 2.899628127072891e-13 2.895744024478412e-13 3.884102594480008e-16
1.755405889504358 6.738885155020004e-21 3.1400389793735093e-13 3.1341928181429745e-13 5.846161230534976e-16
1.8088679632656115 7.097891872143683e-21 3.408047814433961e-13 3.399369042323601e-13 8.678772110360281e-16
1.8639582606462262 7.49329990022509e-21 3.7074792628657006e-13 3.6947669508219166e-13 1.2712312043783982e-15
1.9207263702978936 7.930654431946197e-21 4.0433744131674923e-13 4.0249950079147994e-13 1.8379405252692764e-15
1.979223391128241 8.416752242571356e-21 4.4218987218608225e-13 4.3956598642380927e-13 2.6238857622728334e-15
2.039501978296691 8.959028481710866e-21 4.850142305822142e-13 4.813140948561546e-13 3.70013572605982e-15
2.1016163906111602 9.568287057831011e-21 5.337735826466979e-13 5.286174186623518e-13 5.1561639843460215e-15
2.1656225393682647 1.0254353229288311e-20 5.894683195501341e-13 5.823656911828677e-13 7.102628367266323e-15
2.231578038680979 1.1025096527902821e-20 6.530762831354296e-13 6.434018076151275e-13 9.674475520302016e-15
2.299542257339062 1.189053630138866e-20 7.257921571591821e-13 7.127580313625088e-13 1.3034125796673182e-14
2.369576372248914 1.2862347129471559e-20 8.090220712422781e-13 7.916472638319327e-13 1.7374807410345726e-14
2.4417434235010123 1.395302445657558e-20 9.043526492924357e-13 8.814297622836351e-13 2.2922887008800696e-14
2.5161083711144245 1.517751418122762e-20 1.0136766041782812e-12 9.837355755336206e-13 2.994102864466044e-14
2.5927381535095444 1.6553336344557907e-20 1.1392358186957184e-12 1.1005060564890452e-12 3.872976220667315e-14
2.6717017477616296 1.8097003305520924e-20 1.2834060236969654e-12 1.2337797372973951e-12 4.962628639957024e-14
2.753070231689431 1.9826849565654686e-20 1.448906747795529e-12 1.385902531580484e-12 6.300421621504536e-14
2.836916847834745 2.177388600588074e-20 1.6396531376863713e-12 1.5603784460665352e-12 7.927469161983613e-14
2.9233170693905177 2.3991070063684592e-20 1.861636882513037e-12 1.7627740174569839e-12 9.886286505605315e-14
2.967498994190263 2.5230238893900856e-20 1.9873821103708044e-12 1.877560480074193e-12 1.0982163029661149e-13
3.0123486681368425 2.6548980547664162e-20 2.1228657035389494e-12 2.0010285430184393e-12 1.2183716052051e-13
3.0578761833420214 2.8222523248917066e-20 2.2907894213147123e-12 2.1557559188832802e-12 1.3503350243143231e-13
3.1040917844459814 3.007260859942438e-20 2.4778504398161597e-12 2.3284895022025017e-12 1.4936093761365743e-13
3.127460860933648 3.139507101225152e-20 2.6062902906541087e-12 2.4492711596533403e-12 1.5701913100076792e-13
3.1510058709225794 3.2950981050514787e-20 2.7560493815522743e-12 2.5910571777404838e-12 1.6499220381179083e-13
3.162844764501044 3.415563416263949e-20 2.8675411781133386e-12 2.698426538678611e-12 1.6911463943472767e-13
3.1747281389236908 3.548595058921326e-20 2.9904215786835865e-12 2.8171032429350993e-12 1.7331833574848725e-13
3.1986289994194426 3.8906601613261874e-20 3.3033652918845153e-12 3.121369987808e-12 1.8199530407651433e-13
3.2227097969389145 4.612833975952636e-20 3.946012496141694e-12 3.754832428829325e-12 1.9118006731236995e-13
3.2348180950136065 5.266465247374996e-20 4.522082898619123e-12 4.326003734165677e-12 1.9607916445344597e-13
3.240889293275058 5.74794365565179e-20 4.944770406387947e-12 4.746107082407586e-12 1.9866332398036142e-13
3.2469718861334385 6.303645116900514e-20 5.433000144496018e-12 5.2316629865941e-12 2.0133715790191866e-13
3.2714166318528037 9.196817025666191e-20 7.98624881056313e-12 7.773869907833655e-12 2.1237890272947774e-13
3.2744851364798273 9.381132490974213e-20 8.153944030352161e-12 7.940266100064479e-12 2.1367793028768489e-13
3.2775565192852394 9.57017074783531e-20 8.326055643627817e-12 8.111072395742505e-12 2.1498324788531303e-13
3.283707930232385 9.409790109276341e-20 8.20188907012085e-12 7.984575977954426e-12 2.1731309216642353e-13
3.2898708863219004 8.868680895359054e-20 7.744748440765377e-12 7.52531918271414e-12 2.1942925805123504e-13
3.29141343181113 8.740964323948967e-20 7.636796497329654e-12 7.416835963814581e-12 2.1996053351506907e-13
3.292184975758714 8.678193031571821e-20 7.583731835312988e-12 7.363505328660862e-12 2.2022650665212543e-13
3.295272960557952 8.283482789436274e-20 7.2455907793696705e-12 7.024330466396213e-12 2.212603129734569e-13
3.3076538914384823 6.908505400018701e-20 6.06559757838931e-12 5.8401870571136385e-12 2.254105212756712e-13
3.310756385682612 6.626742978836968e-20 5.8236703682960345e-12 5.5972141753523875e-12 2.264561929436462e-13
3.313861789986515 6.366053635048366e-20 5.599820651632356e-12 5.372315535662432e-12 2.275051159699239e-13
3.3200813396944477 6.006914648217937e-20 5.293825455516312e-12 5.064062287821363e-12 2.2976316769494904e-13
3.345076488085796 5.417865889541389e-20 4.8106497287604165e-12 4.570818620685488e-12 2.398311080749278e-13
3.3482140837626964 5.452828901783691e-20 4.846235588937579e-12 4.605040400595479e-12 2.411951883420987e-13
3.3513546224236106 5.488056044323806e-20 4.882118941599539e-12 4.6395537502588054e-12 2.425651913407318e-13
3.3576445397418455 5.693348311608764e-20 5.074250515086695e-12 4.828820233438828e-12 2.454302816478666e-13
3.3702598118196083 6.409115631599724e-20 5.733646608896347e-12 5.482207053132363e-12 2.514395557639848e-13
3.382922481734668 6.606260162862955e-20 5.932218679133466e-12 5.6749448969538214e-12 2.5727378217964386e-13
3.389271646505754 6.707471116402404e-20 6.0344073365590425e-12 5.774177697209947e-12 2.60229639349096e-13
3.395632727569191 6.817762973862742e-20 6.1451436891624144e-12 5.881867858533314e-12 2.6327583062910294e-13
3.421196662673239 7.340503963498298e-20 6.666123421684377e-12 6.3902450074387715e-12 2.758784142456053e-13
3.4276182099114902 7.275284431167921e-20 6.6192967508804506e-12 6.340613174667559e-12 2.7868357621289136e-13
3.4340518103208963 6.921924040791924e-20 6.309618561023325e-12 6.028285347747398e-12 2.8133321327592774e-13
3.4469541582030403 6.422824933656601e-20 5.876666230822011e-12 5.590254588754964e-12 2.8641164206704695e-13
3.472904465399547 6.341541335146184e-20 5.8459769318722104e-12 5.5478558774031796e-12 2.9812105446903223e-13
3.4990501388274233 6.18608069096621e-20 5.745597242128874e-12 5.435509974649329e-12 3.100872674795443e-13
3.5253949054701885 5.465598076357004e-20 5.114637958565003e-12 4.7929515899331665e-12 3.2168636863183494e-13
3.5519380250092896 4.782493774104375e-20 4.50909334439192e-12 4.175769809131703e-12 3.3332353526021726e-13
3.578680990867387 4.5614060799506625e-20 4.3330246191093535e-12 3.986949175560135e-12 3.460754435492178e-13
3.605625307711299 4.522511732288156e-20 4.328423323973946e-12 3.968930492532252e-12 3.5949283144169303e-13
3.660119384959845 4.602169876261318e-20 4.471233286803618e-12 4.083610190758845e-12 3.8762309604477243e-13
3.715437065384467 4.708542553080726e-20 4.643718039278887e-12 4.22652574727693e-12 4.1719229200195534e-13
3.8285932144167436 5.0248572296579656e-20 5.106606398646927e-12 4.62616337086136e-12 4.804430277855678e-13
3.94519561050918 5.376036198724094e-20 5.629893230053818e-12 5.080930128891818e-12 5.489631011620007e-13
4.06534921144712 5.744658667037316e-20 6.1991410692367625e-12 5.576578445099645e-12 6.225626241371169e-13
4.189162171576248 6.123946736024089e-20 6.80970049146397e-12 6.108433735112407e-12 7.012667563515629e-13
4.316745939156006 6.50920393355548e-20 7.45853960864375e-12 6.673888219195463e-12 7.846513894482876e-13
4.448215356677963 6.896006276132653e-20 8.142408487219777e-12 7.271000058818362e-12 8.714084284014112e-13
4.58368876423945 7.281639322104747e-20 8.859591902567368e-12 7.898070038430088e-12 9.615218641372772e-13
4.723288106065518 7.6640827984956e-20 9.608908503644748e-12 8.553467876346508e-12 1.0554406272982427e-12
4.867139040275056 8.03928052932046e-20 1.038628820718706e-11 9.235860365740189e-12 1.150427841446873e-12
4.940699165968905 8.224981641177594e-20 1.0786803844177355e-11 9.588215873021516e-12 1.1985879711558395e-12
5.015371051989984 8.406845911494054e-20 1.1191945568597373e-11 9.944925593194577e-12 1.2470199754027988e-12
5.091171501069577 8.589805988579344e-20 1.1608350559029203e-11 1.031153860638392e-11 1.2968119526452837e-12
5.129500256944802 8.679537611897965e-20 1.1817920889158975e-11 1.0496175944583261e-11 1.321744944575716e-12
5.168117569889187 8.768627178801546e-20 1.2029107976512958e-11 1.0682142570463049e-11 1.3469654060499065e-12
5.20702561229733 8.861506977095608e-20 1.2248043798039273e-11 1.0873410922981756e-11 1.3746328750575212e-12
5.246226572918644 8.95321365349316e-20 1.2467960687941893e-11 1.1065568175611017e-11 1.4023925123308764e-12
5.265937586045735 8.99861396087846e-20 1.257826561485723e-11 1.1161963077168305e-11 1.4163025376889265e-12
5.285722656980489 9.043705412110011e-20 1.2688790068574557e-11 1.1258559714659993e-11 1.430230353914564e-12
5.305582063971359 9.088482981668148e-20 1.2799525435889998e-11 1.1355351248962673e-11 1.4441741869273235e-12
5.3255160863122235 9.133667627938287e-20 1.2911489238189624e-11 1.1453235088824334e-11 1.4582541493652883e-12
5.365609099470188 9.228660512006934e-20 1.3143987369673257e-11 1.1656592565029128e-11 1.4873948046441285e-12
5.406003951863644 9.322578186668382e-20 1.3377711513464733e-11 1.1861089825119705e-11 1.5166216883450282e-12
5.446702915881641 9.415397386454497e-20 1.3612621699525143e-11 1.2066701136637714e-11 1.5459205628874288e-12
5.487708281020852 9.508418957479078e-20 1.3850605482977308e-11 1.2275191026654076e-11 1.5754144563232331e-12
5.529022354014368 9.611985101464494e-20 1.4106876615290797e-11 1.2500719396605812e-11 1.6061572186849848e-12
5.570647458961463 9.715113673130217e-20 1.4365574354620249e-11 1.2728591477684882e-11 1.636982876935367e-12
5.612585937458331 9.817849969928561e-20 1.4626783327030692e-11 1.2958906390745886e-11 1.6678769362848044e-12
5.654840148729818 9.92220005023945e-20 1.4893533438348268e-11 1.3194540744534836e-11 1.6989926938134307e-12
5.67608639626678 9.982877125145514e-20 1.5040911501110542e-11 1.3325614992024033e-11 1.7152965090865095e-12
5.686739436050992 1.0013337544953159e-19 1.5115120676147436e-11 1.3391663399747084e-11 1.7234572764003514e-12
5.6974124697621304 1.004388434164738e-19 1.5189686056085664e-11 1.3458062412738866e-11 1.7316236433467912e-12
5.718818669136295 1.0105253143276755e-19 1.5339915124187024e-11 1.3591942872576002e-11 1.7479722516110208e-12
5.740305295436557 1.0169423449728425e-19 1.5495327345336262e-11 1.3730853983803144e-11 1.7644733615331218e-12
5.7835210386641895 1.0318818324309967e-19 1.5841332842162246e-11 1.4042770466338102e-11 1.7985623758241434e-12
5.827062130521658 1.047766280353172e-19 1.6206286024028863e-11 1.4373206523674176e-11 1.8330795003546923e-12
5.8489554468988025 1.0579741028882227e-19 1.6425658277679022e-11 1.4573861651118202e-11 1.8517966265608166e-12
5.870931020387893 1.0685060912924317e-19 1.665150197019845e-11 1.478093859267657e-11 1.8705633775218826e-12
5.892989160043636 1.0793901562358331e-19 1.6884318205524612e-11 1.4994940307621904e-11 1.8893778979027063e-12
5.915130176081913 1.0913256992347432e-19 1.7135158347516914e-11 1.522625244884942e-11 1.908905898667494e-12
5.95966208400165 1.1229732531601726e-19 1.7764806491702194e-11 1.5810951705899324e-11 1.9538547858028703e-12
6.004529249263818 1.165821946261896e-19 1.85814937785026e-11 1.657680379637677e-11 2.0046899821258294e-12
6.027089341400364 1.1946248602487282e-19 1.9112108861151293e-11 1.7077820948801653e-11 2.0342879123496355e-12
6.049734195844842 1.227659164448991e-19 1.9714398769142414e-11 1.764871008585996e-11 2.065688683282453e-12
6.095279466722835 1.3206808297719514e-19 2.136785508400648e-11 1.9224217471337323e-11 2.143637612669152e-12
6.141167624020661 1.4588489567642864e-19 2.3781032907314173e-11 2.1535280404353426e-11 2.245752502960751e-12
6.164241091010745 1.5463295529225787e-19 2.5301781751462124e-11 2.2991483746802234e-11 2.310298004659884e-12
6.187401249150058 1.6430079280522726e-19 2.6984686241410423e-11 2.4608198708445346e-11 2.3764875329650856e-12
6.1990139391386085 1.6898643591603616e-19 2.7806344069924794e-11 2.539619383798374e-11 2.4101502319410627e-12
6.204828454712694 1.7142950239983318e-19 2.8234803955473653e-11 2.5807660513505594e-11 2.4271434419680513e-12
6.210648424152782 1.7320227169720132e-19 2.8553540220624258e-11 2.6112019661079514e-11 2.4415205595447464e-12
6.233982942956859 1.7910400653249018e-19 2.963741652427658e-11 2.71461986209968e-11 2.4912179032797784e-12
6.239830258556775 1.7979224657188861e-19 2.977920969789481e-11 2.7281418576756506e-11 2.4977911211383015e-12
6.245683058788269 1.797776679533729e-19 2.9804724891053544e-11 2.73003533944653e-11 2.5043714965882433e-12
6.257405133728602 1.7943869727756516e-19 2.980436098217377e-11 2.7288660332560323e-11 2.5157006496134355e-12
6.269149208991335 1.7805466406019792e-19 2.96299824161477e-11 2.7111032330099964e-11 2.5189500860477337e-12
6.280915325867298 1.7486376614748597e-19 2.9153600586114554e-11 2.6641379875258872e-11 2.5122207108556853e-12
6.304513850009849 1.6710552672759802e-19 2.7964808512130526e-11 2.547505660242066e-11 2.489751909709867e-12
6.32820103803542 1.577499207724379e-19 2.6498351120434816e-11 2.404065249130082e-11 2.457698629133992e-12
6.3519772230701035 1.4926299261344815e-19 2.5166945569515884e-11 2.273823126183386e-11 2.428714307682029e-12
6.375842739491607 1.4205621369570322e-19 2.4041815758564587e-11 2.1638927893808357e-11 2.4028878647562325e-12
6.399797922933955 1.3647594843706997e-19 2.318418402045137e-11 2.0795787046773887e-11 2.388396973677487e-12
6.42384311029221 1.3179078819447716e-19 2.247239779999765e-11 2.0096223361818966e-11 2.3761744381786824e-12
6.447978639727206 1.284711511641068e-19 2.198865365824582e-11 1.961588817917667e-11 2.3727654790691502e-12
6.472204850670314 1.2569208483953955e-19 2.159382699295007e-11 1.9222728955666555e-11 2.371098037283526e-12
6.496522083828205 1.2395676172199728e-19 2.1375711249965658e-11 1.8999162735826443e-11 2.3765485141392146e-12
6.520930681187647 1.2249775953054217e-19 2.1203480844408294e-11 1.8820426094043517e-11 2.3830547503647733e-12
