Dust emission spectrum from A.P. Jones, M. Kohler, N. Ysard, M. Bocchio, and L. Verstraete (2017), A&A, 602A, 46J 
inside the DustPedia framework.

lambda    nu*dP/dnu     j_nu    j_nu(carb.) j_nu(sil)
 (um)   (erg s-1 H-1) (Jy cm2 sr-1 H-1)
0.9927057738263894 4.973434203132405e-25 1.3105281610677165e-17 1.3105281604082816e-17 6.594351078675438e-27
1.0001793341362166 5.055229601947358e-25 1.3421102567299725e-17 1.3421102559355977e-17 7.94374830404894e-27
1.0077091589558085 5.136903071683216e-25 1.3740609897930863e-17 1.3740609888373885e-17 9.556977886932676e-27
1.0114953028030835 5.177684101015195e-25 1.3901730124795297e-17 1.390173011431779e-17 1.0477511265266085e-26
1.0152956718711033 5.218422703023047e-25 1.406375275641537e-17 1.406375274493237e-17 1.1483001310657517e-26
1.0229392996569957 5.299716697518522e-25 1.4390369697420742e-17 1.4390369683641222e-17 1.3779518701084922e-26
1.0267826658714554 5.3401731783768395e-25 1.455470148373242e-17 1.4554701468644557e-17 1.50878618251468e-26
1.0306404723013447 5.380569478966723e-25 1.4719900339570623e-17 1.4719900323055546e-17 1.6515079772360132e-26
1.03451277320114 5.420901736502123e-25 1.4885959234731894e-17 1.488595921666045e-17 1.8071446061642212e-26
1.0383996230291617 5.4611661106529555e-25 1.505287105381055e-17 1.5052871034042477e-17 1.9768072954024386e-26
1.0403485208654093 5.481271647679442e-25 1.513664456338865e-17 1.5136644542715947e-17 2.0672701746912844e-26
1.0423010764483396 5.501358784287947e-25 1.5220628597952547e-17 1.522062857633557e-17 2.1616975604677816e-26
1.0462171883269815 5.541475964201227e-25 1.538922458661261e-17 1.5389224562981468e-17 2.3631140762859452e-26
1.0471985131304309 5.551493021104908e-25 1.5431503729908797e-17 1.5431503705746677e-17 2.416212461471358e-26
1.048180758391296 5.56150506535262e-25 1.5473834700561994e-17 1.547383467585745e-17 2.4704538805705818e-26
1.0501480137395462 5.5815138818225545e-25 1.555865165931346e-17 1.5558651633488862e-17 2.5824600314224197e-26
1.0521189612883777 5.601501946502933e-25 1.5643674530606993e-17 1.5643674503613738e-17 2.69932554867846e-26
1.0531058218030118 5.611472641186479e-25 1.5686219813371822e-17 1.5686219785775356e-17 2.759646846055453e-26
1.0540936079674168 5.621387485487011e-25 1.5728674875963184e-17 1.572867484775047e-17 2.821272031293445e-26
1.058054026499678 5.66099000655449e-25 1.5898994735440167e-17 1.589899470462796e-17 3.081221124637983e-26
1.0590464539527713 5.670876136346333e-25 1.5941699004299576e-17 1.5941698972802484e-17 3.149708543341238e-26
1.06003981227728 5.680756351752231e-25 1.5984452754464834e-17 1.5984452722268302e-17 3.219653110518805e-26
1.0620293250338977 5.700498811893389e-25 1.607010821592943e-17 1.607010818228911e-17 3.364032278620494e-26
1.0660195594769086 5.739910263136077e-25 1.6242007588715654e-17 1.6242007551999516e-17 3.671613069248218e-26
1.070024785945596 5.779220750561454e-25 1.64146850560763e-17 1.641468501601609e-17 4.0060210035557686e-26
1.0740450607676866 5.818426693696399e-25 1.6588132753053943e-17 1.65881327093592e-17 4.369474522347797e-26
1.07808044048254 5.857524541900871e-25 1.6762342749226604e-17 1.6762342701582956e-17 4.764364748073812e-26
1.0861967418109137 5.935312535811014e-25 1.711281759831521e-17 1.7112817541725615e-17 5.658960046786745e-26
1.0902777775684922 5.973838001073057e-25 1.7288608287225252e-17 1.7288608225580952e-17 6.164429823610546e-26
1.0943741465085532 6.012238735515463e-25 1.746511602510871e-17 1.746511595797979e-17 6.712891707444035e-26
1.1026131145906286 6.088652552876273e-25 1.7820249433334613e-17 1.7820249353805668e-17 7.952894252116553e-26
1.1109141095355224 6.164527408155337e-25 1.8178150872462634e-17 1.817815077836363e-17 9.409899808695901e-26
1.1192775983109025 6.239766549387148e-25 1.8538542474170903e-17 1.8538542362974462e-17 1.111964359956808e-25
1.1277040513999907 6.314019675542194e-25 1.8900378637703486e-17 1.8900378506469942e-17 1.3123354205308944e-25
1.1361939428280308 6.387647431461714e-25 1.926472614815029e-17 1.9264725993465007e-17 1.5468528092789595e-25
1.1447477501889525 6.4606257081177255e-25 1.9631514852683002e-17 1.9631514670584853e-17 1.8209815272990077e-25
1.1533659546722406 6.532970883654674e-25 2.0000796142031033e-17 2.000079592793061e-17 2.1410042485268005e-25
1.1707974979042381 6.675998481364679e-25 2.0747580002710415e-17 2.074757970784555e-17 2.948648624719513e-25
1.1884924949847024 6.8161912101909245e-25 2.1503425151145082e-17 2.1503424747054257e-17 4.040908211061273e-25
1.2064549276569216 6.954653456545052e-25 2.2271836464910478e-17 2.2271835913829765e-17 5.51080720141478e-25
1.2246888378427687 7.089873089012828e-25 2.3048021684395072e-17 2.3048020936490682e-17 7.479043956159204e-25
1.2431983285522175 7.221537723328978e-25 2.383085009730816e-17 2.38308490871393e-17 1.0101688641993913e-24
1.2619875648066055 7.349603681196007e-25 2.4620021592362307e-17 2.4620020234410584e-17 1.3579517070452772e-24
1.3004222497298317 7.592829038342176e-25 2.6209422143718458e-17 2.6209419723915312e-17 2.4198031447071223e-24
1.3400274889804893 7.818643765272246e-25 2.7810869467168363e-17 2.781086523334007e-17 4.23382827973786e-24
1.3808389325824078 8.02626273727796e-25 2.941885926016282e-17 2.941885198330384e-17 7.276858982323378e-24
1.4228933163050095 8.216752586123483e-25 3.1034302042470034e-17 3.103428975040529e-17 1.2292064745329346e-23
1.466228494730424 8.394745407457466e-25 3.267221798351658e-17 3.267219756652184e-17 2.0416994740451782e-23
1.5108834753276823 8.556866611878837e-25 3.431746239285e-17 3.4317429032102906e-17 3.336074710667998e-23
1.5568984535646726 8.700406197169359e-25 3.595582428524705e-17 3.595577060585704e-17 5.367939000901937e-23
1.6043148490894465 8.825704043032758e-25 3.758446704168139e-17 3.7584381829601664e-17 8.521207973908396e-23
1.6531753430134553 8.933223014830594e-25 3.92009442671432e-17 3.9200810969736434e-17 1.3329740677158664e-22
1.7035239163302658 9.024296787263344e-25 4.080665891709693e-17 4.080645338730287e-17 2.0552979406714915e-22
1.755405889504358 9.106188354473865e-25 4.243103381167528e-17 4.2430721290815287e-17 3.1252086000107574e-22
1.8088679632656115 9.177245374581895e-25 4.406447943242897e-17 4.406401062998826e-17 4.688024406991993e-22
1.8639582606462262 9.236392183488111e-25 4.5699135147317916e-17 4.5698441112329917e-17 6.9403498800254395e-22
1.9207263702978936 9.284628651723905e-25 4.733686261113453e-17 4.7335848187555774e-17 1.0144235787529822e-21
1.979223391128241 9.324119497646736e-25 4.89860113507697e-17 4.898454690482932e-17 1.4644459403985263e-21
2.039501978296691 9.357433904071607e-25 5.06582674055806e-17 5.065617858647648e-17 2.0888191041255313e-21
2.1016163906111602 9.391516904742214e-25 5.239123360778056e-17 5.2388288618378625e-17 2.944989401946658e-21
2.1656225393682647 9.430479851243223e-25 5.421082135718036e-17 5.420671577747755e-17 4.1055797028152964e-21
2.231578038680979 9.474786741170025e-25 5.612430233843219e-17 5.611864110157819e-17 5.661236854006387e-21
2.299542257339062 9.526995528616425e-25 5.815228565554996e-17 5.814456186583616e-17 7.723789713813786e-21
2.369576372248914 9.59252116138938e-25 6.033549911462743e-17 6.032506931416174e-17 1.0429800465695157e-20
2.4417434235010123 9.677736417146928e-25 6.272537251861659e-17 6.27114286680754e-17 1.3943850541191885e-20
2.5161083711144245 9.793410971124792e-25 6.540828397848438e-17 6.538982128507304e-17 1.846269341134022e-20
2.5927381535095444 9.957019831821044e-25 6.852632849210132e-17 6.850210960878018e-17 2.4218883321150838e-20
2.6717017477616296 1.0189343098587313e-24 7.22609378440716e-17 7.222945485016093e-17 3.148299391067159e-20
2.753070231689431 1.0521513031139469e-24 7.688912541226104e-17 7.684855849570896e-17 4.0566916552081026e-20
2.836916847834745 1.102372994757786e-24 8.30127125340488e-17 8.296088418999863e-17 5.182834405017015e-20
2.9233170693905177 1.185016432433685e-24 9.195380994455545e-17 9.188814755988581e-17 6.566238466967323e-20
2.967498994190263 1.2536798259296651e-24 9.875217070527635e-17 9.867860629411516e-17 7.356441116127259e-20
3.0123486681368425 1.3335698578004112e-24 1.0663270890252256e-16 1.0655040074018855e-16 8.230816233400273e-20
3.0578761833420214 1.5090826993138867e-24 1.224904893509106e-16 1.2239849514820702e-16 9.199420270361129e-20
3.1040917844459814 1.734533616939157e-24 1.4291792716947307e-16 1.4281529729545685e-16 1.026298740162353e-19
3.127460860933648 1.9714045903759488e-24 1.636579398352919e-16 1.6354957743510198e-16 1.0836240018983899e-19
3.1510058709225794 2.2864974850581683e-24 1.9124468464094323e-16 1.9113031890162775e-16 1.143657393154248e-19
3.162844764501044 2.579171066363887e-24 2.1653467779224497e-16 2.1641719447925022e-16 1.1748331299476667e-19
3.1747281389236908 2.919343476421505e-24 2.460147630970811e-16 2.4589409120851735e-16 1.2067188856366665e-19
3.1986289994194426 3.8674544791379644e-24 3.283662505741161e-16 3.282389677037349e-16 1.2728287038110107e-19
3.2227097969389145 6.100194280245467e-24 5.218363154674237e-16 5.217019975175801e-16 1.343179498436309e-19
3.2348180950136065 8.216726560354688e-24 7.055342989252566e-16 7.05396218767329e-16 1.3808015792753036e-19
3.240889293275058 9.798935388505194e-24 8.429707844394946e-16 8.428307195195878e-16 1.4006491990694555e-19
3.2469718861334385 1.1629328813412906e-23 1.002311265180019e-15 1.002169146346994e-15 1.421188330246943e-19
3.2714166318528037 2.1390536420411616e-23 1.857492060221184e-15 1.8573414289982575e-15 1.506312229269654e-19
3.2744851364798273 2.2000859502372624e-23 1.9122827353156614e-15 1.9121310942243754e-15 1.5164109128598455e-19
3.2775565192852394 2.2628693250326569e-23 1.968697989922702e-15 1.968545333267718e-15 1.526566549835996e-19
3.283707930232385 2.2025587927375455e-23 1.9198242127253935e-15 1.9196697265268907e-15 1.5448619850295444e-19
3.2898708863219004 2.011190232066313e-23 1.756311067864566e-15 1.7561549042842837e-15 1.5616358028187884e-19
3.29141343181113 1.9660597629858317e-23 1.7177050214441108e-15 1.7175484363206714e-15 1.5658512343934019e-19
3.292184975758714 1.943884100736901e-23 1.698728719825111e-15 1.6985719235996555e-15 1.5679622545542636e-19
3.295272960557952 1.8039199581369745e-23 1.5778949685350508e-15 1.5777373488338265e-15 1.5761970122443647e-19
3.3076538914384823 1.3189978830577047e-23 1.1580667455733312e-15 1.1579058117493281e-15 1.6093382400260918e-19
3.310756385682612 1.2202920796410048e-23 1.0724090020643762e-15 1.0722472314948833e-15 1.617705694928293e-19
3.313861789986515 1.1292159279749595e-23 9.933008793411353e-16 9.931382687253725e-16 1.626106157628093e-19
3.3200813396944477 1.0015108374872182e-23 8.826200930020171e-16 8.824556811202413e-16 1.6441188177586807e-19
3.345076488085796 7.738579243958167e-24 6.871265346896503e-16 6.869541086993206e-16 1.7242599032962e-19
3.3482140837626964 7.824323038087266e-24 6.953915747130645e-16 6.952180634797562e-16 1.7351123330827046e-19
3.3513546224236106 7.911011549653496e-24 7.037555560993694e-16 7.035809539943631e-16 1.7460210500625102e-19
3.3576445397418455 8.543044991179995e-24 7.614069625516143e-16 7.612300817627972e-16 1.768807888168421e-19
3.3702598118196083 1.0872960303779312e-23 9.727038106015304e-16 9.725221482795226e-16 1.8166232200803723e-19
3.382922481734668 1.1404690645202886e-23 1.0241061842452712e-15 1.0239198496976179e-15 1.8633454765334933e-19
3.389271646505754 1.168013798143355e-23 1.0508090024394827e-15 1.0506202946768306e-15 1.8870776265191327e-19
3.395632727569191 1.1977010091024991e-23 1.0795395536345102e-15 1.079348399800744e-15 1.911538337665202e-19
3.421196662673239 1.3402413188306012e-23 1.2171118073898579e-15 1.2169104990456136e-15 2.0130834424392104e-19
3.4276182099114902 1.3116516355643025e-23 1.1933844637582147e-15 1.1931808623368618e-15 2.0360142135278496e-19
3.4340518103208963 1.1861363981972903e-23 1.0812121297295742e-15 1.081006346398786e-15 2.057833307883645e-19
3.4469541582030403 1.0073839932996501e-23 9.217220702798e-16 9.215120722331677e-16 2.0999804663247352e-19
3.472904465399547 9.57472685585196e-24 8.826502796421118e-16 8.824306079960581e-16 2.1967164605349723e-19
3.4990501388274233 8.810389556624488e-24 8.183040679140603e-16 8.180744326934705e-16 2.296352205899538e-19
3.5253949054701885 6.08491391759272e-24 5.694185935871834e-16 5.69179178010573e-16 2.39415576610403e-19
3.5519380250092896 3.5227994690210996e-24 3.3214118804295077e-16 3.3189185905641785e-16 2.4932898653287977e-19
3.578680990867387 2.5084010999000373e-24 2.3828099340336315e-16 2.3802078161313385e-16 2.6021179022924796e-19
3.605625307711299 2.0996715634244097e-24 2.0095619217361022e-16 2.006844644245843e-16 2.717277490258791e-19
3.660119384959845 1.80492295233782e-24 1.7535709896838412e-16 1.7506093956147595e-16 2.961594069081279e-19
3.715437065384467 1.5978556987353674e-24 1.5758573377503427e-16 1.5726346637378002e-16 3.222674012542511e-19
3.8285932144167436 1.5016853570264746e-24 1.5261162063837926e-16 1.5223198519809288e-16 3.7963544028642723e-19
3.94519561050918 1.4938036221983822e-24 1.564341196519565e-16 1.55989976151274e-16 4.441435006824685e-19
4.06534921144712 1.5230284312783722e-24 1.6435211637773824e-16 1.63835848635968e-16 5.162677417702498e-19
4.189162171576248 1.5744792487551309e-24 1.7507879438233995e-16 1.7448206540990837e-16 5.967289724315898e-19
4.316745939156006 1.6427295493062893e-24 1.8823136492357405e-16 1.8754542705685127e-16 6.859378667228316e-19
4.448215356677963 1.7261019508680184e-24 2.0380821321462513e-16 2.0302469602113334e-16 7.835171934917276e-19
4.58368876423945 1.825070191126952e-24 2.2205682500423114e-16 2.2116648002053747e-16 8.90344983693599e-19
4.723288106065518 1.9417116681369122e-24 2.434437394550248e-16 2.4243586182499535e-16 1.0078776300295185e-18
4.867139040275056 2.0799140146181372e-24 2.687129317505911e-16 2.675783856851025e-16 1.1345460654886723e-18
4.940699165968905 2.161740458219722e-24 2.835054387002823e-16 2.8230351714682133e-16 1.201921553460918e-18
5.015371051989984 2.2467579058709803e-24 2.991085176658719e-16 2.9783653077406183e-16 1.2719868918099954e-18
5.091171501069577 2.3481411166145248e-24 3.173301618217323e-16 3.1598407471486057e-16 1.3460871068716845e-18
5.129500256944802 2.400287984382592e-24 3.2681940880983644e-16 3.2543520682700925e-16 1.3842019828272225e-18
5.168117569889187 2.454537556170908e-24 3.3672200554912337e-16 3.3529870935379333e-16 1.4232961953300001e-18
5.20702561229733 2.5195240410696213e-24 3.482391977458878e-16 3.467737731639529e-16 1.4654245819347944e-18
5.246226572918644 2.5861801042196425e-24 3.6014321917547e-16 3.5863478826497424e-16 1.508430910495693e-18
5.265937586045735 2.620150525877046e-24 3.6624472845118057e-16 3.6471446217699474e-16 1.5302662741858026e-18
5.285722656980489 2.6545581659378605e-24 3.7244834675068343e-16 3.7089602205544384e-16 1.552324695239668e-18
5.305582063971359 2.689409914458691e-24 3.7875595604989015e-16 3.771813486783766e-16 1.574607371513723e-18
5.3255160863122235 2.7265856517283338e-24 3.854342278846331e-16 3.838369909336819e-16 1.5972369509510794e-18
5.365609099470188 2.8171716013729152e-24 4.0123772998769895e-16 3.99593599994051e-16 1.6441299936480825e-18
5.406003951863644 2.9110875622891244e-24 4.177351889033236e-16 4.160431775852504e-16 1.6920113180732373e-18
5.446702915881641 3.008488271287921e-24 4.3496212686061086e-16 4.332212338441545e-16 1.7408930164563034e-18
5.487708281020852 3.1132096684698e-24 4.534911544873484e-16 4.517002192749173e-16 1.790935212431136e-18
5.529022354014368 3.2552376876799826e-24 4.777497668670899e-16 4.759064524982235e-16 1.8433143688663593e-18
5.570647458961463 3.4052464099161925e-24 5.035280300708331e-16 5.016312127610495e-16 1.8968173097836837e-18
5.612585937458331 3.563794600895885e-24 5.309395805497854e-16 5.289881210321895e-16 1.951459517595904e-18
5.654840148729818 3.737250988369724e-24 5.609730934767976e-16 5.5896564504999e-16 2.0074484268074102e-18
5.67608639626678 3.8535768439906496e-24 5.806072492587888e-16 5.785705290841386e-16 2.0367201746502387e-18
5.686739436050992 3.913462444234016e-24 5.907366733680279e-16 5.886851968717294e-16 2.0514764962986532e-18
5.6974124697621304 3.9745325207298095e-24 6.01081206792217e-16 5.990148932668432e-16 2.066313525373706e-18
5.718818669136295 4.1003383213395805e-24 6.22437072461155e-16 6.203408415207708e-16 2.0962309403840272e-18
5.740305295436557 4.2385008605714696e-24 6.458277464077699e-16 6.437011010814966e-16 2.1266453262733075e-18
5.7835210386641895 4.593816604061875e-24 7.052375141575329e-16 7.030477026180881e-16 2.1898115394447465e-18
5.827062130521658 5.0013633957923104e-24 7.735840255805678e-16 7.713292019880971e-16 2.2548235924712446e-18
5.8489554468988025 5.285180487625899e-24 8.205547601647857e-16 8.182650713073467e-16 2.2896888574389494e-18
5.870931020387893 5.5891796608487816e-24 8.710126867114456e-16 8.686877054079084e-16 2.3249813035371684e-18
5.892989160043636 5.9149727865825195e-24 9.252472994005843e-16 9.228865943666223e-16 2.360705033961931e-18
5.915130176081913 6.284651870157784e-24 9.867677910424452e-16 9.843700952511455e-16 2.3976957912995817e-18
5.95966208400165 7.313868341757375e-24 1.1570129157704385e-15 1.154532605807139e-15 2.48030996329932e-18
6.004529249263818 8.791604381924241e-24 1.4012529327448708e-15 1.3986804306691341e-15 2.572502075736046e-18
6.027089341400364 9.816506443917823e-24 1.5704858155495617e-15 1.5678608957349182e-15 2.62491981464352e-18
6.049734195844842 1.1025922392291126e-23 1.7706008078944745e-15 1.7679204892611086e-15 2.6803186333656818e-18
6.095279466722835 1.4514054776028978e-23 2.348290458558952e-15 2.3454770284661575e-15 2.8134300927947383e-18
6.141167624020661 1.9873661560042866e-23 3.239651352230889e-15 3.2366689206112642e-15 2.9824316196235106e-18
6.164241091010745 2.3296024733295456e-23 3.811806690006505e-15 3.808720053771969e-15 3.086636234534931e-18
6.187401249150058 2.7190889958987377e-23 4.465819194419905e-15 4.462624972396465e-15 3.1942220234378336e-18
6.1990139391386085 2.9093245985774646e-23 4.7872292447978595e-15 4.783980148668433e-15 3.249096129427886e-18
6.204828454712694 3.009498760139791e-23 4.956708519085726e-15 4.953431645247531e-15 3.276873838193894e-18
6.210648424152782 3.0827167791590615e-23 5.082062531858458e-15 5.078761522739841e-15 3.3010091186141344e-18
6.233982942956859 3.331605638552118e-23 5.5130081071908186e-15 5.509620926213121e-15 3.387180977696468e-18
6.239830258556775 3.363528982151514e-23 5.5710541913934586e-15 5.567653551321137e-15 3.4006400723208522e-18
6.245683058788269 3.366510775131477e-23 5.581223109512394e-15 5.577808964910976e-15 3.4141446014185495e-18
6.257405133728602 3.360167511115352e-23 5.581162089409325e-15 5.5777234157171105e-15 3.4386736922156885e-18
6.269149208991335 3.3118772438454947e-23 5.51127739436272e-15 5.5078254406331234e-15 3.451953729593732e-18
6.280915325867298 3.190054304756894e-23 5.318515727864239e-15 5.315064475939625e-15 3.45125192461321e-18
6.304513850009849 2.8893569092499694e-23 4.8352866761906005e-15 4.831849537316104e-15 3.4371388744968478e-18
6.32820103803542 2.516476723395012e-23 4.227100937763077e-15 4.2236914312112505e-15 3.409506551826702e-18
6.3519772230701035 2.1745710671852075e-23 3.6665023745452764e-15 3.663116194854215e-15 3.386179691061853e-18
6.375842739491607 1.886875476767989e-23 3.1933775645311203e-15 3.1900103580749876e-15 3.3672064561328803e-18
6.399797922933955 1.65666933669278e-23 2.814307370843073e-15 2.810942714080023e-15 3.3646567630504632e-18
6.42384311029221 1.4652806264188812e-23 2.498533438993026e-15 2.495168038802624e-15 3.3654001904012532e-18
6.447978639727206 1.3261549362870638e-23 2.2697984198756308e-15 2.266419273733862e-15 3.379146141768122e-18
6.472204850670314 1.2103410031005078e-23 2.0793587962831148e-15 2.075963193746465e-15 3.395602536649116e-18
6.496522083828205 1.1354783490678457e-23 1.9580744917084063e-15 1.9546517153029956e-15 3.422776405410476e-18
6.520930681187647 1.0725444279541132e-23 1.856497238811274e-15 1.853045432023895e-15 3.4518067873795802e-18
