Dust emission spectrum from A.P. Jones, M. Kohler, N. Ysard, M. Bocchio, and L. Verstraete (2017), A&A, 602A, 46J 
inside the DustPedia framework.

lambda    nu*dP/dnu     j_nu    j_nu(carb.) j_nu(sil)
 (um)   (erg s-1 H-1) (Jy cm2 sr-1 H-1)
0.9927057738263894 6.1847491488962845e-22 1.6297165294080378e-14 1.6297164838587592e-14 4.554927843149573e-22
1.0001793341362166 6.288812905445214e-22 1.6696136412483628e-14 1.669613586429329e-14 5.481903355004597e-22
1.0077091589558085 6.393269598621075e-22 1.7101242188353795e-14 1.710124152947775e-14 6.588760473845027e-22
1.0114953028030835 6.445640152218722e-22 1.730610599826284e-14 1.7306105276286448e-14 7.219763857263585e-22
1.0152956718711033 6.4981028456330725e-22 1.751251613898612e-14 1.751251534812988e-14 7.90856237943802e-22
1.0229392996569957 6.603245807901971e-22 1.792985433035423e-14 1.7929853382333123e-14 9.480211045647864e-22
1.0267826658714554 6.655806434894502e-22 1.814047457967266e-14 1.8140473542199687e-14 1.0374729757447013e-21
1.0306404723013447 6.708449001665375e-22 1.835264856696353e-14 1.8352647431976513e-14 1.1349870158208603e-21
1.03451277320114 6.761171736157271e-22 1.8566380970484357e-14 1.8566379729231296e-14 1.2412530540717091e-21
1.0383996230291617 6.813972914449049e-22 1.878167658099226e-14 1.8781675223975696e-14 1.3570165566885784e-21
1.0403485208654093 6.840402394763031e-22 1.8889912118096837e-14 1.8889910699387783e-14 1.4187090544228366e-21
1.0423010764483396 6.866850861999555e-22 1.8998540307265837e-14 1.899853882418302e-14 1.4830828194455201e-21
1.0462171883269815 6.919803954882962e-22 1.921697718170543e-14 1.921697556138398e-14 1.620321452166275e-21
1.0471985131304309 6.933053784176941e-22 1.9271832806680028e-14 1.9271831150194823e-14 1.6564852089707755e-21
1.048180758391296 6.94630818748979e-22 1.9326787157311053e-14 1.932678546389014e-14 1.693420919481866e-21
1.0501480137395462 6.972830621015019e-22 1.943699236601058e-14 1.943699059633941e-14 1.7696711734378954e-21
1.0521189612883777 6.999371067247966e-22 1.9547593474163436e-14 1.9547591624962248e-14 1.8492011927693323e-21
1.0531058218030118 7.012630313271471e-22 1.9602993295648016e-14 1.9602991405407485e-14 1.8902405234817712e-21
1.0540936079674168 7.025836090844419e-22 1.965833024142191e-14 1.9658328309262183e-14 1.9321597384671726e-21
1.058054026499678 7.078700745531716e-22 1.9880661466750084e-14 1.9880659357845925e-14 2.1089041632845505e-21
1.0590464539527713 7.091927186530888e-22 1.9936490561567055e-14 1.99364884061178e-14 2.155449263244841e-21
1.06003981227728 7.10515769573045e-22 1.999241834503151e-14 1.9992416142055477e-14 2.202976031731677e-21
1.0620293250338977 7.131630835064834e-22 2.0104570329256028e-14 2.0104568028202414e-14 2.301053618105164e-21
1.0660195594769086 7.18462502453021e-22 2.0330062461070508e-14 2.0330059951191023e-14 2.5098794808341256e-21
1.070024785945596 7.237682037441669e-22 2.0557143654546115e-14 2.0557140917794376e-14 2.736751742370617e-21
1.0740450607676866 7.290800656892108e-22 2.078581986838551e-14 2.0785816885239388e-14 2.98314612737062e-21
1.07808044048254 7.343979726691823e-22 2.1016097233837795e-14 2.1016093983186103e-14 3.25065168761136e-21
1.0861967418109137 7.450433075238346e-22 2.1481244917726468e-14 2.1481241061757753e-14 3.8559687127286745e-21
1.0902777775684922 7.503519302139211e-22 2.171558819757358e-14 2.1715583999972006e-14 4.1976015789897834e-21
1.0943741465085532 7.556658761777431e-22 2.1951543816278934e-14 2.1951539248273568e-14 4.568005364927045e-21
1.1026131145906286 7.663094165506092e-22 2.2428320268651183e-14 2.242831486420211e-14 5.4044490724370774e-21
1.1109141095355224 7.769733542707957e-22 2.2911632835199456e-14 2.2911626449476385e-14 6.385723080916522e-21
1.1192775983109025 7.876488233159207e-22 2.340129402310265e-14 2.340128648772867e-14 7.535373975210902e-21
1.1277040513999907 7.982968490709615e-22 2.3896207943683932e-14 2.3896199063172452e-14 8.880511488943842e-21
1.1361939428280308 8.08962980657915e-22 2.4397793481222042e-14 2.4397783028917628e-14 1.0452304419926421e-20
1.1447477501889525 8.196471207083848e-22 2.490612419154294e-14 2.4906111905002834e-14 1.2286540103190467e-20
1.1533659546722406 8.3035316958399525e-22 2.542139673741836e-14 2.5421382313144714e-14 1.4424273648104436e-20
1.1707974979042381 8.518634371092505e-22 2.647409951057266e-14 2.6474079705374273e-14 1.980519838551344e-20
1.1884924949847024 8.734627930503993e-22 2.7555626321907835e-14 2.7555599264662753e-14 2.7057245080359526e-20
1.2064549276569216 8.952978101540564e-22 2.867134435919028e-14 2.867130757692861e-14 3.678226166435543e-20
1.2246888378427687 9.172238434877464e-22 2.981745197514285e-14 2.98174022174914e-14 4.9757651452831664e-20
1.2431983285522175 9.392219503342738e-22 3.09940325233109e-14 3.099396553927472e-14 6.698403617931763e-20
1.2619875648066055 9.613228910557774e-22 3.22028116911658e-14 3.220272194837333e-14 8.974279247149649e-20
1.3004222497298317 1.0056903474201002e-21 3.4715074879588523e-14 3.4714916062479964e-14 1.5881710855920906e-19
1.3400274889804893 1.050450374064089e-21 3.73644574582013e-14 3.736418155354558e-14 2.759046557185051e-19
1.3808389325824078 1.0957580676051012e-21 4.016309137793686e-14 4.0162620629694e-14 4.707482428752342e-19
1.4228933163050095 1.1419895728079138e-21 4.3132428487289384e-14 4.3131639261230497e-14 7.892260588827741e-19
1.466228494730424 1.1899555163937582e-21 4.631288280376821e-14 4.6311581992255386e-14 1.3008115128133991e-18
1.5108834753276823 1.2395414218427457e-21 4.971202434009679e-14 4.970991562009194e-14 2.1087200048576977e-18
1.5568984535646726 1.2906875286395792e-21 5.333973257711007e-14 5.3336366895189896e-14 3.3656819201647038e-18
1.6043148490894465 1.3436851635242485e-21 5.722114688713218e-14 5.721584796025591e-14 5.298926876279405e-18
1.6531753430134553 1.3988398946888112e-21 6.138416634099047e-14 6.137594677383219e-14 8.21956715828805e-18
1.7035239163302658 1.4565109361043904e-21 6.586146974079898e-14 6.584890488417273e-14 1.256485662626075e-17
1.755405889504358 1.5177762414079037e-21 7.072203265606308e-14 7.070309483069982e-14 1.893782536325326e-17
1.8088679632656115 1.5825925360264442e-21 7.598806984806148e-14 7.595991719183347e-14 2.815265622799071e-17
1.8639582606462262 1.6508815010068876e-21 8.168108859819933e-14 8.163979366322422e-14 4.129493497512215e-17
1.9207263702978936 1.7227898040834206e-21 8.783492299244335e-14 8.777513355723361e-14 5.978943520977428e-17
1.979223391128241 1.7985565272451277e-21 9.449054195505202e-14 9.440506117845529e-14 8.548077659670689e-17
2.039501978296691 1.8783664577906684e-21 1.0168897935044897e-13 1.0156825863152974e-13 1.2072071891923466e-16
2.1016163906111602 1.9629667392188398e-21 1.095054718442637e-13 1.0933699435270417e-13 1.6847749155952975e-16
2.1656225393682647 2.0526432130554753e-21 1.1799555938641825e-13 1.1776312733649988e-13 2.3243204991836417e-16
2.231578038680979 2.1470265153665642e-21 1.271800290274219e-13 1.2686294292889438e-13 3.170860985275171e-16
2.299542257339062 2.246037631576447e-21 1.3709696992323118e-13 1.3666909580620194e-13 4.278741170292483e-16
2.369576372248914 2.3498047303412207e-21 1.4779914356375021e-13 1.472278617788005e-13 5.712817849496916e-16
2.4417434235010123 2.458510034606924e-21 1.593461023470805e-13 1.5859116940831177e-13 7.549329387687784e-16
2.5161083711144245 2.572773353520437e-21 1.7183052014819613e-13 1.708428148501928e-13 9.877052980032636e-16
2.5927381535095444 2.6937966509729482e-21 1.85392815635011e-13 1.8411302003127996e-13 1.2797956037309788e-15
2.6717017477616296 2.82260588734475e-21 2.0017399218994585e-13 1.9853129811898193e-13 1.6426940709638355e-15
2.753070231689431 2.960848572014579e-21 2.1637292707481254e-13 2.1428373547402524e-13 2.0891916007872465e-15
2.836916847834745 3.1133981330530726e-21 2.3445025000813455e-13 2.3181681782421596e-13 2.633432183918581e-15
2.9233170693905177 3.2913014411077087e-21 2.5539536744170527e-13 2.521052001169466e-13 3.290167324758745e-15
2.967498994190263 3.4005971977263015e-21 2.678645281068696e-13 2.642060218449638e-13 3.658506261905865e-15
3.0123486681368425 3.5177857044349816e-21 2.812833664530918e-13 2.772206030061647e-13 4.062763446927155e-15
3.0578761833420214 3.709648112946642e-21 3.0110782721259103e-13 2.966006790020851e-13 4.507148210505945e-15
3.1040917844459814 3.934704543879504e-21 3.24202316947825e-13 3.192120836388625e-13 4.990233308962496e-15
3.127460860933648 4.1423235572439915e-21 3.4387874656438154e-13 3.3863005673191255e-13 5.248689832469057e-15
3.1510058709225794 4.405986569629318e-21 3.6852063802709756e-13 3.630026890342774e-13 5.517948992820145e-15
3.162844764501044 4.643413077435403e-21 3.8983841269445856e-13 3.8418117727055465e-13 5.657235423903853e-15
3.1747281389236908 4.912273581963323e-21 4.139601356590322e-13 4.0816082094893533e-13 5.7993147100970385e-15
3.1986289994194426 5.64027341616978e-21 4.788874552683422e-13 4.727947265202881e-13 6.092728748054218e-15
3.2227097969389145 7.322525173058756e-21 6.263996490407973e-13 6.199961559228503e-13 6.403493117947017e-15
3.2348180950136065 8.900044574512337e-21 7.642078220759289e-13 7.57638524624602e-13 6.5692974513266725e-15
3.240889293275058 1.0078055310418678e-20 8.669825704345437e-13 8.603258153329204e-13 6.6567551016233896e-15
3.2469718861334385 1.1443050208018338e-20 9.862562419155934e-13 9.795089939791357e-13 6.747247936457763e-15
3.2714166318528037 1.8611062497961284e-20 1.6161306169608484e-12 1.6090095267891016e-12 7.121090171746604e-15
3.2744851364798273 1.9059495277247398e-20 1.6566236313894936e-12 1.649458517459794e-12 7.165113929699422e-15
3.2775565192852394 1.9519958040991843e-20 1.6982377963041033e-12 1.6910284415978316e-12 7.209354706271889e-15
3.283707930232385 1.9080106435727675e-20 1.663086154043582e-12 1.6557977481342463e-12 7.288405909335611e-15
3.2898708863219004 1.7678448733199954e-20 1.5438049905848814e-12 1.536444703981817e-12 7.360286603063365e-15
3.29141343181113 1.7347235060643182e-20 1.515591404331734e-12 1.508213069666895e-12 7.378334664838932e-15
3.292184975758714 1.7184388434487088e-20 1.5017157738585101e-12 1.4943284034668737e-12 7.387370391636234e-15
3.295272960557952 1.6167840898122993e-20 1.414206583288236e-12 1.4067840770192037e-12 7.42250626903262e-15
3.3076538914384823 1.2621034455279585e-20 1.1081140072425023e-12 1.1005504088262997e-12 7.563598416202315e-15
3.310756385682612 1.1892100748006584e-20 1.045093720461629e-12 1.0374945649073644e-12 7.599155554264736e-15
3.313861789986515 1.1216785596837577e-20 9.86670726182567e-13 9.790358996802661e-13 7.634826502300432e-15
3.3200813396944477 1.0273861866109512e-20 9.054237434421359e-13 8.977121643903427e-13 7.711579051793361e-15
3.345076488085796 8.628535894961262e-21 7.661478653951796e-13 7.580941733060505e-13 8.053692089128934e-15
3.3482140837626964 8.69611701238533e-21 7.728728062089325e-13 7.647727666289947e-13 8.10003957993755e-15
3.3513546224236106 8.764315084611424e-21 7.796645722848122e-13 7.715179797114359e-13 8.146592573376394e-15
3.3576445397418455 9.240101185640975e-21 8.235327549710936e-13 8.152888205407453e-13 8.243934430348394e-15
3.3702598118196083 1.0962863724656984e-20 9.80746643246052e-13 9.722985362958633e-13 8.448106950188608e-15
3.382922481734668 1.1375859756469459e-20 1.021517259006724e-12 1.0128707820974542e-12 8.64647690926988e-15
3.389271646505754 1.1588788616782196e-20 1.0425907147021843e-12 1.0338437074671447e-12 8.747007235039505e-15
3.395632727569191 1.182267907826711e-20 1.0656290341176696e-12 1.0567784242824527e-12 8.850609835216597e-15
3.421196662673239 1.2955616313408824e-20 1.1765368941782025e-12 1.1672575080621463e-12 9.279386116056675e-15
3.4276182099114902 1.2752986059916811e-20 1.1603092633572753e-12 1.1509342785172754e-12 9.374984840000105e-15
3.4340518103208963 1.182838043850367e-20 1.0782055440338148e-12 1.0687401831729268e-12 9.465360860887969e-15
3.4469541582030403 1.0502984895381506e-20 9.60987373859226e-13 9.513486365711083e-13 9.638737288117922e-15
3.472904465399547 1.0141379635401284e-20 9.348874078504745e-13 9.248491558605663e-13 1.0038251989908192e-14
3.4990501388274233 9.590488816121521e-21 8.907592520260033e-13 8.803123749898986e-13 1.0446877036104638e-14
3.5253949054701885 7.617509648081125e-21 7.128369750484741e-13 7.01993445852292e-13 1.084352919618206e-14
3.5519380250092896 5.740486583305909e-21 5.412320657166604e-13 5.299901296180984e-13 1.1241936098561954e-14
3.578680990867387 5.013218447483346e-21 4.762215547832449e-13 4.645429922722494e-13 1.1678562510995521e-14
3.605625307711299 4.738453048103565e-21 4.535097288203141e-13 4.4137148453345145e-13 1.213824428686274e-14
3.660119384959845 4.5766943739048815e-21 4.4464825893724574e-13 4.315450376862045e-13 1.310322125104119e-14
3.715437065384467 4.473818418367332e-21 4.4122254518519024e-13 4.2710320132498496e-13 1.411934386020515e-14
3.8285932144167436 4.503535051713795e-21 4.576802854392304e-13 4.4138114421132357e-13 1.6299141227906817e-14
3.94519561050918 4.592360480324531e-21 4.809212256472878e-13 4.622513478568718e-13 1.866987779041612e-14
4.06534921144712 4.701764954624058e-21 5.073739958711945e-13 4.861468349136243e-13 2.122716095757002e-14
4.189162171576248 4.820226873350056e-21 5.359991313335712e-13 5.120251363597434e-13 2.3973994973827745e-14
4.316745939156006 4.942748231088313e-21 5.663623975134716e-13 5.394643399667321e-13 2.6898057546739476e-14
4.448215356677963 5.066903106052568e-21 5.982708426097877e-13 5.683145030701662e-13 2.9956339539621705e-14
4.58368876423945 5.192115681526169e-21 6.317262365577597e-13 5.98575806253166e-13 3.315043030459374e-14
4.723288106065518 5.319015583072465e-21 6.668760686828229e-13 6.303778722494826e-13 3.64981964333401e-14
4.867139040275056 5.448470779875827e-21 7.039110975396069e-13 6.640042275799959e-13 3.9906869959611015e-14
4.940699165968905 5.517297430761605e-21 7.23576145600835e-13 6.819322373186791e-13 4.164390828215601e-14
5.015371051989984 5.584343620080446e-21 7.434377945102243e-13 7.000408474160246e-13 4.3396947094199734e-14
5.091171501069577 5.659696602838488e-21 7.648571144778771e-13 7.196527021582545e-13 4.520441231962258e-14
5.129500256944802 5.696607595846798e-21 7.756410642430314e-13 7.295289858303866e-13 4.611207841264518e-14
5.168117569889187 5.733916595183277e-21 7.865986367686598e-13 7.395671782093611e-13 4.703145855929873e-14
5.20702561229733 5.778612777938977e-21 7.986982640655022e-13 7.506611001442726e-13 4.803716392122958e-14
5.246226572918644 5.823047858775002e-21 8.108991318316742e-13 7.618510989925089e-13 4.9048032839165244e-14
5.265937586045735 5.845169906236484e-21 8.170380456840411e-13 7.674827845432575e-13 4.9555261140783544e-14
5.285722656980489 5.86722973190403e-21 8.232029125201187e-13 7.731393041543198e-13 5.006360836579906e-14
5.305582063971359 5.88922851157751e-21 8.293939734909359e-13 7.78820957289464e-13 5.057301620147209e-14
5.3255160863122235 5.912606676703051e-21 8.358149276462305e-13 7.847272697365864e-13 5.108765790964417e-14
5.365609099470188 5.970348484006376e-21 8.503312584120845e-13 7.981786962349018e-13 5.215256217718261e-14
5.406003951863644 6.028491646873055e-21 8.650763822879848e-13 8.118537857020065e-13 5.322259658597813e-14
5.446702915881641 6.087087790129549e-21 8.800608188671966e-13 8.257635244346837e-13 5.429729443251287e-14
5.487708281020852 6.148931627855874e-21 8.956949257294075e-13 8.403139382269272e-13 5.53809875024803e-14
5.529022354014368 6.235742079101037e-21 9.151787397303861e-13 8.58668142296009e-13 5.651059743437722e-14
5.570647458961463 6.3250369497408e-21 9.35272521293576e-13 8.776271022797048e-13 5.764541901387124e-14
5.612585937458331 6.41704895677085e-21 9.560217866144325e-13 8.972368098447886e-13 5.878497676964405e-14
5.654840148729818 6.516157046966202e-21 9.780956075984156e-13 9.181609149687433e-13 5.993469262967235e-14
5.67608639626678 6.585223557854088e-21 9.921765389581303e-13 9.316398532594272e-13 6.053668569870323e-14
5.686739436050992 6.620454713508549e-21 9.993568226019383e-13 9.385185935911057e-13 6.083822901083273e-14
5.6974124697621304 6.656167333637058e-21 1.0066333770440114e-12 9.454932502239162e-13 6.114012682009505e-14
5.718818669136295 6.729087439834584e-21 1.0214848527468348e-12 9.597398970563726e-13 6.174495569046209e-14
5.740305295436557 6.809239340623657e-21 1.0375356388421698e-12 9.751798022858264e-13 6.235583655634368e-14
5.7835210386641895 7.019190046945008e-21 1.0775780939382313e-12 1.0139598948804954e-12 6.36181990577358e-14
5.827062130521658 7.256111640152337e-21 1.1223363727925681e-12 1.0574379387746724e-12 6.489843401789543e-14
5.8489554468988025 7.42579855150931e-21 1.1528980635064045e-12 1.0873066877809781e-12 6.55913757254264e-14
5.870931020387893 7.605242942275785e-21 1.1851941591083009e-12 1.1189073407312025e-12 6.628681837709844e-14
5.892989160043636 7.795218813706415e-21 1.2193640471143466e-12 1.152379343953475e-12 6.698470316087213e-14
5.915130176081913 8.010534126743607e-21 1.2577525738300696e-12 1.1900439412549188e-12 6.770863257515051e-14
5.95966208400165 8.618712447447755e-21 1.36343192863825e-12 1.2940639424677403e-12 6.936798617050962e-14
6.004529249263818 9.491414293813662e-21 1.512792379789956e-12 1.4415516517325326e-12 7.12407280574233e-14
6.027089341400364 1.0098945601075043e-20 1.6156716148566075e-12 1.5433439201239678e-12 7.232769473263947e-14
6.049734195844842 1.0810449736331864e-20 1.7359990716272776e-12 1.662518943906544e-12 7.348012772073413e-14
6.095279466722835 1.2864766433096765e-20 2.0814451049423478e-12 2.0051155249824496e-12 7.632957995989763e-14
6.141167624020661 1.5999436666652264e-20 2.6081050276243446e-12 2.5280564784877635e-12 8.004854913658093e-14
6.164241091010745 1.799741269519924e-20 2.944822513702059e-12 2.8624298257433218e-12 8.239268795873715e-14
6.187401249150058 2.0244335216600983e-20 3.3249202554580294e-12 3.2401223426809067e-12 8.47979127771228e-14
6.1990139391386085 2.1335708103170244e-20 3.510743553328799e-12 3.424722141759153e-12 8.602141156964719e-14
6.204828454712694 2.190815471755259e-20 3.608319716366886e-12 3.5216805249319094e-12 8.663919143497656e-14
6.210648424152782 2.232197894078822e-20 3.6799258880622575e-12 3.5927625945315033e-12 8.716329353075315e-14
6.233982942956859 2.3707920432818387e-20 3.923092098246189e-12 3.8341110560693645e-12 8.898104217682352e-14
6.239830258556775 2.3873621979830495e-20 3.95421720758898e-12 3.864991094343084e-12 8.922611324589692e-14
6.245683058788269 2.3869965508080784e-20 3.957319967638044e-12 3.867848462484725e-12 8.947150515331901e-14
6.257405133728602 2.3790395169861647e-20 3.951530725027012e-12 3.861633894052169e-12 8.989683097484388e-14
6.269149208991335 2.3465738364190024e-20 3.9049211026441e-12 3.81488825267745e-12 9.003284996664926e-14
6.280915325867298 2.2713287597598683e-20 3.786800028425795e-12 3.696988647971523e-12 8.981138045427165e-14
6.304513850009849 2.0883490938952597e-20 3.494814543893672e-12 3.4057691869497535e-12 8.904535694391934e-14
6.32820103803542 1.8654112179989365e-20 3.133460935922719e-12 3.045525321256426e-12 8.793561466629207e-14
6.3519772230701035 1.6620357465550444e-20 2.8023264464799347e-12 2.7153908562551865e-12 8.693559022474843e-14
6.375842739491607 1.4904834847685942e-20 2.5225175583483626e-12 2.436469268100988e-12 8.604829024737499e-14
6.399797922933955 1.3541995667672964e-20 2.3004794849127164e-12 2.2149115214440475e-12 8.556796346866969e-14
6.42384311029221 1.2403858935758686e-20 2.115052623011065e-12 2.029883734791874e-12 8.516888821919111e-14
6.447978639727206 1.157602993039235e-20 1.981311061436183e-12 1.8962243952145775e-12 8.508666622160548e-14
6.472204850670314 1.0882876068643739e-20 1.8696717721885022e-12 1.7846046317169165e-12 8.506714047158613e-14
6.496522083828205 1.0429119808586015e-20 1.7984485115834617e-12 1.7131446241002752e-12 8.530388748318668e-14
6.520930681187647 1.00441754369486e-20 1.7385745036595233e-12 1.6529955307623994e-12 8.557897289712487e-14
6.57002334288761 9.632269803928808e-21 1.6798286518354616e-12 1.5933463420221804e-12 8.648230981328132e-14
