Dust emission spectrum from A.P. Jones, M. Kohler, N. Ysard, M. Bocchio, and L. Verstraete (2017), A&A, 602A, 46J 
inside the DustPedia framework.

lambda    nu*dP/dnu     j_nu    j_nu(carb.) j_nu(sil)
 (um)   (erg s-1 H-1) (Jy cm2 sr-1 H-1)
0.9927057738263894 7.776410411434174e-20 2.0491283125422617e-12 2.0491281778619423e-12 1.3468031946557713e-19
1.0001793341362166 7.906689943261343e-20 2.0991429678183145e-12 2.0991428057967205e-12 1.620215942106248e-19
1.0077091589558085 8.03754210752866e-20 2.149947723299286e-12 2.149947528647925e-12 1.9465136071415378e-19
1.0114953028030835 8.103178006485075e-20 2.1756482551194125e-12 2.1756480418736456e-12 2.1324576731033897e-19
1.0152956718711033 8.168951271099855e-20 2.2015485807502628e-12 2.201548347212491e-12 2.335377721264019e-19
1.0229392996569957 8.300838345820066e-20 2.253934302767695e-12 2.2539340229484876e-12 2.7981920771335653e-19
1.0267826658714554 8.366802773390023e-20 2.2803814159631908e-12 2.280381109813167e-12 3.061500240874939e-19
1.0306404723013447 8.43289435968541e-20 2.3070302322819264e-12 2.3070298974360136e-12 3.348459130349994e-19
1.03451277320114 8.499111540003459e-20 2.3338815950861936e-12 2.3338812289777917e-12 3.661084021739883e-19
1.0383996230291617 8.565452816827803e-20 2.3609363670095615e-12 2.360935966854369e-12 4.00155192179277e-19
1.0403485208654093 8.598669542218515e-20 2.374540306421412e-12 2.374539888125962e-12 4.1829545022362193e-19
1.0423010764483396 8.631916761417418e-20 2.3881954307217784e-12 2.3881949935004096e-12 4.372213682288905e-19
1.0462171883269815 8.698502015383553e-20 2.4156596897039053e-12 2.415659212143211e-12 4.77560695140222e-19
1.0471985131304309 8.715167131104276e-20 2.422557924132041e-12 2.422557435943457e-12 4.881885844087279e-19
1.048180758391296 8.731839728508453e-20 2.4294690556426404e-12 2.429468556600103e-12 4.990425380866836e-19
1.0501480137395462 8.765207292253698e-20 2.4433300690335013e-12 2.4433295475864994e-12 5.214470014373819e-19
1.0521189612883777 8.798604557301455e-20 2.457242849016072e-12 2.45724230420438e-12 5.448116912658295e-19
1.0531058218030118 8.815292409709645e-20 2.4642125748405382e-12 2.4642120179734537e-12 5.568670840952367e-19
1.0540936079674168 8.831915978085358e-20 2.4711752269305463e-12 2.471174657750482e-12 5.691800640510389e-19
1.058054026499678 8.898480762910855e-20 2.499154717445685e-12 2.4991540963600663e-12 6.210856185784674e-19
1.0590464539527713 8.91513950560732e-20 2.506181887289457e-12 2.5061812525372053e-12 6.347522524889168e-19
1.06003981227728 8.931805235434206e-20 2.5132220070280306e-12 2.513221358321955e-12 6.487060756930867e-19
1.0620293250338977 8.965157596016424e-20 2.527341158992248e-12 2.5273404814939348e-12 6.774983133162773e-19
1.0660195594769086 9.031945515124778e-20 2.555735558091689e-12 2.555734819303234e-12 7.387884550146211e-19
1.070024785945596 9.098843638192287e-20 2.5843389470959378e-12 2.5843381417410192e-12 8.053549188889619e-19
1.0740450607676866 9.165851164868093e-20 2.613152385030283e-12 2.613151507403085e-12 8.776271981551904e-19
1.07808044048254 9.232967377933922e-20 2.64217695844484e-12 2.6421760023772517e-12 9.56067588498721e-19
1.0861967418109137 9.367421773948742e-20 2.7008346943294877e-12 2.7008335608493538e-12 1.133480133193941e-18
1.0902777775684922 9.434527881905146e-20 2.7304030825051542e-12 2.730401848942244e-12 1.2335629103342416e-18
1.0943741465085532 9.501736728624523e-20 2.7601853769573637e-12 2.760184034917425e-12 1.3420399388364021e-18
1.1026131145906286 9.63646168436088e-20 2.8203966210711167e-12 2.8203950341875976e-12 1.5868835187822152e-18
1.1109141095355224 9.771595660432995e-20 2.8814786344376994e-12 2.881476760500605e-12 1.8739370954488436e-18
1.1192775983109025 9.907034699681601e-20 2.943411137571662e-12 2.9434089275440086e-12 2.210027653960053e-18
1.1277040513999907 1.0042300671797034e-19 3.006061033129887e-12 3.0060584301211423e-12 2.6030087445656785e-18
1.1361939428280308 1.0177966521894813e-19 3.0696080191213118e-12 3.0696049572186386e-12 3.061902673130543e-18
1.1447477501889525 1.0314037680866477e-19 3.134064610315494e-12 3.1340610132555385e-12 3.597059954567618e-18
1.1533659546722406 1.0450567638294817e-19 3.199458204000315e-12 3.1994539836555516e-12 4.2203447631451366e-18
1.1707974979042381 1.0725420155068927e-19 3.333231925548422e-12 3.3332261379710112e-12 5.7875774115343595e-18
1.1884924949847024 1.1002214189373128e-19 3.4709309352168932e-12 3.4709230383525866e-12 7.896864305626734e-18
1.2064549276569216 1.1282808684964465e-19 3.6132478989289006e-12 3.613237177481034e-12 1.0721447866493329e-17
1.2246888378427687 1.1565486493030046e-19 3.759751128620694e-12 3.759736643908164e-12 1.4484712531701715e-17
1.2431983285522175 1.1850057877854804e-19 3.910482278854653e-12 3.910462805184766e-12 1.9473669887594224e-17
1.2619875648066055 1.2136985546700018e-19 4.065700127347786e-12 4.065674072136832e-12 2.605521095349744e-17
1.3004222497298317 1.271638817324354e-19 4.389525749794827e-12 4.389479765797011e-12 4.598399781556308e-17
1.3400274889804893 1.330576168236235e-19 4.732851533063098e-12 4.732771870386838e-12 7.966267625958193e-17
1.3808389325824078 1.390757711266821e-19 5.097578625568462e-12 5.0974430926312185e-12 1.3553293724478177e-16
1.4228933163050095 1.4527027891234834e-19 5.48679258174749e-12 5.486566016607345e-12 2.2656514014663296e-16
1.466228494730424 1.5174678626292194e-19 5.905961215543157e-12 5.905588894266369e-12 3.723212767885439e-16
1.5108834753276823 1.5849693842879666e-19 6.356547286083963e-12 6.355945542764933e-12 6.017433190293418e-16
1.5568984535646726 1.6551883328735585e-19 6.8403313025954106e-12 6.839373811446631e-12 9.57491148781427e-16
1.6043148490894465 1.7285392932580976e-19 7.361024999359258e-12 7.359522180337947e-12 1.5028190213112545e-15
1.6531753430134553 1.8054578630067137e-19 7.922745569757145e-12 7.920421732990286e-12 2.323836766860224e-15
1.7035239163302658 1.8864415287026953e-19 8.530235412632317e-12 8.526694361894797e-12 3.541050737520888e-15
1.755405889504358 1.9728839759389793e-19 9.192815196761418e-12 9.187495306400435e-12 5.319890360983506e-15
1.8088679632656115 2.0647986761818427e-19 9.91411639169193e-12 9.90623378654529e-12 7.882605146639735e-15
1.8639582606462262 2.1621541202217422e-19 1.0697745546793005e-11 1.0686221505825029e-11 1.1524040967976391e-14
1.9207263702978936 2.2652134995330425e-19 1.1548991805113662e-11 1.1532362678783735e-11 1.6629126329927247e-14
1.979223391128241 2.374371695165058e-19 1.2474207225642798e-11 1.2450513711441303e-11 2.369351420149989e-14
2.039501978296691 2.4899655712283627e-19 1.3479907315518494e-11 1.3446561806178521e-11 3.3345509339973275e-14
2.1016163906111602 2.6130598093993672e-19 1.4577136824000912e-11 1.453076332697665e-11 4.637349702426204e-14
2.1656225393682647 2.7441657761967275e-19 1.5774751975985335e-11 1.5711002947512867e-11 6.374902847246656e-14
2.231578038680979 2.882989005504719e-19 1.7077508022448822e-11 1.699085557145308e-11 8.665245099574492e-14
2.299542257339062 3.029638463477082e-19 1.8492755752006403e-11 1.837625694381856e-11 1.1649880818784005e-13
2.369576372248914 3.184484952876523e-19 2.0029926004040913e-11 1.9874961411981058e-11 1.549645920598601e-13
2.4417434235010123 3.347984272625346e-19 2.1699656989501387e-11 2.1495651922102978e-11 2.0400506739840108e-13
2.5161083711144245 3.521132881739451e-19 2.3516960549684907e-11 2.3251082024921926e-11 2.6587852476297573e-13
2.5927381535095444 3.7055989935918877e-19 2.550272051114678e-11 2.5159564670484054e-11 3.431558406627162e-13
2.6717017477616296 3.9027400892194624e-19 2.767751132531337e-11 2.723880591561659e-11 4.3870540969678106e-13
2.753070231689431 4.1145377821488104e-19 3.006822408610033e-11 2.951253805677167e-11 5.55686029328661e-13
2.836916847834745 4.346582573019256e-19 3.273135421090695e-11 3.203380228783059e-11 6.975519230763595e-13
2.9233170693905177 4.61106350922985e-19 3.578050446939473e-11 3.4912670439970345e-11 8.678340294243844e-13
2.967498994190263 4.766420058047265e-19 3.754501887085037e-11 3.658223435841787e-11 9.627845124324988e-13
3.0123486681368425 4.931601272032683e-19 3.9433255017576694e-11 3.836649355913818e-11 1.0667614584385e-12
3.0578761833420214 5.180824656087479e-19 4.205215179088222e-11 4.0871323231060785e-11 1.1808285598214326e-12
3.1040917844459814 5.466480184424751e-19 4.5041388027384015e-11 4.373691650535555e-11 1.3044715220284678e-12
3.127460860933648 5.714075326475211e-19 4.7435914502779524e-11 4.60654335809604e-11 1.3704809218191112e-12
3.1510058709225794 6.022551484909105e-19 5.0373156628947027e-11 4.893400969502617e-11 1.43914693392086e-12
3.162844764501044 6.293059728524409e-19 5.28334734525566e-11 5.1358845093431585e-11 1.4746283591250334e-12
3.1747281389236908 6.59704773903155e-19 5.559370282277986e-11 5.408290903744362e-11 1.5107937853362508e-12
3.1986289994194426 7.410626520212413e-19 6.291992983947548e-11 6.133453284031759e-11 1.5853969991578887e-12
3.2227097969389145 9.263639204840797e-19 7.924507201562726e-11 7.75807637095407e-11 1.6643083060865638e-12
3.2348180950136065 1.0990603184141195e-18 9.43714927755126e-11 9.26651077855646e-11 1.706384989947985e-12
3.240889293275058 1.2277801038867596e-18 1.0562195955559927e-10 1.0389337983994421e-10 1.7285797156550554e-12
3.2469718861334385 1.3768735024661808e-18 1.1867028995327814e-10 1.1691874529825836e-10 1.7515446550197792e-12
3.2714166318528037 2.156643945640363e-18 1.8727669690080527e-10 1.8543036476459365e-10 1.8463321362115764e-12
3.2744851364798273 2.2054418164442417e-18 1.9169379763889303e-10 1.8983632792903272e-10 1.8574697098603293e-12
3.2775565192852394 2.2555230663430577e-18 1.962306739418011e-10 1.9436201397052009e-10 1.868659971280975e-12
3.283707930232385 2.2079893607829898e-18 1.9245576782096628e-10 1.9056716295187248e-10 1.8886048690938414e-12
3.2898708863219004 2.056058163841771e-18 1.7954928637548864e-10 1.7764259197406046e-10 1.9066944014282093e-12
3.29141343181113 2.0201523667397706e-18 1.764964590476752e-10 1.7458522380919236e-10 1.911235238482793e-12
3.292184975758714 2.0024980710748462e-18 1.7499505157944794e-10 1.73081543152421e-10 1.9135084270269373e-12
3.295272960557952 1.8924790511144823e-18 1.6553579106112354e-10 1.636134519758659e-10 1.922339085257603e-12
3.3076538914384823 1.5083224176847116e-18 1.3242917641946015e-10 1.3047139940284161e-10 1.957777016618537e-12
3.310756385682612 1.4292875658801166e-18 1.2560770308690708e-10 1.236409998338319e-10 1.966703253075166e-12
3.313861789986515 1.3560347194871034e-18 1.1928192349351258e-10 1.1730626728775277e-10 1.97565620575982e-12
3.3200813396944477 1.2539624496709984e-18 1.1051028231771673e-10 1.085153403519647e-10 1.994941965752043e-12
3.345076488085796 1.0775606046950586e-18 9.567912414934266e-11 9.359815798002439e-11 2.0809661693182765e-12
3.3482140837626964 1.0851900910896893e-18 9.644694405285575e-11 9.435432102367706e-11 2.092623029178717e-12
3.3513546224236106 1.0928845956684155e-18 9.722190412056066e-11 9.511757498199505e-11 2.104329138565639e-12
3.3576445397418455 1.1451221143461513e-18 1.0206009118940096e-10 9.993127617830699e-11 2.1288150110939656e-12
3.3702598118196083 1.3329246782949605e-18 1.1924451829109181e-10 1.1706434805689282e-10 2.1801702341989897e-12
3.382922481734668 1.378881014336612e-18 1.2381927910639928e-10 1.2158929648419697e-10 2.229982622202348e-12
3.389271646505754 1.4025367240447666e-18 1.2617986347600801e-10 1.239246527958342e-10 2.2552106801738076e-12
3.395632727569191 1.4285737990951236e-18 1.2876351524198517e-10 1.2648230533063447e-10 2.281209911350695e-12
3.421196662673239 1.5544969850018002e-18 1.4116835590835588e-10 1.387796321578624e-10 2.388723750493462e-12
3.4276182099114902 1.5329747517537062e-18 1.3947516264784874e-10 1.3706255931230238e-10 2.4126033355463552e-12
3.4340518103208963 1.4330698740905192e-18 1.306302152915623e-10 1.2819508144198877e-10 2.435133849573542e-12
3.4469541582030403 1.2899126065445417e-18 1.1802261363017243e-10 1.1554434742410422e-10 2.478266206068184e-12
3.472904465399547 1.2522927972111348e-18 1.154431457203024e-10 1.1286534752945705e-10 2.5777981908453247e-12
3.4990501388274233 1.1943714070761592e-18 1.1093255011360872e-10 1.0825314722971672e-10 2.6794028838919813e-12
3.5253949054701885 9.831519493185176e-19 9.200212325845407e-11 8.922441242615403e-11 2.7777108323000276e-12
3.5519380250092896 7.821612621467856e-19 7.374475133629905e-11 7.086855327459938e-11 2.8761980616996744e-12
3.578680990867387 7.059009929775583e-19 6.705577902107288e-11 6.407167368966416e-11 2.98410533140875e-12
3.605625307711299 6.787334912996942e-19 6.496049205421223e-11 6.186293101738664e-11 3.0975610368255907e-12
3.660119384959845 6.664116466428085e-19 6.474515320593838e-11 6.141010956059623e-11 3.335043645342164e-12
3.715437065384467 6.604581613191161e-19 6.513653520875299e-11 6.155241352413282e-11 3.5841216846201586e-12
3.8285932144167436 6.741102732624989e-19 6.850773420024564e-11 6.439273426407661e-11 4.114999936169019e-12
3.94519561050918 6.94160073217926e-19 7.269383896095733e-11 6.800657855043423e-11 4.687260410523107e-12
4.06534921144712 7.163420252341096e-19 7.730146429290295e-11 7.200277408553028e-11 5.2986902073726935e-12
4.189162171576248 7.393133622697637e-19 8.221009723645784e-11 7.626119510560164e-11 5.9489021308562e-12
4.316745939156006 7.624093121170388e-19 8.736029951542308e-11 8.072659302913212e-11 6.633706486290956e-12
4.448215356677963 7.852083081237791e-19 9.271289114731012e-11 8.537131140787371e-11 7.341579739436436e-12
4.58368876423945 8.075417428261494e-19 9.825384050551541e-11 9.018200491627874e-11 8.07183558923668e-12
4.723288106065518 8.293819398129822e-19 1.039844608124887e-10 9.51568271264451e-11 8.827633686043546e-12
4.867139040275056 8.506088339975245e-19 1.0989377058377629e-10 1.0030810903015515e-10 9.585661553621118e-12
4.940699165968905 8.613006040394209e-19 1.1295685597803393e-10 1.0298927741622409e-10 9.96757856180987e-12
5.015371051989984 8.71543103248579e-19 1.1602761695570344e-10 1.056776503373732e-10 1.0349966618330256e-11
5.091171501069577 8.824203490672902e-19 1.1925117710473663e-10 1.0850947033388141e-10 1.0741706770855207e-11
5.129500256944802 8.876674555827364e-19 1.208633942847086e-10 1.0992622224812254e-10 1.093717203658606e-11
5.168117569889187 8.928896561638204e-19 1.2248971094440013e-10 1.1135514293749424e-10 1.1134568006905924e-11
5.20702561229733 8.98887683606577e-19 1.242408965742288e-10 1.1288891702058339e-10 1.1351979553645397e-11
5.246226572918644 9.047768422317157e-19 1.259963465286454e-10 1.1442671284912055e-10 1.1569633679524897e-11
5.265937586045735 9.076803818086453e-19 1.268755942350661e-10 1.1519708040926715e-10 1.1678513825798983e-11
5.285722656980489 9.105564689893423e-19 1.2775581859529656e-10 1.159684095801722e-10 1.1787409015124347e-11
5.305582063971359 9.13405048086301e-19 1.2863699222227165e-10 1.1674068831459497e-10 1.1896303907676703e-11
5.3255160863122235 9.16379279429222e-19 1.2954074624150864e-10 1.1753454845327657e-10 1.2006197788232115e-11
5.365609099470188 9.23427705824954e-19 1.3151986776822102e-10 1.192861336291364e-10 1.223373413908459e-11
5.406003951863644 9.304222101478485e-19 1.3351370901750886e-10 1.2105228333043605e-10 1.2461425687072762e-11
5.446702915881641 9.37366374455724e-19 1.35522839085671e-10 1.2283368987587287e-10 1.2689149209798168e-11
5.487708281020852 9.445498959164196e-19 1.375895196228725e-10 1.246716048886666e-10 1.2917914734205938e-11
5.529022354014368 9.542246576480565e-19 1.4004525981483557e-10 1.2688885751087142e-10 1.3156402303964142e-11
5.570647458961463 9.640334538041598e-19 1.4254999711704761e-10 1.2915502272956193e-10 1.3394974387485689e-11
5.612585937458331 9.73996938161966e-19 1.4510755633180703e-10 1.314740503521679e-10 1.3633505979639187e-11
5.654840148729818 9.845621229244738e-19 1.477858622650219e-10 1.3391261383848968e-10 1.3873248426532194e-11
5.67608639626678 9.917971752763361e-19 1.4943120458537495e-10 1.3543220178398115e-10 1.3999002801393833e-11
5.686739436050992 9.95470486489083e-19 1.502661471789631e-10 1.3620425478294218e-10 1.4061892396020946e-11
5.6974124697621304 9.991824846795789e-19 1.51109548246083e-10 1.3698476063510365e-10 1.4124787610979372e-11
5.718818669136295 1.0067272091794407e-18 1.5282259358635593e-10 1.3857200666001997e-10 1.4250586926335948e-11
5.740305295436557 1.0149664948074698e-18 1.546522097278807e-10 1.4027475031296232e-10 1.4377459414918362e-11
5.7835210386641895 1.036347060216323e-18 1.5909882512618972e-10 1.444593287102411e-10 1.463949641594857e-11
5.827062130521658 1.0602332569930209e-18 1.6399118522143018e-10 1.4908685983137202e-10 1.490432539005812e-11
5.8489554468988025 1.0772795860745264e-18 1.672538704120737e-10 1.5220557461212573e-10 1.5048295799947985e-11
5.870931020387893 1.0952206168495085e-18 1.7067818712397382e-10 1.5548570565680079e-10 1.5192481467173026e-11
5.892989160043636 1.1141291978074683e-18 1.7427722301496649e-10 1.5894035703020516e-10 1.5336865984761332e-11
5.915130176081913 1.1355053466542587e-18 1.7828833255751648e-10 1.628014791720453e-10 1.5486853385471218e-11
5.95966208400165 1.1958311804873229e-18 1.8917378003722635e-10 1.7333976944175315e-10 1.5834010595473157e-11
6.004529249263818 1.2820583199227238e-18 2.0434131276827043e-10 1.8811357318460153e-10 1.6227739583668956e-11
6.027089341400364 1.3419995070964798e-18 2.1469870186611666e-10 1.9824078564711576e-10 1.6457916219000897e-11
6.049734195844842 1.4120054576717055e-18 2.2674728835864975e-10 2.100449612995528e-10 1.6702327059096943e-11
6.095279466722835 1.613834951418963e-18 2.611091990892273e-10 2.4379707624941927e-10 1.7312122839808045e-11
6.141167624020661 1.9207320299869787e-18 3.131029528414227e-10 2.9498821836952544e-10 1.8114734471897187e-11
6.164241091010745 2.1160261801349165e-18 3.462342971390804e-10 3.276104701816091e-10 1.8623826957471115e-11
6.187401249150058 2.3347607509731943e-18 3.8346002619998915e-10 3.6431448410111144e-10 1.9145542098877737e-11
6.1990139391386085 2.4407495224661078e-18 4.016199326431074e-10 3.8220911375729664e-10 1.9410818885810733e-11
6.204828454712694 2.4962695361618902e-18 4.111409062435725e-10 3.9159621047521577e-10 1.9544695768356762e-11
6.210648424152782 2.5362198922136492e-18 4.1811262630130914e-10 3.9845503843952814e-10 1.9657587861780963e-11
6.233982942956859 2.6692190973473285e-18 4.4169172825447464e-10 4.2164549626127676e-10 2.004623199319805e-11
6.239830258556775 2.6846305325133518e-18 4.4465863858662123e-10 4.245622212759204e-10 2.0096417310700803e-11
6.245683058788269 2.68354544901441e-18 4.4489582466526053e-10 4.2474918051107744e-10 2.014664415418308e-11
6.257405133728602 2.6742920463012534e-18 4.441938485343882e-10 4.2396147459004294e-10 2.0232373944345325e-11
6.269149208991335 2.6410489879841593e-18 4.3949556439419404e-10 4.1924227701507897e-10 2.0253287379115146e-11
6.280915325867298 2.566074922483904e-18 4.278206115098943e-10 4.0762641552582824e-10 2.019419598406608e-11
6.304513850009849 2.384662988371954e-18 3.990690502085778e-10 3.790651886613093e-10 2.0003861547268514e-11
6.32820103803542 2.1650873185152827e-18 3.636847720207702e-10 3.439479844676756e-10 1.9736787553094647e-11
6.3519772230701035 1.9651999871951148e-18 3.3134858309478064e-10 3.1185418933222667e-10 1.9494393762554004e-11
6.375842739491607 1.796423506748153e-18 3.0402952359485525e-10 2.8475208378593906e-10 1.9277439808916205e-11
6.399797922933955 1.662815286125033e-18 2.8247479520773154e-10 2.6332363518040177e-10 1.915116002732975e-11
6.42384311029221 1.5510802333853151e-18 2.644835234835381e-10 2.454404368822077e-10 1.9043086601330376e-11
6.447978639727206 1.469870052357588e-18 2.5157759707962027e-10 2.3257218880732236e-10 1.900540827229788e-11
6.472204850670314 1.4017606403480418e-18 2.4082166185599415e-10 2.2184003099189666e-10 1.898163086409752e-11
6.496522083828205 1.3570692078856384e-18 2.340196624290745e-10 2.150050500326513e-10 1.9014612396423233e-11
6.520930681187647 1.3190628608045052e-18 2.2832029099001879e-10 2.0926434727431082e-10 1.9055943715707993e-11
