Dust emission spectrum from A.P. Jones, M. Kohler, N. Ysard, M. Bocchio, and L. Verstraete (2017), A&A, 602A, 46J 
inside the DustPedia framework.

lambda    nu*dP/dnu     j_nu    j_nu(carb.) j_nu(sil)
 (um)   (erg s-1 H-1) (Jy cm2 sr-1 H-1)
0.9927057738263894 7.9193736879904765e-22 2.0867999479300474e-14 2.0867998468792297e-14 1.0105081723780104e-21
1.0001793341362166 8.052524525212223e-22 2.1378605145241667e-14 2.1378603929189543e-14 1.2160521258359176e-21
1.0077091589558085 8.186204501869286e-22 2.1897131605407865e-14 2.189713014395246e-14 1.4614553997836752e-21
1.0114953028030835 8.253236803126095e-22 2.2159380227656458e-14 2.215937862631173e-14 1.6013447206083717e-21
1.0152956718711033 8.32039415697224e-22 2.2423627390665956e-14 2.2423625636627782e-14 1.7540381731306566e-21
1.0229392996569957 8.455009411970487e-22 2.2957965147532692e-14 2.2957963045120542e-14 2.1024121448851326e-21
1.0267826658714554 8.522314417363e-22 2.322766287757913e-14 2.322766057690351e-14 2.300675614829085e-21
1.0306404723013447 8.58973221283098e-22 2.3499371694899626e-14 2.3499369178104103e-14 2.5167955245036475e-21
1.03451277320114 8.657260732810022e-22 2.3773098391599054e-14 2.3773095639300653e-14 2.7522984081356418e-21
1.0383996230291617 8.724897975636113e-22 2.4048849920296654e-14 2.404884691146286e-14 3.0088337906512295e-21
1.0403485208654093 8.758756760469629e-22 2.4187487215039712e-14 2.4187484069499663e-14 3.1455400407573632e-21
1.0423010764483396 8.79264200517051e-22 2.432663340149318e-14 2.432663011330974e-14 3.2881834442047146e-21
1.0462171883269815 8.860490952414569e-22 2.4606456131044825e-14 2.4606452538773545e-14 3.592271287924688e-21
1.0471985131304309 8.877469370117108e-22 2.467673131828016e-14 2.4676727645881726e-14 3.6723984341585096e-21
1.048180758391296 8.894454204869255e-22 2.4747134543720688e-14 2.4747130789485974e-14 3.7542347139770966e-21
1.0501480137395462 8.928443017113761e-22 2.4888325587742228e-14 2.4888321664568263e-14 3.923173971464956e-21
1.0521189612883777 8.9624571751188e-22 2.503003022780231e-14 2.5030026128427953e-14 4.099374361185373e-21
1.0531058218030118 8.979451163913555e-22 2.5101012473403715e-14 2.510100828310798e-14 4.190295736798907e-21
1.0540936079674168 8.996377602526898e-22 2.5171916850930924e-14 2.517191256776586e-14 4.2831650736441936e-21
1.058054026499678 9.064142450841408e-22 2.5456811077276388e-14 2.545680640256088e-14 4.674715510435236e-21
1.0590464539527713 9.081098314264166e-22 2.5528354433028346e-14 2.5528349655203252e-14 4.777825094546377e-21
1.06003981227728 9.098059990406295e-22 2.5600025959409274e-14 2.560002107630161e-14 4.8831076670746626e-21
1.0620293250338977 9.132000687588855e-22 2.5743754032772433e-14 2.5743748932405844e-14 5.1003665848303054e-21
1.0660195594769086 9.199950825562939e-22 2.6032753871480107e-14 2.603274830855014e-14 5.562929963637404e-21
1.070024785945596 9.267991454900896e-22 2.632381897158453e-14 2.6323812906149385e-14 6.065435150363136e-21
1.0740450607676866 9.336121244597064e-22 2.661695794359083e-14 2.661695133244564e-14 6.6111451934303514e-21
1.07808044048254 9.404338944000027e-22 2.6912179638614323e-14 2.6912172435040885e-14 7.203573435166115e-21
1.0861967418109137 9.540929051379083e-22 2.7508606764952263e-14 2.750859822095367e-14 8.543998593470212e-21
1.0902777775684922 9.609061941846831e-22 2.780914177626396e-14 2.7809132475821257e-14 9.300442704721663e-21
1.0943741465085532 9.677274475187237e-22 2.8111778149720718e-14 2.8111768029183912e-14 1.0120536805314304e-20
1.1026131145906286 9.81393533115246e-22 2.872339553045047e-14 2.872338355817088e-14 1.1972279587117886e-20
1.1109141095355224 9.950906245008922e-22 2.934354299409818e-14 2.934352884974093e-14 1.4144357258511376e-20
1.1192775983109025 1.0088076043538384e-21 2.997199089670601e-14 2.9971974207913e-14 1.668879301436401e-20
1.1277040513999907 1.0224949257276928e-21 3.060735037973156e-14 3.06073307142597e-14 1.9665471855837595e-20
1.1361939428280308 1.0362109487215499e-21 3.125144330996302e-14 3.125142016672936e-14 2.314323365807043e-20
1.1447477501889525 1.0499557660758144e-21 3.190437451047258e-14 3.190434730936779e-14 2.7201104796171174e-20
1.1533659546722406 1.0637345261086195e-21 3.2566404756478144e-14 3.256637282675012e-14 3.192972802436134e-20
1.1707974979042381 1.0914357631655159e-21 3.3919496652532063e-14 3.391945282295182e-14 4.382958025323816e-20
1.1884924949847024 1.1192775841536032e-21 3.5310485008426484e-14 3.5310425145727596e-14 5.986269889028503e-20
1.2064549276569216 1.1474484771205562e-21 3.674630949481596e-14 3.6746228138058887e-14 8.135675707771685e-20
1.2246888378427687 1.175766551565103e-21 3.822225396143459e-14 3.822214393537086e-14 1.1002606373160632e-19
1.2431983285522175 1.2042093864341916e-21 3.973853557695712e-14 3.9738387500633524e-14 1.4807632361291395e-19
1.2619875648066055 1.2328191514407564e-21 4.129751132786249e-14 4.129731299680818e-14 1.9833105430541204e-19
1.3004222497298317 1.290367065019606e-21 4.4541731358189624e-14 4.454138057641506e-14 3.507817745665954e-19
1.3400274889804893 1.3485906044332292e-21 4.796928775694934e-14 4.796867872362992e-14 6.090333194095773e-19
1.3808389325824078 1.4077125789238475e-21 5.159723721200594e-14 5.159619871058679e-14 1.0385014191489326e-18
1.4228933163050095 1.4682404262402036e-21 5.545477532797486e-14 5.5453035322884236e-14 1.7400050906444146e-18
1.466228494730424 1.5312395716533547e-21 5.959560491924119e-14 5.959273883639048e-14 2.866082850705889e-18
1.5108834753276823 1.596602099458781e-21 6.40320049262653e-14 6.402736177058118e-14 4.643155684125894e-18
1.5568984535646726 1.6642948513779158e-21 6.87796545113661e-14 6.87722485277447e-14 7.405983621414704e-18
1.6043148490894465 1.7347396483183995e-21 7.387429356368554e-14 7.386264131178707e-14 1.1652251898491078e-17
1.6531753430134553 1.808386120282288e-21 7.935595405708745e-14 7.93378915276315e-14 1.806252945594783e-17
1.7035239163302658 1.885761420457862e-21 8.527160054426812e-14 8.524400810761929e-14 2.7592436648822486e-17
1.755405889504358 1.968324015883478e-21 9.171567687730946e-14 9.167411829702984e-14 4.15585802795993e-17
1.8088679632656115 2.0561176499597544e-21 9.872434505047051e-14 9.866260838548427e-14 6.173666498625745e-17
1.8639582606462262 2.149155902608403e-21 1.0633433931219974e-13 1.0624384759429843e-13 9.049171790132927e-17
1.9207263702978936 2.2477610827757563e-21 1.1460012193191482e-13 1.1446919780257497e-13 1.3092412933986208e-16
1.979223391128241 2.352397240515186e-21 1.2358760304871648e-13 1.234005599287309e-13 1.8704311998559104e-16
2.039501978296691 2.463481006910682e-21 1.3336528034929441e-13 1.3310132661968153e-13 2.639537296128755e-16
2.1016163906111602 2.5821779252089902e-21 1.440486007411299e-13 1.4368050982654506e-13 3.680909145848498e-16
2.1656225393682647 2.7090912927841666e-21 1.557312739436629e-13 1.5522385023068332e-13 5.074237129796319e-16
2.231578038680979 2.844007498637641e-21 1.6846599408167398e-13 1.6777431027363949e-13 6.916838080345388e-16
2.299542257339062 2.9871166327621337e-21 1.8233204706883609e-13 1.813994458087359e-13 9.326012601001703e-16
2.369576372248914 3.1388933384731566e-21 1.9743161683776398e-13 1.9618746436720008e-13 1.244152470563918e-15
2.4417434235010123 3.2999009367117384e-21 2.138800920048173e-13 2.12237354148338e-13 1.6427378564793352e-15
2.5161083711144245 3.47127725020889e-21 2.3183984499288134e-13 2.2969242458590305e-13 2.147420406978271e-15
2.5927381535095444 3.654896579997181e-21 2.5153775715613736e-13 2.4875770507033355e-13 2.780052085803757e-15
2.6717017477616296 3.852380227944298e-21 2.7320368497730577e-13 2.6963848259778416e-13 3.565202379521659e-15
2.753070231689431 4.066090309200822e-21 2.971417958581029e-13 2.926116396710321e-13 4.530156187070853e-15
2.836916847834745 4.302391171519816e-21 3.239857681826446e-13 3.182807586495651e-13 5.70500953307969e-15
2.9233170693905177 4.575171959472961e-21 3.5501996538649614e-13 3.4789895090612614e-13 7.12101448037004e-15
2.967498994190263 4.738113285944604e-21 3.732204685415349e-13 3.6530629036237896e-13 7.914178179155988e-15
3.0123486681368425 4.912229951346238e-21 3.9278361264712327e-13 3.8399937115434703e-13 8.784241492776173e-15
3.0578761833420214 5.1804354228328956e-21 4.204899242977848e-13 4.1074970157461617e-13 9.74022272316859e-15
3.1040917844459814 5.490664739087081e-21 4.524065810137408e-13 4.416278017658506e-13 1.0778779247890157e-14
3.127460860933648 5.76375634953706e-21 4.784834602104342e-13 4.67149308396893e-13 1.1334151813541149e-14
3.1510058709225794 6.106115647614362e-21 5.107209472305322e-13 4.988084051915826e-13 1.1912542038949679e-14
3.162844764501044 6.4079563133706414e-21 5.379808938298354e-13 5.257692281837158e-13 1.2211665646119412e-14
3.1747281389236908 6.748327576317844e-21 5.686854676053301e-13 5.561687330192963e-13 1.2516734586033864e-14
3.1986289994194426 7.663159939422468e-21 6.50640650182598e-13 6.374940646105326e-13 1.3146585572065462e-14
3.2227097969389145 9.754183424800978e-21 8.344139391224008e-13 8.206004567725948e-13 1.3813482349805919e-14
3.2348180950136065 1.1706693416419551e-20 1.0052024576475566e-12 9.910332106637046e-13 1.4169246983852017e-14
3.240889293275058 1.316257331394593e-20 1.1323336986909124e-12 1.11797679455579e-12 1.4356904135122483e-14
3.2469718861334385 1.484892393795877e-20 1.279802469911372e-12 1.2652513964272915e-12 1.4551073484080876e-14
3.2714166318528037 2.3689731321766116e-20 2.0571474681188433e-12 2.0417944092228684e-12 1.5353058895974487e-14
3.2744851364798273 2.4243667900438573e-20 2.10722438192633e-12 2.0917769278696382e-12 1.5447454056691013e-14
3.2775565192852394 2.4812341356053314e-20 2.1586755369638118e-12 2.14313322668676e-12 1.5542310277051784e-14
3.283707930232385 2.427478107764262e-20 2.1158714412133167e-12 2.1001597334010875e-12 1.571170781222908e-14
3.2898708863219004 2.255329801902083e-20 1.969510705457137e-12 1.9536450534272353e-12 1.5865652029901514e-14
3.29141343181113 2.2146524999470605e-20 1.934895261848779e-12 1.9189909591747806e-12 1.5904302673998377e-14
3.292184975758714 2.194653089637098e-20 1.917871663236594e-12 1.901948010527503e-12 1.59236527090906e-14
3.295272960557952 2.0697980300203622e-20 1.8104594290457438e-12 1.794460549348871e-12 1.5998879696872846e-14
3.3076538914384823 1.6341176295054207e-20 1.4347386825961705e-12 1.4184377638830628e-12 1.6300918713107485e-14
3.310756385682612 1.5445674668124688e-20 1.3573865497781124e-12 1.3410095220574095e-12 1.637702772070334e-14
3.313861789986515 1.4616014790678003e-20 1.2856797344400762e-12 1.2692263577031164e-12 1.645337673695963e-14
3.3200813396944477 1.3459289446397672e-20 1.1861518476151484e-12 1.1695341508697404e-12 1.661769674540795e-14
3.345076488085796 1.1454391742082214e-20 1.0170622095599289e-12 9.997119692125282e-13 1.7350240347400725e-14
3.3482140837626964 1.1540303787377416e-20 1.0256516741841123e-12 1.0082021881707978e-12 1.7449486013314257e-14
3.3513546224236106 1.1626974904809123e-20 1.0343238836815695e-12 1.0167747166766462e-12 1.7549167004923896e-14
3.3576445397418455 1.2218274795461256e-20 1.0889652939013876e-12 1.0712076789822049e-12 1.7757614919183086e-14
3.3702598118196083 1.4349143000516526e-20 1.2836859222798095e-12 1.2654910997293596e-12 1.8194822550450093e-14
3.382922481734668 1.4868602041410672e-20 1.3351547863418306e-12 1.3165353416781932e-12 1.861944466363733e-14
3.389271646505754 1.5136217964336577e-20 1.3617368326550353e-12 1.3429022281691092e-12 1.8834604485926025e-14
3.395632727569191 1.543014438549652e-20 1.3907854344146605e-12 1.3717290947525291e-12 1.9056339662131366e-14
3.421196662673239 1.6850799821999704e-20 1.53026974613898e-12 1.510295891916293e-12 1.997385422268674e-14
3.4276182099114902 1.6606218501488936e-20 1.510889219676468e-12 1.4907109744816277e-12 2.0178245194839956e-14
3.4340518103208963 1.5472142136923108e-20 1.4103494148536225e-12 1.3899780302442994e-12 2.0371384609323206e-14
3.4469541582030403 1.384829431238693e-20 1.267071800659481e-12 1.2463300724435626e-12 2.074172821591844e-14
3.472904465399547 1.342206521466493e-20 1.2373188074663375e-12 1.215723424996904e-12 2.159538246943298e-14
3.4990501388274233 1.2763658597967144e-20 1.1854814914885998e-12 1.1630133738643049e-12 2.2468117624294927e-14
3.5253949054701885 1.0356840596887239e-20 9.69180120960407e-13 9.458654609827243e-13 2.331465997768274e-14
3.5519380250092896 8.067203278117232e-21 7.606026129334007e-13 7.364381653188475e-13 2.4164447614553075e-14
3.578680990867387 7.194626862444455e-21 6.834404737017955e-13 6.583447812031309e-13 2.5095692498664636e-14
3.605625307711299 6.879912247026436e-21 6.584653484548621e-13 6.323895365139753e-13 2.6075811940886504e-14
3.660119384959845 6.728760302924541e-21 6.537319971726023e-13 6.256000490946849e-13 2.813194807791744e-14
3.715437065384467 6.650899185049124e-21 6.559333418964293e-13 6.256382500380254e-13 3.029509185840401e-14
3.8285932144167436 6.787984556434171e-21 6.898417962048795e-13 6.549131882173468e-13 3.4928607987532855e-14
3.94519561050918 7.00106601023004e-21 7.331657131235186e-13 6.932080254979696e-13 3.995768762554917e-14
4.06534921144712 7.242045418481108e-21 7.814991939658188e-13 7.36128601753228e-13 4.5370592212590745e-14
4.189162171576248 7.496036838114978e-21 8.335435943664745e-13 7.823722849947385e-13 5.1171309371736384e-14
4.316745939156006 7.75598630924799e-21 8.887159118400315e-13 8.313848495681817e-13 5.733106227184994e-14
4.448215356677963 8.017738290980518e-21 9.466885280359472e-13 8.829324532487426e-13 6.37560747872045e-14
4.58368876423945 8.279750695817846e-21 1.0073996936000545e-12 9.369524097638383e-13 7.044728383621628e-14
4.723288106065518 8.542027074999668e-21 1.070963855132666e-12 9.935239265440437e-13 7.743992858862204e-14
4.867139040275056 8.80407590464999e-21 1.1374359858465503e-12 1.0529009895193394e-12 8.453499632721106e-14
4.940699165968905 8.93869669395139e-21 1.1722818611233469e-12 1.0841407713699568e-12 8.814108975339018e-14
5.015371051989984 9.069927272646522e-21 1.2074698812762751e-12 1.1156961686864422e-12 9.177371258983295e-14
5.091171501069577 9.21039121610816e-21 1.2447015702629364e-12 1.1491880724500548e-12 9.551349781288154e-14
5.129500256944802 9.279131066872227e-21 1.2634317837174945e-12 1.1660430404338096e-12 9.738874328368523e-14
5.168117569889187 9.348042079498104e-21 1.2823969505182948e-12 1.1831101101180065e-12 9.928684040028827e-14
5.20702561229733 9.426223027718949e-21 1.3028573220333695e-12 1.2014911539632473e-12 1.0136616807012211e-13
5.246226572918644 9.503665933321648e-21 1.3234503032523598e-12 1.2199960838066727e-12 1.0345421944568725e-13
5.265937586045735 9.542108737119718e-21 1.3337962795508661e-12 1.229295075193595e-12 1.0450120435727083e-13
5.285722656980489 9.580364982939962e-21 1.3441751418181791e-12 1.2386251481219244e-12 1.0554999369625445e-13
5.305582063971359 9.618434213047107e-21 1.3545868283150434e-12 1.2479863682720297e-12 1.0660046004301397e-13
5.3255160863122235 9.658119851218084e-21 1.365286274910095e-12 1.2576248390470772e-12 1.0766143586301776e-13
5.365609099470188 9.750892497552045e-21 1.3887780102444565e-12 1.2789209731550493e-12 1.0985703708940761e-13
5.406003951863644 9.84365335722929e-21 1.4125443864861018e-12 1.3004832967612337e-12 1.1206108972486826e-13
5.446702915881641 9.936448978642688e-21 1.436594924580559e-12 1.3223223523429187e-12 1.1427257223764e-13
5.487708281020852 1.0032735801903688e-20 1.4614360823658071e-12 1.3449354956808521e-12 1.165005866849546e-13
5.529022354014368 1.0159437702781273e-20 1.4910336693305183e-12 1.3722107332315591e-12 1.1882293609895905e-13
5.570647458961463 1.028853766441608e-20 1.5213486716811482e-12 1.4001949925940603e-12 1.2115367908708794e-13
5.612585937458331 1.0420296715805753e-20 1.552431772050895e-12 1.4289399970592376e-12 1.2349177499165802e-13
5.654840148729818 1.0560104040958361e-20 1.5851047333262998e-12 1.459256143332794e-12 1.2584858999350577e-13
5.67608639626678 1.0653832318780213e-20 1.6051820236353836e-12 1.4780989680911823e-12 1.2708305554420145e-13
5.686739436050992 1.0701468180251438e-20 1.6153853021561058e-12 1.4876841274778112e-12 1.2770117467829477e-13
5.6974124697621304 1.0749637384698354e-20 1.625701885208569e-12 1.497382022481798e-12 1.283198627267707e-13
5.718818669136295 1.084763463188465e-20 1.6466860571623882e-12 1.5171271779056262e-12 1.2955887925676164e-13
5.740305295436557 1.0954300328634308e-20 1.669125789386282e-12 1.538315937022367e-12 1.3080985236391487e-13
5.7835210386641895 1.1227915605064805e-20 1.723696867542565e-12 1.5903023423774835e-12 1.3339452516508113e-13
5.827062130521658 1.1533354662266416e-20 1.7839173485355288e-12 1.6479037227480287e-12 1.360136257874996e-13
5.8489554468988025 1.1748605784440117e-20 1.824038824084194e-12 1.6866062591726208e-12 1.3743256491157305e-13
5.870931020387893 1.1975279787914956e-20 1.8662167357506384e-12 1.7273608206656413e-12 1.38855915084997e-13
5.892989160043636 1.221429140464941e-20 1.910615744822915e-12 1.770332199820103e-12 1.40283545002812e-13
5.915130176081913 1.2483888921988276e-20 1.960124403018102e-12 1.8183595198220544e-12 1.41764883196047e-13
5.95966208400165 1.3239198206592675e-20 2.094366838956792e-12 1.9491992197193163e-12 1.4516761923747506e-13
6.004529249263818 1.431472602114078e-20 2.281557602819767e-12 2.1325455765574245e-12 1.4901202626234347e-13
6.027089341400364 1.5060220273948845e-20 2.409397116419455e-12 2.2581501483341977e-12 1.5124696808525706e-13
6.049734195844842 1.593078943663024e-20 2.558250243681698e-12 2.404632950559941e-12 1.536172931217567e-13
6.095279466722835 1.8436637875496956e-20 2.9829418090966737e-12 2.823451727484354e-12 1.5949008161232008e-13
6.141167624020661 2.224654182720862e-20 3.6264600307917275e-12 3.4592902755570428e-12 1.6716975523468507e-13
6.164241091010745 2.4672243258119372e-20 4.0369901296659374e-12 3.864972685254321e-12 1.7201744441161532e-13
6.187401249150058 2.739316396238664e-20 4.499040583211337e-12 4.322050628399106e-12 1.7698995481223099e-13
6.1990139391386085 2.8713813706628494e-20 4.724794502932449e-12 4.545275388009645e-12 1.7951911492280423e-13
6.204828454712694 2.940592357231088e-20 4.843218206731768e-12 4.662422206544583e-12 1.8079600018718418e-13
6.210648424152782 2.9905991749536326e-20 4.93020056775526e-12 4.748322846884432e-12 1.8187772087082917e-13
6.233982942956859 3.157785518601251e-20 5.22537750667999e-12 5.039754600153016e-12 1.856229065269735e-13
6.239830258556775 3.1776119139546395e-20 5.263117477446296e-12 5.07699462537799e-12 1.8612285206830666e-13
6.245683058788269 3.176995686956156e-20 5.2670325245486295e-12 5.0804091301510755e-12 1.8662339439755444e-13
6.257405133728602 3.167006715155839e-20 5.2603263846406915e-12 5.072838420478897e-12 1.8748796416179525e-13
6.269149208991335 3.127344160526105e-20 5.204196866997119e-12 5.016447077298124e-12 1.8774978969899462e-13
6.280915325867298 3.0359632320520913e-20 5.061612328921499e-12 4.8743453079604165e-12 1.8726702096108297e-13
6.304513850009849 2.813978796159217e-20 4.7091427634267346e-12 4.523513891808378e-12 1.8562887161835754e-13
6.32820103803542 2.5441463834586396e-20 4.273579589806697e-12 4.090304399395143e-12 1.832751904115539e-13
6.3519772230701035 2.2982436346372657e-20 3.875024307478022e-12 3.693874037915613e-12 1.811502695624104e-13
6.375842739491607 2.09067270332046e-20 3.5382871778041058e-12 3.359026610269506e-12 1.7926056753459924e-13
6.399797922933955 1.9263028143982345e-20 3.2723538058953292e-12 3.094136260635705e-12 1.7821754525962324e-13
6.42384311029221 1.7889493897083722e-20 3.0504394791436774e-12 2.8730957236537114e-12 1.7734375548996546e-13
6.447978639727206 1.6893232493919966e-20 2.8913840586867205e-12 2.714255371251227e-12 1.7712868743549324e-13
6.472204850670314 1.605897569293307e-20 2.758922673928794e-12 2.5818788206245163e-12 1.7704385330427723e-13
6.496522083828205 1.5515156819965035e-20 2.6755096500932072e-12 2.498018273042208e-12 1.77491377050999e-13
6.520930681187647 1.5054098469035563e-20 2.6057561357964795e-12 2.4277379656134125e-12 1.7801817018306657e-13
