Dust emission spectrum from A.P. Jones, M. Kohler, N. Ysard, M. Bocchio, and L. Verstraete (2017), A&A, 602A, 46J 
inside the DustPedia framework.

lambda    nu*dP/dnu     j_nu    j_nu(carb.) j_nu(sil)
 (um)   (erg s-1 H-1) (Jy cm2 sr-1 H-1)
0.9927057738263894 1.2603275816791929e-23 3.3210347629022064e-16 3.3210346564327587e-16 1.064694469773696e-23
1.0001793341362166 1.2815433785684024e-23 3.402362797049758e-16 3.4023626688899865e-16 1.2815977281654708e-23
1.0077091589558085 1.3028249986527558e-23 3.484903223197079e-16 3.484903069132055e-16 1.5406502337458422e-23
1.0114953028030835 1.3134892159448126e-23 3.526629328025931e-16 3.5266291591901715e-16 1.6883576004461625e-23
1.0152956718711033 1.3241683718577128e-23 3.5686600433659263e-16 3.568659858404648e-16 1.8496127842128747e-23
1.0229392996569957 1.3455591616258825e-23 3.6536092192653083e-16 3.6536089975033767e-16 2.2176193165865764e-23
1.0267826658714554 1.3562462861853833e-23 3.6964643607024246e-16 3.696464117991363e-16 2.427110617158866e-23
1.0306404723013447 1.3669458919277358e-23 3.739624100649251e-16 3.7396238350981506e-16 2.6555110030054945e-23
1.03451277320114 1.377657521503409e-23 3.783088995402876e-16 3.7830887049587435e-16 2.9044413326241627e-23
1.0383996230291617 1.388380726610413e-23 3.826859617123708e-16 3.82685929955836e-16 3.17565347758169e-23
1.0403485208654093 1.3937465324293616e-23 3.8488597589886244e-16 3.8488594269685306e-16 3.3202009366646153e-23
1.0423010764483396 1.3991150682446213e-23 3.8709365548690943e-16 3.8709362077650733e-16 3.471040221533469e-23
1.0462171883269815 1.4098601169485253e-23 3.91532041564241e-16 3.915320036377826e-16 3.792645850441877e-23
1.0471985131304309 1.4125480027060824e-23 3.9264644104867755e-16 3.92646402274689e-16 3.8773988572755917e-23
1.048180758391296 1.415236524917385e-23 3.9376276370218345e-16 3.937627240625455e-16 3.96396378380231e-23
1.0501480137395462 1.4206154530583048e-23 3.9600118254573984e-16 3.9600114111896514e-16 4.142677477879515e-23
1.0521189612883777 1.4259968504838198e-23 3.982473062348305e-16 3.982472629439279e-16 4.3290902498004956e-23
1.0531058218030118 1.428684808445988e-23 3.993722393801125e-16 3.993721951272307e-16 4.425288174199933e-23
1.0540936079674168 1.431361403440802e-23 4.004957531009319e-16 4.004957078654155e-16 4.523551648373824e-23
1.058054026499678 1.4420731565028156e-23 4.050089029800722e-16 4.050088536011216e-16 4.9378950591088605e-23
1.0590464539527713 1.4447524079559722e-23 4.061419694172726e-16 4.0614191894707306e-16 5.047019948702528e-23
1.06003981227728 1.4474321727989876e-23 4.072769495607987e-16 4.072768979762986e-16 5.158450016450557e-23
1.0620293250338977 1.4527932192259062e-23 4.0955265528025574e-16 4.095526013961392e-16 5.388411655375622e-23
1.0660195594769086 1.463521217464854e-23 4.1412707918055843e-16 4.1412702039963134e-16 5.878092689808268e-23
1.070024785945596 1.4742567882077716e-23 4.1873224634760945e-16 4.187321822459896e-16 6.410161976799229e-23
1.0740450607676866 1.4849995798095705e-23 4.2336823105115216e-16 4.233681611702247e-16 6.988092733789126e-23
1.07808044048254 1.4957492522231137e-23 4.2803511028102045e-16 4.280350341247651e-16 7.61562554429527e-23
1.0861967418109137 1.5172511018545016e-23 4.374570201690487e-16 4.374569298099115e-16 9.035913727411957e-23
1.0902777775684922 1.5279643734475237e-23 4.4220110295298825e-16 4.4220100457630254e-16 9.8376685763347e-23
1.0943741465085532 1.5386826180643034e-23 4.469761037858568e-16 4.469759967152125e-16 1.07070644393645e-22
1.1026131145906286 1.5601329382089637e-23 4.566192251339968e-16 4.56619098426533e-16 1.2670746367566474e-22
1.1109141095355224 1.5816000176848624e-23 4.663871508354323e-16 4.663870010845271e-16 1.4975090512666533e-22
1.1192775983109025 1.6030647543231735e-23 4.762755754025022e-16 4.762753986464173e-16 1.7675608495685439e-22
1.1277040513999907 1.624446142762107e-23 4.862615061794888e-16 4.862612978171327e-16 2.0836235617980316e-22
1.1361939428280308 1.6458369040745967e-23 4.963736270938961e-16 4.963733817888379e-16 2.453050582897183e-22
1.1447477501889525 1.6672359209697296e-23 5.0661295397934e-16 5.066126655505333e-16 2.8842880661512777e-22
1.1533659546722406 1.68865055535994e-23 5.169831017827466e-16 5.169827630798467e-16 3.3870289986766752e-22
1.1707974979042381 1.731591879155088e-23 5.381418396828328e-16 5.381413743754681e-16 4.653073649386153e-22
1.1884924949847024 1.7745865063383547e-23 5.598388738893665e-16 5.598382378486098e-16 6.360407566740412e-22
1.2064549276569216 1.81793099985637e-23 5.821808690580872e-16 5.821800039207589e-16 8.651373282756663e-22
1.2246888378427687 1.8613168296877474e-23 6.050837598017696e-16 6.050825888040272e-16 1.1709977424060596e-21
1.2431983285522175 1.904699448351325e-23 6.285448996195487e-16 6.285433222945208e-16 1.577325027817599e-21
1.2619875648066055 1.9481311429024e-23 6.525934306597259e-16 6.52591316162854e-16 2.114496872072765e-21
1.3004222497298317 2.034816165214339e-23 7.023911059982111e-16 7.02387359452438e-16 3.74654577291863e-21
1.3400274889804893 2.1215628256264763e-23 7.54638637866632e-16 7.546321210879526e-16 6.516778679199811e-21
1.3808389325824078 2.2086272278848024e-23 8.09533598663908e-16 8.09522465567788e-16 1.1133096120027177e-20
1.4228933163050095 2.2967294656957675e-23 8.674643078412403e-16 8.67445618476105e-16 1.868936513507968e-20
1.466228494730424 2.387493624399039e-23 9.292087888850804e-16 9.291779438274644e-16 3.084505761614183e-20
1.5108834753276823 2.48064350120268e-23 9.94866391213954e-16 9.948163209177753e-16 5.007029617843352e-20
1.5568984535646726 2.576038940648251e-23 1.064589415745177e-15 1.0645093890521711e-15 8.002669300602848e-20
1.6043148490894465 2.674287235971816e-23 1.138851472815004e-15 1.1387253023600771e-15 1.2617045492704906e-19
1.6531753430134553 2.776047913708824e-23 1.2181907847543249e-15 1.2179947932700052e-15 1.9599148431944583e-19
1.7035239163302658 2.882134319962305e-23 1.303262458233344e-15 1.3029624208528357e-15 3.0003738050828843e-19
1.755405889504358 2.994870495447215e-23 1.3954845464126317e-15 1.3950316606141529e-15 4.52885798478726e-19
1.8088679632656115 3.1143180861062777e-23 1.4953376492619242e-15 1.4946633849974063e-15 6.742642645177234e-19
1.8639582606462262 3.2405338220722797e-23 1.6033272531354332e-15 1.6023367147831716e-15 9.905383522611815e-19
1.9207263702978936 3.3740837693368973e-23 1.7202469352169964e-15 1.7188105378016534e-15 1.4363974153428617e-18
1.979223391128241 3.5157798940763315e-23 1.847080937149055e-15 1.8450240688897854e-15 2.0568682592698328e-18
2.039501978296691 3.6663957895284303e-23 1.984873847089742e-15 1.9819643340647304e-15 2.9095130250122448e-18
2.1016163906111602 3.82790216806879e-23 2.1354219850656426e-15 2.131354800239927e-15 4.0671848257154956e-18
2.1656225393682647 4.00139784049519e-23 2.3001911560364076e-15 2.2945706539771847e-15 5.620502059222595e-18
2.231578038680979 4.186728109193442e-23 2.480026206691892e-15 2.4723455664456677e-15 7.680640246224565e-18
2.299542257339062 4.3843620665897167e-23 2.6761918229923812e-15 2.665809561990923e-15 1.0382261001457402e-17
2.369576372248914 4.595275419056033e-23 2.8903583459780086e-15 2.8764717050589027e-15 1.3886640919106368e-17
2.4417434235010123 4.820598895694469e-23 3.1244275361697587e-15 3.106043453955888e-15 1.8384082213871137e-17
2.5161083711144245 5.0624303502895527e-23 3.3810986075161802e-15 3.357001536742266e-15 2.409707077391567e-17
2.5927381535095444 5.324162603100044e-23 3.664201956487098e-15 3.6329196976536586e-15 3.128225883343886e-17
2.6717017477616296 5.60899468000288e-23 3.977795349688541e-15 3.937565090391722e-15 4.023025929681861e-17
2.753070231689431 5.921589581018131e-23 4.327379936586291e-15 4.276113643014017e-15 5.1266293572275e-17
2.836916847834745 6.273772197683043e-23 4.7243795922704085e-15 4.659627630171653e-15 6.475196209875673e-17
2.9233170693905177 6.691359450145299e-23 5.1922992652998394e-15 5.111231331029285e-15 8.106793427055435e-17
2.967498994190263 6.949256245332864e-23 5.4739186578592964e-15 5.383674026453399e-15 9.024463140589642e-17
3.0123486681368425 7.22767473949057e-23 5.779273819291447e-15 5.6789461014460574e-15 1.0032771784539066e-16
3.0578761833420214 7.676745695159063e-23 6.2311252872361185e-15 6.119701925673028e-15 1.114233615630894e-16
3.1040917844459814 8.205394218342025e-23 6.760883282061845e-15 6.637380521377438e-15 1.2350276068440693e-16
3.127460860933648 8.68553972225515e-23 7.210379565114016e-15 7.080407265291716e-15 1.2997229982229986e-16
3.1510058709225794 9.294595980882752e-23 7.77408280063636e-15 7.637365511691486e-15 1.3671728894487273e-16
3.162844764501044 9.837230450078388e-23 8.25886097147794e-15 8.118652595548523e-15 1.402083759294191e-16
3.1747281389236908 1.0453080414189708e-22 8.808871318163184e-15 8.665100495544508e-15 1.4377082261867642e-16
3.1986289994194426 1.212142320284065e-22 1.0291695248669244e-14 1.0140563310361154e-14 1.5113193830808922e-16
3.2227097969389145 1.595993349376676e-22 1.3652799414049548e-14 1.3493865890318647e-14 1.5893352373090156e-16
3.2348180950136065 1.9556538300468384e-22 1.6792342349323943e-14 1.6629245082359834e-14 1.6309726696410874e-16
3.240889293275058 2.2240039523579735e-22 1.9132388182852684e-14 1.8967094639524212e-14 1.6529354332847158e-16
3.2469718861334385 2.5347876381891557e-22 2.184688596701937e-14 2.167931991000487e-14 1.6756605701450465e-16
3.2714166318528037 4.1707715912635854e-22 3.621776922048366e-14 3.604081074166123e-14 1.7695847882243116e-16
3.2744851364798273 4.273346103574623e-22 3.7143303310549906e-14 3.696523756811238e-14 1.7806574243753184e-16
3.2775565192852394 4.378701829401266e-22 3.8094738368901296e-14 3.791555979302598e-14 1.79178575875317e-16
3.283707930232385 4.2792096801644e-22 3.7299028667914576e-14 3.7117859181719207e-14 1.8116948619536264e-16
3.2898708863219004 3.960516513297225e-22 3.458598234945558e-14 3.440300028156018e-14 1.829820678953867e-16
3.29141343181113 3.885240640301012e-22 3.3944529474671286e-14 3.3761092239036124e-14 1.8343723563516576e-16
3.292184975758714 3.8482347961664343e-22 3.362909839326389e-14 3.344543327002472e-14 1.8366512323917196e-16
3.295272960557952 3.6165545062596684e-22 3.163412618791254e-14 3.1449574485026844e-14 1.8455170288570457e-16
3.3076538914384823 2.8092808120314677e-22 2.466520021888888e-14 2.447708721394796e-14 1.881130049409219e-16
3.310756385682612 2.643688791891503e-22 2.323309071968409e-14 2.3044079983681146e-14 1.8901073600294627e-16
3.313861789986515 2.490401619534286e-22 2.1906511034007022e-14 2.171659959894615e-14 1.8991143506087516e-16
3.3200813396944477 2.276431629759683e-22 2.0061932647801905e-14 1.9870084248295307e-14 1.9184839950659008e-16
3.345076488085796 1.9033365751665208e-22 1.6900170225216968e-14 1.6699690883801722e-14 2.0047934141524972e-16
3.3482140837626964 1.9189497451803375e-22 1.7054785169279018e-14 1.6853136674494895e-14 2.0164849478412033e-16
3.3513546224236106 1.9347089121276155e-22 1.7210974068220298e-14 1.7008151111956257e-14 2.0282295626404054e-16
3.3576445397418455 2.0435343882882437e-22 1.8213193458102198e-14 1.8007915119179373e-14 2.0527833892282333e-16
3.3702598118196083 2.4375850872634063e-22 2.180683306847383e-14 2.1596404394698168e-14 2.104286737756624e-16
3.382922481734668 2.532563700597335e-22 2.2741644017041037e-14 2.2526207207854295e-14 2.1543680918674134e-16
3.389271646505754 2.5815613914114596e-22 2.3225136164978893e-14 2.3007160506201398e-14 2.179756587774963e-16
3.395632727569191 2.6351614430765285e-22 2.3751846131827504e-14 2.353125402227726e-14 2.2059210955023573e-16
3.421196662673239 2.893900548805181e-22 2.628034576964092e-14 2.6048920476649943e-14 2.3142529299097204e-16
3.4276182099114902 2.84820897318981e-22 2.5913956465118314e-14 2.5680111269405285e-14 2.3384519571303507e-16
3.4340518103208963 2.638078748628746e-22 2.4047173213251222e-14 2.3811038096063052e-14 2.361351171881724e-16
3.4469541582030403 2.3375843715539074e-22 2.1388101466105766e-14 2.114756887206548e-14 2.40532594040292e-16
3.472904465399547 2.2581222377904643e-22 2.0816596177191684e-14 2.0565937103659646e-14 2.5065907353203974e-16
3.4990501388274233 2.135210037610983e-22 1.9831711735314258e-14 1.9570685051907343e-14 2.6102668340691895e-16
3.5253949054701885 1.6865708807186117e-22 1.578271824203264e-14 1.551161136361173e-14 2.711068784209117e-16
3.5519380250092896 1.2605270104847841e-22 1.188466566162463e-14 1.1603420764492767e-14 2.812448971318626e-16
3.578680990867387 1.0967673995925701e-22 1.0418542134978154e-14 1.0126184771474872e-14 2.9235736350328214e-16
3.605625307711299 1.03620078136044e-22 9.917311210802142e-15 9.613246556451194e-15 3.040646543509512e-16
3.660119384959845 1.003736639814037e-22 9.751792732098843e-15 9.423115457986396e-15 3.286772741124443e-16
3.715437065384467 9.851326178089909e-23 9.715698768419334e-15 9.361051350621044e-15 3.546474177982888e-16
3.8285932144167436 1.0024146298776417e-22 1.0187228669537533e-14 9.776683948674274e-15 4.105447208632584e-16
3.94519561050918 1.0343287380563323e-22 1.0831698568948396e-14 1.0360079759637101e-14 4.71618809311296e-16
4.06534921144712 1.0720526571210258e-22 1.1568669333265677e-14 1.1030844376419771e-14 5.378249568459e-16
4.189162171576248 1.1129154259531726e-22 1.2375386412964616e-14 1.1766077148368791e-14 6.093092645958257e-16
4.316745939156006 1.1557350458346505e-22 1.3242933705023653e-14 1.2557102598044704e-14 6.858311069789456e-16
4.448215356677963 1.199899768649959e-22 1.4167727912143991e-14 1.3401369785998645e-14 7.663581261453501e-16
4.58368876423945 1.245233002641211e-22 1.5150786435575422e-14 1.4299781195550788e-14 8.510052400246315e-16
4.723288106065518 1.2918376397782618e-22 1.619652345696253e-14 1.5256208811216176e-14 9.403146457463538e-16
4.867139040275056 1.3398559539467394e-22 1.7310168544376795e-14 1.627820092309524e-14 1.0319676212815561e-15
4.940699165968905 1.3651236754774373e-22 1.790316617449529e-14 1.6824214322083094e-14 1.0789518524121925e-15
5.015371051989984 1.3901677364410723e-22 1.8507156906725836e-14 1.7380590582864166e-14 1.1265663238616691e-15
5.091171501069577 1.4173677335657057e-22 1.9154450687434685e-14 1.797862328864543e-14 1.1758273987892558e-15
5.129500256944802 1.4308610186817477e-22 1.948237691715542e-14 1.828172877137016e-14 1.2006481457852598e-15
5.168117569889187 1.4444973264410777e-22 1.981611711528928e-14 1.859028666391369e-14 1.2258304513755878e-15
5.20702561229733 1.459943687306823e-22 2.017879607951923e-14 1.8925501342666782e-14 1.2532947368524464e-15
5.246226572918644 1.4753828219420656e-22 2.0545712115851832e-14 1.926475343371363e-14 1.2809586821382058e-15
5.265937586045735 1.483099866833011e-22 2.0730774916544912e-14 1.94359127019069e-14 1.2948622146380112e-15
5.285722656980489 1.4908153653110309e-22 2.091691661706114e-14 1.9608104959071408e-14 1.3088116579897311e-15
5.305582063971359 1.498529441508672e-22 2.1104144378889282e-14 1.9781338731034808e-14 1.3228056478544763e-15
5.3255160863122235 1.5065852690453868e-22 2.1297314813814203e-14 1.9960362454894478e-14 1.336952358919724e-15
5.365609099470188 1.525362693984435e-22 2.172508996058205e-14 2.035886868200881e-14 1.3662212785732448e-15
5.406003951863644 1.5443027768606807e-22 2.2160433116911936e-14 2.076473735099846e-14 1.3956957659134752e-15
5.446702915881641 1.563417423237196e-22 2.2603623689417595e-14 2.117825871067606e-14 1.4253649787415312e-15
5.487708281020852 1.58337642876647e-22 2.3064530858350274e-14 2.1609187517353277e-14 1.4553433409969978e-15
5.529022354014368 1.6094064567401413e-22 2.3620197149105396e-14 2.2133599568238183e-14 1.4865975808672226e-15
5.570647458961463 1.636132391306668e-22 2.4193213082339128e-14 2.2675145785442116e-14 1.518067296897013e-15
5.612585937458331 1.6636125457429312e-22 2.4784754626769722e-14 2.3235013145730752e-14 1.5497414810389688e-15
5.654840148729818 1.6929077813453777e-22 2.54110766985583e-14 2.382931260338349e-14 1.5817640951748121e-15
5.67608639626678 1.7123180330031202e-22 2.5798999299793746e-14 2.4200479232275155e-14 1.5985200675185917e-15
5.686739436050992 1.7222065301527403e-22 2.5996686335244873e-14 2.4389765780191408e-14 1.6069205550534597e-15
5.6974124697621304 1.7322213796308723e-22 2.619693540986843e-14 2.4581599595878492e-14 1.6153358139899387e-15
5.718818669136295 1.7526429313905098e-22 2.6605363991721673e-14 2.4973154039515365e-14 1.6322099522063124e-15
5.740305295436557 1.7748585874154127e-22 2.7043828924654903e-14 2.5394561947525833e-14 1.649266977129062e-15
5.7835210386641895 1.8314946172360255e-22 2.8116897612115462e-14 2.643236744377606e-14 1.6845301683394103e-15
5.827062130521658 1.8949342097076797e-22 2.930982450483932e-14 2.7589463354302753e-14 1.7203611505365743e-15
5.8489554468988025 1.9392451619195815e-22 3.010789986198626e-14 2.8368182182833767e-14 1.7397176791524818e-15
5.870931020387893 1.9860337898286955e-22 3.095017036750089e-14 2.919100403244269e-14 1.7591663350582038e-15
5.892989160043636 2.035495839578691e-22 3.184016387672072e-14 3.006145802604986e-14 1.778705850670853e-15
5.915130176081913 2.091261842612287e-22 3.283538804630829e-14 3.103642500148118e-14 1.798963044827117e-15
5.95966208400165 2.2466894712440963e-22 3.55413662714399e-14 3.369618377746114e-14 1.845182493978762e-15
6.004529249263818 2.4677797223455394e-22 3.9332793231855507e-14 3.743556434388523e-14 1.897228887970277e-15
6.027089341400364 2.6207840382244677e-22 4.192840071123661e-14 4.000106875388712e-14 1.927331957349476e-15
6.049734195844842 2.799711367770963e-22 4.495924271254134e-14 4.300001645154325e-14 1.9592262609981003e-15
6.095279466722835 3.3144442292372095e-22 5.362579843503259e-14 5.1588068376622724e-14 2.0377300584098616e-15
6.141167624020661 4.0983102281290836e-22 6.680749912293175e-14 6.466774768808964e-14 2.13975143484213e-15
6.164241091010745 4.597910204422464e-22 7.523319998977114e-14 7.302935207376707e-14 2.203847916004084e-15
6.187401249150058 5.160047270401164e-22 8.474837778031203e-14 8.24787157450538e-14 2.2696620352582185e-15
6.1990139391386085 5.433504191663345e-22 8.94071090616049e-14 8.710395936974146e-14 2.3031496918634496e-15
6.204828454712694 5.576956218269735e-22 9.185365604331295e-14 8.953359242825148e-14 2.320063615061498e-15
6.210648424152782 5.681102897206687e-22 9.365673930448645e-14 9.132227962847812e-14 2.334459676008284e-15
6.233982942956859 6.031226695121376e-22 9.980233339069517e-14 9.741774380261437e-14 2.384589588080809e-15
6.239830258556775 6.073931262622602e-22 1.0060326638608144e-13 9.821176672163817e-14 2.3914996644432567e-15
6.245683058788269 6.074586520779469e-22 1.0070849296236927e-13 9.831007232254791e-14 2.3984206398213994e-15
6.257405133728602 6.057933501839137e-22 1.0062090264483422e-13 9.821039492644276e-14 2.410507718391448e-15
6.269149208991335 5.980323358357736e-22 9.951824451568941e-14 9.710342540609478e-14 2.4148191095946058e-15
6.280915325867298 5.796228257368818e-22 9.663575664884005e-14 9.422624056099316e-14 2.4095160878468677e-15
6.304513850009849 5.346635628270873e-22 8.94749829384526e-14 8.70847711936114e-14 2.39021174484121e-15
6.32820103803542 4.796791638618091e-22 8.057504464615628e-14 7.821339194844197e-14 2.361652697714315e-15
6.3519772230701035 4.294816227083384e-22 7.241406883620442e-14 7.007803002461009e-14 2.3360388115943264e-15
6.375842739491607 3.871283516309805e-22 6.551820763550561e-14 6.320476266610005e-14 2.3134449694055526e-15
6.399797922933955 3.535320670221462e-22 6.005712063434667e-14 5.775529216091916e-14 2.3018284734275257e-15
6.42384311029221 3.2548702522893585e-22 5.550064621276041e-14 5.320824732171818e-14 2.292398891042218e-15
6.447978639727206 3.0516761084529495e-22 5.22313752292918e-14 4.9939844543683443e-14 2.2915306856083643e-15
6.472204850670314 2.8818125082755627e-22 4.950937110261553e-14 4.721700988126027e-14 2.292361221355259e-15
6.496522083828205 2.77173549745435e-22 4.779716477891019e-14 4.549703510851611e-14 2.3001296703940804e-15
