Dust emission spectrum from A.P. Jones, M. Kohler, N. Ysard, M. Bocchio, and L. Verstraete (2017), A&A, 602A, 46J 
inside the DustPedia framework.

lambda    nu*dP/dnu     j_nu    j_nu(carb.) j_nu(sil)
 (um)   (erg s-1 H-1) (Jy cm2 sr-1 H-1)
0.9927057738263894 2.070776861278373e-24 5.4566146472461446e-17 5.456614609792143e-17 3.7454001078858977e-25
1.0001793341362166 2.1052641225847593e-24 5.589254681841163e-17 5.589254636744499e-17 4.509666500784405e-25
1.0077091589558085 2.1397607485963434e-24 5.723607650578621e-17 5.72360759635088e-17 5.422774026511639e-25
1.0114953028030835 2.1570091256901844e-24 5.79142299086694e-17 5.791422931431407e-17 5.943553304615195e-25
1.0152956718711033 2.1742557234173186e-24 5.859662327785018e-17 5.85966226266297e-17 6.512204557713375e-25
1.0229392996569957 2.2087213122296208e-24 5.997361379041042e-17 5.997361300937869e-17 7.810317298302188e-25
1.0267826658714554 2.2258993932590192e-24 6.066713591403303e-17 6.066713505908432e-17 8.549487144579769e-25
1.0306404723013447 2.2430694455813472e-24 6.136480315469142e-17 6.136480221913818e-17 9.355532456431429e-25
1.03451277320114 2.2602301532140516e-24 6.206659990772371e-17 6.20665988843035e-17 1.023420225461421e-24
1.0383996230291617 2.2773802110750164e-24 6.277251041849979e-17 6.27725092993286e-17 1.1191711878881411e-24
1.0403485208654093 2.285950841569095e-24 6.312700337130624e-17 6.312700220109523e-17 1.1702110086158619e-24
1.0423010764483396 2.2945183253298845e-24 6.348251879296856e-17 6.348251756949073e-17 1.2234778372219493e-24
1.0462171883269815 2.3116432137344563e-24 6.419660900831197e-17 6.419660767124613e-17 1.3370658348851356e-24
1.0471985131304309 2.3159222201644083e-24 6.43757674607196e-17 6.437576609371605e-17 1.3670035460077234e-24
1.048180758391296 2.3202003007938903e-24 6.455517976661688e-17 6.455517836903401e-17 1.3975828536879698e-24
1.0501480137395462 2.32875360597209e-24 6.491476492370346e-17 6.491476346298463e-17 1.460718850477563e-24
1.0521189612883777 2.3373029723976893e-24 6.527536244531165e-17 6.527536091873008e-17 1.526581558411565e-24
1.0531058218030118 2.3415698558794037e-24 6.545586482610652e-17 6.545586326553404e-17 1.560572475251996e-24
1.0540936079674168 2.345815141036088e-24 6.563604406870346e-17 6.563604247340849e-17 1.595294966851209e-24
1.058054026499678 2.362784614536754e-24 6.6359241235197e-17 6.635923949346994e-17 1.7417270471216405e-24
1.0590464539527713 2.367023970501603e-24 6.654065926752964e-17 6.654065748723205e-17 1.7802975848012356e-24
1.06003981227728 2.3712620834340525e-24 6.672232427186244e-17 6.672232245217749e-17 1.8196849594845105e-24
1.0620293250338977 2.379734504488548e-24 6.708639414593636e-17 6.708639224496004e-17 1.9009763203984567e-24
1.0660195594769086 2.396663600366365e-24 6.781748598885064e-17 6.781748391474461e-17 2.0741060163499612e-24
1.070024785945596 2.4135707054502345e-24 6.855249989661425e-17 6.855249763435189e-17 2.2622623422310535e-24
1.0740450607676866 2.430454637127963e-24 6.92914189580368e-17 6.929141649135628e-17 2.4666805196448188e-24
1.07808044048254 2.447314227192432e-24 7.003422622954233e-17 7.00342235408511e-17 2.688691225712699e-24
1.0861967418109137 2.480927292906781e-24 7.153061609146494e-17 7.153061290013265e-17 3.1913322789150205e-24
1.0902777775684922 2.497613717552491e-24 7.228228352996712e-17 7.228228005480071e-17 3.47516640341121e-24
1.0943741465085532 2.5142701420229514e-24 7.303771802922689e-17 7.303771424621194e-17 3.783014920221302e-24
1.1026131145906286 2.5474886680181414e-24 7.455981943202063e-17 7.455981495343927e-17 4.478581351026831e-24
1.1109141095355224 2.5805743905101742e-24 7.609678326070504e-17 7.609677796551955e-17 5.2951855082556335e-24
1.1192775983109025 2.613489983955615e-24 7.764760859224783e-17 7.764760233962457e-17 6.252623272746091e-24
1.1277040513999907 2.6460937377963277e-24 7.920813701124879e-17 7.920812963754077e-17 7.373708021687272e-24
1.1361939428280308 2.678536659460609e-24 8.078291072881237e-17 8.078290204411931e-17 8.684693047713206e-24
1.1447477501889525 2.710811454004039e-24 8.237179760349889e-17 8.237178738774765e-17 1.0215751232744781e-23
1.1533659546722406 2.7429266629510867e-24 8.397514392033531e-17 8.39751319188049e-17 1.2001530420530669e-23
1.1707974979042381 2.8067793697797237e-24 8.722871895045431e-17 8.722870244845905e-17 1.650199524409413e-23
1.1884924949847024 2.8699050672516253e-24 9.05385234972138e-17 9.053850092008428e-17 2.2577129502405652e-23
1.2064549276569216 2.932772996489684e-24 9.39201945498125e-17 9.392016381262851e-17 3.0737184012511124e-23
1.2246888378427687 2.9947945961689166e-24 9.735589047394507e-17 9.73558488313448e-17 4.164260027739122e-23
1.2431983285522175 3.0558582638836083e-24 1.0084237318317358e-16 1.0084231703793208e-16 5.614524148305375e-23
1.2619875648066055 3.1159814716738336e-24 1.0438050055717648e-16 1.0438042521891294e-16 7.533826357920517e-23
1.3004222497298317 3.2326420636665873e-24 1.1158644565593676e-16 1.115863119062443e-16 1.3374969249881711e-22
1.3400274889804893 3.344633734600255e-24 1.1896842342607572e-16 1.1896819030981355e-16 2.3311626217677796e-22
1.3808389325824078 3.451886021565837e-24 1.2652283182671978e-16 1.2652243274953955e-16 3.990771802462328e-22
1.4228933163050095 3.555101544510368e-24 1.3427457376569035e-16 1.342739023994178e-16 6.71366272542129e-22
1.466228494730424 3.656477796058423e-24 1.4230954460939601e-16 1.4230843416502246e-16 1.1104443735561436e-21
1.5108834753276823 3.754945537541622e-24 1.5059274395243918e-16 1.5059093736251703e-16 1.8065899221057964e-21
1.5568984535646726 3.849696490770513e-24 1.5909488297076383e-16 1.5909198894572963e-16 2.894025034223126e-21
1.6043148490894465 3.9411867702723604e-24 1.6783636019309747e-16 1.678317869122653e-16 4.573280832124707e-21
1.6531753430134553 4.029940277706165e-24 1.7684262887426726e-16 1.7683550804823252e-16 7.12082603474558e-21
1.7035239163302658 4.116810273553269e-24 1.8615663538059836e-16 1.8614570808499678e-16 1.0927295601601155e-20
1.755405889504358 4.205140537343697e-24 1.9594198294307738e-16 1.9592544841611686e-16 1.653452696043242e-20
1.8088679632656115 4.294542584107681e-24 2.06202161591135e-16 2.061774829571794e-16 2.4678633955578154e-20
1.8639582606462262 4.384778379957854e-24 2.169468075802929e-16 2.1691046022441254e-16 3.6347355880370226e-20
1.9207263702978936 4.476466273135928e-24 2.282286959484033e-16 2.2817585018864134e-16 5.2845759761947136e-20
1.979223391128241 4.570677143664976e-24 2.401291001223063e-16 2.400532248649095e-16 7.587525739684603e-20
2.039501978296691 4.668561293183606e-24 2.527415409116935e-16 2.526339198414791e-16 1.076210702144021e-19
2.1016163906111602 4.773148644893579e-24 2.662734340317358e-16 2.6612257187099146e-16 1.5086216074435222e-19
2.1656225393682647 4.886176283984771e-24 2.808803304063791e-16 2.8067125730249586e-16 2.0907310388327807e-19
2.231578038680979 5.0076376548992084e-24 2.9662954684104514e-16 2.963430066996676e-16 2.8654014137757826e-19
2.299542257339062 5.138438801373008e-24 3.136476343496304e-16 3.1325914908705723e-16 3.884852625731472e-19
2.369576372248914 5.280537781775491e-24 3.3213779495163017e-16 3.3161659388358686e-16 5.212010680433151e-19
2.4417434235010123 5.43622067800158e-24 3.523437221506614e-16 3.516515599157103e-16 6.92162234951307e-19
2.5161083711144245 5.6095159207493734e-24 3.7464864020105967e-16 3.737384713636107e-16 9.101688374490187e-19
2.5927381535095444 5.807017551761207e-24 3.9965130032146206e-16 3.984658504070109e-16 1.1854499144511376e-18
2.6717017477616296 6.03606671013483e-24 4.2806669394045146e-16 4.2653700699005943e-16 1.5296869503919996e-18
2.753070231689431 6.3076515635401485e-24 4.6095063579782415e-16 4.589945614941634e-16 1.9560743036607445e-18
2.836916847834745 6.647553956404952e-24 5.0058509076492e-16 4.981056660369865e-16 2.479424727933738e-18
2.9233170693905177 7.112580761480728e-24 5.519154685587879e-16 5.487998885288685e-16 3.115580029919421e-18
2.967498994190263 7.447954686473151e-24 5.866742667397947e-16 5.831991422399978e-16 3.4751244997968834e-18
3.0123486681368425 7.82535384654772e-24 6.257180108693223e-16 6.218470022202146e-16 3.8710086491077105e-18
3.0578761833420214 8.562041600266705e-24 6.949709687456832e-16 6.906634698671095e-16 4.307498878573501e-18
3.1040917844459814 9.480102760040442e-24 7.811186953006205e-16 7.763347690659023e-16 4.7839262347182955e-18
3.127460860933648 1.040284463649035e-23 8.636015813019673e-16 8.585619972929735e-16 5.039584008993783e-18
3.1510058709225794 1.161314914833149e-23 9.713341305093949e-16 9.660276440349313e-16 5.30648647446376e-18
3.162844764501044 1.2725433765994554e-23 1.0683656218937362e-15 1.062920852896362e-15 5.444768997374321e-18
3.1747281389236908 1.4009035582686393e-23 1.1805495303751522e-15 1.1749635550346549e-15 5.585975340497574e-18
3.1986289994194426 1.7557896209327453e-23 1.490753304874431e-15 1.4848752555805589e-15 5.878049293871779e-18
3.2227097969389145 2.586688909760406e-23 2.2127626562665825e-15 2.206574681076828e-15 6.1879751897536764e-18
3.2348180950136065 3.371954966073642e-23 2.8953499493034248e-15 2.8889964687263407e-15 6.353480577084247e-18
3.240889293275058 3.9587650421092423e-23 3.4055977926675035e-15 3.399157010117162e-15 6.4407825503412986e-18
3.2469718861334385 4.637918622453751e-23 3.997339964204981e-15 3.9908088471757045e-15 6.5311170292770996e-18
3.2714166318528037 8.246226647159428e-23 7.160783732972064e-15 7.15387895095111e-15 6.904782020955171e-18
3.2744851364798273 8.472078745621977e-23 7.363807725666587e-15 7.356858806908926e-15 6.948918757661324e-18
3.2775565192852394 8.704309770140112e-23 7.572755951292978e-15 7.565762665718922e-15 6.993285574056733e-18
3.283707930232385 8.48245365537121e-23 7.393591473970316e-15 7.38651864146856e-15 7.072832501756283e-18
3.2898708863219004 7.776316613442983e-23 6.790820041611404e-15 6.783674628071255e-15 7.145413540150651e-18
3.29141343181113 7.609702044012253e-23 6.648436460976268e-15 6.641272816964512e-15 7.163644011753683e-18
3.292184975758714 7.527820112888601e-23 6.578439639787843e-15 6.571266867737842e-15 7.172772050002014e-18
3.295272960557952 7.012255840578824e-23 6.133644211330188e-15 6.126435897338658e-15 7.208313991530932e-18
3.3076538914384823 5.222771201773281e-23 4.5855400726576384e-15 4.578188907873265e-15 7.351164784374854e-18
3.310756385682612 4.857627168799721e-23 4.268947730961134e-15 4.261560539339832e-15 7.38719162130024e-18
3.313861789986515 4.520359210885423e-23 3.976278289983401e-15 3.968854945523244e-15 7.423344460156865e-18
3.3200813396944477 4.048032186713043e-23 3.567484655559131e-15 3.559983637014702e-15 7.501018544428859e-18
3.345076488085796 3.2111272037311256e-23 2.851234882255814e-15 2.8433879386822617e-15 7.846943573551877e-18
3.3482140837626964 3.243578733344985e-23 2.8827507659218144e-15 2.8748569699670857e-15 7.893795954728732e-18
3.3513546224236106 3.276372229791852e-23 2.914627473482438e-15 2.906686603379864e-15 7.940870102574301e-18
3.3576445397418455 3.511900931801097e-23 3.1300149115748914e-15 3.1219756538032462e-15 8.03925777164556e-18
3.3702598118196083 4.3757559970597465e-23 3.9145866568859544e-15 3.906341004991407e-15 8.245651894547596e-18
3.382922481734668 4.576113537128319e-23 4.109209376190181e-15 4.100762729051208e-15 8.446647138973616e-18
3.389271646505754 4.6797824254650773e-23 4.210187850480538e-15 4.201639250079022e-15 8.548600401515378e-18
3.395632727569191 4.7920605695863485e-23 4.319290782060336e-15 4.310637109893217e-15 8.653672167117273e-18
3.421196662673239 5.332308337498997e-23 4.842423037573664e-15 4.833333986794611e-15 9.089050779053312e-18
3.4276182099114902 5.227967486161346e-23 4.756579419301291e-15 4.747392787196494e-15 9.186632104796706e-18
3.4340518103208963 4.7636322880472637e-23 4.34224682695511e-15 4.332967696310963e-15 9.279130644146428e-18
3.4469541582030403 4.101389904744425e-23 3.752632183129425e-15 3.743175098212355e-15 9.457084917068771e-18
3.472904465399547 3.91895508550589e-23 3.6127054632503794e-15 3.602839042571383e-15 9.866420678995971e-18
3.4990501388274233 3.6389606635689196e-23 3.379846367563532e-15 3.3695601114469845e-15 1.0286256116546731e-17
3.5253949054701885 2.6348698796785117e-23 2.4656781040631825e-15 2.4549824597606354e-15 1.0695644302547138e-17
3.5519380250092896 1.6876169464898735e-23 1.5911410867911827e-15 1.580032734116304e-15 1.1108352674878745e-17
3.578680990867387 1.3151112380618237e-23 1.2492659656933896e-15 1.2377050674519935e-15 1.1560898241396368e-17
3.605625307711299 1.1679504939308729e-23 1.1178266543975373e-15 1.1057883761917656e-15 1.2038278205771614e-17
3.660119384959845 1.0678519352859823e-23 1.037470420867454e-15 1.024425814076243e-15 1.3044606791210645e-17
3.715437065384467 9.995229133879546e-24 9.85762055083344e-16 9.716516234606105e-16 1.4110431622733298e-17
3.8285932144167436 9.813098736766015e-24 9.972747584538721e-16 9.808561973013321e-16 1.641856115254017e-17
3.94519561050918 9.954548150055345e-24 1.0424603028443553e-15 1.0234983690081311e-15 1.8961933836223915e-17
4.06534921144712 1.0228510954598605e-23 1.1037728438005112e-15 1.0820285601467918e-15 2.1744283653719325e-17
4.189162171576248 1.0578770002807256e-23 1.1763370648447372e-15 1.151559565061045e-15 2.4777499783692558e-17
4.316745939156006 1.0983543055798658e-23 1.2585439288913325e-15 1.2304857452013646e-15 2.8058183689968074e-17
4.448215356677963 1.1434710256039032e-23 1.3501449695589025e-15 1.3185948577211732e-15 3.1550111837729614e-17
4.58368876423945 1.1932278824914545e-23 1.451803861466626e-15 1.4165389367749202e-15 3.52649246917058e-17
4.723288106065518 1.2482184954071567e-23 1.5649644752375083e-15 1.5257315108070703e-15 3.923296443043781e-17
4.867139040275056 1.309589962592598e-23 1.69191493382005e-15 1.6485500945109612e-15 4.336483930908901e-17
4.940699165968905 1.3443588248520323e-23 1.763084171187458e-15 1.7175777898980101e-15 4.550638128944844e-17
5.015371051989984 1.3797439589914107e-23 1.8368386253541515e-15 1.7891452181355394e-15 4.769340721861262e-17
5.091171501069577 1.4207760373587796e-23 1.9200510849089413e-15 1.8700804149675882e-15 4.997066994135352e-17
5.129500256944802 1.4415707391848435e-23 1.9628198774620604e-15 1.9116946668966268e-15 5.112521056543344e-17
5.168117569889187 1.462986815972404e-23 2.0069762368380463e-15 1.9546759894217385e-15 5.230024741630744e-17
5.20702561229733 1.488376917470208e-23 2.057178956162223e-15 2.003603156677135e-15 5.35757994850873e-17
5.246226572918644 1.5141734331530466e-23 2.10858978350333e-15 2.0537240602498143e-15 5.486572325351562e-17
5.265937586045735 1.527228068648659e-23 2.134759906963822e-15 2.0792439273658403e-15 5.551597959798112e-17
5.285722656980489 1.5403891587588814e-23 2.1612462777952604e-15 2.105076564158443e-15 5.616971363681782e-17
5.305582063971359 1.553658410011107e-23 2.1880538674862086e-15 2.131226981882236e-15 5.682688560397247e-17
5.3255160863122235 1.5677601121519865e-23 2.2162091550382506e-15 2.1587170865541647e-15 5.749206848408578e-17
5.365609099470188 1.6019942062352714e-23 2.2816519890021414e-15 2.222783574649554e-15 5.886841435258731e-17
5.406003951863644 1.637175677167191e-23 2.3493140489102162e-15 2.289053927292439e-15 6.026012161777666e-17
5.446702915881641 1.673350999101187e-23 2.4193024666231894e-15 2.3576355793577873e-15 6.166688726540182e-17
5.487708281020852 1.711979336960432e-23 2.4937847708736895e-15 2.430690998640416e-15 6.309377223327487e-17
5.529022354014368 1.7644714994459582e-23 2.5895984514259e-15 2.5250160006984035e-15 6.458245072749594e-17
5.570647458961463 1.8194736210093616e-23 2.6904248852148032e-15 2.6243371117160187e-15 6.608777349878459e-17
5.612585937458331 1.8771675705458827e-23 2.7966330109954834e-15 2.7290235660696075e-15 6.76094449258766e-17
5.654840148729818 1.9399418801408214e-23 2.9119135992054776e-15 2.842759707968248e-15 6.915389123723009e-17
5.67608639626678 1.982307516901196e-23 2.986685256757829e-15 2.916723869545529e-15 6.996138721230029e-17
5.686739436050992 2.0040582202583742e-23 3.0251234121731875e-15 2.954756532544489e-15 7.036687962869842e-17
5.6974124697621304 2.0261995623124385e-23 3.064286106012255e-15 2.993512576755187e-15 7.077352925706798e-17
5.718818669136295 2.0716917016973563e-23 3.144856879578882e-15 3.073266596886262e-15 7.159028269262023e-17
5.740305295436557 2.1216238072338195e-23 3.2327550877650365e-15 3.1603378707402036e-15 7.24172170248333e-17
5.7835210386641895 2.2504432085478158e-23 3.4548548863392713e-15 3.380726275505491e-15 7.412861083378086e-17
5.827062130521658 2.3974452498156233e-23 3.708239535286904e-15 3.632365553385598e-15 7.587398190130436e-17
5.8489554468988025 2.5004666892285395e-23 3.882118783424203e-15 3.8053047208045455e-15 7.68140626196583e-17
5.870931020387893 2.610405155342199e-23 4.0680317072053644e-15 3.990271034692928e-15 7.776067251243603e-17
5.892989160043636 2.727810694743735e-23 4.266967185906361e-15 4.188253395069971e-15 7.871379083638906e-17
5.915130176081913 2.860947285739349e-23 4.4920398007137664e-15 4.412338629108408e-15 7.970117160535866e-17
5.95966208400165 3.2328596239453085e-23 5.114202450735841e-15 5.032265566978004e-15 8.19368837578372e-17
6.004529249263818 3.766605029936146e-23 6.00341657268068e-15 5.918971059032214e-15 8.44455136484641e-17
6.027089341400364 4.137141189928405e-23 6.6187717522806195e-15 6.532883875351539e-15 8.58878769290811e-17
6.049734195844842 4.5734614001409314e-23 7.344305684234965e-15 7.256891237518313e-15 8.741444671665146e-17
6.095279466722835 5.832394364338159e-23 9.436478122535753e-15 9.345336028691223e-15 9.114209384452995e-17
6.141167624020661 7.763619059916331e-23 1.2655654273710593e-14 1.2559704573384308e-14 9.594970032628566e-17
6.164241091010745 8.996795422256816e-23 1.472098582131235e-14 1.4622033509712552e-14 9.895231159979711e-17
6.187401249150058 1.0395993097158696e-22 1.7074330994084575e-14 1.6972291112750883e-14 1.0203988133369338e-16
6.1990139391386085 1.1078729184912719e-22 1.82298037060362e-14 1.8126191870723928e-14 1.0361183531226833e-16
6.204828454712694 1.1437885057319143e-22 1.8838440159817068e-14 1.873403388774167e-14 1.0440627207540633e-16
6.210648424152782 1.16998921312638e-22 1.9288046125113507e-14 1.918295950749507e-14 1.0508661761843706e-16
6.233982942956859 1.2587826633770858e-22 2.0829833363486077e-14 2.072235982759383e-14 1.0747353589224557e-16
6.239830258556775 1.2700158482927902e-22 2.1035427826882777e-14 2.0927611899702476e-14 1.0781592718030614e-16
6.245683058788269 1.2708189624071475e-22 2.1068473071250844e-14 2.0960314035529377e-14 1.0815903572146897e-16
6.257405133728602 1.2679865446022893e-22 2.1060969160630877e-14 2.0952202985918586e-14 1.0876617471229268e-16
6.269149208991335 1.2500430864009242e-22 2.080190084600315e-14 2.069287986505077e-14 1.0902098095237849e-16
6.280915325867298 1.2056292934767546e-22 2.010046772485469e-14 1.9991628170481704e-14 1.088395543729817e-16
6.304513850009849 1.0963407482858432e-22 1.8347064690348196e-14 1.8238983360111624e-14 1.0808133023657208e-16
6.32820103803542 9.61330628952477e-23 1.6148139044429833e-14 1.6041236631193364e-14 1.0690241323647e-16
6.3519772230701035 8.376517381373019e-23 1.412348454952021e-14 1.401762766031967e-14 1.0585688920054455e-16
6.375842739491607 7.334759005293059e-23 1.241346084420255e-14 1.230851323088656e-14 1.049476133159925e-16
6.399797922933955 6.502615726938162e-23 1.104647678613723e-14 1.0941937083137847e-14 1.0453970299938353e-16
6.42384311029221 5.809663189048753e-23 9.906387544753879e-15 9.802156072699485e-15 1.0423147205439232e-16
6.447978639727206 5.305814607652002e-23 9.081238762583515e-15 8.976923055622638e-15 1.0431570696087345e-16
6.472204850670314 4.8855451563806975e-23 8.393338133249191e-15 8.288859642781783e-15 1.0447849046740987e-16
6.496522083828205 4.612964570081611e-23 7.954822091717167e-15 7.84986144729636e-15 1.0496064442080944e-16
