Dust emission spectrum from A.P. Jones, M. Kohler, N. Ysard, M. Bocchio, and L. Verstraete (2017), A&A, 602A, 46J 
inside the DustPedia framework.

lambda    nu*dP/dnu     j_nu    j_nu(carb.) j_nu(sil)
 (um)   (erg s-1 H-1) (Jy cm2 sr-1 H-1)
0.9927057738263894 1.749706746043479e-25 4.6105766571837215e-18 4.610576657183123e-18 5.986674668252646e-31
1.0001793341362166 1.7784587841039512e-25 4.7216209020416395e-18 4.7216209020409185e-18 7.214490679845304e-31
1.0077091589558085 1.807165057101157e-25 4.833953400382608e-18 4.833953400381738e-18 8.683174740350384e-31
1.0114953028030835 1.8214974840882858e-25 4.890597022291119e-18 4.890597022290165e-18 9.5215793212369e-31
1.0152956718711033 1.8358142243439272e-25 4.947555770621409e-18 4.947555770620365e-18 1.0437626510569759e-30
1.0229392996569957 1.8643809136073154e-25 5.0623707143037414e-18 5.062370714302489e-18 1.2530799988937055e-30
1.0267826658714554 1.878596042177625e-25 5.120134439296842e-18 5.120134439295468e-18 1.3723821524521488e-30
1.0306404723013447 1.892789180992133e-25 5.178200600686641e-18 5.178200600685138e-18 1.5025641073205111e-30
1.03451277320114 1.906958956434659e-25 5.2365666576553885e-18 5.2365666576537445e-18 1.6445705707526687e-30
1.0383996230291617 1.9211040027359553e-25 5.295230038458963e-18 5.2952300384571634e-18 1.7994238303367258e-30
1.0403485208654093 1.9281668278658894e-25 5.324672413321962e-18 5.324672413320082e-18 1.8820101491931236e-30
1.0423010764483396 1.9352229622352904e-25 5.354188141034938e-18 5.354188141032969e-18 1.9682297310338203e-30
1.0462171883269815 1.9493144856361912e-25 5.4134383336113044e-18 5.413438333609152e-18 2.1521840798246496e-30
1.0471985131304309 1.9528329222920376e-25 5.428296209627677e-18 5.4282962096254785e-18 2.2006888617750667e-30
1.048180758391296 1.9563495394933028e-25 5.443172133247095e-18 5.443172133244843e-18 2.25024188937881e-30
1.0501480137395462 1.9633772322563304e-25 5.472977955315669e-18 5.472977955313316e-18 2.352579505976784e-30
1.0521189612883777 1.9703973977259838e-25 5.502855462761041e-18 5.50285546275858e-18 2.459374841794191e-30
1.0531058218030118 1.973899181582525e-25 5.517805829521334e-18 5.517805829518816e-18 2.5145051615531747e-30
1.0540936079674168 1.977381249906597e-25 5.5327242368370684e-18 5.532724236834496e-18 2.5708316924727722e-30
1.058054026499678 1.991288942570644e-25 5.5925716841072745e-18 5.592571684104464e-18 2.8084806322116444e-30
1.0590464539527713 1.9947606186384572e-25 5.607576784149778e-18 5.607576784146908e-18 2.8711059236796316e-30
1.06003981227728 1.9982301552241253e-25 5.622599092614643e-18 5.622599092611709e-18 2.9350691121132662e-30
1.0620293250338977 2.0051627289709127e-25 5.65269516026935e-18 5.652695160266282e-18 3.0671186207888615e-30
1.0660195594769086 2.01900131410065e-25 5.713091871114539e-18 5.71309187111119e-18 3.348506158001703e-30
1.070024785945596 2.0328034129781875e-25 5.773758997129889e-18 5.773758997126236e-18 3.654543009706083e-30
1.0740450607676866 2.0465677508577846e-25 5.834693694109364e-18 5.834693694105376e-18 3.987278509659351e-30
1.07808044048254 2.060293063434588e-25 5.895893093763687e-18 5.895893093759337e-18 4.3489225660756235e-30
1.0861967418109137 2.0875971966136097e-25 6.0190040252903695e-18 6.019004025285199e-18 5.1686509148702864e-30
1.0902777775684922 2.1011180328973874e-25 6.080748528745375e-18 6.08074852873974e-18 5.6320696225483606e-30
1.0943741465085532 2.11459393076655e-25 6.142741493059178e-18 6.142741493053045e-18 6.135090007561233e-30
1.1026131145906286 2.1414061146728114e-25 6.267460783833118e-18 6.267460783825844e-18 7.27300306918313e-30
1.1109141095355224 2.1680242735769285e-25 6.393137661794547e-18 6.393137661785935e-18 8.611070144234841e-30
1.1192775983109025 2.194414240260205e-25 6.519673657179511e-18 6.51967365716933e-18 1.0182458245480029e-29
1.1277040513999907 2.220452634338805e-25 6.646700151830898e-18 6.646700151818871e-18 1.2025472687106496e-29
1.1361939428280308 2.24626623294806e-25 6.774591787962696e-18 6.774591787948513e-18 1.4184286658968626e-29
1.1447477501889525 2.271846426596557e-25 6.903323127155598e-18 6.903323127138888e-18 1.6709780300139226e-29
1.1533659546722406 2.2971988723579914e-25 7.032911543918092e-18 7.03291154389843e-18 1.9660508581614531e-29
1.1707974979042381 2.347303417332271e-25 7.294918591979913e-18 7.294918591952795e-18 2.711688137995431e-29
1.1884924949847024 2.3963889074654685e-25 7.560024053854946e-18 7.560024053817728e-18 3.721814811382513e-29
1.2064549276569216 2.444843011367462e-25 7.829454633761974e-18 7.82945463371114e-18 5.083569622053034e-29
1.2246888378427687 2.4921323430955213e-25 8.101516002177897e-18 8.101516002108796e-18 6.910273369094846e-29
1.2431983285522175 2.538146089438118e-25 8.375803229147411e-18 8.375803229053922e-18 9.348802324230565e-29
1.2619875648066055 2.582867409779256e-25 8.652201418924142e-18 8.652201418798255e-18 1.2588550899024546e-28
1.3004222497298317 2.6676854007352184e-25 9.208490334950319e-18 9.208490334725216e-18 2.25101566159832e-28
1.3400274889804893 2.7462573301143676e-25 9.768421023387752e-18 9.768421022992477e-18 3.9527637261544843e-28
1.3808389325824078 2.8182951602798403e-25 1.0329966933276496e-17 1.0329966932594563e-17 6.819324857335697e-28
1.4228933163050095 2.884160842053163e-25 1.0893344757940533e-17 1.0893344756784122e-17 1.1564110410480407e-27
1.466228494730424 2.9454680038037795e-25 1.146371545684521e-17 1.1463715454916665e-17 1.928544342643415e-27
1.5108834753276823 3.0010119167171e-25 1.2035610494320982e-17 1.2035610491156627e-17 3.164355738990712e-27
1.5568984535646726 3.049820341009766e-25 1.2603871796077337e-17 1.2603871790963731e-17 5.113609860119913e-27
1.6043148490894465 3.0919909697552607e-25 1.3167315845774703e-17 1.3167315837621225e-17 8.153473786524857e-27
1.6531753430134553 3.1276613040837454e-25 1.372486461653755e-17 1.3724864603724647e-17 1.2812901938533817e-26
1.7035239163302658 3.1572726401993233e-25 1.427676314000822e-17 1.427676312015862e-17 1.9849587805284762e-26
1.755405889504358 3.183343639662301e-25 1.4833051585445352e-17 1.4833051555115095e-17 3.033025950768466e-26
1.8088679632656115 3.2052576622518077e-25 1.5390022230975247e-17 1.5390022185247443e-17 4.5727799093067277e-26
1.8639582606462262 3.2225992901118947e-25 1.5944537386334536e-17 1.5944537318282448e-17 6.805208838014664e-26
1.9207263702978936 3.2356772085905813e-25 1.6496815674861984e-17 1.6496815574855154e-17 1.0000683129392176e-25
1.979223391128241 3.245204328787544e-25 1.7049289868676078e-17 1.7049289723492052e-17 1.4518401945945787e-25
2.039501978296691 3.252032491788953e-25 1.7605503097275274e-17 1.760550288898383e-17 2.082914447961842e-25
2.1016163906111602 3.258539071966885e-25 1.817798801525807e-17 1.8177987719814297e-17 2.9544377709455654e-25
2.1656225393682647 3.266103029393409e-25 1.877509211127258e-17 1.8775091696807975e-17 4.144646080508149e-25
2.231578038680979 3.2748253516029323e-25 1.9398567288093775e-17 1.9398566712847494e-17 5.752462824910975e-25
2.299542257339062 3.28553238634973e-25 2.0054718960209e-17 2.0054718170045352e-17 7.901636541198519e-25
2.369576372248914 3.3000487761974617e-25 2.0756804875857085e-17 2.075680380130145e-17 1.0745556268264942e-24
2.4417434235010123 3.3205290370800418e-25 2.152170836567709e-17 2.1521706918464557e-17 1.4472125222837183e-24
2.5161083711144245 3.3506608057188813e-25 2.2378410764361784e-17 2.2378408833368872e-17 1.9309929102421913e-24
2.5927381535095444 3.3964791828962475e-25 2.337529221945567e-17 2.3375289666019445e-17 2.5534362240256306e-24
2.6717017477616296 3.465194173080328e-25 2.4574516564597068e-17 2.4574513217320335e-17 3.347276732369365e-24
2.753070231689431 3.56766047839953e-25 2.6071753476916122e-17 2.6071749125776435e-17 4.351139685878397e-24
2.836916847834745 3.7284673354405583e-25 2.8076720727136795e-17 2.807671511670202e-17 5.6104347673183484e-24
2.9233170693905177 4.001770762861471e-25 3.1052570926305275e-17 3.105256374922037e-17 7.177084896129847e-24
2.967498994190263 4.23407044631893e-25 3.3351709012545805e-17 3.3351700929668895e-17 8.082876905997379e-24
3.0123486681368425 4.505434021852148e-25 3.6025606886773576e-17 3.602559779534381e-17 9.091429788240735e-24
3.0578761833420214 5.112896816695598e-25 4.150078941084537e-17 4.1500779195322086e-17 1.0215523286361448e-23
3.1040917844459814 5.895916518016477e-25 4.857975419387502e-17 4.8579742734902275e-17 1.1458972756259426e-23
3.127460860933648 6.72428655852582e-25 5.582227465649845e-17 5.582226252361398e-17 1.2132884468015766e-23
3.1510058709225794 7.828128292822397e-25 6.547516174729485e-17 6.547514890589551e-17 1.2841399358959093e-23
3.162844764501044 8.85551921624069e-25 7.43466389329126e-17 7.434662572244743e-17 1.3210465216137428e-23
3.1747281389236908 1.0050452411772718e-24 8.469574372014578e-17 8.469573013144784e-17 1.3588697973795963e-23
3.1986289994194426 1.3383875871284143e-24 1.1363580778286328e-16 1.136357934075345e-16 1.4375328781805501e-23
3.2227097969389145 2.124141786658888e-24 1.8170803626206162e-16 1.8170802104605866e-16 1.5216003068640535e-23
3.2348180950136065 2.8692963468298667e-24 2.4637390225895796e-16 2.4637388659210865e-16 1.566684931788234e-23
3.240889293275058 3.4263859076056396e-24 2.947609206317429e-16 2.9476090472675166e-16 1.590499116575202e-23
3.2469718861334385 4.070840887609319e-24 3.508585702469961e-16 3.5085855409535355e-16 1.6151642539290996e-23
3.2714166318528037 7.508575718023772e-24 6.520229089014285e-16 6.520228917243143e-16 1.7177114406037566e-23
3.2744851364798273 7.723448508625866e-24 6.713109203098164e-16 6.713109030105578e-16 1.7299258704565544e-23
3.2775565192852394 7.944493323669183e-24 6.911715079719036e-16 6.911714905497382e-16 1.742216509161318e-23
3.283707930232385 7.731801486687437e-24 6.73929783444264e-16 6.739297658001327e-16 1.7644131346412523e-23
3.2898708863219004 7.057480315315321e-24 6.163082234289566e-16 6.163082055807874e-16 1.7848169385121403e-23
3.29141343181113 6.89846122507655e-24 6.027040331956009e-16 6.027040152961215e-16 1.789947933274438e-23
3.292184975758714 6.820325268992514e-24 5.960171395297925e-16 5.960171216046129e-16 1.792517951648421e-23
3.295272960557952 6.327120440144181e-24 5.534353928945617e-16 5.534353748690633e-16 1.8025498524510797e-23
3.3076538914384823 4.618601692782409e-24 4.055085379713233e-16 4.055085195415307e-16 1.8429792655700813e-23
3.310756385682612 4.27089671767887e-24 3.753321162482216e-16 3.753320977162179e-16 1.853200366261529e-23
3.313861789986515 3.9500928719007226e-24 3.4746505304565135e-16 3.474650344109789e-16 1.863467260030386e-23
3.3200813396944477 3.500190976513045e-24 3.0846784373955337e-16 3.084678248848094e-16 1.8854743987694978e-23
3.345076488085796 2.6975327878688248e-24 2.3952023986666003e-16 2.395202200314472e-16 1.9835212861954932e-23
3.3482140837626964 2.727608588713067e-24 2.424179091881845e-16 2.424178892199633e-16 1.9968221318489845e-23
3.3513546224236106 2.758016932061504e-24 2.4535038630292933e-16 2.453503662009307e-16 2.0101998577762758e-23
3.3576445397418455 2.9803294622384986e-24 2.656246813154925e-16 2.656246609338876e-16 2.038160493936108e-23
3.3702598118196083 3.8003856056092214e-24 3.399855657567685e-16 3.399855447875233e-16 2.096924510333441e-23
3.382922481734668 3.987056501137612e-24 3.5802542539528075e-16 3.5802540385038917e-16 2.154489180797964e-23
3.389271646505754 4.0837644792730906e-24 3.673977555302876e-16 3.673977336924637e-16 2.1837824000736617e-23
3.395632727569191 4.187960496832763e-24 3.774789343107994e-16 3.77478912170881e-16 2.213991847528566e-23
3.421196662673239 4.6882305648919555e-24 4.2575174307226686e-16 4.257517196748314e-16 2.3397435501505998e-23
3.4276182099114902 4.587282728951208e-24 4.1736630300022823e-16 4.1736627931690473e-16 2.3683323379038165e-23
3.4340518103208963 4.145168859040412e-24 3.778491965159587e-16 3.77849172559815e-16 2.395614379157426e-23
3.4469541582030403 3.515538542376934e-24 3.2165981244296424e-16 3.2165978795798264e-16 2.4484981567738857e-23
3.472904465399547 3.3389935021282375e-24 3.0780654035842403e-16 3.078065146584019e-16 2.5700022098460865e-23
3.4990501388274233 3.069032725059497e-24 2.8505004771205026e-16 2.850500207541154e-16 2.695793482871285e-23
3.5253949054701885 2.1085910400253415e-24 1.9731929830434955e-16 1.9731927010408978e-16 2.820025986127234e-23
3.5519380250092896 1.2060431414031272e-24 1.1370973719602544e-16 1.1370970772898897e-16 2.9467036436792904e-23
3.578680990867387 8.481832629030073e-25 8.057162408383917e-17 8.057159322091696e-17 3.086292222554982e-23
3.605625307711299 7.0341547507241615e-25 6.732276506902969e-17 6.732273272164904e-17 3.2347380654656977e-23
3.660119384959845 5.977512870421255e-25 5.807446321437562e-17 5.80744276903901e-17 3.552398550285708e-23
3.715437065384467 5.229296672354143e-25 5.157302714459646e-17 5.1572988186214463e-17 3.89583819801287e-23
3.8285932144167436 4.848296657486702e-25 4.927173370723881e-17 4.9271687055539017e-17 4.665169979704257e-23
3.94519561050918 4.773791132020213e-25 4.999210083858824e-17 4.999204530061831e-17 5.553796992813889e-23
4.06534921144712 4.825141052974775e-25 5.2068768224627303e-17 5.206870245881418e-17 6.576581312624753e-23
4.189162171576248 4.949372838497808e-25 5.5035989213450874e-17 5.5035911680246876e-17 7.753320399624512e-23
4.316745939156006 5.126740003752669e-25 5.874450051270893e-17 5.874440949179256e-17 9.102091637321206e-23
4.448215356677963 5.350601983390902e-25 6.317683780550404e-17 6.317673147966217e-17 1.0632584183422447e-22
4.58368876423945 5.621736489166603e-25 6.839983261268081e-17 6.839970887192796e-17 1.2374075283934067e-22
4.723288106065518 5.946401852828756e-25 7.455351518507988e-17 7.455337150640522e-17 1.4367867467467635e-22
4.867139040275056 6.337146347095403e-25 8.18722871182343e-17 8.187212094604478e-17 1.6617218951208477e-22
4.940699165968905 6.573060525507719e-25 8.620361435166175e-17 8.62034357966137e-17 1.785550480344166e-22
5.015371051989984 6.817396866421488e-25 9.075928767077361e-17 9.075909592528899e-17 1.9174548455946897e-22
5.091171501069577 7.115750275983161e-25 9.616296782947805e-17 9.616276183424636e-17 2.0599523174568797e-22
5.129500256944802 7.2688894558788415e-25 9.897204710981537e-17 9.897183364471957e-17 2.134650958359138e-22
5.168117569889187 7.428563370870244e-25 1.0190761800729268e-16 1.0190739679628631e-16 2.212110063536418e-22
5.20702561229733 7.6246505960765235e-25 1.0538507128287502e-16 1.0538484175504602e-16 2.2952782898050046e-22
5.246226572918644 7.825756444125366e-25 1.0897899622968888e-16 1.0897875810443236e-16 2.3812525651908424e-22
5.265937586045735 7.9282415765366815e-25 1.1082098736758971e-16 1.1082074483552792e-16 2.425320618084986e-22
5.285722656980489 8.032042509982874e-25 1.1269374287066795e-16 1.1269349585817037e-16 2.4701249755239612e-22
5.305582063971359 8.1371805562469725e-25 1.1459783741268123e-16 1.1459758584491366e-16 2.5156776759426867e-22
5.3255160863122235 8.250157001743128e-25 1.1662545395844014e-16 1.1662519774068418e-16 2.562177559576203e-22
5.365609099470188 8.531694338476313e-25 1.2151328189063328e-16 1.2151301599172884e-16 2.6589890445258347e-22
5.406003951863644 8.82397949394207e-25 1.2662232454053704e-16 1.2662204862674554e-16 2.7591379152869045e-22
5.446702915881641 9.127533033152304e-25 1.3196432304490295e-16 1.319640367711057e-16 2.8627379719780364e-22
5.487708281020852 9.455592708450044e-25 1.3773655199473957e-16 1.377362549783527e-16 2.970163868553848e-22
5.529022354014368 9.911836841263382e-25 1.4546949238330829e-16 1.454691840247186e-16 3.083585897118419e-22
5.570647458961463 1.0395044338386036e-24 1.5370976335117279e-16 1.5370944324790686e-16 3.201032659360116e-22
5.612585937458331 1.0907159188728876e-24 1.62496528930081e-16 1.624961966652934e-16 3.322647875449265e-22
5.654840148729818 1.1470193339190455e-24 1.7217119910561566e-16 1.7217085421083439e-16 3.448947812969477e-22
5.67608639626678 1.185378287442254e-24 1.7859750944792914e-16 1.7859715790947403e-16 3.51538455063919e-22
5.686739436050992 1.2051517048275362e-24 1.8191750123028776e-16 1.8191714632466579e-16 3.5490562198094796e-22
5.6974124697621304 1.2253337306483977e-24 1.8531112116956744e-16 1.8531076286618485e-16 3.5830338262019916e-22
5.718818669136295 1.2669630114401349e-24 1.9232675110080405e-16 1.9232638590898092e-16 3.651918231592418e-22
5.740305295436557 1.3128565824873228e-24 2.0004224038545465e-16 2.0004186814081792e-16 3.7224463676175675e-22
5.7835210386641895 1.43194144511431e-24 2.1983002636166174e-16 2.1982963931275444e-16 3.870489073343106e-22
5.827062130521658 1.5691509752043519e-24 2.427078442577269e-16 2.4270744174615497e-16 4.025115719236373e-22
5.8489554468988025 1.6654213499251517e-24 2.5856627215677333e-16 2.5856586128980344e-16 4.1086696990336254e-22
5.870931020387893 1.7687404383239742e-24 2.756389049490291e-16 2.7563848555511097e-16 4.19393918175387e-22
5.892989160043636 1.8796759318505698e-24 2.9402757078411676e-16 2.940271426879404e-16 4.280961762774917e-22
5.915130176081913 2.0058525016908826e-24 3.1494356141651833e-16 3.1494312426415624e-16 4.371523621396506e-22
5.95966208400165 2.3586788726384624e-24 3.7312975737020556e-16 3.731292999679775e-16 4.57402228121007e-22
6.004529249263818 2.867288253242949e-24 4.570037389469309e-16 4.570032586312307e-16 4.8031570037423505e-22
6.027089341400364 3.2208579085385817e-24 5.152863381854687e-16 5.152858447276069e-16 4.934578616916804e-22
6.049734195844842 3.63871028263779e-24 5.84323300755035e-16 5.843227932861915e-16 5.074688433426364e-22
6.095279466722835 4.84575931708217e-24 7.840159448461548e-16 7.840154034314039e-16 5.414147507872933e-22
6.141167624020661 6.703461043727875e-24 1.0927466269528874e-15 1.0927460418459548e-15 5.851069325270105e-22
6.164241091010745 7.88976796916594e-24 1.2909614696829632e-15 1.2909608575441565e-15 6.121388064699944e-22
6.187401249150058 9.241203282866344e-24 1.5177709542574194e-15 1.5177703136901215e-15 6.405672969608271e-22
6.1990139391386085 9.90106771905743e-24 1.6291987825137044e-15 1.6291981273858748e-15 6.551278296172165e-22
6.204828454712694 1.0248665107634504e-23 1.687976958857725e-15 1.687976296302798e-15 6.625549270460633e-22
6.210648424152782 1.050239435308287e-23 1.731389182342084e-15 1.7313885133174553e-15 6.690246284211168e-22
6.233982942956859 1.136440328542624e-23 1.8805361211109243e-15 1.880535428669334e-15 6.924415892272679e-22
6.239830258556775 1.1474581549726897e-23 1.9005489762779297e-15 1.9005482800249e-15 6.962530293114021e-22
6.245683058788269 1.1484108268648608e-23 1.9039110444736594e-15 1.90391034438795e-15 7.000857087415866e-22
6.257405133728602 1.1460364276588741e-23 1.9035405353969048e-15 1.9035398282652584e-15 7.071316459749204e-22
6.269149208991335 1.1290746021746689e-23 1.8788870701889552e-15 1.8788863589152886e-15 7.112736670376599e-22
6.280915325867298 1.0865484587956705e-23 1.8115130700359077e-15 1.8115123582447037e-15 7.117912035218028e-22
6.304513850009849 9.816819618966796e-24 1.6428270579586635e-15 1.6428263484495173e-15 7.095091464850952e-22
6.32820103803542 8.51702711333246e-24 1.430664268141927e-15 1.4306635646130594e-15 7.035288671834946e-22
6.3519772230701035 7.325045067237232e-24 1.2350617341488363e-15 1.2350610355856395e-15 6.985631963314923e-22
6.375842739491607 6.322292367810409e-24 1.069994647360325e-15 1.0699939525450553e-15 6.948152697154778e-22
6.399797922933955 5.518600096343872e-24 9.374856275713154e-16 9.374849324055003e-16 6.951658152837759e-22
6.42384311029221 4.850439059356928e-24 8.270759856574185e-16 8.270752891874884e-16 6.964699301736264e-22
6.447978639727206 4.3635257195693475e-24 7.468451470003244e-16 7.468444458088494e-16 7.011914749103244e-22
6.472204850670314 3.957927057755148e-24 6.799695640738936e-16 6.799688573679816e-16 7.067059119850768e-22
6.496522083828205 3.6943147898237604e-24 6.370657406399199e-16 6.370650255208181e-16 7.15119101916267e-22
6.520930681187647 3.472262067340569e-24 6.010235820946974e-16 6.010228579849311e-16 7.241097663841941e-22
6.57002334288761 3.2451552620449456e-24 5.659418703797354e-16 5.659411238072647e-16 7.46572470562532e-22
