Dust emission spectrum from A.P. Jones, M. Kohler, N. Ysard, M. Bocchio, and L. Verstraete (2017), A&A, 602A, 46J 
inside the DustPedia framework.

lambda    nu*dP/dnu     j_nu    j_nu(carb.) j_nu(sil)
 (um)   (erg s-1 H-1) (Jy cm2 sr-1 H-1)
0.9927057738263894 1.0283653176610445e-23 2.709801022020815e-16 2.7098010220207884e-16 2.6775148656422815e-30
1.0001793341362166 1.0453580646640238e-23 2.775315645407138e-16 2.7753156454071055e-16 3.226344551523718e-30
1.0077091589558085 1.0623266679119463e-23 2.8415985515498104e-16 2.8415985515497714e-16 3.882749757887128e-30
1.0114953028030835 1.0707998259472956e-23 2.8750248001955885e-16 2.8750248001955457e-16 4.257421502788032e-30
1.0152956718711033 1.0792644470291564e-23 2.908639105263445e-16 2.908639105263398e-16 4.66676038670275e-30
1.0229392996569957 1.0961564678817822e-23 2.976403781436776e-16 2.9764037814367196e-16 5.601994699974894e-30
1.0267826658714554 1.1045633849939588e-23 3.0104998099208837e-16 3.0104998099208226e-16 6.134979212660237e-30
1.0306404723013447 1.1129580483306736e-23 3.044776508804907e-16 3.04477650880484e-16 6.716523478108805e-30
1.03451277320114 1.1213396478120617e-23 3.0792324039412954e-16 3.0792324039412225e-16 7.350838868441188e-30
1.0383996230291617 1.1297073778463249e-23 3.113866002736536e-16 3.1138660027364563e-16 8.042482071202823e-30
1.0403485208654093 1.1338857913386395e-23 3.131248969613811e-16 3.131248969613727e-16 8.411326485683123e-30
1.0423010764483396 1.1380604374842147e-23 3.1486757945042217e-16 3.148675794504133e-16 8.796381643170374e-30
1.0462171883269815 1.1463980305701209e-23 3.183660250818574e-16 3.183660250818478e-16 9.617866459332284e-30
1.0471985131304309 1.1484799193617733e-23 3.1924334754597627e-16 3.192433475459664e-16 9.834462895994445e-30
1.048180758391296 1.1505607797046209e-23 3.201217495784158e-16 3.2012174957840576e-16 1.0055735523904725e-29
1.0501480137395462 1.1547193658897275e-23 3.218817825868262e-16 3.2188178258681576e-16 1.0512696180814378e-29
1.0521189612883777 1.1588736910193971e-23 3.2364610451860656e-16 3.236461045185955e-16 1.0989541048992419e-29
1.0531058218030118 1.1609460361932961e-23 3.245289762535542e-16 3.24528976253543e-16 1.123569195145672e-29
1.0540936079674168 1.1630068315234958e-23 3.254099878149989e-16 3.2540998781498747e-16 1.1487178596475856e-29
1.058054026499678 1.1712383187157832e-23 3.2894443978257166e-16 3.289444397825592e-16 1.2548174858005147e-29
1.0590464539527713 1.1732932067804025e-23 3.2983064162521997e-16 3.298306416252072e-16 1.282775359609114e-29
1.06003981227728 1.1753468773477817e-23 3.3071787395490836e-16 3.307178739548953e-16 1.311329881235769e-29
1.0620293250338977 1.1794505181602572e-23 3.3249541992052356e-16 3.3249541992050976e-16 1.3702776094459084e-29
1.0660195594769086 1.1876426649384668e-23 3.3606276565853273e-16 3.360627656585178e-16 1.4958822934944886e-29
1.070024785945596 1.1958139999077353e-23 3.3964631290862825e-16 3.3964631290861183e-16 1.632477520657502e-29
1.0740450607676866 1.2039637698260099e-23 3.4324589610071025e-16 3.432458961006925e-16 1.7809757642525747e-29
1.07808044048254 1.212091227473296e-23 3.468613482180102e-16 3.4686134821799076e-16 1.942360870857848e-29
1.0861967418109137 1.2282618879116462e-23 3.54135043840993e-16 3.5413504384096994e-16 2.3081158839451937e-29
1.0902777775684922 1.2362709724986275e-23 3.5778346477685835e-16 3.5778346477683316e-16 2.5148598920344547e-29
1.0943741465085532 1.2442542473653705e-23 3.6144680460875587e-16 3.6144680460872836e-16 2.739249747665505e-29
1.1026131145906286 1.2601405296756126e-23 3.6881753992130185e-16 3.688175399212694e-16 3.24678059706849e-29
1.1109141095355224 1.2759151268499577e-23 3.7624583590384745e-16 3.7624583590380894e-16 3.843465961037876e-29
1.1192775983109025 1.2915578997522785e-23 3.837259101425879e-16 3.8372591014254245e-16 4.544055350825316e-29
1.1277040513999907 1.3069962042288473e-23 3.91236081091958e-16 3.9123608109190437e-16 5.365578660104059e-29
1.1361939428280308 1.3223045920697608e-23 3.9879840150846e-16 3.987984015083968e-16 6.32766934015321e-29
1.1447477501889525 1.3374779569222018e-23 4.064113843255609e-16 4.064113843254863e-16 7.452935543577554e-29
1.1533659546722406 1.352519577882024e-23 4.1407605876533613e-16 4.1407605876524837e-16 8.767388394537177e-29
1.1707974979042381 1.38225614235002e-23 4.295757402836107e-16 4.2957574028348984e-16 1.2087839921570201e-28
1.1884924949847024 1.4114016608041406e-23 4.452628900129341e-16 4.452628900127682e-16 1.6584094017282805e-28
1.2064549276569216 1.4401839514707783e-23 4.612097733835944e-16 4.612097733833679e-16 2.264271997048739e-28
1.2246888378427687 1.4682887314087913e-23 4.773167318454029e-16 4.773167318450954e-16 3.076613370274713e-28
1.2431983285522175 1.495650233003274e-23 4.935599295640671e-16 4.935599295636511e-16 4.160511591230785e-28
1.2619875648066055 1.5222581913679364e-23 5.099326598591525e-16 5.099326598585925e-16 5.599831317538617e-28
1.3004222497298317 1.5727711763087454e-23 5.428994053097877e-16 5.428994053087873e-16 1.0004171955654859e-27
1.3400274889804893 1.619629752047585e-23 5.761013415063711e-16 5.761013415046161e-16 1.755050298155469e-27
1.3808389325824078 1.662659874548209e-23 6.094188347420376e-16 6.094188347390129e-16 3.0248177955553997e-27
1.4228933163050095 1.702070470166827e-23 6.42864300891005e-16 6.428643008858807e-16 5.1241568515982824e-27
1.466228494730424 1.7388090913077022e-23 6.767417819777814e-16 6.76741781969245e-16 8.53641200913962e-27
1.5108834753276823 1.7721615899367513e-23 7.107284883029664e-16 7.107284882889754e-16 1.3991030101935357e-26
1.5568984535646726 1.8015500044977644e-23 7.445194389186371e-16 7.445194388960535e-16 2.2583673630844552e-26
1.6043148490894465 1.8270275726747546e-23 7.780439640239882e-16 7.780439639880214e-16 3.5966533964257865e-26
1.6531753430134553 1.8486712893577486e-23 8.11237557397476e-16 8.112375573410244e-16 5.645155336840801e-26
1.7035239163302658 1.8667376810160385e-23 8.4411372578554655e-16 8.441137256982022e-16 8.734449161658117e-26
1.755405889504358 1.882710860702261e-23 8.772646147695625e-16 8.772646146362718e-16 1.332904383699388e-25
1.8088679632656115 1.896223969868789e-23 9.104706119222486e-16 9.104706117215592e-16 2.0068986477047925e-25
1.8639582606462262 1.90702839979018e-23 9.435453458503204e-16 9.435453455520618e-16 2.982585514397438e-25
1.9207263702978936 1.9153038748970803e-23 9.765008357953306e-16 9.765008353576349e-16 4.376957457316168e-25
1.979223391128241 1.92146917051738e-23 1.0094798830160223e-15 1.0094798823815115e-15 6.345108505352935e-25
2.039501978296691 1.9260255557911464e-23 1.0426909624528106e-15 1.0426909615438237e-15 9.08986882528131e-25
2.1016163906111602 1.9303776314161013e-23 1.0768746568266027e-15 1.0768746555391886e-15 1.2874138725540908e-24
2.1656225393682647 1.9353397770752742e-23 1.112524076986833e-15 1.112524075183471e-15 1.8033621159986945e-24
2.231578038680979 1.9409701067635726e-23 1.1497419000314671e-15 1.1497418975322645e-15 2.4992022893902765e-24
2.299542257339062 1.9477561742799088e-23 1.188900247657991e-15 1.1889002442301315e-15 3.427859327889017e-24
2.369576372248914 1.9567763224253264e-23 1.2307825448895543e-15 1.2307825402346863e-15 4.654867709218759e-24
2.4417434235010123 1.9693039160030922e-23 1.2763865061958426e-15 1.2763864999353693e-15 6.2604729680677404e-24
2.5161083711144245 1.9875198451619845e-23 1.3274257848315089e-15 1.3274257764891723e-15 8.342336803655232e-24
2.5927381535095444 2.014993115102268e-23 1.3867611237806187e-15 1.3867611127623206e-15 1.1018297727043967e-23
2.6717017477616296 2.0559847417006533e-23 1.4580663757312132e-15 1.4580663613023866e-15 1.442882621065049e-23
2.753070231689431 2.1169101925951084e-23 1.546995881706487e-15 1.546995862966057e-15 1.874043018121354e-23
2.836916847834745 2.2123045597524714e-23 1.6659461301194952e-15 1.6659461059692615e-15 2.4150234400043196e-23
2.9233170693905177 2.374180558351e-23 1.8422946877479995e-15 1.8422946568622097e-15 3.0885790347921284e-23
2.967498994190263 2.511654975533874e-23 1.9784268340822217e-15 1.9784267992991463e-15 3.478307563006483e-23
3.0123486681368425 2.6722092685488883e-23 2.136707810191392e-15 2.13670777106416e-15 3.9127232412546663e-23
3.0578761833420214 3.031466215615562e-23 2.460605905629484e-15 2.460605861653088e-15 4.397639621111947e-23
3.1040917844459814 3.494407044520447e-23 2.879237430811841e-15 2.879237381463045e-15 4.9348795508637265e-23
3.127460860933648 3.9841455369920213e-23 3.307474547696689e-15 3.3074744954311267e-15 5.22655626475188e-23
3.1510058709225794 4.6366541469508045e-23 3.87813879489209e-15 3.878138739555936e-15 5.533615513050796e-23
3.162844764501044 5.2440461074233945e-23 4.402646451053179e-15 4.402646394113544e-15 5.693963417378317e-23
3.1747281389236908 5.950390940883016e-23 5.014428858678745e-15 5.014428800094554e-15 5.858419050400337e-23
3.1986289994194426 7.920586228809196e-23 6.7249743114824465e-15 6.7249742494709845e-15 6.201146046469496e-23
3.2227097969389145 1.2564836385853075e-22 1.0748490331328841e-14 1.0748490265625268e-14 6.570357096355939e-23
3.2348180950136065 1.696904306590571e-22 1.4570573591558667e-14 1.457057352385392e-14 6.770475318304027e-23
3.240889293275058 2.0261762894589426e-22 1.74305406497681e-14 1.743054058099503e-14 6.877306593990651e-23
3.2469718861334385 2.4070934166169263e-22 2.0746312074632566e-14 2.0746312004745113e-14 6.988745666428404e-23
3.2714166318528037 4.438971931865405e-22 3.8546743087362076e-14 3.854674301280352e-14 7.455856186661927e-23
3.2744851364798273 4.565991578775402e-22 3.968693525244902e-14 3.9686935177340515e-14 7.510850746269547e-23
3.2775565192852394 4.696659592391829e-22 4.0860973263489416e-14 4.086097318782708e-14 7.566233212950316e-23
3.283707930232385 4.570999584664606e-22 3.984236746792942e-14 3.9842367391298164e-14 7.66312639056608e-23
3.2898708863219004 4.1724900679017636e-22 3.6437082728279753e-14 3.6437082650785706e-14 7.74940541952031e-23
3.29141343181113 4.078511547067479e-22 3.563309669577976e-14 3.5633096618068796e-14 7.771096999039348e-23
3.292184975758714 4.032333826080094e-22 3.523790989230193e-14 3.5237909814482326e-14 7.781961116434584e-23
3.295272960557952 3.7408553606577714e-22 3.2721390020515925e-14 3.2721389942278953e-14 7.823697411639849e-23
3.3076538914384823 2.7310833258383506e-22 2.3978634231855247e-14 2.3978634151940785e-14 7.991446506104258e-23
3.310756385682612 2.525568670468913e-22 2.2195035293021087e-14 2.2195035212682725e-14 8.033836469403752e-23
3.313861789986515 2.3359493091041283e-22 2.0547890313506993e-14 2.0547890232742905e-14 8.076408614322517e-23
3.3200813396944477 2.0700292216898828e-22 1.8242931736503906e-14 1.8242931654808493e-14 8.169540471591564e-23
3.345076488085796 1.5956519529545832e-22 1.4168166564430705e-14 1.4168166478481719e-14 8.594898785999659e-23
3.3482140837626964 1.6134402383022167e-22 1.4339550432118633e-14 1.433955034558126e-14 8.653736660446075e-23
3.3513546224236106 1.6314251930676082e-22 1.4512992893204708e-14 1.4512992806075337e-14 8.712936916173503e-23
3.3576445397418455 1.7628646380236072e-22 1.571169777067753e-14 1.571169768229513e-14 8.838239795074709e-23
3.3702598118196083 2.247669934993275e-22 2.010783677728056e-14 2.0107836686233257e-14 9.104730200821939e-23
3.382922481734668 2.3580890640243787e-22 2.117491537996512e-14 2.1174915286348773e-14 9.361635242583038e-23
3.389271646505754 2.415293862520978e-22 2.1729302670124564e-14 2.1729302575198912e-14 9.492564935554093e-23
3.395632727569191 2.476934933378668e-22 2.2325682386834308e-14 2.2325682290553418e-14 9.628089269369474e-23
3.421196662673239 2.772912758459818e-22 2.518162074071975e-14 2.5181620638774875e-14 1.0194486982213409e-22
3.4276182099114902 2.713266333163974e-22 2.4686203258863452e-14 2.468620315565813e-14 1.0320532544538589e-22
3.4340518103208963 2.4518970989079235e-22 2.235005087287656e-14 2.2350050768487387e-14 1.043891694300492e-22
3.4469541582030403 2.0796586276625225e-22 1.9028168687550005e-14 1.9028168580896153e-14 1.0665385284149046e-22
3.472904465399547 1.9753336330383778e-22 1.820969736094528e-14 1.8209697248904274e-14 1.120410053394104e-22
3.4990501388274233 1.8157738949000934e-22 1.6864806658766827e-14 1.6864806541150373e-14 1.1761645025881542e-22
3.5253949054701885 1.2479400342476721e-22 1.1678065931680012e-14 1.1678065808665025e-14 1.2301498611140187e-22
3.5519380250092896 7.142391713074012e-23 6.734083191251669e-15 6.734083062766426e-15 1.2848524288295961e-22
3.578680990867387 5.02616867885551e-23 4.774517384234474e-15 4.7745172495884866e-15 1.3464598735927702e-22
3.605625307711299 4.170129516368464e-23 3.991163966203587e-15 3.991163824936027e-15 1.4126755922334004e-22
3.660119384959845 3.545475222250342e-23 3.444602710785083e-15 3.4446025552372455e-15 1.5554783748140307e-22
3.715437065384467 3.103012566682215e-23 3.0602920690571995e-15 3.0602918979706478e-15 1.7108655129714432e-22
3.8285932144167436 2.877949659127144e-23 2.924770888521899e-15 2.9247706821649876e-15 2.0635691130442877e-22
3.94519561050918 2.834147237458707e-23 2.967975987388508e-15 2.9679757395283927e-15 2.4786011632613705e-22
4.06534921144712 2.8647789626766503e-23 3.0914228244257415e-15 3.0914225277576834e-15 2.9666805728392773e-22
4.189162171576248 2.9385197072213015e-23 3.2675723609302705e-15 3.267572006730031e-15 3.5420023895203747e-22
4.316745939156006 3.043695392924273e-23 3.487603534395962e-15 3.4876031124042504e-15 4.219917121966577e-22
4.448215356677963 3.176384361842204e-23 3.750492379342873e-15 3.750491877866504e-15 5.014763681961675e-22
4.58368876423945 3.337054783112571e-23 4.06020433408972e-15 4.060203738921874e-15 5.951678462835302e-22
4.723288106065518 3.5294211268767666e-23 4.4250415308204425e-15 4.425040824399662e-15 7.064207797747802e-22
4.867139040275056 3.760924444303902e-23 4.85889813914691e-15 4.858897301593218e-15 8.375536909480132e-22
4.940699165968905 3.900699800174099e-23 5.115644682882923e-15 5.115643770723911e-15 9.121590111240963e-22
5.015371051989984 4.0454548219836806e-23 5.3856714687678446e-15 5.385670475311183e-15 9.934566600981e-22
5.091171501069577 4.2222313670693054e-23 5.705966108598436e-15 5.705965025523324e-15 1.0830751133375083e-21
5.129500256944802 4.312962132843618e-23 5.872460903218382e-15 5.872459772331846e-15 1.1308865359525489e-21
5.168117569889187 4.407563729000806e-23 6.046449339035438e-15 6.046448158041848e-15 1.180993589155057e-21
5.20702561229733 4.523759061473459e-23 6.252570726391716e-15 6.252569491552588e-15 1.2348391289058552e-21
5.246226572918644 4.6429239446516e-23 6.46558827471239e-15 6.4655869835694054e-15 1.291142984160543e-21
5.265937586045735 4.7036496692020324e-23 6.5747630863678965e-15 6.574761766115422e-15 1.320252476008865e-21
5.285722656980489 4.765153941192701e-23 6.6857593485155146e-15 6.685757998495477e-15 1.3500200379235805e-21
5.305582063971359 4.8274493641365024e-23 6.7986110609842476e-15 6.798609680523385e-15 1.3804608625623978e-21
5.3255160863122235 4.894392625057067e-23 6.9187866561511314e-15 6.918785244430625e-15 1.4117205068969076e-21
5.365609099470188 5.0612450945415406e-23 7.208515418995268e-15 7.208513941578827e-15 1.477416441417274e-21
5.406003951863644 5.234461256741941e-23 7.511346241240447e-15 7.511344695048248e-15 1.546192200778526e-21
5.446702915881641 5.414349218627171e-23 7.827974182834289e-15 7.827972564639833e-15 1.6181944570442396e-21
5.487708281020852 5.608761261508156e-23 8.170100605448264e-15 8.17009891161973e-15 1.693828533911469e-21
5.529022354014368 5.879197749050374e-23 8.62851079847311e-15 8.62850902316767e-15 1.7753054374400936e-21
5.570647458961463 6.16560654320723e-23 9.116978165962979e-15 9.116976305190253e-15 1.860772724253296e-21
5.612585937458331 6.469138814025022e-23 9.637822133669946e-15 9.637820183241909e-15 1.950428036140578e-21
5.654840148729818 6.802849758448024e-23 1.0211290826681123e-14 1.02112887817582e-14 2.0449229199570703e-21
5.67608639626678 7.030241550664044e-23 1.0592261095613424e-14 1.05922589997435e-14 2.0958699273336166e-21
5.686739436050992 7.147456654216535e-23 1.0789077005645005e-14 1.0789074883812552e-14 2.121832452667182e-21
5.6974124697621304 7.26709281461938e-23 1.0990255825307438e-14 1.0990253677180825e-14 2.148126611545353e-21
5.718818669136295 7.513861706896688e-23 1.1406146803493044e-14 1.1406144601766045e-14 2.2017269990164378e-21
5.740305295436557 7.785913925766909e-23 1.1863532437091333e-14 1.1863530179779491e-14 2.257311840765029e-21
5.7835210386641895 8.49189728905769e-23 1.3036664392132696e-14 1.3036662014341446e-14 2.377791252652956e-21
5.827062130521658 9.305314679114255e-23 1.439296091705567e-14 1.4392958410655923e-14 2.5063997443972496e-21
5.8489554468988025 9.876091796518567e-23 1.5333202251902573e-14 1.5333199672414005e-14 2.5794885687965303e-21
5.870931020387893 1.048864635050557e-22 1.6345411298395596e-14 1.6345408643498467e-14 2.6548971300138105e-21
5.892989160043636 1.1146342149034513e-22 1.743562201162328e-14 1.7435619278921595e-14 2.732701691834638e-21
5.915130176081913 1.1894401367232528e-22 1.8675675925103565e-14 1.8675673109790756e-14 2.8153128067639783e-21
5.95966208400165 1.3986313433903237e-22 2.212556274037515e-14 2.2125559729837106e-14 3.010538043516053e-21
6.004529249263818 1.7001932585729775e-22 2.7098589589708102e-14 2.7098586341210152e-14 3.248497944947267e-21
6.027089341400364 1.9098354074469037e-22 3.05543467481555e-14 3.05543433528571e-14 3.395298403216786e-21
6.049734195844842 2.15759131908564e-22 3.464774008703426e-14 3.4647736529700036e-14 3.557334222568283e-21
6.095279466722835 2.8733009917497283e-22 4.6488354960859e-14 4.6488350977371146e-14 3.983487858837725e-21
6.141167624020661 3.974829662010324e-22 6.479461396942204e-14 6.47946093851932e-14 4.584228842286135e-21
6.164241091010745 4.67827427517029e-22 7.654815524939064e-14 7.654815027548981e-14 4.973900806993717e-21
6.187401249150058 5.479636150293003e-22 8.999729076659841e-14 8.99972853672524e-14 5.39934600929647e-21
6.1990139391386085 5.870925245835633e-22 9.66047757085228e-14 9.660477009035835e-14 5.6181644423222425e-21
6.204828454712694 6.07704500045598e-22 1.0009022473638868e-13 1.000902190049118e-13 5.7314768864066964e-21
6.210648424152782 6.227508185968976e-22 1.026645919362992e-13 1.0266458610967964e-13 5.8266195638857026e-21
6.233982942956859 6.738700641612332e-22 1.1150933003368907e-13 1.1150932386783574e-13 6.16585334592503e-21
6.239830258556775 6.804047489328196e-22 1.1269627074720558e-13 1.1269626453269103e-13 6.21451456288855e-21
6.245683058788269 6.809712503273941e-22 1.1289589527876588e-13 1.1289588901520257e-13 6.263563317156235e-21
6.257405133728602 6.795665308191488e-22 1.1287446076699611e-13 1.1287445441660428e-13 6.3503918455880796e-21
6.269149208991335 6.695119273076333e-22 1.1141312550408394e-13 1.114131191199928e-13 6.384091135450221e-21
6.280915325867298 6.4429830153450775e-22 1.0741856792336445e-13 1.0741856157167765e-13 6.351686807250385e-21
6.304513850009849 5.82120727485995e-22 9.741685385202439e-14 9.741684762652379e-14 6.225500581060887e-21
6.32820103803542 5.050503048981805e-22 8.48368116265509e-14 8.483680560244572e-14 6.024105191349074e-21
6.3519772230701035 4.343710405911649e-22 7.323846416400269e-14 7.323845832823591e-14 5.835766780007809e-21
6.375842739491607 3.7491102261754497e-22 6.345052776736574e-14 6.345052209525728e-14 5.6721084579669344e-21
6.399797922933955 3.2725428918902987e-22 5.55931191461106e-14 5.559311357537171e-14 5.5707388875713234e-21
6.42384311029221 2.8763324474846124e-22 4.904598253827256e-14 4.90459770502436e-14 5.4880289492126616e-21
6.447978639727206 2.5875972318599147e-22 4.428837044179904e-14 4.428836497972415e-14 5.462074894604675e-21
6.472204850670314 2.347074984782875e-22 4.032261158336596e-14 4.0322606133323195e-14 5.450042749177495e-21
6.496522083828205 2.1907497219879316e-22 3.7778361444437736e-14 3.7778355957246734e-14 5.4871910040082444e-21
