Dust emission spectrum from A.P. Jones, M. Kohler, N. Ysard, M. Bocchio, and L. Verstraete (2017), A&A, 602A, 46J 
inside the DustPedia framework.

lambda    nu*dP/dnu     j_nu    j_nu(carb.) j_nu(sil)
 (um)   (erg s-1 H-1) (Jy cm2 sr-1 H-1)
0.9927057738263894 6.890343523791604e-22 1.8156446548889952e-14 1.81564465487861e-14 1.0384982840866321e-25
1.0001793341362166 7.004115659916832e-22 1.8595189945232656e-14 1.8595189945107552e-14 1.251005426398997e-25
1.0077091589558085 7.1177239072221235e-22 1.9039072025602493e-14 1.9039072025451982e-14 1.5050616835994599e-25
1.0114953028030835 7.174452580914544e-22 1.9262917865819493e-14 1.9262917865654482e-14 1.650030054630054e-25
1.0152956718711033 7.231123536892813e-22 1.9488021450436192e-14 1.9488021450255356e-14 1.8083776576604743e-25
1.0229392996569957 7.344214523661965e-22 1.994181352790945e-14 1.9941813527692438e-14 2.1700401383201433e-25
1.0267826658714554 7.400497334531907e-22 2.0170137922008135e-14 2.017013792177052e-14 2.3760819570230143e-25
1.0306404723013447 7.456697544039763e-22 2.0399670544104717e-14 2.0399670543844633e-14 2.6008445411822896e-25
1.03451277320114 7.512809729171433e-22 2.063040150934478e-14 2.063040150906018e-14 2.8459457955232556e-25
1.0383996230291617 7.568828497096653e-22 2.0862320809644886e-14 2.0862320809333576e-14 3.113135712407484e-25
1.0403485208654093 7.596801172855702e-22 2.0978722924803976e-14 2.097872292447841e-14 3.255599381390739e-25
1.0423010764483396 7.624748486202994e-22 2.1095418316062026e-14 2.10954183157216e-14 3.404306474687224e-25
1.0462171883269815 7.680564367107062e-22 2.1329683781166103e-14 2.132968378079396e-14 3.7215032747799825e-25
1.0471985131304309 7.694501449038241e-22 2.138843142902664e-14 2.1388431428646133e-14 3.805124212231853e-25
1.048180758391296 7.708431610607236e-22 2.1447251264089334e-14 2.144725126370028e-14 3.8905452339440924e-25
1.0501480137395462 7.736270843642732e-22 2.156510684141428e-14 2.1565106841007584e-14 4.0669358963335324e-25
1.0521189612883777 7.764081409541371e-22 2.1683249199945266e-14 2.168324919952017e-14 4.250979235405621e-25
1.0531058218030118 7.777954372138914e-22 2.1742367784929728e-14 2.1742367784495135e-14 4.34597503268724e-25
1.0540936079674168 7.791749922454351e-22 2.1801361596491753e-14 2.1801361596047447e-14 4.443024231873716e-25
1.058054026499678 7.846853484531679e-22 2.20380325872138e-14 2.203803258672856e-14 4.8523998993234825e-25
1.0590464539527713 7.860609312324084e-22 2.2097373427768293e-14 2.209737342727227e-14 4.960255950610417e-25
1.06003981227728 7.87435695436853e-22 2.215678316674708e-14 2.2156783166240043e-14 5.070406763235666e-25
1.0620293250338977 7.901827361089375e-22 2.2275808659298994e-14 2.227580865876921e-14 5.297779428967654e-25
1.0660195594769086 7.956666432630013e-22 2.2514678915737618e-14 2.2514678915159398e-14 5.782166929000968e-25
1.070024785945596 8.011365618457875e-22 2.275463235822723e-14 2.2754632357596357e-14 6.308802623519494e-25
1.0740450607676866 8.065919877514383e-22 2.2995657889556408e-14 2.299565788886829e-14 6.881180179971441e-25
1.07808044048254 8.120324209190567e-22 2.3237744315984177e-14 2.323774431523388e-14 7.503065210064589e-25
1.0861967418109137 8.228567091277864e-22 2.3724777234379644e-14 2.3724777233488455e-14 8.911900851041504e-25
1.0902777775684922 8.282177082669938e-22 2.3969065669674062e-14 2.3969065668703268e-14 9.70792989129137e-25
1.0943741465085532 8.335613741652608e-22 2.4214351349434853e-14 2.4214351348377682e-14 1.0571664197532823e-24
1.1026131145906286 8.441948071326807e-22 2.470786746785792e-14 2.4707867466605478e-14 1.2524457580753203e-24
1.1109141095355224 8.547532558278673e-22 2.5205230854537054e-14 2.5205230853055147e-14 1.4818993848100548e-24
1.1192775983109025 8.652232335233003e-22 2.570605412455149e-14 2.5706054122800335e-14 1.751154990497471e-24
1.1277040513999907 8.755560803579689e-22 2.620888481138305e-14 2.620888480931634e-14 2.06670537628573e-24
1.1361939428280308 8.858017457136423e-22 2.6715200292170447e-14 2.6715200289734412e-14 2.4360304289526588e-24
1.1447477501889525 8.959568140814323e-22 2.7224900957970297e-14 2.7224900955102566e-14 2.867736596968895e-24
1.1533659546722406 9.060234880526053e-22 2.7738055789856344e-14 2.7738055786484623e-14 3.37171802464209e-24
1.1707974979042381 9.259242045668239e-22 2.8775750270645984e-14 2.8775750266002364e-14 4.643620732936249e-24
1.1884924949847024 9.454284858801813e-22 2.982596886585207e-14 2.982596885948832e-14 6.3637440538217056e-24
1.2064549276569216 9.646889887308003e-22 3.0893552828706755e-14 3.089355282002816e-14 8.678585292404888e-24
1.2246888378427687 9.834952239019296e-22 3.197182652270412e-14 3.1971826510925904e-14 1.1778223865890221e-23
1.2431983285522175 1.001803192751317e-21 3.305919407765139e-14 3.305919406174295e-14 1.5908443779123463e-23
1.2619875648066055 1.0196060674581521e-21 3.4155206845708906e-14 3.4155206824323473e-14 2.1385432835414758e-23
1.3004222497298317 1.0534005066598672e-21 3.63619652517338e-14 3.636196521362601e-14 3.8107789428318636e-23
1.3400274889804893 1.0847464353601737e-21 3.8584366322932904e-14 3.85843662562573e-14 6.667560430009863e-23
1.3808389325824078 1.1135277777962182e-21 4.081440895912989e-14 4.081440884453172e-14 1.1459816976689434e-22
1.4228933163050095 1.1398849784659102e-21 4.305293891302993e-14 4.30529387194508e-14 1.935791437736837e-22
1.466228494730424 1.1644531282347448e-21 4.5320333840590175e-14 4.532033351905719e-14 3.215329954591504e-22
1.5108834753276823 1.186754422753038e-21 4.7594992559354004e-14 4.7594992033978864e-14 5.253751220541744e-22
1.5568984535646726 1.206402349044167e-21 4.985651232427968e-14 4.9856511478920414e-14 8.453592661719134e-22
1.6043148490894465 1.2234331197530302e-21 5.210018548419223e-14 5.2100184142246577e-14 1.3419456425653457e-21
1.6531753430134553 1.2378988582211062e-21 5.4321720244668077e-14 5.432171814546006e-14 2.0992080367081648e-21
1.7035239163302658 1.2499718996574276e-21 5.652205170963189e-14 5.6522048472886077e-14 3.2367458253157178e-21
1.755405889504358 1.260646574876108e-21 5.874086430120997e-14 5.874085937953575e-14 4.921674213270683e-21
1.8088679632656115 1.2696777229766964e-21 6.096348700109675e-14 6.096347961825132e-14 7.38284542511644e-21
1.8639582606462262 1.2768994090372281e-21 6.317748045328848e-14 6.317746952340932e-14 1.0929879153853975e-20
1.9207263702978936 1.2824324848943049e-21 6.538369236148829e-14 6.538367638602554e-14 1.597546273125384e-20
1.979223391128241 1.2865578664925635e-21 6.7591731602467e-14 6.759170853990164e-14 2.306256536782551e-20
2.039501978296691 1.2896116668020683e-21 6.981560685968564e-14 6.981557396427469e-14 3.289541095180554e-20
2.1016163906111602 1.292534762763788e-21 7.210495534320034e-14 7.210490896450673e-14 4.63786936044468e-20
2.1656225393682647 1.2958728409332107e-21 7.449284892135255e-14 7.449278426523118e-14 6.465612139604697e-20
2.231578038680979 1.2996652317069948e-21 7.698622290475355e-14 7.698613374948847e-14 8.915526507691929e-20
2.299542257339062 1.3042387938861138e-21 7.961005825740099e-14 7.9609936620099e-14 1.2163730199189044e-19
2.369576372248914 1.3103158876191505e-21 8.241687638443186e-14 8.241671213147242e-14 1.6425295942874805e-19
2.4417434235010123 1.3187494617824496e-21 8.54735525783368e-14 8.547333298404956e-14 2.195942872443279e-19
2.5161083711144245 1.3310000468679263e-21 8.889490015031453e-14 8.889460939021918e-14 2.907600953575969e-19
2.5927381535095444 1.3494575480870056e-21 9.287253896072967e-14 9.287215754757243e-14 3.8141315721803867e-19
2.6717017477616296 1.3769752252794424e-21 9.76525377583365e-14 9.765204194310498e-14 4.958152315162199e-19
2.753070231689431 1.4178486984302556e-21 1.0361356400602069e-13 1.0361292512689799e-13 6.388791227151373e-19
2.836916847834745 1.4818096252916636e-21 1.1158567657179505e-13 1.1158486033232849e-13 8.16239466588121e-19
2.9233170693905177 1.5902904418962702e-21 1.234018879809552e-13 1.234008538600508e-13 1.03412090442454e-18
2.967498994190263 1.6823846732182782e-21 1.3252118683364122e-13 1.3252002825625334e-13 1.1585773879269163e-18
3.0123486681368425 1.789934321116816e-21 1.4312376985866883e-13 1.431224735659483e-13 1.296292720561247e-18
3.0578761833420214 2.030510213645876e-21 1.6481415486015876e-13 1.6481270600872045e-13 1.4488514383609806e-18
3.1040917844459814 2.340507764193853e-21 1.928475268025761e-13 1.9284591043264797e-13 1.6163699280803193e-18
3.127460860933648 2.6684067122460336e-21 2.215202030576433e-13 2.2151849639549449e-13 1.706662148858626e-18
3.1510058709225794 3.10527879027456e-21 2.597282817274386e-13 2.5972648050649204e-13 1.801220946592429e-18
3.162844764501044 3.511922233815403e-21 2.9484393619641726e-13 2.9484208586972307e-13 1.8503266942867684e-18
3.1747281389236908 3.984814626057097e-21 3.358026330690244e-13 3.3580073251790633e-13 1.9005511180641777e-18
3.1986289994194426 5.303840578080203e-21 4.503226227126125e-13 4.503206180281141e-13 2.004684498299403e-18
3.2227097969389145 8.413051228452502e-21 7.196878416006246e-13 7.196857260979565e-13 2.115502667961057e-18
3.2348180950136065 1.1361540146708853e-20 9.75565659054056e-13 9.755634842851693e-13 2.1747688864435716e-18
3.240889293275058 1.3565911687687316e-20 1.167031597169371e-12 1.1670293911328855e-12 2.2060364851222277e-18
3.2469718861334385 1.6116027179559827e-20 1.3890118553866583e-12 1.3890096169920818e-12 2.2383945765571177e-18
3.2714166318528037 2.9718733500091387e-20 2.580688507819423e-12 2.580686135311844e-12 2.3725075787401147e-18
3.2744851364798273 3.056907371533121e-20 2.657019462994868e-12 2.6570170745775335e-12 2.3884173349347585e-18
3.2775565192852394 3.144383747210206e-20 2.7356161905588645e-12 2.735613786141972e-12 2.4044168918846788e-18
3.283707930232385 3.0602563492106434e-20 2.667422207177054e-12 2.667419773940931e-12 2.433236122657795e-18
3.2898708863219004 2.793466556523085e-20 2.4394491146122687e-12 2.439446654957409e-12 2.459654860198384e-18
3.29141343181113 2.7305509176391543e-20 2.3856248476468106e-12 2.3856223813526532e-12 2.4662941572385644e-18
3.292184975758714 2.6996364087363728e-20 2.359168377820224e-12 2.3591659082012134e-12 2.469619009948735e-18
3.295272960557952 2.5045014720864872e-20 2.190696019337365e-12 2.190693536749512e-12 2.4825878537447366e-18
3.3076538914384823 1.828495653326595e-20 1.6054006134066503e-12 1.6053980786254954e-12 2.5347811549198274e-18
3.310756385682612 1.690911487533516e-20 1.4859956326672815e-12 1.4859930847084326e-12 2.54795884915575e-18
3.313861789986515 1.563968761672446e-20 1.375725853439924e-12 1.375723292251399e-12 2.56118852505462e-18
3.3200813396944477 1.3859458399443622e-20 1.221418281620007e-12 1.2214156920613057e-12 2.5895587012706785e-18
3.345076488085796 1.0683709878520263e-20 9.486315659542655e-13 9.486288501581501e-13 2.715796115272035e-18
3.3482140837626964 1.0802795731244541e-20 9.601051871562472e-13 9.601024542639389e-13 2.7328923084223875e-18
3.3513546224236106 1.0923198108352957e-20 9.717166143518295e-13 9.717138642746113e-13 2.7500772179335034e-18
3.3576445397418455 1.1803126273038916e-20 1.0519647893047563e-12 1.051962003328456e-12 2.7859763001119923e-18
3.3702598118196083 1.5048669384464964e-20 1.3462661175782735e-12 1.3462632562678539e-12 2.861310419266356e-18
3.382922481734668 1.5787859857813767e-20 1.4177013142557818e-12 1.4176983793386308e-12 2.9349171506842245e-18
3.389271646505754 1.617081085050003e-20 1.4548144589954535e-12 1.454811486690054e-12 2.972305399728267e-18
3.395632727569191 1.6583457925894777e-20 1.494738555864825e-12 1.494735545022681e-12 3.0108421442340057e-18
3.421196662673239 1.8564822684386012e-20 1.6859251072023711e-12 1.6859219363767928e-12 3.1708255785500315e-18
3.4276182099114902 1.8165516334787133e-20 1.6527593441954173e-12 1.6527561372458384e-12 3.2069495791729574e-18
3.4340518103208963 1.6415796790890237e-20 1.4963674191654098e-12 1.496364177845489e-12 3.241319921112164e-18
3.4469541582030403 1.392387861804717e-20 1.2739875073966528e-12 1.2739841996884488e-12 3.30770820378371e-18
3.472904465399547 1.3225500476110488e-20 1.2191984031911162e-12 1.2191949430840332e-12 3.460107083094369e-18
3.4990501388274233 1.215736771522178e-20 1.1291695324655509e-12 1.129165915390231e-12 3.617075319935513e-18
3.5253949054701885 8.356121458884747e-21 7.819553396154242e-13 7.819515684711788e-13 3.7711442452737975e-18
3.5519380250092896 4.783423054949143e-21 4.509969501114778e-13 4.5099302280548565e-13 3.9273059922246465e-18
3.578680990867387 3.3668384959167957e-21 3.1982669018432086e-13 3.1982259142742424e-13 4.0987568966484265e-18
3.605625307711299 2.793861672215926e-21 2.673960122566189e-13 2.673917320631115e-13 4.2801935073891606e-18
3.660119384959845 2.375866917368902e-21 2.308270996416418e-13 2.3082243450128117e-13 4.665140360576277e-18
3.715437065384467 2.0798617197684002e-21 2.0512273762875642e-13 2.0511766110732032e-13 5.076521436094606e-18
3.8285932144167436 1.9296220810339452e-21 1.9610150130870638e-13 1.9609552075115087e-13 5.9805575554477846e-18
3.94519561050918 1.9008095405901355e-21 1.99056597995562e-13 1.990496007301954e-13 6.997265366592894e-18
4.06534921144712 1.921934640115929e-21 2.0739864020634665e-13 2.0739050598593844e-13 8.134220408173105e-18
4.189162171576248 1.97205554722151e-21 2.1928844596429788e-13 2.1927904309042853e-13 9.402873869393367e-18
4.316745939156006 2.0433909112623486e-21 2.3414095184552067e-13 2.3413014202388744e-13 1.0809821633179987e-17
4.448215356677963 2.1333557747223148e-21 2.518944077310197e-13 2.5188205844427455e-13 1.2349286745190757e-17
4.58368876423945 2.2423115456604302e-21 2.7282270288586936e-13 2.7280866758119694e-13 1.403530467236241e-17
4.723288106065518 2.372801185065109e-21 2.9749195153666564e-13 2.9747606046215505e-13 1.589107451068448e-17
4.867139040275056 2.529871302260646e-21 3.268448261823717e-13 3.2682693396245274e-13 1.789221991883471e-17
4.940699165968905 2.6246547652515736e-21 3.442151891223022e-13 3.441962319904474e-13 1.8957131854820155e-17
5.015371051989984 2.722896696806079e-21 3.624963742692332e-13 3.624763093296918e-13 2.0064939541405987e-17
5.091171501069577 2.842710853189298e-21 3.8416681547467724e-13 3.8414557855514286e-13 2.123691953436521e-17
5.129500256944802 2.9042407433383013e-21 3.9543681797974315e-13 3.954149780519228e-13 2.1839927820379184e-17
5.168117569889187 2.968400483790613e-21 4.0721551058042444e-13 4.071930520384055e-13 2.2458542018921164e-17
5.20702561229733 3.0470568472986737e-21 4.2115281088523786e-13 4.2112968572499174e-13 2.3125160245911362e-17
5.246226572918644 3.1277428598795905e-21 4.3555952676003546e-13 4.3553572094998537e-13 2.3805810050026016e-17
5.265937586045735 3.168867387148152e-21 4.429443897370722e-13 4.429202382898111e-13 2.4151447261007748e-17
5.285722656980489 3.210524161935113e-21 4.5045327379119376e-13 4.5042877313809144e-13 2.4500653102431642e-17
5.305582063971359 3.252721836614562e-21 4.580885057231117e-13 4.580636522751003e-13 2.485344801136723e-17
5.3255160863122235 3.298042791066045e-21 4.662162642494814e-13 4.661910524766736e-13 2.521177280798288e-17
5.365609099470188 3.4107913868599756e-21 4.857844629905936e-13 4.8575850859013e-13 2.5954400463597273e-17
5.406003951863644 3.527848805047175e-21 5.06239182252526e-13 5.062124693938212e-13 2.6712858705042805e-17
5.446702915881641 3.649423145133714e-21 5.276274028291814e-13 5.275999154759513e-13 2.7487353230248497e-17
5.487708281020852 3.780774063447383e-21 5.507330946107812e-13 5.507048141683229e-13 2.8280442458294416e-17
5.529022354014368 3.9630829363459564e-21 5.816355457175933e-13 5.816064348760206e-13 2.911084157250843e-17
5.570647458961463 4.156140610135677e-21 6.145614860718736e-13 6.14531526772958e-13 2.995929891527044e-17
5.612585937458331 4.360719654584273e-21 6.496666962002109e-13 6.496358701209627e-13 3.082607924833072e-17
5.654840148729818 4.5855640438937114e-21 6.883075434441614e-13 6.882758289315928e-13 3.17145125685092e-17
5.67608639626678 4.738544862851933e-21 7.139428146087598e-13 7.139106354206619e-13 3.2179188097910225e-17
5.686739436050992 4.817397025759498e-21 7.271854869804967e-13 7.271530735117442e-13 3.241346875270854e-17
5.6974124697621304 4.897873879175444e-21 7.407210600632517e-13 7.406884110115359e-13 3.2649051715781445e-17
5.718818669136295 5.063858008814252e-21 7.687007040276568e-13 7.686675798817874e-13 3.312414586913411e-17
5.740305295436557 5.246787704019086e-21 7.994621660427776e-13 7.994285587829969e-13 3.3607259780721985e-17
5.7835210386641895 5.721092809897879e-21 8.782956785757158e-13 8.782610673460874e-13 3.461122962839829e-17
5.827062130521658 6.267392260869614e-21 9.694065700434757e-13 9.693709249729537e-13 3.56450705217305e-17
5.8489554468988025 6.650438224072366e-21 1.032518899727439e-12 1.0324826996957555e-12 3.6200031683388055e-17
5.870931020387893 7.061467003186096e-21 1.1004526101841745e-12 1.1004158482268373e-12 3.676195733707711e-17
5.892989160043636 7.502730090993848e-21 1.1736116133231362e-12 1.173574282402314e-12 3.733092082196344e-17
5.915130176081913 8.004515085249222e-21 1.25680751014121e-12 1.256769589821676e-12 3.7920319533627096e-17
5.95966208400165 9.407097389460928e-21 1.4881500009202282e-12 1.4881107628421354e-12 3.923807809306138e-17
6.004529249263818 1.1428255324256707e-20 1.8214964633982873e-12 1.8214557522358346e-12 4.0711162452273274e-17
6.027089341400364 1.2833009353874213e-20 2.0530785851581127e-12 2.05303703496111e-12 4.1550197002502547e-17
6.049734195844842 1.4492958271055032e-20 2.327355726850775e-12 2.3273132890330383e-12 4.2437817736720786e-17
6.095279466722835 1.9287383773261428e-20 3.1205875948682688e-12 3.120543019518358e-12 4.45753499097794e-17
6.141167624020661 2.6665257610890833e-20 4.346765069723828e-12 4.346717772826646e-12 4.7296897181878975e-17
6.164241091010745 3.137671548979996e-20 5.1340078568645686e-12 5.133958879374927e-12 4.8977489641583123e-17
6.187401249150058 3.674363528113418e-20 6.034757669158848e-12 6.0347069536675335e-12 5.0715491314558003e-17
6.1990139391386085 3.936426550553311e-20 6.4773027774287455e-12 6.4772511752499535e-12 5.160217878965525e-17
6.204828454712694 4.0744702387054636e-20 6.710739213600649e-12 6.710687162256692e-12 5.2051343957898444e-17
6.210648424152782 4.175251400811423e-20 6.8831781267112055e-12 6.88312568554286e-12 5.244116834437154e-17
6.233982942956859 4.5176734477117335e-20 7.47566580350109e-12 7.475611970683976e-12 5.383281711383494e-17
6.239830258556775 4.561462965447184e-20 7.555206899476582e-12 7.555152849922244e-12 5.4049554337010066e-17
6.245683058788269 4.565291369435506e-20 7.568640469227618e-12 7.568586202177704e-12 5.426704991414801e-17
6.257405133728602 4.555956647509647e-20 7.567340746543019e-12 7.567286084769815e-12 5.466177320636327e-17
6.269149208991335 4.488705471792767e-20 7.469631020478072e-12 7.469576146869795e-12 5.487360827612619e-17
6.280915325867298 4.3199522860368147e-20 7.202301898951779e-12 7.202247040830449e-12 5.485812132989828e-17
6.304513850009849 3.903762291468909e-20 6.532875787870306e-12 6.532821167519774e-12 5.462035053270701e-17
6.32820103803542 3.387857156068434e-20 5.6908192427481824e-12 5.69076508139398e-12 5.416135420240418e-17
6.3519772230701035 2.9147431070499786e-20 4.914492188577447e-12 4.914438417147585e-12 5.377142986280934e-17
6.375842739491607 2.5167305499112133e-20 4.259354140222765e-12 4.2593006874226164e-12 5.345280014887394e-17
6.399797922933955 2.1977741820277297e-20 3.733522401203385e-12 3.733469001984568e-12 5.3399218815839916e-17
6.42384311029221 1.932608664231046e-20 3.2954010890529105e-12 3.2953476894992503e-12 5.3399553660399036e-17
6.447978639727206 1.7394206067169826e-20 2.977128868274779e-12 2.977075257623006e-12 5.361065177318503e-17
6.472204850670314 1.5785090056722334e-20 2.711869281093923e-12 2.7118154151594857e-12 5.386593443712867e-17
6.496522083828205 1.473986802742037e-20 2.5418150526017308e-12 2.541760757371237e-12 5.429523049376734e-17
