Dust emission spectrum from A.P. Jones, M. Kohler, N. Ysard, M. Bocchio, and L. Verstraete (2017), A&A, 602A, 46J 
inside the DustPedia framework.

lambda    nu*dP/dnu     j_nu    j_nu(carb.) j_nu(sil)
 (um)   (erg s-1 H-1) (Jy cm2 sr-1 H-1)
0.9927057738263894 4.1482714699689994e-23 1.0930930940484012e-15 1.0930930714444055e-15 2.260399563635233e-23
1.0001793341362166 4.217801110424483e-23 1.1197818055518487e-15 1.1197817783354022e-15 2.721644656615153e-23
1.0077091589558085 4.2874178966547486e-23 1.1468337238459214e-15 1.1468336911187478e-15 3.272717384028211e-23
1.0114953028030835 4.322252899199878e-23 1.1604955451803151e-15 1.1604955093101682e-15 3.587014713837383e-23
1.0152956718711033 4.357102440868218e-23 1.1742477554998849e-15 1.1742477161978507e-15 3.930203427282809e-23
1.0229392996569957 4.426801744483375e-23 1.2020135663125266e-15 1.2020135191762067e-15 4.7136320030972195e-23
1.0267826658714554 4.461569898552116e-23 1.2160058457499335e-15 1.2160057941526237e-15 5.1597309911493176e-23
1.0306404723013447 4.49634142620971e-23 1.2300872230201172e-15 1.2300871665582148e-15 5.64619022613024e-23
1.03451277320114 4.5311140376179805e-23 1.2442575447867333e-15 1.24425748302194e-15 6.176479319733332e-23
1.0383996230291617 4.565885466818201e-23 1.2585166571735059e-15 1.2585165896300132e-15 6.754349313465909e-23
1.0403485208654093 4.583270036691734e-23 1.2656794616775261e-15 1.265679391053711e-15 7.062381526788175e-23
1.0423010764483396 4.600653472478229e-23 1.2728644060166549e-15 1.2728643321781147e-15 7.383854033514273e-23
1.0462171883269815 4.635415838632404e-23 1.2873006371207442e-15 1.2873005564270146e-15 8.069372944595244e-23
1.0471985131304309 4.644105291789303e-23 1.290923502198194e-15 1.2909234196976831e-15 8.250051075658604e-23
1.048180758391296 4.652794221522097e-23 1.2945518853896448e-15 1.2945518010436316e-15 8.434601328623988e-23
1.0501480137395462 4.670170375414042e-23 1.3018251965179346e-15 1.3018251083615787e-15 8.815635598613951e-23
1.0521189612883777 4.687544030771819e-23 1.3091205513382847e-15 1.3091204592070258e-15 9.21312593872578e-23
1.0531058218030118 4.69621743217676e-23 1.3127730213247097e-15 1.3127729271420525e-15 9.418265713864611e-23
1.0540936079674168 4.704849464123462e-23 1.3164196161997264e-15 1.3164195199215203e-15 9.627820641504864e-23
1.058054026499678 4.739367999444607e-23 1.331060234786481e-15 1.3310601296709004e-15 1.0511558028195689e-22
1.0590464539527713 4.7479950717253345e-23 1.3347339368288476e-15 1.3347338293854827e-15 1.0744336433783283e-22
1.06003981227728 4.75662105441294e-23 1.3384130528975118e-15 1.3384129430770662e-15 1.0982044561038765e-22
1.0620293250338977 4.773869621986319e-23 1.345787517295829e-15 1.34578740256934e-15 1.1472648906220203e-22
1.0660195594769086 4.8083522693258505e-23 1.360601306769195e-15 1.3606011815940949e-15 1.2517510010263757e-22
1.070024785945596 4.842813909190341e-23 1.3755014479559777e-15 1.3755013114253893e-15 1.365305885595666e-22
1.0740450607676866 4.8772525401355224e-23 1.3904877875936534e-15 1.3904876387261518e-15 1.4886750172545954e-22
1.07808044048254 4.9116661922161676e-23 1.4055601746911034e-15 1.4055600124249556e-15 1.6226614776227507e-22
1.0861967418109137 4.980354221691752e-23 1.435946175649272e-15 1.4359459830480575e-15 1.9260121436654425e-22
1.0902777775684922 5.0144960606208407e-23 1.4512221143984056e-15 1.4512219046674182e-15 2.0973098722592614e-22
1.0943741465085532 5.0486031036235296e-23 1.4665824636777194e-15 1.4665822353676585e-15 2.2831006110372275e-22
1.1026131145906286 5.1167056795724946e-23 1.4975558334966571e-15 1.4975555632082222e-15 2.702884348791051e-22
1.1109141095355224 5.1846480662005676e-23 1.52886520779081e-15 1.528864888219211e-15 3.1957159896018623e-22
1.1192775983109025 5.2523590366093356e-23 1.5604923728972049e-15 1.5604919955429435e-15 3.773542614988305e-22
1.1277040513999907 5.319559645553337e-23 1.5923563221739904e-15 1.5923558771607498e-15 4.450132406281556e-22
1.1361939428280308 5.386553507161577e-23 1.6245492462015863e-15 1.6245487220686285e-15 5.241329580255398e-22
1.1447477501889525 5.453329329105174e-23 1.6570703915935511e-15 1.657069775059163e-15 6.165343878769977e-22
1.1533659546722406 5.519906389562484e-23 1.6899282789849562e-15 1.6899275546763825e-15 7.243085743603035e-22
1.1707974979042381 5.652670422424431e-23 1.7567294562091036e-15 1.7567284602913975e-15 9.959177063704212e-22
1.1884924949847024 5.784507053595945e-23 1.8248712606139907e-15 1.824869898053724e-15 1.3625602660690093e-21
1.2064549276569216 5.916369044111568e-23 1.8946796506805644e-15 1.8946777956499846e-15 1.8550305795886736e-21
1.2246888378427687 6.047126767719666e-23 1.9658223373092105e-15 1.965819824122027e-15 2.5131871838584305e-21
1.2431983285522175 6.176580584357339e-23 2.0382524007907663e-15 2.038249012349593e-15 3.38844117297928e-21
1.2619875648066055 6.304809409133173e-23 2.112012436612472e-15 2.1120078898464866e-15 4.546765985316095e-21
1.3004222497298317 6.556207113411099e-23 2.2631143020515016e-15 2.2631062300768703e-15 8.071974631596348e-21
1.3400274889804893 6.801338967766722e-23 2.4192322340438498e-15 2.4192181651624985e-15 1.406888135102811e-20
1.3808389325824078 7.040406503142054e-23 2.5805376029904845e-15 2.5805135181435235e-15 2.4084846961573906e-20
1.4228933163050095 7.275178666874897e-23 2.747802003215105e-15 2.7477614853535746e-15 4.0517861530794015e-20
1.466228494730424 7.510451655670519e-23 2.923056051595611e-15 2.9229890347775124e-15 6.701681809980735e-20
1.5108834753276823 7.744583320659802e-23 3.1059786123822703e-15 3.105869582239857e-15 1.0903014241280735e-19
1.5568984535646726 7.976471077356613e-23 3.2964046272586563e-15 3.2962299689381573e-15 1.7465832049938395e-19
1.6043148490894465 8.207582387628764e-23 3.495218151839549e-15 3.4949421481630565e-15 2.760036764920255e-19
1.6531753430134553 8.439591738625293e-23 3.703478182891489e-15 3.703048431420417e-15 4.2975147107196375e-19
1.7035239163302658 8.674859803799923e-23 3.922655177596918e-15 3.921995700545147e-15 6.594770517699959e-19
1.755405889504358 8.920839354189057e-23 4.15673848960254e-15 4.155740608563204e-15 9.978810393364906e-19
1.8088679632656115 9.177572210852972e-23 4.406604873449694e-15 4.405115484550982e-15 1.48938889871165e-18
1.8639582606462262 9.445401307804526e-23 4.673325496698449e-15 4.671131884667851e-15 2.1936120305973302e-18
1.9207263702978936 9.726492770853064e-23 4.958966796120346e-15 4.955777483127256e-15 3.18931299308973e-18
1.979223391128241 1.0024015502500119e-22 5.2663046340160305e-15 5.261725459729534e-15 4.579174286496299e-18
2.039501978296691 1.034133763664336e-22 5.598481941726844e-15 5.591986864750892e-15 6.4950769759517616e-18
2.1016163906111602 1.0685822637630765e-22 5.961160862274892e-15 5.9520561270709806e-15 9.104735203912868e-18
2.1656225393682647 1.106228495385057e-22 6.359120245152311e-15 6.346502400893745e-15 1.261784425856609e-17
2.231578038680979 1.1471946945292914e-22 6.795456577089825e-15 6.778163492471402e-15 1.729308461842333e-17
2.299542257339062 1.1918085819118828e-22 7.274737654058797e-15 7.251292043665983e-15 2.344561039281359e-17
2.369576372248914 1.24061096158433e-22 7.803254255571199e-15 7.771799067047771e-15 3.1455188523429005e-17
2.4417434235010123 1.2942167310319177e-22 8.38834858427936e-15 8.34657565841074e-15 4.177292586862117e-17
2.5161083711144245 1.3535984976663823e-22 9.040420665410303e-15 8.98549074662861e-15 5.4929918781696316e-17
2.5927381535095444 1.420231635828301e-22 9.774336222633103e-15 9.702792719069186e-15 7.154350356392086e-17
2.6717017477616296 1.4956799939126883e-22 1.0607086053440548e-14 1.0514767379883614e-14 9.231867355693589e-17
2.753070231689431 1.5821682710371531e-22 1.1562171168256507e-14 1.14441194421803e-14 1.180517260762053e-16
2.836916847834745 1.684729181638305e-22 1.2686626025684952e-14 1.2536989394925296e-14 1.4963663075965263e-16
2.9233170693905177 1.8141486556313943e-22 1.407726307630214e-14 1.3889233614344377e-14 1.8802946195776033e-16
2.967498994190263 1.8992075190637299e-22 1.496002896818155e-14 1.4750300512216587e-14 2.0972845596496312e-16
3.0123486681368425 1.9930054396340782e-22 1.593614070103341e-14 1.5702520102427968e-14 2.3362059860543934e-16
3.0578761833420214 2.155341021385116e-22 1.749465264876388e-14 1.7234689275867086e-14 2.5996337289679267e-16
3.1040917844459814 2.3518644461026712e-22 1.9378326735097523e-14 1.9089610328532258e-14 2.8871640656526796e-16
3.127460860933648 2.5373365771503503e-22 2.10639296931924e-14 2.075978399510481e-14 3.041456980875834e-16
3.1510058709225794 2.7763085319714063e-22 2.3221291653829396e-14 2.2901038031977914e-14 3.202536218514774e-16
3.162844764501044 2.9912071097938053e-22 2.5112722307411773e-14 2.4784123148827857e-14 3.285991585839093e-16
3.1747281389236908 3.237451310558848e-22 2.7282189425060787e-14 2.6945068273263462e-14 3.371211517973325e-16
3.1986289994194426 3.9115833375195515e-22 3.3211301161475476e-14 3.285655295280447e-14 3.5474820867100344e-16
3.2227097969389145 5.472680756487812e-22 4.681561652787484e-14 4.644216387370009e-14 3.73452654174745e-16
3.2348180950136065 6.941183402913684e-22 5.960089982202032e-14 5.921745869478065e-14 3.834411272396844e-16
3.240889293275058 8.037227468471653e-22 6.914167381656486e-14 6.875296389769823e-14 3.887099188666332e-16
3.2469718861334385 9.305813162295536e-22 8.020515640998531e-14 7.98109946837311e-14 3.9416172625421396e-16
3.2714166318528037 1.6024548025159892e-21 1.391525211914007e-13 1.3873580828018327e-13 4.167129112174349e-16
3.2744851364798273 1.6446003329507594e-21 1.4294627093350454e-13 1.4252689431082038e-13 4.1937662268418476e-16
3.2775565192852394 1.6879197782953467e-21 1.468491458132637e-13 1.4642709159349662e-13 4.220542197670652e-16
3.283707930232385 1.647047815185634e-21 1.4356221888541547e-13 1.4313536390135347e-13 4.2685498406201915e-16
3.2898708863219004 1.516148327013619e-21 1.3240060760053277e-13 1.319693722528529e-13 4.3123534767988034e-16
3.29141343181113 1.4852535327316182e-21 1.29763474097867e-13 1.293311385166232e-13 4.3233558124384166e-16
3.292184975758714 1.4700691317904908e-21 1.284669519831043e-13 1.2803406551243347e-13 4.3288647067076962e-16
3.295272960557952 1.3745683263163711e-21 1.2023396250032276e-13 1.1979893102548346e-13 4.3503147483931073e-16
3.3076538914384823 1.0427047160733079e-21 9.15484150996285e-14 9.110476238651112e-14 4.436527131173879e-16
3.310756385682612 9.748856872340937e-22 8.567425818916438e-14 8.522843120778171e-14 4.458269813826988e-16
3.313861789986515 9.122048991076874e-22 8.024098013281389e-14 7.979297127877911e-14 4.480088540347774e-16
3.3200813396944477 8.24578665848501e-22 7.266917855474245e-14 7.221648196490803e-14 4.526965898344602e-16
3.345076488085796 6.7059137926263465e-22 5.954337561190425e-14 5.906980198028332e-14 4.735736316209503e-16
3.3482140837626964 6.768610578259549e-22 6.01564473466071e-14 5.96800461106855e-14 4.764012359216124e-16
3.3513546224236106 6.831938945976929e-22 6.077623527642967e-14 6.029699305229202e-14 4.79242224137662e-16
3.3576445397418455 7.275227272855302e-22 6.484115096451454e-14 6.435597091212915e-14 4.851800523853669e-16
3.3702598118196083 8.890774908088414e-22 7.95375904140117e-14 7.903995419868412e-14 4.97636215327575e-16
3.382922481734668 9.274039912150401e-22 8.327802938666856e-14 8.276826283779089e-14 5.097665488776728e-16
3.389271646505754 9.472125866146895e-22 8.521641737630758e-14 8.470049781081576e-14 5.159195654918151e-16
3.395632727569191 9.687243680596032e-22 8.73153035642504e-14 8.679304277631303e-14 5.222607879373646e-16
3.421196662673239 1.0721994416604445e-21 9.736952457639329e-14 9.682098810349003e-14 5.485364729033094e-16
3.4276182099114902 1.0532359683585752e-21 9.58269259329447e-14 9.527250029563852e-14 5.544256373061636e-16
3.4340518103208963 9.670608609451688e-22 8.815157638107715e-14 8.75915683322862e-14 5.600080487909362e-16
3.4469541582030403 8.441662972726055e-22 7.723834330878575e-14 7.666759547971296e-14 5.707478290727911e-16
3.472904465399547 8.116005602197804e-22 7.481774386053148e-14 7.42222920672715e-14 5.954517932599733e-16
3.4990501388274233 7.6096862611316975e-22 7.067834155360048e-14 7.005755212664389e-14 6.207894269566034e-16
3.5253949054701885 5.757252975275144e-22 5.3875649458714735e-14 5.3230152903301116e-14 6.454965554136086e-16
3.5519380250092896 4.005718050867574e-22 3.7767234952773314e-14 3.709683089108002e-14 6.704040616932931e-16
3.578680990867387 3.327820063340414e-22 3.161202052542541e-14 3.091430472979339e-14 6.977157956320261e-16
3.605625307711299 3.071587658477301e-22 2.939767202296902e-14 2.867114570446561e-14 7.265263185034009e-16
3.660119384959845 2.9227098347230006e-22 2.8395556557112525e-14 2.7608296955856772e-14 7.872596012557592e-16
3.715437065384467 2.833116206649866e-22 2.7941114873402722e-14 2.7089531311823082e-14 8.515835615796414e-16
3.8285932144167436 2.878829652984073e-22 2.9256651989580324e-14 2.8265769713958096e-14 9.90882275622226e-16
3.94519561050918 2.988749851216162e-22 3.129878953880492e-14 3.0154411315245583e-14 1.1443782235593416e-15
4.06534921144712 3.1270917524348126e-22 3.3744882043248953e-14 3.243258528989047e-14 1.3122967533584659e-15
4.189162171576248 3.2832373726146933e-22 3.6508911840083645e-14 3.5013556450657704e-14 1.4953553894259447e-15
4.316745939156006 3.4528464939669824e-22 3.956427329778319e-14 3.787092427689546e-14 1.69334902088773e-15
4.448215356677963 3.6339986257314353e-22 4.2908170421931114e-14 4.100407891934758e-14 1.9040915025835166e-15
4.58368876423945 3.826435291537894e-22 4.6556350328552376e-14 4.442806498375848e-14 2.1282853447938826e-15
4.723288106065518 4.031032638823982e-22 5.053941198191184e-14 4.817165025241994e-14 2.3677617294919003e-15
4.867139040275056 4.249274854480261e-22 5.489818790278661e-14 5.2281062170711075e-14 2.61712573207554e-15
4.940699165968905 4.366692879961342e-22 5.726779900406572e-14 5.452142845959854e-14 2.7463705444671568e-15
5.015371051989984 4.485427035849594e-22 5.971401851020973e-14 5.683565815489109e-14 2.8783603553186304e-15
5.091171501069577 4.615319545399187e-22 6.237189442481687e-14 5.935609836895741e-14 3.0157960558594736e-15
5.129500256944802 4.680772162653047e-22 6.373265212029544e-14 6.064717807768656e-14 3.0854740426088866e-15
5.168117569889187 4.7474314731393085e-22 6.512691740338524e-14 6.19705284056532e-14 3.1563889977320144e-15
5.20702561229733 4.822050096134053e-22 6.664857447660299e-14 6.341520430251884e-14 3.233370174084181e-15
5.246226572918644 4.897371889216589e-22 6.81992439275266e-14 6.488802523301597e-14 3.3112186945106187e-15
5.265937586045735 4.935300401366829e-22 6.8985645575403e-14 6.563518309576417e-14 3.350462479638819e-15
5.285722656980489 4.973409560820247e-22 6.977952837537877e-14 6.638961222907443e-14 3.3899161463043405e-15
5.305582063971359 5.01170113767136e-22 7.058097189386989e-14 6.715139459935473e-14 3.4295772945151626e-15
5.3255160863122235 5.0516031003997975e-22 7.141021736647106e-14 6.794049545673272e-14 3.46972190973833e-15
5.365609099470188 5.143152951379779e-22 7.325173284387335e-14 6.969894675093758e-14 3.552786092935772e-15
5.406003951863644 5.236321470846793e-22 7.514015610930859e-14 7.150337876176459e-14 3.636777347544034e-15
5.446702915881641 5.331178859243274e-22 7.70772788919029e-14 7.335560150621243e-14 3.721677385690485e-15
5.487708281020852 5.43057122758204e-22 7.910536962749528e-14 7.529757798700679e-14 3.807791640488488e-15
5.529022354014368 5.556769623188992e-22 8.155304302539926e-14 7.765540782554018e-14 3.897635199859078e-15
5.570647458961463 5.687307205561733e-22 8.409725021029044e-14 8.01087669594661e-14 3.988483250824339e-15
5.612585937458331 5.822488190450725e-22 8.674432125849387e-14 8.266400330701071e-14 4.080317951483174e-15
5.654840148729818 5.966921852983203e-22 8.956536825648028e-14 8.539184112534517e-14 4.173527131135109e-15
5.67608639626678 6.060235273761667e-22 9.13078076449118e-14 8.70855471739798e-14 4.222260470932e-15
5.686739436050992 6.107884914997405e-22 9.219844747242885e-14 8.795171505462022e-14 4.246732417808628e-15
5.6974124697621304 6.156217237326563e-22 9.310243322924998e-14 8.883115902638777e-14 4.271274202862193e-15
5.718818669136295 6.254994521026583e-22 9.495168868544476e-14 9.063112245157149e-14 4.320566233873266e-15
5.740305295436557 6.362094327302766e-22 9.694033756269235e-14 9.25698648738888e-14 4.3704726888035565e-15
5.7835210386641895 6.631298888402924e-22 1.0180294832749268e-13 9.732919104202913e-14 4.4737572854635576e-15
5.827062130521658 6.933525424532874e-22 1.0724404697102903e-13 1.0266495454428983e-13 4.579092426739159e-15
5.8489554468988025 7.141002677645316e-22 1.1086818611417879e-13 1.0623235875808681e-13 4.635827356091964e-15
5.870931020387893 7.3607634899356665e-22 1.147094703096867e-13 1.1001651398826069e-13 4.692956321426026e-15
5.892989160043636 7.593771708638664e-22 1.1878527626738155e-13 1.140347981968361e-13 4.750478070545453e-15
5.915130176081913 7.856019912663876e-22 1.2334919381000128e-13 1.1853912622273856e-13 4.810067587262703e-15
5.95966208400165 8.579871011437282e-22 1.3572874314951156e-13 1.3078374791430083e-13 4.94499523521068e-15
6.004529249263818 9.605884023893553e-22 1.5310371776694822e-13 1.480073240899588e-13 5.0963936769894316e-15
6.027089341400364 1.031334033635955e-21 1.6499713825607728e-13 1.5981369649194145e-13 5.183441764135773e-15
6.049734195844842 1.1141928520828576e-21 1.789229684246146e-13 1.7364739665537078e-13 5.275571769243788e-15
6.095279466722835 1.3521063433391435e-21 2.1876301791724788e-13 2.1326247908405287e-13 5.500538833195007e-15
6.141167624020661 1.7148659183492916e-21 2.795442437464435e-13 2.737535615138559e-13 5.790682232587674e-15
6.164241091010745 1.9462409879482993e-21 3.1845323411007327e-13 3.1248134164341773e-13 5.9718924666555576e-15
6.187401249150058 2.2075844350301665e-21 3.6257264687291933e-13 3.5641441696232887e-13 6.158229910590468e-15
6.1990139391386085 2.3350479390168673e-21 3.842269709998081e-13 3.779738723468119e-13 6.253098652996211e-15
6.204828454712694 2.4019968283351985e-21 3.9561399059267064e-13 3.8931294702592827e-13 6.3010435667422605e-15
6.210648424152782 2.450883113041979e-21 4.0404429375289606e-13 3.9770219076118745e-13 6.342102991708542e-15
6.233982942956859 2.6163245477299143e-21 4.329389491892508e-13 4.2645279369068636e-13 6.48615549856453e-15
6.239830258556775 2.6371658873600553e-21 4.3679701135737904e-13 4.302901922530751e-13 6.5068191043041786e-15
6.245683058788269 2.6386073540253433e-21 4.3744569154514165e-13 4.30918165549435e-13 6.5275259957066384e-15
6.257405133728602 2.633214857608679e-21 4.37371020579766e-13 4.308068532277109e-13 6.564167352054913e-15
6.269149208991335 2.599689844240153e-21 4.326130111718449e-13 4.260334660166285e-13 6.579545155216264e-15
6.280915325867298 2.5169155951596972e-21 4.1962468032605376e-13 4.1305608435358304e-13 6.5685959724706534e-15
6.304513850009849 2.3133462832927547e-21 3.871343282379099e-13 3.8061149156689597e-13 6.522836671013949e-15
6.32820103803542 2.062473867704065e-21 3.464480771561336e-13 3.3999638887321933e-13 6.451688282914293e-15
6.3519772230701035 1.832979187514396e-21 3.090550888370305e-13 3.0266649854210433e-13 6.388590294926262e-15
6.375842739491607 1.6394822492588642e-21 2.7746853974688825e-13 2.711348247772462e-13 6.333714969641915e-15
6.399797922933955 1.485763676966519e-21 2.523977220321546e-13 2.4608862452731796e-13 6.3090975048365555e-15
6.42384311029221 1.3576581205806962e-21 2.3150201755425214e-13 2.252115218027021e-13 6.290495751550035e-15
6.447978639727206 1.2650637334971723e-21 2.1652369453702253e-13 2.102281149084252e-13 6.29557962859731e-15
6.472204850670314 1.1878731349932727e-21 2.0407591296909485e-13 1.9777050900285202e-13 6.305403966242808e-15
6.496522083828205 1.1383423017136306e-21 1.963013231954555e-13 1.8996682064034923e-13 6.334502555106309e-15
6.520930681187647 1.096701583742355e-21 1.8983115374543162e-13 1.8346454484189174e-13 6.366608903539879e-15
6.57002334288761 1.0551551245411401e-21 1.8401475938851543e-13 1.775569521851664e-13 6.457807203349073e-15
