Dust emission spectrum from A.P. Jones, M. Kohler, N. Ysard, M. Bocchio, and L. Verstraete (2017), A&A, 602A, 46J 
inside the DustPedia framework.

lambda    nu*dP/dnu     j_nu    j_nu(carb.) j_nu(sil)
 (um)   (erg s-1 H-1) (Jy cm2 sr-1 H-1)
0.9927057738263894 2.45954645118901e-24 6.481044598332547e-17 6.481044580888489e-17 1.7444060924542692e-25
1.0001793341362166 2.5001697758296726e-24 6.637687630280302e-17 6.637687609268705e-17 2.101159785704881e-25
1.0077091589558085 2.54074518466065e-24 6.79619372709496e-17 6.796193701818873e-17 2.5276087881111833e-25
1.0114953028030835 2.561010087709962e-24 6.876138132730349e-17 6.876138105021124e-17 2.7709225218954257e-25
1.0152956718711033 2.5812572288345484e-24 6.956539462778481e-17 6.956539432411747e-17 3.0366733186471313e-25
1.0229392996569957 2.6216707067415127e-24 7.118646683996044e-17 7.118646647560273e-17 3.6435768577625937e-25
1.0267826658714554 2.6417881490665757e-24 7.200223028087854e-17 7.200222988194873e-17 3.989297899896506e-25
1.0306404723013447 2.661879209819275e-24 7.282239703006177e-17 7.282239659342144e-17 4.366403075028048e-25
1.03451277320114 2.6819420199641305e-24 7.364693462394571e-17 7.364693414618549e-17 4.777601680281441e-25
1.0383996230291617 2.701974721589416e-24 7.447581020361636e-17 7.447580968103397e-17 5.225823900292878e-25
1.0403485208654093 2.711979204243529e-24 7.489186436383786e-17 7.489186381735798e-17 5.464799074030578e-25
1.0423010764483396 2.721975468280675e-24 7.530899052387568e-17 7.530898995245192e-17 5.714237673575567e-25
1.0462171883269815 2.741942425486658e-24 7.614644196234072e-17 7.614644133771406e-17 6.246266752076886e-25
1.0471985131304309 2.746928671353239e-24 7.635646820887875e-17 7.635646757022715e-17 6.386516042259725e-25
1.048180758391296 2.7519126630676097e-24 7.656675874301599e-17 7.656675809003785e-17 6.529781631846058e-25
1.0501480137395462 2.761873770877716e-24 7.698813052857516e-17 7.698812984601417e-17 6.825610030969175e-25
1.0521189612883777 2.7718255230929503e-24 7.741055301420824e-17 7.741055230078216e-17 7.134260695273066e-25
1.0531058218030118 2.7767902181060216e-24 7.762194440214195e-17 7.7621943672785e-17 7.293569116809306e-25
1.0540936079674168 2.781727582153472e-24 7.783289952195954e-17 7.783289877632776e-17 7.456318001149481e-25
1.058054026499678 2.8014512191074517e-24 7.867927364756266e-17 7.867927283328314e-17 8.142795249119181e-25
1.0590464539527713 2.8063755350992456e-24 7.889150282588724e-17 7.889150199352236e-17 8.323648801805128e-25
1.06003981227728 2.8112971586063765e-24 7.910398515268837e-17 7.91039843018537e-17 8.508346489972377e-25
1.0620293250338977 2.821132218231605e-24 7.95297070211455e-17 7.952970613218681e-17 8.889586748987533e-25
1.0660195594769086 2.8407688214792196e-24 8.038416393472191e-17 8.038416296455002e-17 9.7017188554754e-25
1.070024785945596 2.8603592850482674e-24 8.124260836848892e-17 8.12426073100277e-17 1.0584612391568656e-24
1.0740450607676866 2.879901879689083e-24 8.210500400014978e-17 8.210500284573861e-17 1.1544111543468608e-24
1.07808044048254 2.8993948910044636e-24 8.297131421424922e-17 8.297131295559777e-17 1.2586514707859456e-24
1.0861967418109137 2.938191114332139e-24 8.471454250333921e-17 8.471454100856925e-17 1.4947699392876216e-24
1.0902777775684922 2.9574130497912018e-24 8.55891233612028e-17 8.558912173303665e-17 1.6281661232396575e-24
1.0943741465085532 2.976577337180978e-24 8.646740563457988e-17 8.646740386168428e-17 1.7728956024196817e-24
1.1026131145906286 3.0147264796516176e-24 8.823492123112169e-17 8.823491913105474e-17 2.100066934247672e-24
1.1109141095355224 3.0526257346986265e-24 9.001678066854239e-17 9.001677818411675e-17 2.484425642916987e-24
1.1192775983109025 3.0902276188690638e-24 9.181163351838353e-17 9.181163058300806e-17 2.935375476031114e-24
1.1277040513999907 3.1273593261328568e-24 9.361433514219844e-17 9.361433167843527e-17 3.463763171024381e-24
1.1361939428280308 3.164199415003748e-24 9.543018124003656e-17 9.543017715795494e-17 4.082081590879555e-24
1.1447477501889525 3.200736313762686e-24 9.725884971822767e-17 9.725884491352602e-17 4.8047016756129105e-24
1.1533659546722406 3.236978328820959e-24 9.910061566767955e-17 9.910061001953906e-17 5.6481405247139736e-24
1.1707974979042381 3.3086949195264117e-24 1.0282718418684111e-16 1.0282717641074e-16 7.776101084113759e-24
1.1884924949847024 3.3790872522033314e-24 1.0660198278813766e-16 1.0660197213531543e-16 1.0652822242892919e-23
1.2064549276569216 3.448703057028699e-24 1.1044252741291491e-16 1.1044251289033327e-16 1.4522581628478768e-23
1.2246888378427687 3.516799556059805e-24 1.143254207939894e-16 1.1432540109182635e-16 1.9702163110343068e-23
1.2431983285522175 3.583224338440795e-24 1.1824528977887162e-16 1.1824526317790374e-16 2.660096787470263e-23
1.2619875648066055 3.6479608203132125e-24 1.2220097580770188e-16 1.2220094006231486e-16 3.574538703553206e-23
1.3004222497298317 3.7713393571744275e-24 1.3018154993383882e-16 1.301814862879674e-16 6.364587145159723e-23
1.3400274889804893 3.886519975628368e-24 1.382432848569349e-16 1.382431735902154e-16 1.112667194709476e-22
1.3808389325824078 3.993152488310272e-24 1.4636200546035098e-16 1.463618143846131e-16 1.9107573786104206e-22
1.4228933163050095 4.0918076425421945e-24 1.5454571979299624e-16 1.5454539731219996e-16 3.2248079632892194e-22
1.466228494730424 4.18482983591944e-24 1.6287292346188592e-16 1.6287238831107268e-16 5.35150813246931e-22
1.5108834753276823 4.2706119416581065e-24 1.7127363478922882e-16 1.712727611877931e-16 8.736014356854579e-22
1.5568984535646726 4.347879684656992e-24 1.796831026185697e-16 1.7968169829598736e-16 1.4043225822472313e-21
1.6043148490894465 4.4168787339159774e-24 1.8809381369752368e-16 1.8809158663391987e-16 2.2270636037974147e-21
1.6531753430134553 4.477929053670039e-24 1.9650136011797453e-16 1.9649787984566158e-16 3.4802723129748565e-21
1.7035239163302658 4.531790690190091e-24 2.0492149287384235e-16 2.0491613227110165e-16 5.360602740676023e-21
1.755405889504358 4.58218459930393e-24 2.1351066120753041e-16 2.1350251881670382e-16 8.142390826577507e-21
1.8088679632656115 4.6284237991089715e-24 2.2223344476031697e-16 2.2222124410566934e-16 1.2200654647572999e-20
1.8639582606462262 4.6701122943571684e-24 2.310643470450616e-16 2.310463052111774e-16 1.8041833884249982e-20
1.9207263702978936 4.707904946325908e-24 2.4002839315402404e-16 2.4000205352109853e-16 2.6339632925516114e-20
1.979223391128241 4.74305417435531e-24 2.4918525087642287e-16 2.491472722594497e-16 3.7978616973116427e-20
2.039501978296691 4.777026604772156e-24 2.586135190790109e-16 2.5855941555044994e-16 5.410352856093069e-20
2.1016163906111602 4.8135029706754264e-24 2.6852462830691574e-16 2.6844844669573297e-16 7.618161118286343e-20
2.1656225393682647 4.854771677505788e-24 2.790750463291322e-16 2.789689832243861e-16 1.0606310474623077e-19
2.231578038680979 4.901304659396242e-24 2.9033086661616164e-16 2.901848153205163e-16 1.460512956452571e-19
2.299542257339062 4.9546544892282256e-24 3.0242953543612727e-16 3.0223055584093433e-16 1.9897959519287292e-19
2.369576372248914 5.01780966773803e-24 3.156125961793828e-16 3.1534429860164083e-16 2.682975777418642e-19
2.4417434235010123 5.094258771555333e-24 3.3017977074254838e-16 3.298216219018207e-16 3.581488407277515e-19
2.5161083711144245 5.18970595357777e-24 3.4661035034401234e-16 3.4613688074355427e-16 4.7346960045804615e-19
2.5927381535095444 5.313193161798417e-24 3.6566525536466224e-16 3.650451834332517e-16 6.200719314105448e-19
2.6717017477616296 5.475335673459928e-24 3.883006852818319e-16 3.8749599604134956e-16 8.04689240482354e-19
2.753070231689431 5.6918199370961265e-24 4.1594688489398375e-16 4.149118378306189e-16 1.0350470633648457e-18
2.836916847834745 5.997566955444937e-24 4.51638695744224e-16 4.503187336177443e-16 1.3199621264795343e-18
2.9233170693905177 6.4686441629904076e-24 5.019478715084103e-16 5.002787677351197e-16 1.6691037732906276e-18
2.967498994190263 6.840552561642839e-24 5.388292930253052e-16 5.369612423144259e-16 1.8680507108794493e-18
3.0123486681368425 7.26921716126539e-24 5.812491283995746e-16 5.791611971286874e-16 2.0879312708872807e-18
3.0578761833420214 8.169156633878949e-24 6.630809525038084e-16 6.607497194134455e-16 2.331233090362892e-18
3.1040917844459814 9.314814551106648e-24 7.674996751930377e-16 7.649016619835226e-16 2.598013209515048e-18
3.127460860933648 1.0497384143103984e-23 8.714498641765047e-16 8.687082083547499e-16 2.7416558217550813e-18
3.1510058709225794 1.2063211371393596e-23 1.0089777354032463e-15 1.0060857615104264e-15 2.89197389281992e-18
3.162844764501044 1.3509808260584158e-23 1.1342178953894457e-15 1.131247903151131e-15 2.9699922383146942e-18
3.1747281389236908 1.5188225456805805e-23 1.2799205430261073e-15 1.276870785635166e-15 3.0497573909415553e-18
3.1986289994194426 1.985509422388688e-23 1.685796918945699e-15 1.682581874509778e-15 3.2150444359210583e-18
3.2227097969389145 3.081695317645409e-23 2.636211989445984e-15 2.6328211740799833e-15 3.3908153660018516e-18
3.2348180950136065 4.119708287211938e-23 3.537412954958034e-15 3.533928173708662e-15 3.484781249373213e-18
3.240889293275058 4.895464128597905e-23 4.211409783883785e-15 4.207875432672914e-15 3.534351210872166e-18
3.2469718861334385 5.792933872039196e-23 4.992827162725815e-15 4.989241516063043e-15 3.5856466627721194e-18
3.2714166318528037 1.0575704313920257e-22 9.183634485953578e-15 9.179836344556604e-15 3.7981413969674076e-18
3.2744851364798273 1.0874964255273372e-22 9.452360890851341e-15 9.448537565591277e-15 3.82332526006484e-18
3.2775565192852394 1.1182785177265859e-22 9.729031392434896e-15 9.725182743830762e-15 3.848648604133936e-18
3.283707930232385 1.0888189608922567e-22 9.49051172340052e-15 9.486617504269707e-15 3.89421913081528e-18
3.2898708863219004 9.951688268997074e-23 8.690505737401187e-15 8.686569783633266e-15 3.935953767922195e-18
3.29141343181113 9.73081645963678e-23 8.501609467905864e-15 8.497663027142412e-15 3.946440763450856e-18
3.292184975758714 9.622284689624577e-23 8.408758190059944e-15 8.404806497780732e-15 3.951692279210207e-18
3.295272960557952 8.937405446696392e-23 7.817579168348659e-15 7.813606999223669e-15 3.972169124989583e-18
3.3076538914384823 6.563849524179119e-23 5.762993219729542e-15 5.758938666086165e-15 4.0545536433774436e-18
3.310756385682612 6.080529672131979e-23 5.343650808282086e-15 5.3395754597544354e-15 4.075348527650232e-18
3.313861789986515 5.634498908563384e-23 4.956317549079759e-15 4.952221325838485e-15 4.0962232412737166e-18
3.3200813396944477 5.0093532841527477e-23 4.414685988453206e-15 4.410544984974798e-15 4.141003478405229e-18
3.345076488085796 3.897143641971351e-23 3.4603649086959636e-15 3.4560246310998406e-15 4.34027759612229e-18
3.3482140837626964 3.9395693828345346e-23 3.5013167829154343e-15 3.4969495197430844e-15 4.367263172350885e-18
3.3513546224236106 3.982458127476358e-23 3.542754319790287e-15 3.5383599339809394e-15 4.394385809348468e-18
3.3576445397418455 4.2930393876841814e-23 3.826211946285868e-15 3.8217608979726305e-15 4.451048313235894e-18
3.3702598118196083 5.436158120402724e-23 4.863230961038473e-15 4.858661022968668e-15 4.5699380698034625e-18
3.382922481734668 5.698645174878509e-23 5.11720830224127e-15 5.112522283491085e-15 4.686018750184824e-18
3.389271646505754 5.834586248677217e-23 5.24911243802545e-15 5.244367476410677e-15 4.744961614771902e-18
3.395632727569191 5.981204617177722e-23 5.391117577385399e-15 5.386311865397632e-15 4.805711987765052e-18
3.421196662673239 6.685157003203551e-23 6.070983940379814e-15 6.0659261446168245e-15 5.057795762985298e-18
3.4276182099114902 6.545949572390746e-23 5.955723538495048e-15 5.950608916174237e-15 5.114622320810556e-18
3.4340518103208963 5.931348657893774e-23 5.406668342963452e-15 5.4014996961631825e-15 5.1686468002698e-18
3.4469541582030403 5.0561021528574004e-23 4.626161399103794e-15 4.620888492415527e-15 5.272906688266913e-18
3.472904465399547 4.814211498088375e-23 4.438001406219618e-15 4.432489091063081e-15 5.512315156536214e-18
3.4990501388274233 4.442463242564851e-23 4.126135081298592e-15 4.120376426940496e-15 5.758654358095656e-18
3.5253949054701885 3.1096036316288697e-23 2.909927980108895e-15 2.9039278903855347e-15 6.0000897233599755e-18
3.5519380250092896 1.8557665359984802e-23 1.7496780824943257e-15 1.7434335849418426e-15 6.244497552483026e-18
3.578680990867387 1.3612505127732856e-23 1.293095129273313e-15 1.2865824064032655e-15 6.512722870047335e-18
3.605625307711299 1.1640545434645933e-23 1.114097902795436e-15 1.1073015638713023e-15 6.796338924133537e-18
3.660119384959845 1.0263567402312161e-23 9.971558079001453e-16 9.897586788917737e-16 7.397129008371377e-18
3.715437065384467 9.317279914007655e-24 9.189004947057209e-16 9.108627173518625e-16 8.03777735385809e-18
3.8285932144167436 8.995033664844305e-24 9.141373449940806e-16 9.046967244176034e-16 9.440620576477142e-18
3.94519561050918 9.11766205199301e-24 9.548199075113494e-16 9.438094499146085e-16 1.101045759674106e-17
4.06534921144712 9.43469143168272e-24 1.0181106749704232e-15 1.00535414069738e-15 1.2756534273043364e-17
4.189162171576248 9.873794340267424e-24 1.0979452478906856e-15 1.0832514966089553e-15 1.4693751281730495e-17
4.316745939156006 1.0408866292235216e-23 1.192694871971958e-15 1.1758659532712524e-15 1.6828918700705248e-17
4.448215356677963 1.1032104739500637e-23 1.3026076204963066e-15 1.2834583285247773e-15 1.9149291971528772e-17
4.58368876423945 1.174648519214861e-23 1.4291982957198475e-15 1.4075259900278063e-15 2.167230569204136e-17
4.723288106065518 1.2562972464168209e-23 1.5750932775112558e-15 1.5506645868103468e-15 2.442869070090901e-17
4.867139040275056 1.3500999880195984e-23 1.7442515574558057e-15 1.7168762576445139e-15 2.73752998112915e-17
4.940699165968905 1.4038956887659258e-23 1.8411648892429823e-15 1.8122318167828126e-15 2.893307246016949e-17
5.015371051989984 1.4596409437769576e-23 1.9432046411261684e-15 1.912658506519679e-15 3.0546134606489554e-17
5.091171501069577 1.5239473073913448e-23 2.0594777811289283e-15 2.0272320026422743e-15 3.2245778486653685e-17
5.129500256944802 1.5569565313192522e-23 2.11992734379853e-15 2.086810278334144e-15 3.311706546438543e-17
5.168117569889187 1.5911084718193534e-23 2.182737983903592e-15 2.1487289132299065e-15 3.400907067368525e-17
5.20702561229733 1.6307607227454223e-23 2.2539765310724314e-15 2.219004948725698e-15 3.497158234673346e-17
5.246226572918644 1.6713276718888432e-23 2.327437780025436e-15 2.291485810500244e-15 3.5951969525191536e-17
5.265937586045735 1.691962117441599e-23 2.365025215658781e-15 2.3285763185423605e-15 3.6448897116420225e-17
5.285722656980489 1.7128349150876406e-23 2.403196662130222e-15 2.366246331997392e-15 3.695033013283058e-17
5.305582063971359 1.7339494249446672e-23 2.4419619659179422e-15 2.404505685439554e-15 3.7456280478387946e-17
5.3255160863122235 1.7562523969713327e-23 2.4826646695220978e-15 2.4446949840736598e-15 3.7969685448437367e-17
5.365609099470188 1.8090780760749066e-23 2.576592708307384e-15 2.5375596672196114e-15 3.903304108777293e-17
5.406003951863644 1.863630857467918e-23 2.6742726614456407e-15 2.6341563501443237e-15 4.011631130131586e-17
5.446702915881641 1.9199857528738905e-23 2.775882806598367e-15 2.734663172434266e-15 4.121963416410009e-17
5.487708281020852 1.980073094031098e-23 2.884308250985407e-15 2.8419615811318527e-15 4.234666985355473e-17
5.529022354014368 2.0589746768486928e-23 3.021821342179079e-15 2.978296107140783e-15 4.3525235038295644e-17
5.570647458961463 2.141876728530893e-23 3.167156910087643e-15 3.122430688636619e-15 4.472622145102413e-17
5.612585937458331 2.2290499661205728e-23 3.320872795921118e-15 3.274922974985537e-15 4.5949820935581017e-17
5.654840148729818 2.3236900592088497e-23 3.4879316504356594e-15 3.440730897104177e-15 4.720075333148292e-17
5.67608639626678 2.3858796335252987e-23 3.594735662904695e-15 3.5468810318925605e-15 4.785463101213546e-17
5.686739436050992 2.4178257608248185e-23 3.64970500442029e-15 3.601521045677578e-15 4.8183958742711995e-17
5.6974124697621304 2.4503569237925202e-23 3.705752787637081e-15 3.657237903129158e-15 4.8514884507922447e-17
5.718818669136295 2.517228785388633e-23 3.8211883827683034e-15 3.772006836261123e-15 4.918154650718337e-17
5.740305295436557 2.590275575478923e-23 3.946847936374117e-15 3.8969893259765715e-15 4.985861039754702e-17
5.7835210386641895 2.7759089702596057e-23 4.261543963210233e-15 4.210280516599479e-15 5.126344661075422e-17
5.827062130521658 2.987388878535153e-23 4.62073265177272e-15 4.568026487778897e-15 5.270616399382276e-17
5.8489554468988025 3.1332346045477206e-23 4.864527475445876e-15 4.8110470558551935e-15 5.348041959068123e-17
5.870931020387893 3.288982359937841e-23 5.125520265421141e-15 5.071257080819591e-15 5.426318460154963e-17
5.892989160043636 3.455415962690159e-23 5.405120873991254e-15 5.3500663529733805e-15 5.5054521017872097e-17
5.915130176081913 3.6436470873080965e-23 5.72097494334397e-15 5.665101055060387e-15 5.587388828358164e-17
5.95966208400165 4.164707843492994e-23 6.588334025403069e-15 6.530625207869084e-15 5.770881753398341e-17
6.004529249263818 4.908742510706525e-23 7.82381638254683e-15 7.764058023672594e-15 5.975835887423766e-17
6.027089341400364 5.423174422728587e-23 8.676221581276974e-15 8.61529529629996e-15 6.092628497701412e-17
6.049734195844842 6.028895139384482e-23 9.681517994329975e-15 9.619357128080899e-15 6.21608662490766e-17
6.095279466722835 7.772116603074352e-23 1.2574836972470493e-14 1.2509699578101795e-14 6.513739436870081e-17
6.141167624020661 1.0444191836915191e-22 1.702531770765856e-14 1.6956388647428774e-14 6.892906022978965e-17
6.164241091010745 1.2149960894867122e-22 1.9880345575088347e-14 1.9809072021585556e-14 7.127355350279429e-17
6.187401249150058 1.4088186950117067e-22 2.313837310632544e-14 2.306468150347039e-14 7.369160285504316e-17
6.1990139391386085 1.5035024180275199e-22 2.4739799569717894e-14 2.4664875232027275e-14 7.492433769060933e-17
6.204828454712694 1.5533333531787867e-22 2.5583730974269128e-14 2.5508182878343757e-14 7.554809592536688e-17
6.210648424152782 1.5897984516074818e-22 2.6208879124876917e-14 2.6132790867945218e-14 7.608825693169591e-17
6.233982942956859 1.7137789043560382e-22 2.8358929653371204e-14 2.8280920605990744e-14 7.800904738046087e-17
6.239830258556775 1.7297137817431777e-22 2.86494609228174e-14 2.857115742868523e-14 7.830349413216571e-17
6.245683058788269 1.7312822420650485e-22 2.8702336347414515e-14 2.8623737502926353e-14 7.859884448816082e-17
6.257405133728602 1.7283073017716612e-22 2.870679262146517e-14 2.862766027324061e-14 7.913234822456355e-17
6.269149208991335 1.704507504261747e-22 2.8364619172453946e-14 2.8285211502590104e-14 7.940766986384226e-17
6.280915325867298 1.6441973628312206e-22 2.7412353203175836e-14 2.733299079458388e-14 7.936240859194265e-17
6.304513850009849 1.495232609528878e-22 2.50224480454976e-14 2.4943467421232465e-14 7.898062426513607e-17
6.32820103803542 1.3105171220696026e-22 2.201366737929258e-14 2.193537837613428e-14 7.828900315829508e-17
6.3519772230701035 1.1412036363742664e-22 1.924161461424237e-14 1.9163918815511516e-14 7.769579873085059e-17
6.375842739491607 9.986845335441728e-23 1.6901893223642397e-14 1.682469090481293e-14 7.720231882946188e-17
6.399797922933955 8.848964546421285e-23 1.5032393970083303e-14 1.4955310750589077e-14 7.708321949422898e-17
6.42384311029221 7.902808326859555e-23 1.347552851692893e-14 1.339848963880908e-14 7.703887811984692e-17
6.447978639727206 7.217042867949063e-23 1.2352427344356346e-14 1.2275137316397158e-14 7.729002795918547e-17
6.472204850670314 6.646529666768204e-23 1.1418699269005495e-14 1.1341097248666312e-14 7.760202033918177e-17
6.496522083828205 6.279981420289272e-23 1.08295076146242e-14 1.0751350870418427e-14 7.815674420577006e-17
6.520930681187647 5.972468380595105e-23 1.033791306772499e-14 1.0259160735749029e-14 7.87523319759653e-17
6.57002334288761 5.668274279540746e-23 9.885239652808351e-15 9.804947152127977e-15 8.029250068037318e-17
