Dust emission spectrum from A.P. Jones, M. Kohler, N. Ysard, M. Bocchio, and L. Verstraete (2017), A&A, 602A, 46J 
inside the DustPedia framework.

lambda    nu*dP/dnu     j_nu    j_nu(carb.) j_nu(sil)
 (um)   (erg s-1 H-1) (Jy cm2 sr-1 H-1)
0.9927057738263894 1.0538582654048303e-19 2.776976387296215e-12 2.7769762428020823e-12 1.4449413275076924e-19
1.0001793341362166 1.0715135163970552e-19 2.844755617088711e-12 2.8447554432610136e-12 1.7382769683988553e-19
1.0077091589558085 1.0892463354862185e-19 2.9136054875496453e-12 2.9136052787145348e-12 2.0883511166854262e-19
1.0114953028030835 1.0981411648095155e-19 2.9484344379211952e-12 2.94843420913675e-12 2.2878444551176734e-19
1.0152956718711033 1.1070545993500696e-19 2.9835341173286885e-12 2.9835338667736114e-12 2.505550772514765e-19
1.0229392996569957 1.1249275846439952e-19 3.0545262605137735e-12 3.0545259603048497e-12 3.0020892366447685e-19
1.0267826658714554 1.133866889552108e-19 3.0903668380161576e-12 3.0903665095577576e-12 3.2845839984405455e-19
1.0306404723013447 1.1428234134512976e-19 3.1264807224386096e-12 3.126480363193324e-12 3.5924528543680783e-19
1.03451277320114 1.1517969434357623e-19 3.16286905391074e-12 3.1628686611249474e-12 3.927857928672427e-19
1.0383996230291617 1.1607872756549427e-19 3.199532998502538e-12 3.1995325691890522e-12 4.293134861061879e-19
1.0403485208654093 1.1652886814276748e-19 3.2179686974605647e-12 3.2179682486849865e-12 4.487755787444723e-19
1.0423010764483396 1.1697942155262303e-19 3.2364737492507593e-12 3.2364732801701786e-12 4.690805803923366e-19
1.0462171883269815 1.1788175779459198e-19 3.2736925271986475e-12 3.2736920148393147e-12 5.123593317416931e-19
1.0471985131304309 1.1810759638016628e-19 3.2830408092782807e-12 3.283040285516633e-12 5.237616483453188e-19
1.048180758391296 1.1833353624098893e-19 3.2924065658653283e-12 3.2924060304588272e-12 5.354065020985362e-19
1.0501480137395462 1.1878571874982855e-19 3.311190582448717e-12 3.311190023005196e-12 5.594435218683991e-19
1.0521189612883777 1.1923830328318606e-19 3.330044737926957e-12 3.3300441534162198e-12 5.845107373839902e-19
1.0531058218030118 1.194644492699179e-19 3.339489882525945e-12 3.3394892850813695e-12 5.974445761123742e-19
1.0540936079674168 1.1968972395067976e-19 3.3489254367792964e-12 3.348924826124524e-12 6.10654771687727e-19
1.058054026499678 1.205917769296787e-19 3.3868422737408742e-12 3.386841607398321e-12 6.663425523237499e-19
1.0590464539527713 1.208175276261974e-19 3.3963652415469723e-12 3.3963645605419343e-12 6.810050391841064e-19
1.06003981227728 1.2104337287294944e-19 3.4059057546658156e-12 3.405905058690173e-12 6.959756420936087e-19
1.0620293250338977 1.2149534618943328e-19 3.425039501670398e-12 3.425038774804501e-12 7.268658970456721e-19
1.0660195594769086 1.2240041855541915e-19 3.4635184800831793e-12 3.4635176874610834e-12 7.926220959173075e-19
1.070024785945596 1.2330698193297657e-19 3.502280603225727e-12 3.502279739186638e-12 8.640390891793907e-19
1.0740450607676866 1.2421502532670956e-19 3.5413273012027924e-12 3.5413263596251275e-12 9.415776661291149e-19
1.07808044048254 1.2512453885960668e-19 3.5806600411152763e-12 3.5806590153814667e-12 1.0257338087659547e-18
1.0861967418109137 1.2694656504973458e-19 3.6601499909590204e-12 3.660148774885065e-12 1.2160739556156573e-18
1.0902777775684922 1.2785593226122405e-19 3.700219406125935e-12 3.700218082676425e-12 1.323449510882828e-18
1.0943741465085532 1.2876668828905974e-19 3.740578593216196e-12 3.740577153385211e-12 1.4398309853179727e-18
1.1026131145906286 1.3059235303443264e-19 3.82217294376622e-12 3.8221712412505245e-12 1.7025156959293566e-18
1.1109141095355224 1.324235442205851e-19 3.904946813479015e-12 3.904944802992875e-12 2.010486138663954e-18
1.1192775983109025 1.342588510485305e-19 3.988872649315745e-12 3.98887027824898e-12 2.371066763735988e-18
1.1277040513999907 1.3609179169456117e-19 4.073769998649551e-12 4.07376720596616e-12 2.7926833896827687e-18
1.1361939428280308 1.379301283216686e-19 4.159882301281175e-12 4.15987901626542e-12 3.2850157549139127e-18
1.1447477501889525 1.3977393186502072e-19 4.247226419537466e-12 4.247222560368876e-12 3.8591685901117324e-18
1.1533659546722406 1.4162392426709811e-19 4.335839373152176e-12 4.335834845281595e-12 4.527870581831886e-18
1.1707974979042381 1.4534810268761858e-19 4.517109159283534e-12 4.517102949980035e-12 6.209303498283882e-18
1.1884924949847024 1.490984340000981e-19 4.703692893592182e-12 4.703684421303403e-12 8.47228877849284e-18
1.2064549276569216 1.529000739319745e-19 4.896527862047326e-12 4.8965163593547464e-12 1.150269257935265e-17
1.2246888378427687 1.5672970805107085e-19 5.095027321924823e-12 5.095011781748025e-12 1.5540176795818892e-17
1.2431983285522175 1.605847123743397e-19 5.299245611013895e-12 5.299224718347074e-12 2.089266682057346e-17
1.2619875648066055 1.6447129488258731e-19 5.5095308631310345e-12 5.509502909342944e-12 2.795378809096309e-17
1.3004222497298317 1.7231826149469988e-19 5.948194060184397e-12 5.948144725449291e-12 4.9334735105609065e-17
1.3400274889804893 1.8029784829684212e-19 6.413183762721543e-12 6.4130982952281175e-12 8.546749342746857e-17
1.3808389325824078 1.8844247206674983e-19 6.907028521033684e-12 6.906883112155059e-12 1.454088786250211e-16
1.4228933163050095 1.9682105603394856e-19 7.433842065040467e-12 7.433598990673205e-12 2.430743672642648e-16
1.466228494730424 2.0557481557772968e-19 8.000939707486698e-12 8.000540256102798e-12 3.9945138389703624e-16
1.5108834753276823 2.146898481181806e-19 8.610173703881812e-12 8.609528113053345e-12 6.455908284650102e-16
1.5568984535646726 2.241602184530478e-19 9.263780614131124e-12 9.26275335303085e-12 1.0272611002758371e-15
1.6043148490894465 2.340377785454953e-19 9.966553525206225e-12 9.964941199574481e-12 1.6123256317433243e-15
1.6531753430134553 2.44376108285902e-19 1.0723760265732783e-11 1.0721267096874752e-11 2.493168858035279e-15
1.7035239163302658 2.5523580075949167e-19 1.154142035723448e-11 1.1537621279111004e-11 3.799078123476887e-15
1.755405889504358 2.667972845027183e-19 1.2431638967841297e-11 1.2425931430562727e-11 5.707537278569924e-15
1.8088679632656115 2.790521686263916e-19 1.339867034510073e-11 1.3390213354509972e-11 8.45699059075645e-15
1.8639582606462262 2.9198395489314074e-19 1.4446565228535903e-11 1.4434201459931404e-11 1.2363768604496662e-14
1.9207263702978936 3.0561387107896793e-19 1.5581454433975654e-11 1.5563613585387083e-11 1.7840848588571638e-14
1.979223391128241 3.1997855253676814e-19 1.6810673662564037e-11 1.6785253662077337e-11 2.54200004866991e-14
2.039501978296691 3.351043105875245e-19 1.814151609141373e-11 1.8105740779383495e-11 3.577531203023023e-14
2.1016163906111602 3.511133899079415e-19 1.958710591704103e-11 1.9537353300907283e-11 4.9752616133745837e-14
2.1656225393682647 3.6805042089874756e-19 2.1157264457912733e-11 2.1088870199424304e-11 6.8394258488431e-14
2.231578038680979 3.858486593974783e-19 2.2855909487445227e-11 2.2762942892124972e-11 9.29665953202529e-14
2.299542257339062 4.0449376921151564e-19 2.4690089485634733e-11 2.456510170477413e-11 1.2498778086060747e-13
2.369576372248914 4.240049153049816e-19 2.6669264275332623e-11 2.650300780649132e-11 1.6625646884130861e-13
2.4417434235010123 4.444115000181412e-19 2.880412907382439e-11 2.8585258674589643e-11 2.1887039923474733e-13
2.5161083711144245 4.658148305291351e-19 3.1110865056590106e-11 3.082561263808438e-11 2.8525241850572893e-13
2.5927381535095444 4.884071551533912e-19 3.361321933393485e-11 3.324505859752085e-11 3.681607364140048e-13
2.6717017477616296 5.123394614609805e-19 3.633416759205009e-11 3.586349483185211e-11 4.706727601979679e-13
2.753070231689431 5.378495253390515e-19 3.930497399406892e-11 3.8708796533188407e-11 5.961774608805074e-13
2.836916847834745 5.656655376607454e-19 4.259668087983878e-11 4.184830011735247e-11 7.4838076248632e-13
2.9233170693905177 5.974174359180296e-19 4.6357846065602446e-11 4.54267751715708e-11 9.31070894031641e-13
2.967498994190263 6.162942910055066e-19 4.854540830226098e-11 4.7512468124350555e-11 1.0329401779104242e-12
3.0123486681368425 6.36371470558155e-19 5.0884483761370316e-11 4.973999010111869e-11 1.1444936602516262e-12
3.0578761833420214 6.676806542592814e-19 5.4194862950545616e-11 5.292799040854554e-11 1.2668725420000726e-12
3.1040917844459814 7.0380189372054405e-19 5.799017488400644e-11 5.6590649830743145e-11 1.3995250532632943e-12
3.127460860933648 7.360057646116186e-19 6.110018599493355e-11 5.962984160433875e-11 1.470344390594801e-12
3.1510058709225794 7.764257807361673e-19 6.494094332240603e-11 6.339692940156755e-11 1.5440139208384677e-12
3.162844764501044 8.123723835653243e-19 6.820284029109737e-11 6.662075950359286e-11 1.5820807875045258e-12
3.1747281389236908 8.528479399074667e-19 7.186998912212805e-11 7.02491076255319e-11 1.6208814965961561e-12
3.1986289994194426 9.616297264265451e-19 8.164717889004873e-11 7.994625803265843e-11 1.7009208573903148e-12
3.2227097969389145 1.2111844031450655e-18 1.0360981589317496e-10 1.018242336620655e-10 1.7855822311094567e-12
3.2348180950136065 1.4443820735450428e-18 1.2402275847363975e-10 1.221920335374364e-10 1.8307249362033384e-12
3.240889293275058 1.618374959653777e-18 1.3922357431368803e-10 1.3736903737840858e-10 1.854536935279447e-12
3.2469718861334385 1.81996882196542e-18 1.568598912112969e-10 1.5498071593976798e-10 1.879175271528923e-12
3.2714166318528037 2.8748644135557026e-18 2.4964487647427546e-10 2.47664006798213e-10 1.9808696760624606e-12
3.2744851364798273 2.9407852282633496e-18 2.5560877836035753e-10 2.536159595439031e-10 1.9928188164543928e-12
3.2775565192852394 3.008444692335e-18 2.617349112065082e-10 2.5973008672266567e-10 2.0048244838425213e-12
3.283707930232385 2.943663292811429e-18 2.565795783651413e-10 2.545533556493692e-10 2.0262227157720896e-12
3.2898708863219004 2.737446501138444e-18 2.390528509427474e-10 2.370072205563008e-10 2.045630386446568e-12
3.29141343181113 2.688706857471396e-18 2.34906657326424e-10 2.3285615522364373e-10 2.0505021027802407e-12
3.292184975758714 2.6647416724117238e-18 2.328674434923662e-10 2.3081450255955812e-10 2.052940932808031e-12
3.295272960557952 2.515486787486596e-18 2.2003049123591508e-10 2.1796807617720858e-10 2.0624150587064673e-12
3.3076538914384823 1.9942479011901386e-18 1.7509294036499022e-10 1.7299250510274693e-10 2.100435262243245e-12
3.310756385682612 1.8869816027440236e-18 1.6583046725238754e-10 1.6372045532147696e-10 2.110011930910552e-12
3.313861789986515 1.7875507516174354e-18 1.5723969964120793e-10 1.5512008237865833e-10 2.1196172625496585e-12
3.3200813396944477 1.6488722135810582e-18 1.4531322997470102e-10 1.4317292164774364e-10 2.1403083269573872e-12
3.345076488085796 1.4082092188267863e-18 1.2503818726233615e-10 1.228055863662848e-10 2.232600896051385e-12
3.3482140837626964 1.418324617025665e-18 1.260544821688357e-10 1.2380937500711155e-10 2.2451071617241675e-12
3.3513546224236106 1.428527458671014e-18 1.2708035246444207e-10 1.2482268619883057e-10 2.2576662656115116e-12
3.3576445397418455 1.4988415508349579e-18 1.3358567041910964e-10 1.3130173405754298e-10 2.283936361566628e-12
3.3702598118196083 1.7523431632889836e-18 1.5676603471276043e-10 1.5442700100323508e-10 2.3390337095253205e-12
3.382922481734668 1.8136984080210727e-18 1.6286454528176646e-10 1.604720694818648e-10 2.3924757999016333e-12
3.389271646505754 1.845290470742191e-18 1.6601240857376398e-10 1.635928664112933e-10 2.4195421624706933e-12
3.395632727569191 1.88009218513925e-18 1.6946081391864823e-10 1.6701337802696753e-10 2.447435891680707e-12
3.421196662673239 2.0487225812072486e-18 1.8605040813315917e-10 1.8348762414156837e-10 2.5627839915908096e-12
3.4276182099114902 2.0191628813228756e-18 1.8371018241679012e-10 1.8112177879535016e-10 2.5884036214399045e-12
3.4340518103208963 1.8834778063353915e-18 1.7168675148838604e-10 1.6907417561150671e-10 2.6125758768793453e-12
3.4469541582030403 1.688840973333113e-18 1.5452320154653483e-10 1.5186435036774116e-10 2.6588511787936922e-12
3.472904465399547 1.6361974195803285e-18 1.5083355710138162e-10 1.4806792129452647e-10 2.765635806855193e-12
3.4990501388274233 1.556044206810339e-18 1.4452451802538138e-10 1.4164987384920065e-10 2.8746441761807276e-12
3.5253949054701885 1.2683255535486314e-18 1.1868831058140318e-10 1.1570819500595572e-10 2.9801155754474824e-12
3.5519380250092896 9.944711024644619e-19 9.376202544356382e-11 9.067624612410684e-11 3.0857793194569793e-12
3.578680990867387 8.894006754386461e-19 8.448699710966811e-11 8.128544759144722e-11 3.2015495182208857e-12
3.605625307711299 8.507551592460495e-19 8.142440953732256e-11 7.810113708419265e-11 3.3232724531298944e-12
3.660119384959845 8.302779065575149e-19 8.066556239582825e-11 7.708750257883436e-11 3.57805981699387e-12
3.715437065384467 8.18344856017387e-19 8.070783533118193e-11 7.686254778993296e-11 3.845287541248968e-12
3.8285932144167436 8.288628492359188e-19 8.423475804499579e-11 7.981990850049212e-11 4.4148495445036656e-12
3.94519561050918 8.477955131056281e-19 8.878285121733676e-11 8.375404202915646e-11 5.028809188180272e-12
4.06534921144712 8.694291645486802e-19 9.382131042305356e-11 8.813651809951741e-11 5.68479232353614e-12
4.189162171576248 8.920096020393267e-19 9.918959924431796e-11 9.280721570358863e-11 6.382383540729314e-12
4.316745939156006 9.14713407733791e-19 1.048119900955909e-10 9.769490224293884e-11 7.1170878526520625e-12
4.448215356677963 9.370656190701168e-19 1.1064333099878403e-10 1.0276678896443276e-10 7.876542034351284e-12
4.58368876423945 9.589057922081597e-19 1.1667034875213705e-10 1.0801033897638326e-10 8.660009775753756e-12
4.723288106065518 9.802569066076323e-19 1.2290053713286462e-10 1.1342965616994606e-10 9.470880962918555e-12
4.867139040275056 1.0010729063667653e-18 1.2933286360652074e-10 1.1904871920792605e-10 1.0284144398594656e-11
4.940699165968905 1.011707718263532e-18 1.3268227432768487e-10 1.219883835971838e-10 1.0693890730501036e-11
5.015371051989984 1.0218351346842814e-18 1.3603583707690905e-10 1.2493169464207283e-10 1.110414243483623e-11
5.091171501069577 1.0328962223316712e-18 1.395866385790869e-10 1.2806221088039507e-10 1.1524427698691807e-11
5.129500256944802 1.0382119953594946e-18 1.4136130028995182e-10 1.2962716426738049e-10 1.1734136022571264e-11
5.168117569889187 1.043519052216447e-18 1.4315357579583783e-10 1.3120766005925157e-10 1.1945915736586217e-11
5.20702561229733 1.049855453403011e-18 1.4510709756395112e-10 1.329279280526428e-10 1.2179169511308293e-11
5.246226572918644 1.0560764858748333e-18 1.4706585388152777e-10 1.3465317034023074e-10 1.241268354129707e-11
5.265937586045735 1.0591437910163003e-18 1.4804715465790828e-10 1.355176571502346e-10 1.2529497507673726e-11
5.285722656980489 1.0621823423627732e-18 1.4902971893291108e-10 1.3638339131966043e-10 1.2646327613250657e-11
5.305582063971359 1.0651921965538055e-18 1.500135351675547e-10 1.3725037776712523e-10 1.276315740042948e-11
5.3255160863122235 1.0683764765920577e-18 1.5102729748626785e-10 1.3814623851693455e-10 1.2881058969333376e-11
5.365609099470188 1.0762275067059786e-18 1.5328249139334786e-10 1.4015731607638355e-10 1.3125175316964277e-11
5.406003951863644 1.0840410131320357e-18 1.5555769715273366e-10 1.4218823898218116e-10 1.3369458170552521e-11
5.446702915881641 1.0918228526149506e-18 1.5785389448273125e-10 1.442401191539353e-10 1.3613775328795999e-11
5.487708281020852 1.0999594574298996e-18 1.6022752636649197e-10 1.463683159497504e-10 1.3859210416741574e-11
5.529022354014368 1.1114490358727735e-18 1.631200448994896e-10 1.4900496892866567e-10 1.4115075970823908e-11
5.570647458961463 1.1231586481308033e-18 1.660795706012482e-10 1.5170853840427505e-10 1.4371032196973163e-11
5.612585937458331 1.1351172041044056e-18 1.691115004412807e-10 1.5448455546002964e-10 1.462694498125108e-11
5.654840148729818 1.1479215128704268e-18 1.7230661899547617e-10 1.5742246214329394e-10 1.4884156852182233e-11
5.67608639626678 1.1569424361766683e-18 1.7431316219029243e-10 1.5929408756090754e-10 1.5019074629384928e-11
5.686739436050992 1.1615322705973516e-18 1.7533315301217717e-10 1.6024660618291368e-10 1.50865468292635e-11
5.6974124697621304 1.1661770672397357e-18 1.76364670625756e-10 1.612106455667433e-10 1.5154025059012665e-11
5.718818669136295 1.175637926470367e-18 1.7846347590836146e-10 1.6317448485695133e-10 1.528899105141018e-11
5.740305295436557 1.1860388426502916e-18 1.807188008445142e-10 1.6529369242806963e-10 1.5425108416444572e-11
5.7835210386641895 1.2134270045023203e-18 1.8628393730611188e-10 1.7057769791698542e-10 1.570623938912646e-11
5.827062130521658 1.2442289749049371e-18 1.9245065454766141e-10 1.7646028876877684e-10 1.5990365778884598e-11
5.8489554468988025 1.2664616715421762e-18 1.9662548054569702e-10 1.8048065359831092e-10 1.6144826947386065e-11
5.870931020387893 1.2899167969036009e-18 2.0101946315581596e-10 1.8471994409733716e-10 1.629951905847876e-11
5.892989160043636 1.3146931957298576e-18 2.0565036776647292e-10 1.8919594325681654e-10 1.6454424509656342e-11
5.915130176081913 1.3427877731734454e-18 2.1083422791720974e-10 1.9421888680537194e-10 1.6615341111837777e-11
5.95966208400165 1.4225100832423689e-18 2.2503311000668555e-10 2.0804531521945966e-10 1.698779478722585e-11
6.004529249263818 1.53700426364942e-18 2.4497596098708063e-10 2.2756574717891744e-10 1.7410213808163156e-11
6.027089341400364 1.61681010570779e-18 2.5866405242615746e-10 2.4100688959505066e-10 1.7657162831106842e-11
6.049734195844842 1.7101649428482122e-18 2.746273120475543e-10 2.5670792877834126e-10 1.791938326921309e-11
6.095279466722835 1.9797960690470854e-18 3.203195999035485e-10 3.017459865817299e-10 1.857361332181864e-11
6.141167624020661 2.3905756754571204e-18 3.8969324782987934e-10 3.7025853860203264e-10 1.9434709227846643e-11
6.164241091010745 2.6520737129062565e-18 4.339449514233243e-10 4.1396405343170884e-10 1.9980897991615565e-11
6.187401249150058 2.945332740245663e-18 4.837400874036085e-10 4.6319945821147617e-10 2.0540629192132406e-11
6.1990139391386085 3.0874463841916552e-18 5.080324701263877e-10 4.872072341006891e-10 2.0825236025698567e-11
6.204828454712694 3.1619219744764202e-18 5.20775279762655e-10 4.998064115855359e-10 2.0968868177119172e-11
6.210648424152782 3.2154936594553973e-18 5.300954002204667e-10 5.090054137894078e-10 2.1089986431059094e-11
6.233982942956859 3.3939111204185003e-18 5.616108733110359e-10 5.401039232364349e-10 2.1506950074601043e-11
6.239830258556775 3.4146233002226136e-18 5.655682335333015e-10 5.440074412643979e-10 2.1560792268903463e-11
6.245683058788269 3.4131564178238423e-18 5.658555325668014e-10 5.442408535517233e-10 2.1614679015078223e-11
6.257405133728602 3.4007252874349378e-18 5.648527636774694e-10 5.431461079598594e-10 2.1706655717610165e-11
6.269149208991335 3.3561174773315697e-18 5.584897332778682e-10 5.367606402165399e-10 2.172909306132819e-11
6.280915325867298 3.255494514993411e-18 5.427618819576084e-10 5.21096186131411e-10 2.1665695826197435e-11
6.304513850009849 3.0120394562194433e-18 5.040593705884144e-10 4.825978783866722e-10 2.1461492201742202e-11
6.32820103803542 2.717170330465437e-18 4.5642199449700766e-10 4.3524703729400567e-10 2.1174957203001866e-11
6.3519772230701035 2.448654217108e-18 4.128628692318628e-10 3.919479684401265e-10 2.091490079173626e-11
6.375842739491607 2.222068857526492e-18 3.7606640840035213e-10 3.553842704465875e-10 2.068213795376466e-11
6.399797922933955 2.042379242053694e-18 3.469541463502389e-10 3.264074898654571e-10 2.0546656484781778e-11
6.42384311029221 1.892188125788651e-18 3.2264777271387837e-10 3.022170646915382e-10 2.0430708022340186e-11
6.447978639727206 1.7828440209442982e-18 3.0514508002767206e-10 2.8475479585863605e-10 2.0390284169035957e-11
6.472204850670314 1.6911570673021892e-18 2.9053979950963844e-10 2.70175025348231e-10 2.0364774161407502e-11
6.496522083828205 1.6308243081251367e-18 2.8122733302834996e-10 2.6082717405400833e-10 2.0400158974341604e-11
6.520930681187647 1.579501419607518e-18 2.7340033175066757e-10 2.5295582974863486e-10 2.0444502002032613e-11
