Dust emission spectrum from A.P. Jones, M. Kohler, N. Ysard, M. Bocchio, and L. Verstraete (2017), A&A, 602A, 46J 
inside the DustPedia framework.

lambda    nu*dP/dnu     j_nu    j_nu(carb.) j_nu(sil)
 (um)   (erg s-1 H-1) (Jy cm2 sr-1 H-1)
0.9927057738263894 1.6201252707231794e-25 4.269122109633868e-18 4.269122057646603e-18 5.198726515142406e-26
1.0001793341362166 1.6468519665246731e-25 4.372218652021783e-18 4.372218589408469e-18 6.261331326239788e-26
1.0077091589558085 1.6735468714327353e-25 4.476540511932393e-18 4.476540436618791e-18 7.531360142773397e-26
1.0114953028030835 1.686879232033118e-25 4.529156159265952e-18 4.529156076706824e-18 8.255912864887507e-26
1.0152956718711033 1.7001998517695694e-25 4.582072344950029e-18 4.582072254477773e-18 9.04722567687126e-26
1.0229392996569957 1.7267877640868783e-25 4.68876276458849e-18 4.688762656046686e-18 1.0854180469460824e-25
1.0267826658714554 1.7400228603178047e-25 4.742451688522514e-18 4.742451569688502e-18 1.1883401192323335e-25
1.0306404723013447 1.7532405624898346e-25 4.796430276019619e-18 4.796430145959895e-18 1.300597232887029e-25
1.03451277320114 1.7664396457794868e-25 4.850696403630964e-18 4.8506962613315245e-18 1.422994379361218e-25
1.0383996230291617 1.7796188928591757e-25 4.9052479225780865e-18 4.905247766937878e-18 1.5564020931912782e-25
1.0403485208654093 1.7862006995169664e-25 4.9326300255363075e-18 4.932629862783697e-18 1.6275260993181926e-25
1.0423010764483396 1.792777094148329e-25 4.960082659375246e-18 4.9600824891991025e-18 1.7017614485074475e-25
1.0462171883269815 1.8059130480597267e-25 5.0151984164549694e-18 5.015198230446025e-18 1.8600894082944996e-25
1.0471985131304309 1.809193420354478e-25 5.0290210053745114e-18 5.029020815192048e-18 1.9018246031239213e-25
1.048180758391296 1.8124723089979783e-25 5.042860984430736e-18 5.042860789985079e-18 1.9444565673931555e-25
1.0501480137395462 1.8190255612410139e-25 5.070592972796597e-18 5.07059276954814e-18 2.0324845491211642e-25
1.0521189612883777 1.8255726569453276e-25 5.0983941003640254e-18 5.098393887931582e-18 2.124324432350734e-25
1.0531058218030118 1.828838845887113e-25 5.112306514561006e-18 5.1123062973884305e-18 2.1717257440355588e-25
1.0540936079674168 1.8320870454466633e-25 5.126190207789606e-18 5.126189985774623e-18 2.220149843247236e-25
1.058054026499678 1.8450628590089902e-25 5.181893034252925e-18 5.1818927918135894e-18 2.424393341663684e-25
1.0590464539527713 1.8483024756367795e-25 5.195860573757343e-18 5.195860325937442e-18 2.4781990114992557e-25
1.06003981227728 1.851540321449308e-25 5.209844773938288e-18 5.209844520623561e-18 2.533147264330632e-25
1.0620293250338977 1.8580106287026139e-25 5.237863010742523e-18 5.237862746086093e-18 2.6465642872871817e-25
1.0660195594769086 1.8709292043280174e-25 5.294097806686389e-18 5.294097517870901e-18 2.8881548975106976e-25
1.070024785945596 1.883817445282912e-25 5.350595071914692e-18 5.35059475683726e-18 3.150774328540156e-25
1.0740450607676866 1.8966742207716085e-25 5.407352437307559e-18 5.407352093691838e-18 3.436157225925794e-25
1.07808044048254 1.9094984100096143e-25 5.464367515444902e-18 5.4643671408276174e-18 3.74617285152707e-25
1.0861967418109137 1.935022039609349e-25 5.579096132303325e-18 5.579095687472117e-18 4.448312072677935e-25
1.0902777775684922 1.947667994057803e-25 5.636655867933258e-18 5.636655383439287e-18 4.844939689793654e-25
1.0943741465085532 1.9602760886334398e-25 5.6944593911396015e-18 5.6944588636167686e-18 5.275228303142473e-25
1.1026131145906286 1.985374463755133e-25 5.810787831205118e-18 5.810787206425096e-18 6.24780023849233e-25
1.1109141095355224 2.0103088103708997e-25 5.928061380150203e-18 5.928060641132824e-18 7.390173763969244e-25
1.1192775983109025 2.0350479524366447e-25 6.046191408703694e-18 6.046190535680563e-18 8.73023130178347e-25
1.1277040513999907 2.0594782271104782e-25 6.1648395615985756e-18 6.164838531585939e-18 1.0300126349160582e-24
1.1361939428280308 2.0837172668087887e-25 6.284354755950829e-18 6.2843535422624455e-18 1.2136883841078348e-24
1.1447477501889525 2.107757551301018e-25 6.4047161286915235e-18 6.4047147003830515e-18 1.4283084711433584e-24
1.1533659546722406 2.1316046364668623e-25 6.525942109439139e-18 6.525940430673399e-18 1.678765742971632e-24
1.1707974979042381 2.178796680189244e-25 6.771235577427158e-18 6.7712332669509254e-18 2.3104762319693766e-24
1.1884924949847024 2.2251220946259693e-25 7.019718921970862e-18 7.019715757832515e-18 3.1641383492758475e-24
1.2064549276569216 2.270942281037641e-25 7.272548577804678e-18 7.272544265771076e-18 4.312033603148735e-24
1.2246888378427687 2.3157697433847005e-25 7.528189939578763e-18 7.528184091727809e-18 5.847850956499302e-24
1.2431983285522175 2.359505447121047e-25 7.786294660274009e-18 7.786286767665495e-18 7.892608512517035e-24
1.2619875648066055 2.402140187009414e-25 8.046793519406339e-18 8.046782917580053e-18 1.0601826286213105e-23
1.3004222497298317 2.483436640308527e-25 8.572488455137895e-18 8.572469592743517e-18 1.8862394377904574e-23
1.3400274889804893 2.559403320685844e-25 9.103782420882913e-18 9.103749471595905e-18 3.294928701020711e-23
1.3808389325824078 2.6298322216470175e-25 9.639189064562465e-18 9.639132528042813e-18 5.653651965064649e-23
1.4228933163050095 2.6951273962154324e-25 1.0179374002125826e-17 1.0179278665667956e-17 9.533645787106428e-23
1.466228494730424 2.7568675973604087e-25 1.0729685621274062e-17 1.0729527550391023e-17 1.5807088304500757e-22
1.5108834753276823 2.814042728968981e-25 1.1285767314545279e-17 1.1285509505334385e-17 2.5780921089194706e-22
1.5568984535646726 2.8658746222469126e-25 1.1843686605641927e-17 1.184327255740186e-17 4.1404824007061926e-22
1.6043148490894465 2.9126013037566466e-25 1.2403380758390292e-17 1.2402724753511851e-17 6.560048784460477e-22
1.6531753430134553 2.9545295427364834e-25 1.2965124429129385e-17 1.2964100270735855e-17 1.0241583935300799e-21
1.7035239163302658 2.9922796215805824e-25 1.3530686853601095e-17 1.3529110928967905e-17 1.5759246331930742e-21
1.755405889504358 3.0284489509067817e-25 1.4111307039868785e-17 1.4108915763537913e-17 2.3912763308730665e-21
1.8088679632656115 3.0627709805162796e-25 1.4705873425918773e-17 1.4702294072544307e-17 3.5793533744646416e-21
1.8639582606462262 3.095210849339085e-25 1.5314254321753332e-17 1.530896703434955e-17 5.287287403786469e-21
1.9207263702978936 3.1264726719566446e-25 1.5940045949215125e-17 1.5932335506061203e-17 7.71044315392044e-21
1.979223391128241 3.157709119451224e-25 1.6589617368900768e-17 1.6578512532474457e-17 1.1104836426316383e-20
2.039501978296691 3.1902737524896005e-25 1.727116028896574e-17 1.7255359188636476e-17 1.58011003292653e-20
2.1016163906111602 3.2270470259950406e-25 1.8002307435216228e-17 1.7980085329176484e-17 2.2222106039740164e-20
2.1656225393682647 3.2700701985239614e-25 1.879789726015392e-17 1.8766997399083396e-17 3.0899861070525546e-20
2.231578038680979 3.3202649587767455e-25 1.966773073428314e-17 1.9625235745695964e-17 4.24949885871812e-20
2.299542257339062 3.3793521756643856e-25 2.0627390079029362e-17 2.0569572080286387e-17 5.781799874298508e-20
2.369576372248914 3.450086375600037e-25 2.1700518555880257e-17 2.1622665690929085e-17 7.7852864951175e-20
2.4417434235010123 3.535640855742173e-25 2.291593614551541e-17 2.281215825851715e-17 1.0377788699826829e-19
2.5161083711144245 3.6407464894111804e-25 2.4315836532869026e-17 2.417884435011566e-17 1.369921827533743e-19
2.5927381535095444 3.7724157990386156e-25 2.5962567979181592e-17 2.578343071728064e-17 1.791372619009526e-19
2.6717017477616296 3.938774503511889e-25 2.79330607308284e-17 2.770095343431955e-17 2.32107296508845e-19
2.753070231689431 4.1513424205563705e-25 3.033718506632214e-17 3.003911891582913e-17 2.9806615049301867e-19
2.836916847834745 4.434354422101979e-25 3.3392308290073855e-17 3.3012836187694404e-17 3.794721023794553e-19
2.9233170693905177 4.839020528845384e-25 3.754938428266492e-17 3.7070381379000214e-17 4.790029036647015e-19
2.967498994190263 5.135462232652919e-25 4.045195851128681e-17 3.991636909290287e-17 5.355894183839327e-19
3.0123486681368425 5.473088404606213e-25 4.3763004932396417e-17 4.3164941713075784e-17 5.980632193206381e-19
3.0578761833420214 6.124193211783602e-25 4.9709364750650234e-17 4.9042243834214606e-17 6.671209164356181e-19
3.1040917844459814 6.94057571879143e-25 5.718728570062885e-17 5.644454065211096e-17 7.427450485178815e-19
3.127460860933648 7.75016765145958e-25 6.433871958135781e-17 6.355529494774553e-17 7.834246336122806e-19
3.1510058709225794 8.81211358697636e-25 7.370530232263044e-17 7.28793362313914e-17 8.259660912390259e-19
3.162844764501044 9.778623509362826e-25 8.209657430116396e-17 8.124853934518194e-17 8.480349559820114e-19
3.1747281389236908 1.0897349740637659e-24 9.183259648896255e-17 9.096200632645147e-17 8.705901625110752e-19
3.1986289994194426 1.3994371467509471e-24 1.1881922108496903e-16 1.1790191663401606e-16 9.173044509529646e-19
3.2227097969389145 2.121900156639573e-24 1.8151627778746547e-16 1.8054932669825487e-16 9.66951089210541e-19
3.2348180950136065 2.8043177783099585e-24 2.4079447735670327e-16 2.398009937868743e-16 9.934835698288881e-19
3.240889293275058 3.313835459522896e-24 2.850785688508929e-16 2.8407108898008356e-16 1.0074798708093928e-18
3.2469718861334385 3.903133865953399e-24 3.364041989111677e-16 3.3538223588625637e-16 1.0219630249114054e-18
3.2714166318528037 7.042016823801931e-24 6.115082895104126e-16 6.10426354209011e-16 1.0819353014019179e-18
3.2744851364798273 7.238657787756356e-24 6.291736153713423e-16 6.280845790941154e-16 1.089036277227141e-18
3.2775565192852394 7.44090936776303e-24 6.473596664845272e-16 6.462634905581052e-16 1.0961759264221914e-18
3.283707930232385 7.248821597515952e-24 6.318316343029923e-16 6.307226233240513e-16 1.1090109789410897e-18
3.2898708863219004 6.636015916957394e-24 5.795030234163056e-16 5.783822698402638e-16 1.1207535760417915e-18
3.29141343181113 6.491501443691084e-24 5.671488139102019e-16 5.660251100238923e-16 1.1237038863095353e-18
3.292184975758714 6.420492262318094e-24 5.610763829633706e-16 5.599512017183057e-16 1.1251812450648626e-18
3.295272960557952 5.972140651954269e-24 5.223851891873544e-16 5.21254249632353e-16 1.1309395550012956e-18
3.3076538914384823 4.41858256310725e-24 3.879470615254064e-16 3.8679296118382303e-16 1.1541003415833042e-18
3.310756385682612 4.1023281456091864e-24 3.6051808465950154e-16 3.593581396465667e-16 1.1599450129348273e-18
3.313861789986515 3.8105114723746915e-24 3.3518694719768403e-16 3.3402113564196154e-16 1.1658115557224642e-18
3.3200813396944477 3.401860854058187e-24 2.9980212205412894e-16 2.9862372037697467e-16 1.1784016771543487e-18
3.345076488085796 2.677537692917232e-24 2.3774482866109475e-16 2.3651038900795096e-16 1.2344396531438597e-18
3.3482140837626964 2.705949173482256e-24 2.40492915192998e-16 2.3925088666901903e-16 1.2420285239789997e-18
3.3513546224236106 2.7346664071448376e-24 2.432731473120874e-16 2.4202349211775493e-16 1.2496551943323846e-18
3.3576445397418455 2.9394618537691306e-24 2.6198231706907506e-16 2.6071672691788955e-16 1.2655901511854491e-18
3.3702598118196083 3.6911685953031155e-24 3.3021492380286285e-16 3.2891590099221064e-16 1.299022810652209e-18
3.382922481734668 3.8657049599636155e-24 3.4712842979494337e-16 3.4579678797961467e-16 1.331641815328778e-18
3.389271646505754 3.956064468006749e-24 3.5590916509894194e-16 3.5456096510609776e-16 1.3481999928440377e-18
3.395632727569191 4.053462163413552e-24 3.6535601968348653e-16 3.6399075419267924e-16 1.3652654908073876e-18
3.421196662673239 4.5202433059193804e-24 4.1049633544426036e-16 4.090602853012153e-16 1.4360501430450633e-18
3.4276182099114902 4.430188260722618e-24 4.0307332362650126e-16 4.0162134234753563e-16 1.4519812789654382e-18
3.4340518103208963 4.028460064312826e-24 3.67210709686167e-16 3.657435951274354e-16 1.467114558731583e-18
3.4469541582030403 3.4570293127980675e-24 3.163064170568349e-16 3.148101226298452e-16 1.4962944269897883e-18
3.472904465399547 3.303501273421587e-24 3.0453467411464714e-16 3.029713443531525e-16 1.5633297614945771e-18
3.4990501388274233 3.064986872460096e-24 2.8467427117924284e-16 2.830420282527485e-16 1.632242926494413e-18
3.5253949054701885 2.1965506367232068e-24 2.055504467679927e-16 2.0385075895027902e-16 1.6996878177136788e-18
3.5519380250092896 1.3800322308374811e-24 1.3011400413753704e-16 1.2834612106793604e-16 1.7678830696010546e-18
3.578680990867387 1.0616158082885154e-24 1.0084625996288338e-16 9.900355550113605e-17 1.8427044617472838e-18
3.605625307711299 9.38303985259001e-25 8.980356702619145e-17 8.788180184334501e-17 1.9217651828464217e-18
3.660119384959845 8.604179405372877e-25 8.359381421658089e-17 8.150480497577408e-17 2.089009240806797e-18
3.715437065384467 8.113973957081654e-25 8.002265416521804e-17 7.775565031521437e-17 2.2670038500036566e-18
3.8285932144167436 8.18251569294343e-25 8.315636660876442e-17 8.050083295753267e-17 2.6555336512317365e-18
3.94519561050918 8.570186075099655e-25 8.974871221283098e-17 8.666030586858697e-17 3.0884063442440276e-18
4.06534921144712 9.114349646139696e-25 9.835421473336619e-17 9.478661217628548e-17 3.5676025570806914e-18
4.189162171576248 9.769227900639161e-25 1.0863176788405091e-16 1.0453516865311122e-16 4.096599230939683e-18
4.316745939156006 1.0519232163219997e-24 1.205341091518698e-16 1.1585758877821133e-16 4.67652037365842e-18
4.448215356677963 1.1360499573318305e-24 1.3413825979972793e-16 1.2883523833617055e-16 5.303021463557352e-18
4.58368876423945 1.2296946092144386e-24 1.4961730347388201e-16 1.436372957067361e-16 5.980007767145835e-18
4.723288106065518 1.3337997788385949e-24 1.6722627317592932e-16 1.605113897921589e-16 6.7148833837704175e-18
4.867139040275056 1.4497607063033318e-24 1.8730074752590155e-16 1.7980609872065696e-16 7.494648805244614e-18
4.940699165968905 1.5138233397559855e-24 1.9853315342290971e-16 1.9062857236658004e-16 7.90458105632974e-18
5.015371051989984 1.5802149417673554e-24 2.103723536881316e-16 2.020449513062807e-16 8.327402381850988e-18
5.091171501069577 1.6534041374071726e-24 2.234427048560862e-16 2.1467128965496667e-16 8.771415201119511e-18
5.129500256944802 1.69097372978201e-24 2.3024030377857877e-16 2.2124198362317795e-16 8.998320155400884e-18
5.168117569889187 1.7295882633214463e-24 2.3727093820000666e-16 2.280407113332023e-16 9.230226866804322e-18
5.20702561229733 1.7722261122573446e-24 2.449504706034903e-16 2.3546965035471833e-16 9.480820248771925e-18
5.246226572918644 1.8157576243998263e-24 2.52856634008897e-16 2.4312108652273233e-16 9.735547486164732e-18
5.265937586045735 1.8378649077483033e-24 2.5689681849210596e-16 2.470323574763662e-16 9.864461015739766e-18
5.285722656980489 1.8602033823369263e-24 2.609962302809966e-16 2.510018227637884e-16 9.994407517208258e-18
5.305582063971359 1.8827757365545013e-24 2.651557578829583e-16 2.5503037121059764e-16 1.0125386672360778e-17
5.3255160863122235 1.9062179794025737e-24 2.694658260983328e-16 2.592076281747111e-16 1.0258197923621687e-17
5.365609099470188 1.9588360780261984e-24 2.7898866401401017e-16 2.684554937169858e-16 1.0533170297024327e-17
5.406003951863644 2.0129024640664613e-24 2.8884744037364556e-16 2.780347389529321e-16 1.0812701420713411e-17
5.446702915881641 2.0684705486605807e-24 2.9905596035738585e-16 2.8795916335963973e-16 1.1096796997746073e-17
5.487708281020852 2.126837792141952e-24 3.098095626305335e-16 2.984231470859651e-16 1.1386415544568306e-17
5.529022354014368 2.1981108892506764e-24 3.2260223849766405e-16 3.109131956219932e-16 1.1689042875670895e-17
5.570647458961463 2.272350884803419e-24 3.360086839304355e-16 3.240119302864325e-16 1.1996753644002868e-17
5.612585937458331 2.3497399565236154e-24 3.50067859299214e-16 3.37758296370147e-16 1.2309562929067043e-17
5.654840148729818 2.4324210940417064e-24 3.651140343555114e-16 3.524853328131952e-16 1.2628701542316103e-17
5.67608639626678 2.483831651147674e-24 3.7423171276411843e-16 3.614362049977699e-16 1.2795507766348554e-17
5.686739436050992 2.51013017221601e-24 3.7890383995899965e-16 3.660243902506654e-16 1.2879449708334138e-17
5.6974124697621304 2.5368357432113005e-24 3.836537459462238e-16 3.7068999449049093e-16 1.296375145573301e-17
5.718818669136295 2.591504011506317e-24 3.9339392113047594e-16 3.802604850208736e-16 1.3133436109602386e-17
5.740305295436557 2.6503726661394606e-24 4.0384189184352724e-16 3.905362775909127e-16 1.33056142526146e-17
5.7835210386641895 2.7947625537462347e-24 4.2904877707172955e-16 4.153861973869754e-16 1.3662579684754344e-17
5.827062130521658 2.956617845747195e-24 4.573137671101235e-16 4.4328532617847275e-16 1.40284409316507e-17
5.8489554468988025 3.064509916307229e-24 4.75782843232217e-16 4.615578964196203e-16 1.422494681259659e-17
5.870931020387893 3.1790006093599446e-24 4.954125703297629e-16 4.809891842113734e-16 1.4423386118389678e-17
5.892989160043636 3.3006034393331525e-24 5.162955991213799e-16 5.016718308040065e-16 1.462376831737342e-17
5.915130176081913 3.436791685598075e-24 5.396186471320822e-16 5.247873895685401e-16 1.4831257563542084e-17
5.95966208400165 3.8059376721073826e-24 6.020779753587196e-16 5.867807616042747e-16 1.5297213754444957e-17
6.004529249263818 4.3237903339627785e-24 6.891488314119499e-16 6.733306100632346e-16 1.581822134871518e-17
6.027089341400364 4.677758817334942e-24 7.48367447539152e-16 7.322516493507536e-16 1.611579818839888e-17
6.049734195844842 5.09225682366707e-24 8.177414755154572e-16 8.013110339636789e-16 1.6430441551778487e-17
6.095279466722835 6.2754510846503356e-24 1.0153318374942578e-15 9.981402395004663e-16 1.7191597993791416e-17
6.141167624020661 8.075660433509458e-24 1.3164320105046596e-15 1.298267600694028e-15 1.816440981063126e-17
6.164241091010745 9.222379631392267e-24 1.509009746477372e-15 1.490242176862931e-15 1.87675696144413e-17
6.187401249150058 1.0521413182095075e-23 1.7280320361670365e-15 1.7086429347046702e-15 1.938910146236677e-17
6.1990139391386085 1.1156178265195176e-23 1.8357244453724565e-15 1.8160186137263617e-15 1.9705831646094733e-17
6.204828454712694 1.1489885079849233e-23 1.892408530381294e-15 1.8725424921172883e-15 1.9866038264005382e-17
6.210648424152782 1.1734943748955112e-23 1.9345831035538734e-15 1.914578763614437e-15 2.000433993943656e-17
6.233982942956859 1.2569367181345955e-23 2.0799287397992697e-15 2.0594344571027498e-15 2.0494282696519e-17
6.239830258556775 1.267771340632009e-23 2.099825177197865e-15 2.0792571275748644e-15 2.0568049623000986e-17
6.245683058788269 1.2690720816803077e-23 2.103951213295764e-15 2.0833091909072903e-15 2.0642022388474097e-17
6.257405133728602 1.2676114146716215e-23 2.105473833749269e-15 2.0846989142170366e-15 2.0774919532231804e-17
6.269149208991335 1.2523212974172208e-23 2.0839812434957836e-15 2.0631410761041556e-15 2.0840167391628345e-17
6.280915325867298 1.2127834822214569e-23 2.021974364220214e-15 2.001152875363712e-15 2.0821488856501524e-17
6.304513850009849 1.114857903168637e-23 1.865694593762191e-15 1.8449866692882296e-15 2.0707924473961238e-17
6.32820103803542 9.933291018841197e-24 1.6685639644689113e-15 1.6480506824908953e-15 2.0513281978015586e-17
6.3519772230701035 8.820816921615239e-24 1.4872609443109504e-15 1.4669165959796152e-15 2.0344348331335177e-17
6.375842739491607 7.884784039529357e-24 1.334433181363676e-15 1.3142316547137423e-15 2.0201526649933506e-17
6.399797922933955 7.142300810288919e-24 1.2133157395972322e-15 1.193159520304043e-15 2.0156219293189636e-17
6.42384311029221 6.5260076707956364e-24 1.1127867314029872e-15 1.0926563940791786e-15 2.013033732380856e-17
6.447978639727206 6.0839588955424875e-24 1.0413082144348635e-15 1.0211269882693493e-15 2.0181226165514045e-17
6.472204850670314 5.717948507723001e-24 9.823402244301561e-16 9.620924555799853e-16 2.0247768850170837e-17
6.496522083828205 5.488359256612846e-24 9.46439557436529e-16 9.260623655259904e-16 2.0377191910538592e-17
6.520930681187647 5.297829275534787e-24 9.170161314888351e-16 8.964991834834297e-16 2.051694800540574e-17
