Dust emission spectrum from A.P. Jones, M. Kohler, N. Ysard, M. Bocchio, and L. Verstraete (2017), A&A, 602A, 46J 
inside the DustPedia framework.

lambda    nu*dP/dnu     j_nu    j_nu(carb.) j_nu(sil)
 (um)   (erg s-1 H-1) (Jy cm2 sr-1 H-1)
0.9927057738263894 1.1089871733859866e-21 2.9222441910860235e-14 2.922244119545009e-14 7.154101420808141e-22
1.0001793341362166 1.1276561847781507e-21 2.9938084930360893e-14 2.99380840692817e-14 8.610791946890169e-22
1.0077091589558085 1.1463905678191153e-21 3.066459569755596e-14 3.0664594662520816e-14 1.0350351441227893e-21
1.0114953028030835 1.1557812662603728e-21 3.1031941951992676e-14 3.1031940817779346e-14 1.1342133222648555e-21
1.0152956718711033 1.1651871121910251e-21 3.14020239321035e-14 3.1402022689621736e-14 1.242481759546055e-21
1.0229392996569957 1.1840335648983629e-21 3.215017274606481e-14 3.2150171256522175e-14 1.4895426369284438e-21
1.0267826658714554 1.1934526685957976e-21 3.252768542546675e-14 3.2527683795294825e-14 1.6301719184296564e-21
1.0306404723013447 1.2028849489029499e-21 3.2907941505145686e-14 3.2907939721660515e-14 1.7834851826400276e-21
1.03451277320114 1.2123300520163818e-21 3.329094790971256e-14 3.3290945959143874e-14 1.950568687424393e-21
1.0383996230291617 1.2217876324510482e-21 3.3676711738451697e-14 3.367670960585531e-14 2.132596395201772e-21
1.0403485208654093 1.2265209960287888e-21 3.387062995551602e-14 3.3870627725909224e-14 2.2296067894594856e-21
1.0423010764483396 1.231257353261481e-21 3.406524027484728e-14 3.406523794401069e-14 2.33083659079407e-21
1.0462171883269815 1.2407388862614934e-21 3.4456540996247045e-14 3.4456538449588084e-14 2.546658960600187e-21
1.0471985131304309 1.243111077558482e-21 3.4554800226006e-14 3.455479762247346e-14 2.6035325402766005e-21
1.048180758391296 1.245483982223237e-21 3.465323331841309e-14 3.4653230656792017e-14 2.661621067137125e-21
1.0501480137395462 1.2502319122422953e-21 3.485062158366167e-14 3.4850618802119505e-14 2.7815421623240665e-21
1.0521189612883777 1.254982637855798e-21 3.504870678557114e-14 3.504870387894571e-14 2.9066254324974096e-21
1.0531058218030118 1.2573558495312856e-21 3.514792194586266e-14 3.5147918974689836e-14 2.9711728257514997e-21
1.0540936079674168 1.2597193027175363e-21 3.524701934989028e-14 3.524701631278515e-14 3.0371051320220945e-21
1.058054026499678 1.269179445268447e-21 3.5645138562845626e-14 3.564513524773813e-14 3.3151075015806453e-21
1.0590464539527713 1.2715460408704748e-21 3.574510140284247e-14 3.574509801452097e-14 3.388321494204647e-21
1.06003981227728 1.2739132515984722e-21 3.584523771589242e-14 3.584523425281159e-14 3.4630808327165144e-21
1.0620293250338977 1.2786495010247028e-21 3.604603128561347e-14 3.604602766825338e-14 3.61736009627906e-21
1.0660195594769086 1.2881291921140329e-21 3.644970592646754e-14 3.6449701980601306e-14 3.945866232052494e-21
1.070024785945596 1.2976182508174733e-21 3.6856171150956885e-14 3.6856166848172097e-14 4.302784790872163e-21
1.0740450607676866 1.3071164197745256e-21 3.726543589250177e-14 3.72654312020603e-14 4.6904414699203676e-21
1.07808044048254 1.3166234521860323e-21 3.767750936311099e-14 3.76775042517702e-14 5.111340778679976e-21
1.0861967418109137 1.335648439933071e-21 3.850969597665126e-14 3.850968991279358e-14 6.063857666745347e-21
1.0902777775684922 1.3451324532403173e-21 3.8928856246736016e-14 3.8928849645236525e-14 6.601499489841527e-21
1.0943741465085532 1.3546238699346629e-21 3.9350837682200365e-14 3.93508304977412e-14 7.184459173864002e-21
1.1026131145906286 1.373628172631926e-21 4.0203306811115334e-14 4.020329831008195e-14 8.50103338765944e-21
1.1109141095355224 1.3926599856446392e-21 4.10671924332727e-14 4.1067182387485016e-14 1.0045787671287901e-20
1.1192775983109025 1.4117030165301336e-21 4.194214018380144e-14 4.194212832793999e-14 1.185586144412221e-20
1.1277040513999907 1.4306867734996585e-21 4.282616007017092e-14 4.282614609614901e-14 1.397402192331551e-20
1.1361939428280308 1.4496928929247994e-21 4.3721787842515825e-14 4.372177139306759e-14 1.6449448236084175e-20
1.1447477501889525 1.4687208477354669e-21 4.462913723748967e-14 4.4629117898872534e-14 1.9338617143995226e-20
1.1533659546722406 1.487777401462348e-21 4.5548546046362557e-14 4.5548523340032144e-14 2.2706330410187674e-20
1.1707974979042381 1.5260340853808241e-21 4.742588597298416e-14 4.742585478778863e-14 3.1185195528121026e-20
1.1884924949847024 1.564403096845288e-21 4.935311211477876e-14 4.9353069498895575e-14 4.261588317879256e-20
1.2064549276569216 1.6031463609548593e-21 5.133974511253447e-14 5.133968716336293e-14 5.794917154735326e-20
1.2246888378427687 1.6419992054144844e-21 5.337871752711713e-14 5.33786391134701e-14 7.841364702699477e-20
1.2431983285522175 1.6809252402049549e-21 5.547001062488413e-14 5.546990503359865e-14 1.0559128549060593e-19
1.2619875648066055 1.719975553050639e-21 5.761648803293167e-14 5.76163465242081e-14 1.4150872356301163e-19
1.3004222497298317 1.7981787717382284e-21 6.207070682135442e-14 6.207045624502371e-14 2.5057633072795466e-19
1.3400274889804893 1.87680569159791e-21 6.675786705630867e-14 6.675743147660316e-14 4.355797055191939e-19
1.3808389325824078 1.9561084185408418e-21 7.169772551227135e-14 7.169698186069967e-14 7.436515716950622e-19
1.4228933163050095 2.0367391926063727e-21 7.692671602626834e-14 7.692546846910511e-14 1.247557163226247e-18
1.466228494730424 2.1201347328654537e-21 8.2515312596698e-14 8.251325501293208e-14 2.0575837659420272e-18
1.5108834753276823 2.2060644834833474e-21 8.847459985299325e-14 8.847126211745133e-14 3.3377355419002476e-18
1.5568984535646726 2.2944019538487286e-21 9.481984130712482e-14 9.481451040192181e-14 5.330905203039057e-18
1.6043148490894465 2.385658278737469e-21 1.0159381564658927e-13 1.0158541690580349e-13 8.398740785759514e-18
1.6531753430134553 2.4803739852673266e-21 1.0884425721457288e-13 1.0883122018669241e-13 1.3037027880483875e-17
1.7035239163302658 2.5791962775489294e-21 1.1662779411990313e-13 1.1660785087401074e-13 1.9943245892351085e-17
1.755405889504358 2.6840716127247877e-21 1.2506652500387847e-13 1.250364446879341e-13 3.008031594439603e-17
1.8088679632656115 2.794934815217282e-21 1.3419859952881828e-13 1.3415384973346366e-13 4.4749795354611324e-17
1.8639582606462262 2.9116724066142597e-21 1.4406156448451192e-13 1.4399587538099314e-13 6.568910351879087e-17
1.9207263702978936 3.034582094915578e-21 1.547154992381478e-13 1.5462031796552444e-13 9.51812726233424e-17
1.979223391128241 3.164135790573923e-21 1.6623381091538998e-13 1.660976251278343e-13 1.36185787555658e-16
2.039501978296691 3.3007210402486284e-21 1.7869087914731115e-13 1.7849839836752166e-13 1.92480779789472e-16
2.1016163906111602 3.4457383263449235e-21 1.922229214278084e-13 1.91954080226513e-13 2.6884120129539675e-16
2.1656225393682647 3.5997695294362264e-21 2.0693163652914459e-13 2.0656043930617644e-13 3.711972229681759e-16
2.231578038680979 3.762235784457652e-21 2.2285763722561105e-13 2.223508247642537e-13 5.068124613573245e-16
2.299542257339062 3.93307511417914e-21 2.4007286122626736e-13 2.393883913626114e-13 6.844698636559987e-16
2.369576372248914 4.112612998619592e-21 2.5867710246581057e-13 2.5776243324257797e-13 9.146692232325868e-16
2.4417434235010123 4.301275321534963e-21 2.7878326627121725e-13 2.7757349051068206e-13 1.209775760535207e-15
2.5161083711144245 4.500287241058424e-21 3.005654176218973e-13 2.989812013755477e-13 1.5842162463496128e-15
2.5927381535095444 4.711950383231877e-21 3.2428644840890753e-13 3.2223185261238606e-13 2.054595796521474e-15
2.6717017477616296 4.938305026715357e-21 3.502154644689697e-13 3.4757579457105584e-13 2.6396698979139415e-15
2.753070231689431 5.182580485450201e-21 3.7873267820470673e-13 3.753723075890729e-13 3.360370615633736e-15
2.836916847834745 5.4540104361131294e-21 4.107069046899505e-13 4.0646699887514813e-13 4.239905814802312e-15
2.9233170693905177 5.773455869516898e-21 4.4800329279699205e-13 4.427007019509851e-13 5.302590846006906e-15
2.967498994190263 5.971712397509879e-21 4.703908844065547e-13 4.644914606331382e-13 5.899423773416527e-15
3.0123486681368425 6.18502290280692e-21 4.945565790143656e-13 4.880017619759964e-13 6.554817038369236e-15
3.0578761833420214 6.538313539630656e-21 5.307073133653768e-13 5.234316827813212e-13 7.275630584055473e-15
3.1040917844459814 6.954815563328141e-21 5.730461574511618e-13 5.649863920060219e-13 8.059765445139868e-15
3.127460860933648 7.341572045942559e-21 6.094672610872837e-13 6.009877572499249e-13 8.47950383735892e-15
3.1510058709225794 7.834125375534811e-21 6.55253218808439e-13 6.463362750111289e-13 8.916943797310183e-15
3.162844764501044 8.278316808623235e-21 6.950072781889891e-13 6.858639882669852e-13 9.143289922003887e-15
3.1747281389236908 8.782228411969731e-21 7.400834672881909e-13 7.307092502315015e-13 9.374217056689392e-15
3.1986289994194426 1.0149365086302601e-20 8.617319161930688e-13 8.518806717728002e-13 9.851244420268513e-15
3.2227097969389145 1.331204235306609e-20 1.1387681791326113e-12 1.1284115376090421e-12 1.0356641523569015e-14
3.2348180950136065 1.6280006465955412e-20 1.3978928061055835e-12 1.3872664758191721e-12 1.0626330286411362e-14
3.240889293275058 1.8496468711327757e-20 1.5911915040524673e-12 1.5804229196073387e-12 1.0768584445128922e-14
3.2469718861334385 2.1064518624850095e-20 1.8155135736578591e-12 1.8045977977394646e-12 1.0915775918394874e-14
3.2714166318528037 3.456698192763464e-20 3.0016963209543932e-12 2.9901723376573732e-12 1.1523983297020081e-14
3.2744851364798273 3.5412076075423346e-20 3.0779661900669833e-12 3.0663705462370487e-12 1.159564382993468e-14
3.2775565192852394 3.6279971810450954e-20 3.1563602364293094e-12 3.1446925753334595e-12 1.1667661095850374e-14
3.283707930232385 3.5452299904798547e-20 3.0901415198747264e-12 3.078345098473478e-12 1.1796421401248658e-14
3.2898708863219004 3.281292071147775e-20 2.865452252884183e-12 2.853538679805055e-12 1.1913573079128189e-14
3.29141343181113 3.2189315363352816e-20 2.812312711822568e-12 2.800369722067276e-12 1.1942989755292424e-14
3.292184975758714 3.1882722097203017e-20 2.7861792620347106e-12 2.7742215446051122e-12 1.1957717429598572e-14
3.295272960557952 2.996693535825494e-20 2.621218103991683e-12 2.6092031038689014e-12 1.2015000122782489e-14
3.3076538914384823 2.328584318563685e-20 2.0444733825809815e-12 2.0322283217024816e-12 1.2245060878500351e-14
3.310756385682612 2.1913692066347e-20 1.9258045702739278e-12 1.913501523659435e-12 1.2303046614492172e-14
3.313861789986515 2.0642835953851994e-20 1.8158216331421316e-12 1.803460412250286e-12 1.2361220891845893e-14
3.3200813396944477 1.886793222240444e-20 1.6628093745522646e-12 1.650323014195908e-12 1.2486360356356982e-14
3.345076488085796 1.576674653656642e-20 1.3999662689322839e-12 1.3869222064466929e-12 1.3044062485591195e-14
3.3482140837626964 1.589367531735262e-20 1.4125602755805765e-12 1.3994406626068938e-12 1.3119612973682892e-14
3.3513546224236106 1.6021782023266355e-20 1.4252814632764074e-12 1.4120859609639706e-12 1.319550231243667e-14
3.3576445397418455 1.6917123267195576e-20 1.507754606850956e-12 1.494400433417907e-12 1.335417343304911e-14
3.3702598118196083 2.0162734521786837e-20 1.8037745152690433e-12 1.7900875258409352e-12 1.3686989428108801e-14
3.382922481734668 2.0939197437676443e-20 1.8802756037996594e-12 1.8662651267432826e-12 1.401047705637644e-14
3.389271646505754 2.133967884059205e-20 1.9198340525176985e-12 1.9056596123541177e-12 1.4174440163582056e-14
3.395632727569191 2.1778965717808202e-20 1.9630320715219405e-12 1.948688657159642e-12 1.4343414362298607e-14
3.421196662673239 2.390539592307325e-20 2.170917970480757e-12 2.1558750868511066e-12 1.504288362965038e-14
3.4276182099114902 2.3523366206158022e-20 2.140234419304986e-12 2.1250354414306288e-12 1.5198977874356642e-14
3.4340518103208963 2.1781856910716668e-20 1.9855058773757994e-12 1.9701592635503256e-12 1.5346613825473808e-14
3.4469541582030403 1.9286837161380637e-20 1.764679962732868e-12 1.7490499847652445e-12 1.5629977967623548e-14
3.472904465399547 1.8607275257358773e-20 1.7153196071851897e-12 1.6990368790757182e-12 1.628272810947148e-14
3.4990501388274233 1.756990173200136e-20 1.6318826730353386e-12 1.6149319929445632e-12 1.6950680090775635e-14
3.5253949054701885 1.3848017500319538e-20 1.2958800659783534e-12 1.278280496458719e-12 1.7599569519634092e-14
3.5519380250092896 1.0309165743782933e-20 9.719822510428697e-13 9.537305108815835e-13 1.8251740161286023e-14
3.578680990867387 8.936335048866482e-21 8.488908703293323e-13 8.299243396617071e-13 1.8966530667624915e-14
3.605625307711299 8.415827011118275e-21 8.054652830502218e-13 7.857459703532831e-13 1.9719312696938785e-14
3.660119384959845 8.105767660842678e-21 7.875150017212915e-13 7.662143040005607e-13 2.1300697720731115e-14
3.715437065384467 7.907483859001304e-21 7.798618155702038e-13 7.568942801732806e-13 2.296753539692302e-14
3.8285932144167436 7.955506593028965e-21 8.084934360454427e-13 7.819444537666469e-13 2.6548982278795815e-14
3.94519561050918 8.1165575510575e-21 8.499822307536879e-13 8.195294641717163e-13 3.045276658197166e-14
4.06534921144712 8.318121604854055e-21 8.976200719363196e-13 8.629463415707894e-13 3.467373036553028e-14
4.189162171576248 8.538569622206363e-21 9.49471056152394e-13 9.102521657028338e-13 3.9218890449560306e-14
4.316745939156006 8.768644003623121e-21 1.004750800293268e-12 9.606805389470941e-13 4.407026134617398e-14
4.448215356677963 9.003990490072624e-21 1.0631395281491648e-12 1.0139802542164001e-12 4.9159273932764704e-14
4.58368876423945 9.24366399477594e-21 1.1246793071659416e-12 1.0701885747389174e-12 5.4490732427024195e-14
4.723288106065518 9.48899015723159e-21 1.1896901509300194e-12 1.1295936828785128e-12 6.009646805150664e-14
4.867139040275056 9.741996126904109e-21 1.2586098857764191e-12 1.1927840961921373e-12 6.582578958428147e-14
4.940699165968905 9.877400086968561e-21 1.2953898485946748e-12 1.2266360963219914e-12 6.87537522726837e-14
5.015371051989984 1.0010215704616795e-20 1.3326494915627546e-12 1.2609349114807941e-12 7.171458008196038e-14
5.091171501069577 1.0159615747360988e-20 1.3729807320119132e-12 1.2982084001285342e-12 7.477233188337927e-14
5.129500256944802 1.0233195512540068e-20 1.3933356869692751e-12 1.3170253548931233e-12 7.631033207615218e-14
5.168117569889187 1.030774444995246e-20 1.4140522621663917e-12 1.3361828647011273e-12 7.786939746526426e-14
5.20702561229733 1.0396473373854594e-20 1.4369616991471939e-12 1.3573893769877485e-12 7.957232215944554e-14
5.246226572918644 1.0484963857639813e-20 1.4601027323919723e-12 1.3788170023136814e-12 8.12857300782911e-14
5.265937586045735 1.052912502834049e-20 1.4717614498664307e-12 1.3896153092720587e-12 8.214614059437183e-14
5.285722656980489 1.0573233281290981e-20 1.483479739098063e-12 1.4004708385013602e-12 8.300890059670257e-14
5.305582063971359 1.061729114314151e-20 1.4952582110897702e-12 1.4113842932130255e-12 8.38739178767445e-14
5.3255160863122235 1.0664046326459019e-20 1.5074855467530434e-12 1.4227374632145536e-12 8.474808353848982e-14
5.365609099470188 1.0778743767053193e-20 1.535170480599699e-12 1.448613698009043e-12 8.655678259065627e-14
5.406003951863644 1.0894538630753512e-20 1.563344301932878e-12 1.4749681989639659e-12 8.837610296891187e-14
5.446702915881641 1.1011535092745059e-20 1.5920290498224994e-12 1.5018237411259338e-12 9.020530869656576e-14
5.487708281020852 1.1135091444154584e-20 1.6220126532029762e-12 1.5299610388087919e-12 9.205161439418441e-14
5.529022354014368 1.1306885121121197e-20 1.6594369594124911e-12 1.5654606798315297e-12 9.397627958096134e-14
5.570647458961463 1.1483927340940094e-20 1.6981089223444652e-12 1.6021969998329522e-12 9.591192251151324e-14
5.612585937458331 1.1666681466690665e-20 1.738120082110103e-12 1.64026228805273e-12 9.785779405737298e-14
5.654840148729818 1.1863585187489723e-20 1.780761341173597e-12 1.6809383941381993e-12 9.982294703539802e-14
5.67608639626678 1.199978671417299e-20 1.8079730696619906e-12 1.7071215152092572e-12 1.0085155445273354e-13
5.686739436050992 1.2069300255071067e-20 1.8218593851757506e-12 1.7204923791460282e-12 1.0136700602972228e-13
5.6974124697621304 1.2139787763265318e-20 1.835938752768092e-12 1.7340555456391556e-12 1.0188320712893643e-13
5.718818669136295 1.2283784756212334e-20 1.8646956478220204e-12 1.7617778374148127e-12 1.0291781040720801e-13
5.740305295436557 1.2441908581651662e-20 1.8957952456841534e-12 1.7918320714837433e-12 1.0396317420041052e-13
5.7835210386641895 1.2854582276345877e-20 1.9734208897429337e-12 1.867297082509536e-12 1.0612380723339756e-13
5.827062130521658 1.332044133364884e-20 2.060334315651429e-12 1.9520172893349807e-12 1.0831702631644822e-13
5.8489554468988025 1.3652755583846306e-20 2.119669065213656e-12 2.0101660676709975e-12 1.0950299754265844e-13
5.870931020387893 1.4004396084427177e-20 2.182432378174037e-12 2.0717384785586353e-12 1.1069389961540143e-13
5.892989160043636 1.437689127096549e-20 2.248899581146209e-12 2.1370099386671017e-12 1.1188964247910743e-13
5.915130176081913 1.4798885448354277e-20 2.3236073859722173e-12 2.2104777328677563e-12 1.1312965310446104e-13
5.95966208400165 1.5988310943766932e-20 2.5292610420229855e-12 2.4132954823967343e-12 1.15965559626252e-13
6.004529249263818 1.7693795883014563e-20 2.820131832073712e-12 2.700969203645822e-12 1.1916262842789015e-13
6.027089341400364 1.8880225944976622e-20 3.0205376230693615e-12 2.899522522435538e-12 1.2101510063382323e-13
6.049734195844842 2.0270123809405042e-20 3.255083458427625e-12 3.1321049773603045e-12 1.229784810673208e-13
6.095279466722835 2.4281942598668125e-20 3.928678443042875e-12 3.800856026792121e-12 1.2782241625075303e-13
6.141167624020661 3.040579737382385e-20 4.956519073254983e-12 4.822387642522342e-12 1.34131430732641e-13
6.164241091010745 3.431036703896354e-20 5.614025916995972e-12 5.475924028000539e-12 1.3810188899543273e-13
6.187401249150058 3.8705161955791495e-20 6.356917903239599e-12 6.2147407084742855e-12 1.4217719476531463e-13
6.1990139391386085 4.084134320311677e-20 6.720352643853709e-12 6.576102146617783e-12 1.4425049723592732e-13
6.204828454712694 4.196211357114286e-20 6.9112494270396466e-12 6.765951912366337e-12 1.4529751467331046e-13
6.210648424152782 4.277360416300953e-20 7.0515115932471255e-12 6.905324441860071e-12 1.461871513870541e-13
6.233982942956859 4.549606672877003e-20 7.528507630633245e-12 7.379229045678867e-12 1.492785849543762e-13
6.239830258556775 4.5824422337734236e-20 7.589955118196107e-12 7.440255267981959e-12 1.496998502141483e-13
6.245683058788269 4.5822093243065137e-20 7.596688168165419e-12 7.446566447521634e-12 1.501217206437859e-13
6.257405133728602 4.567641082680214e-20 7.586748328574098e-12 7.43589270690966e-12 1.5085562166443755e-13
6.269149208991335 4.505219657626086e-20 7.497112189726905e-12 7.346008699364466e-12 1.5110349036243852e-13
6.280915325867298 4.359219183497816e-20 7.267768374371758e-12 7.1170177741795736e-12 1.5075060019218503e-13
6.304513850009849 4.003570519912675e-20 6.699903058064353e-12 6.550401459120427e-12 1.4950159894392622e-13
6.32820103803542 3.5694441619237147e-20 5.995843563299371e-12 5.848168908815542e-12 1.4767465448382957e-13
6.3519772230701035 3.1731891486152016e-20 5.350253079260725e-12 5.204221171010191e-12 1.4603190825053548e-13
6.375842739491607 2.838946530826661e-20 4.804677505255453e-12 4.660099268757761e-12 1.445782364976915e-13
6.399797922933955 2.5733156323222206e-20 4.371482583245963e-12 4.227673176805479e-12 1.4380940644048346e-13
6.42384311029221 2.3515255157238694e-20 4.009720068462716e-12 3.866542916288625e-12 1.4317715217408965e-13
6.447978639727206 2.1902770620484528e-20 3.748798333056367e-12 3.6057198121055318e-12 1.43078520950835e-13
6.472204850670314 2.055317435903456e-20 3.5310233880798407e-12 3.3879377861139928e-12 1.430856019658485e-13
