Dust emission spectrum from A.P. Jones, M. Kohler, N. Ysard, M. Bocchio, and L. Verstraete (2017), A&A, 602A, 46J 
inside the DustPedia framework.

lambda    nu*dP/dnu     j_nu    j_nu(carb.) j_nu(sil)
 (um)   (erg s-1 H-1) (Jy cm2 sr-1 H-1)
0.9927057738263894 7.857562070683966e-23 2.0705122356868046e-15 2.070512209892789e-15 2.5794015503297473e-23
1.0001793341362166 7.989545080592281e-23 2.121140134790075e-15 2.1211401037355545e-15 3.1054520255139e-23
1.0077091589558085 8.12178588474452e-23 2.1724819401785624e-15 2.1724819028398166e-15 3.733874524960935e-23
1.0114953028030835 8.187992754518698e-23 2.198420438874979e-15 2.1984203979524353e-15 4.0922543476394806e-23
1.0152956718711033 8.254251903412327e-23 2.2245372704574716e-15 2.224537225621942e-15 4.4835530057696207e-23
1.0229392996569957 8.386846749066942e-23 2.277288243939436e-15 2.277288190172243e-15 5.37671934375717e-23
1.0267826658714554 8.453028483784645e-23 2.303882329381095e-15 2.303882270528528e-15 5.885256664737547e-23
1.0306404723013447 8.519243465686187e-23 2.3306532008117654e-15 2.3306531364141e-15 6.439766540686693e-23
1.03451277320114 8.585487896894522e-23 2.357600802517441e-15 2.3576007320754703e-15 7.044197160135273e-23
1.0383996230291617 8.651758028323148e-23 2.384725081609856e-15 2.3847250045816904e-15 7.702816576831737e-23
1.0403485208654093 8.68490157372956e-23 2.398353459551931e-15 2.3983533790131892e-15 8.053874244047399e-23
1.0423010764483396 8.718050161129253e-23 2.412025988558455e-15 2.412025904356085e-15 8.420236945689832e-23
1.0462171883269815 8.784360648154119e-23 2.4395034777297227e-15 2.4395033857153182e-15 9.201440456882848e-23
1.0471985131304309 8.800940715392326e-23 2.4464004360623767e-15 2.446400341989089e-15 9.407328759913113e-23
1.048180758391296 8.817521649245341e-23 2.4533084275883563e-15 2.4533083314120976e-15 9.617625794703098e-23
1.0501480137395462 8.850685895350204e-23 2.4671575079338054e-15 2.4671574074157336e-15 1.0051807076383745e-22
1.0521189612883777 8.883852945743296e-23 2.4810507144025245e-15 2.4810506093552863e-15 1.0504723816104947e-22
1.0531058218030118 8.900414155437563e-23 2.4880073698928357e-15 2.4880072625082117e-15 1.0738462348272386e-22
1.0540936079674168 8.916899793242715e-23 2.4949537478345048e-15 2.4949536380622292e-15 1.0977227501813296e-22
1.058054026499678 8.982843501926487e-23 2.522848148134025e-15 2.522848028292971e-15 1.198410542169188e-22
1.0590464539527713 8.9993294528788e-23 2.5298489674076016e-15 2.5298488449145254e-15 1.2249307621642677e-22
1.06003981227728 9.01581530791911e-23 2.5368606732792225e-15 2.5368605480780097e-15 1.2520121356746352e-22
1.0620293250338977 9.04878652128369e-23 2.5509167428731346e-15 2.5509166120827627e-15 1.3079037055436253e-22
1.0660195594769086 9.11472551154494e-23 2.5791595014708236e-15 2.579159358777635e-15 1.426931889213943e-22
1.070024785945596 9.180657193880895e-23 2.6075764008619287e-15 2.6075762452337674e-15 1.5562816120371527e-22
1.0740450607676866 9.246578351729648e-23 2.636167426087531e-15 2.6361672564074912e-15 1.6968003936527726e-22
1.07808044048254 9.312485832108083e-23 2.664932570892064e-15 2.6649323859519473e-15 1.8494011614998068e-22
1.0861967418109137 9.444141040801857e-23 2.722954554269676e-15 2.722954334784057e-15 2.1948561810191317e-22
1.0902777775684922 9.509640752909868e-23 2.7521411511286465e-15 2.752140912137858e-15 2.3899078822956603e-22
1.0943741465085532 9.575110586714611e-23 2.781499948802013e-15 2.7814996886573863e-15 2.6014462675101966e-22
1.1026131145906286 9.705949520844094e-23 2.84073429953051e-15 2.840733991595547e-15 3.0793496286644675e-22
1.1109141095355224 9.836636371604594e-23 2.9006580423995398e-15 2.9006576783667965e-15 3.640327442161706e-22
1.1192775983109025 9.967041843280332e-23 2.9612394484796722e-15 2.9612390186847166e-15 4.297949565040226e-22
1.1277040513999907 1.0096645828864647e-22 3.022328705682161e-15 3.022328198897048e-15 5.067851124221524e-22
1.1361939428280308 1.0226024448076237e-22 3.0841019747922702e-15 3.0841013779901425e-15 5.968021270634458e-22
1.1447477501889525 1.0355161390410873e-22 3.146560624652059e-15 3.1465599227389953e-15 7.019130631052441e-22
1.1533659546722406 1.0484096376984499e-22 3.2097230816398216e-15 3.2097222571487613e-15 8.244910607632736e-22
1.1707974979042381 1.0741755826108661e-22 3.338308703842201e-15 3.338307570513172e-15 1.1333290282320015e-21
1.1884924949847024 1.0998424467772473e-22 3.4697353702412273e-15 3.469733820156147e-15 1.5500850797929262e-21
1.2064549276569216 1.1255920941186536e-22 3.604637269570096e-15 3.604635159896251e-15 2.1096738441661865e-21
1.2246888378427687 1.1512181229751604e-22 3.742422456463814e-15 3.742419599196631e-15 2.8572671849496663e-21
1.2431983285522175 1.1766859904846997e-22 3.883027206277189e-15 3.8830233551737765e-15 3.851103411965511e-21
1.2619875648066055 1.2020166980646616e-22 4.026567736767569e-15 4.026562570883867e-15 5.165883702145371e-21
1.3004222497298317 1.2520237323473837e-22 4.3218171210412706e-15 4.321807956126517e-15 9.164914753470094e-21
1.3400274889804893 1.3012797313418306e-22 4.6286442809125025e-15 4.6286283182240595e-15 1.5962688441894425e-20
1.3808389325824078 1.3498599989793505e-22 4.947675229525915e-15 4.9476479221611675e-15 2.730736474936569e-20
1.4228933163050095 1.398131372490642e-22 5.280678814913471e-15 5.2806329095210315e-15 4.590539243974985e-20
1.466228494730424 1.4470273373421963e-22 5.6318077915445525e-15 5.631731920810453e-15 7.587073409886563e-20
1.5108834753276823 1.4962693016494908e-22 6.000814061732556e-15 6.000690722162237e-15 1.2333957031809187e-19
1.5568984535646726 1.545668365553491e-22 6.387722469002387e-15 6.387525043478166e-15 1.9742552422139324e-19
1.6043148490894465 1.595507299640218e-22 6.794505143805362e-15 6.794193411684736e-15 3.117321206250694e-19
1.6531753430134553 1.6460963466062114e-22 7.223432241032195e-15 7.222947254878555e-15 4.8498615363884285e-19
1.7035239163302658 1.6978514601073848e-22 7.677456433201776e-15 7.676712816428074e-15 7.436167737020465e-19
1.755405889504358 1.7521314550976626e-22 8.164200664400184e-15 8.163076427458678e-15 1.1242369415088225e-18
1.8088679632656115 1.8088709858248117e-22 8.685281377738717e-15 8.683604858169322e-15 1.6765195693953562e-18
1.8639582606462262 1.868019904952428e-22 9.24245012537593e-15 9.239983101204564e-15 2.4670241713670073e-18
1.9207263702978936 1.929841141996294e-22 9.839125335727003e-15 9.835541772064078e-15 3.5835636629266406e-18
1.979223391128241 1.9947485087998285e-22 1.0479785583900017e-14 1.0474645140369924e-14 5.140443530092082e-18
2.039501978296691 2.0631432176201565e-22 1.1169222447698524e-14 1.116193821475723e-14 7.284232941296467e-18
2.1016163906111602 2.1361495443194744e-22 1.1916659569774531e-14 1.1906458558430255e-14 1.0201011344275572e-17
2.1656225393682647 2.2143526612900907e-22 1.2729137693578641e-14 1.2715014681979463e-14 1.4123011599175474e-17
2.231578038680979 2.2975870139553692e-22 1.3609854421289373e-14 1.3590518259142515e-14 1.9336162146855126e-17
2.299542257339062 2.386042166444735e-22 1.4564277398105617e-14 1.4538089299834838e-14 2.6188098270777656e-17
2.369576372248914 2.4802448998490597e-22 1.5600363183064102e-14 1.556526636558307e-14 3.5096817481029996e-17
2.4417434235010123 2.58081541368695e-22 1.6727321477621494e-14 1.6680763808308478e-14 4.6557669313015654e-17
2.5161083711144245 2.6889912661427103e-22 1.795924881229877e-14 1.789809641947014e-14 6.115239282862849e-17
2.5927381535095444 2.8068858132667842e-22 1.9317585234191553e-14 1.9238029869318486e-14 7.955536487306585e-17
2.6717017477616296 2.9366526991720486e-22 2.082619812791635e-14 2.072366373168627e-14 1.0253439623007958e-16
2.753070231689431 3.0815652890679106e-22 2.2519466475588516e-14 2.238851258931803e-14 1.309538862704875e-16
2.836916847834745 3.2498916905220225e-22 2.4472871338015244e-14 2.4307090409046382e-14 1.6578092896886261e-16
2.9233170693905177 3.460046283224912e-22 2.6848947374814906e-14 2.664090326208799e-14 2.0804411272690682e-16
2.967498994190263 3.599023985887039e-22 2.8349457626722676e-14 2.811756823052379e-14 2.3188939619888893e-16
3.0123486681368425 3.7515996322199046e-22 2.9997920930902456e-14 2.9739795979070264e-14 2.581249518322024e-16
3.0578761833420214 4.023702784288745e-22 3.2659927999587694e-14 3.237289694893954e-14 2.870310506481607e-16
3.1040917844459814 4.353401502343686e-22 3.5870110142307726e-14 3.5551557601309687e-14 3.185525409980331e-16
3.127460860933648 4.67170388516048e-22 3.878257345541082e-14 3.844711767597611e-14 3.35455779434701e-16
3.1510058709225794 5.083274091720505e-22 4.251695691630438e-14 4.2163862976705864e-14 3.5309393959851724e-16
3.162844764501044 5.457955587375279e-22 4.5822344625742155e-14 4.546011562102926e-14 3.6222900471290364e-16
3.1747281389236908 5.886868489661043e-22 4.960898121665657e-14 4.9237426304479714e-14 3.7155491217685535e-16
3.1986289994194426 7.0622139112782905e-22 5.996173233086655e-14 5.957089460595314e-14 3.9083772491342086e-16
3.2227097969389145 9.798324081735154e-22 8.381899168566567e-14 8.340770148127491e-14 4.1129020439074373e-16
3.2348180950136065 1.2375704650921739e-21 1.0626475203304318e-13 1.0584254218916555e-13 4.2220984387762373e-16
3.240889293275058 1.4301179556496974e-21 1.2302843187732616e-13 1.2260046211884666e-13 4.279697584795262e-16
3.2469718861334385 1.6530931324731586e-21 1.4247717092310085e-13 1.4204324123236463e-13 4.339296907362199e-16
3.2714166318528037 2.8322224301805272e-21 2.4594197047908555e-13 2.454833950770983e-13 4.5857540198715185e-16
3.2744851364798273 2.9060778621417527e-21 2.525920645353612e-13 2.521305800394886e-13 4.614844958725993e-16
3.2775565192852394 2.9819778467852362e-21 2.5943229368206673e-13 2.5896788511869994e-13 4.644085633667374e-16
3.283707930232385 2.909742477487874e-21 2.5362292618458323e-13 2.5315327899900963e-13 4.696471855736574e-16
3.2898708863219004 2.679282814897296e-21 2.3397359368182805e-13 2.334991703472432e-13 4.744233345848718e-16
3.29141343181113 2.6248697451354777e-21 2.2932934322446765e-13 2.2885372034554023e-13 4.756228789274226e-16
3.292184975758714 2.5981233763798834e-21 2.270457788832365e-13 2.2656955540483996e-13 4.762234783965026e-16
3.295272960557952 2.430269670653468e-21 2.125765208267775e-13 2.1209795948784597e-13 4.785613389315621e-16
3.3076538914384823 1.8463316190501134e-21 1.621060410169712e-13 1.616180852522121e-13 4.879557647590923e-16
3.310756385682612 1.7268096560568412e-21 1.5175434233350398e-13 1.5126401770780607e-13 4.9032462569794745e-16
3.313861789986515 1.6162684397057137e-21 1.4217306209008865e-13 1.4168036048164428e-13 4.927016084443871e-16
3.3200813396944477 1.4616683968925085e-21 1.28815170851293e-13 1.2831736062125222e-13 4.978102300407432e-16
3.345076488085796 1.189585676935738e-21 1.0562609209532498e-13 1.0510552621839236e-13 5.205658769326226e-16
3.3482140837626964 1.2004425389793068e-21 1.0669007701622699e-13 1.0616642894788517e-13 5.23648068341816e-16
3.3513546224236106 1.2114076980808323e-21 1.0776559898503426e-13 1.0723885435079658e-13 5.267446342376825e-16
3.3576445397418455 1.28903061419857e-21 1.148860723086757e-13 1.143528550354322e-13 5.332172732435005e-16
3.3702598118196083 1.5721218469003129e-21 1.4064329018825858e-13 1.4009649532911162e-13 5.467948591469722e-16
3.382922481734668 1.6388776470767142e-21 1.4716617800576425e-13 1.466061677806969e-13 5.600102250673358e-16
3.389271646505754 1.673370278290184e-21 1.5054552913990264e-13 1.4997881693901682e-13 5.667122008858054e-16
3.395632727569191 1.7109519031154593e-21 1.542154711185778e-13 1.5364185201069166e-13 5.736191078861465e-16
3.421196662673239 1.892304907543067e-21 1.718456679250869e-13 1.7124343719069415e-13 6.02230734392721e-16
3.4276182099114902 1.8586270748163295e-21 1.6910409859336814e-13 1.6849546281613528e-13 6.086357772328709e-16
3.4340518103208963 1.7066698849907568e-21 1.5556998199369475e-13 1.5495527850747115e-13 6.147034862236377e-16
3.4469541582030403 1.4895009476559377e-21 1.3628426759693203e-13 1.356578982568175e-13 6.263693401145416e-16
3.472904465399547 1.430247846600837e-21 1.3184800786125696e-13 1.311947939594502e-13 6.532139018066954e-16
3.4990501388274233 1.3393384910846385e-21 1.2439701201910784e-13 1.2371628277221253e-13 6.807292468953223e-16
3.5253949054701885 1.0123645024506033e-21 9.473579725036881e-14 9.402826535377088e-14 7.07531896597927e-16
3.5519380250092896 7.0259857442636175e-22 6.624331792922093e-14 6.550878887159941e-14 7.345290576215187e-16
3.578680990867387 5.815726820482335e-22 5.5245437589799264e-14 5.4481309663187774e-14 7.64127926611474e-16
3.605625307711299 5.347029936871507e-22 5.117556451541099e-14 5.03802279387668e-14 7.953365766441812e-16
3.660119384959845 5.047521853227271e-22 4.90391453006351e-14 4.8178084301966287e-14 8.610609986688057e-16
3.715437065384467 4.849006691066801e-22 4.782248347560993e-14 4.689190662982845e-14 9.305768457814758e-16
3.8285932144167436 4.841349055314596e-22 4.920112738334582e-14 4.8120341064856114e-14 1.0807863184896864e-15
3.94519561050918 4.937245913240394e-22 5.1703832181524184e-14 5.045803441391761e-14 1.2457977676065726e-15
4.06534921144712 5.073775100016692e-22 5.4751812808411064e-14 5.332609403072395e-14 1.4257187776870991e-15
4.189162171576248 5.232349439570011e-22 5.818262974194976e-14 5.6561450427249185e-14 1.6211793147005762e-15
4.316745939156006 5.405471241101588e-22 6.19383288136109e-14 6.010653245151792e-14 1.831796362092987e-15
4.448215356677963 5.590085556973846e-22 6.600452241600159e-14 6.394947099425049e-14 2.0550514217511137e-15
4.58368876423945 5.785892373655296e-22 7.039712206995983e-14 6.810559499683016e-14 2.2915270731296594e-15
4.723288106065518 5.994568769182465e-22 7.515741196479151e-14 7.261441714321348e-14 2.542994821578052e-15
4.867139040275056 6.219219246958123e-22 8.034873678932556e-14 7.754526752372382e-14 2.8034692656017237e-15
4.940699165968905 6.343072379577231e-22 8.318739240142889e-14 8.024945581520341e-14 2.937936586225471e-15
5.015371051989984 6.467322353990717e-22 8.6098782495198e-14 8.302390450282077e-14 3.074877992377221e-15
5.091171501069577 6.608918805993173e-22 8.931359616053199e-14 8.609646022721163e-14 3.2171359333203554e-15
5.129500256944802 6.679890837650315e-22 9.095233524808341e-14 8.766323754778819e-14 3.289097700295228e-15
5.168117569889187 6.752464728263156e-22 9.263266149602033e-14 8.927040860226093e-14 3.3622528937593896e-15
5.20702561229733 6.838083212519512e-22 9.451343083975823e-14 9.107164049693801e-14 3.4417903428202316e-15
5.246226572918644 6.924420194259118e-22 9.642727417225217e-14 9.290516579074458e-14 3.5221083815075947e-15
5.265937586045735 6.967867080585243e-22 9.73968694397299e-14 9.383431665223711e-14 3.5625527874928144e-15
5.285722656980489 7.011504595082545e-22 9.837506400055444e-14 9.477188054619747e-14 3.603183454356987e-15
5.305582063971359 7.055336674221684e-22 9.93619742729528e-14 9.571797694047387e-14 3.643997332478921e-15
5.3255160863122235 7.10181391797152e-22 1.0039230428424577e-13 9.6707014943058e-14 3.685289341187771e-15
5.365609099470188 7.214524914320502e-22 1.0275339983375308e-13 9.898267845537347e-14 3.770721378379615e-15
5.406003951863644 7.329469350589852e-22 1.0517640566339247e-13 1.0131942730035302e-13 3.8569783630394686e-15
5.446702915881641 7.446770484919124e-22 1.076641434595527e-13 1.0372010693537415e-13 3.944036524178547e-15
5.487708281020852 7.57130460210587e-22 1.1028873833197376e-13 1.0625652190013142e-13 4.03221643184233e-15
5.529022354014368 7.741118918777384e-22 1.1361129704086573e-13 1.094871106432628e-13 4.124186397602933e-15
5.570647458961463 7.917662657826829e-22 1.170771392417108e-13 1.1286009805135274e-13 4.2170411903580515e-15
5.612585937458331 8.101444653611186e-22 1.2069656385792612e-13 1.1638580678871917e-13 4.3107570692069136e-15
5.654840148729818 8.30031044870351e-22 1.2459026283536174e-13 1.2018452308180896e-13 4.405739753552792e-15
5.67608639626678 8.435405291256197e-22 1.270938055945817e-13 1.2263839396971107e-13 4.455411624870631e-15
5.686739436050992 8.50455583451374e-22 1.2837616544795133e-13 1.2389582535669621e-13 4.48034009125513e-15
5.6974124697621304 8.574809541071903e-22 1.2967957464377472e-13 1.251742448788913e-13 4.505329764883431e-15
5.718818669136295 8.718733675765627e-22 1.3235159246418194e-13 1.2779610118561625e-13 4.55549127856566e-15
5.740305295436557 8.876578086478142e-22 1.3525396384206083e-13 1.306477159062202e-13 4.606247935840686e-15
5.7835210386641895 9.284951944484726e-22 1.4254152903297665e-13 1.3783028087978169e-13 4.7112481531949866e-15
5.827062130521658 9.74807526127777e-22 1.5077799202965087e-13 1.459598037955435e-13 4.8181882341073114e-15
5.8489554468988025 1.0074663917616905e-21 1.5641496925253363e-13 1.5153912455838751e-13 4.875844694146122e-15
5.870931020387893 1.0421600479253132e-21 1.6240927621011666e-13 1.5747542064538654e-13 4.9338555647301205e-15
5.892989160043636 1.0790487718770456e-21 1.687897811407496e-13 1.6379756253814424e-13 4.992218602605355e-15
5.915130176081913 1.1208323699455639e-21 1.7598449439527746e-13 1.7093180080360558e-13 5.052693591671919e-15
5.95966208400165 1.237904691120301e-21 1.9582957324261285e-13 1.906395860243532e-13 5.189987218259674e-15
6.004529249263818 1.4056778339875259e-21 2.2404445216157038e-13 2.1870022656623814e-13 5.3442255953322695e-15
6.027089341400364 1.5222056713690918e-21 2.435288387871881e-13 2.380957482804157e-13 5.433090506772504e-15
6.049734195844842 1.6590299214100304e-21 2.6641578043606334e-13 2.608886038349829e-13 5.527176601080429e-15
6.095279466722835 2.0538023128418443e-21 3.3229338385701987e-13 3.2653581582935844e-13 5.757568027661449e-15
6.141167624020661 2.6578807813762948e-21 4.3326726891466854e-13 4.272117571630369e-13 6.055511751631736e-15
6.164241091010745 3.0435308746581848e-21 4.979970394984332e-13 4.917550504079823e-13 6.241989090451041e-15
6.187401249150058 3.479390541744506e-21 5.714534937856939e-13 5.650198556163328e-13 6.433638169361155e-15
6.1990139391386085 3.691805157039008e-21 6.07478368777217e-13 6.009471798024005e-13 6.5311889748166156e-15
6.204828454712694 3.80339989005014e-21 6.264280579276781e-13 6.198475795783263e-13 6.5804783493518296e-15
6.210648424152782 3.884631742740478e-21 6.404072395919172e-13 6.337846448001431e-13 6.622594791773994e-15
6.233982942956859 4.158903193449049e-21 6.881987098710367e-13 6.81428755746811e-13 6.769954124225805e-15
6.239830258556775 4.1930231755322905e-21 6.944955569170362e-13 6.877047631475388e-13 6.7907937694974074e-15
6.245683058788269 4.194544441613745e-21 6.953991813823055e-13 6.885875082731743e-13 6.8116731091310294e-15
6.257405133728602 4.183705580441715e-21 6.949040159923728e-13 6.880555664809187e-13 6.84844951145407e-15
6.269149208991335 4.125673486787964e-21 6.865511415469869e-13 6.796880668115871e-13 6.863074735399747e-15
6.280915325867298 3.985040375988632e-21 6.643930758252324e-13 6.575427879706753e-13 6.850287854556967e-15
6.304513850009849 3.640243337796229e-21 6.091881571635538e-13 6.023882721592485e-13 6.799885004305326e-15
6.32820103803542 3.2162533063143375e-21 5.402564323687908e-13 5.335333692126474e-13 6.7230631561434305e-15
6.3519772230701035 2.828371248010987e-21 4.768862261352179e-13 4.702315996530178e-13 6.654626482199941e-15
6.375842739491607 2.501317554722159e-21 4.2332689461307517e-13 4.1673212753571707e-13 6.594767077358199e-15
6.399797922933955 2.240771968079746e-21 3.80656593713174e-13 3.7409026184230147e-13 6.566331870872615e-15
6.42384311029221 2.0234585310877558e-21 3.4503143706297754e-13 3.384872901715756e-13 6.5441468914020064e-15
6.447978639727206 1.8655673687159587e-21 3.193037065140039e-13 3.127571805293521e-13 6.546525984651802e-15
6.472204850670314 1.733636954079548e-21 2.978378193246606e-13 2.912840160394299e-13 6.55380328523071e-15
6.496522083828205 1.64792619256123e-21 2.841764657618758e-13 2.775954279254022e-13 6.581037836473644e-15
6.520930681187647 1.5754989325355511e-21 2.7270753003506317e-13 2.660961799555111e-13 6.6113500795522e-15
6.57002334288761 1.5003783108739355e-21 2.616598710898359e-13 2.5496007415906847e-13 6.69979693076747e-15
