Dust emission spectrum from A.P. Jones, M. Kohler, N. Ysard, M. Bocchio, and L. Verstraete (2017), A&A, 602A, 46J 
inside the DustPedia framework.

lambda    nu*dP/dnu     j_nu    j_nu(carb.) j_nu(sil)
 (um)   (erg s-1 H-1) (Jy cm2 sr-1 H-1)
0.9927057738263894 7.034507935634313e-21 1.8536327962470612e-13 1.8536327385447837e-13 5.770227787157584e-21
1.0001793341362166 7.152779315236487e-21 1.8989876304346033e-13 1.8989875609953062e-13 6.943929756270774e-21
1.0077091589558085 7.271520392676868e-21 1.9450459486260574e-13 1.945045865173683e-13 8.345237364758957e-21
1.0114953028030835 7.331061623812765e-21 1.9683402508566755e-13 1.9683401594163085e-13 9.14403668990416e-21
1.0152956718711033 7.390713838879267e-21 1.9918120481731397e-13 1.9918119480136355e-13 1.0015950472241716e-20
1.0229392996569957 7.510284921769902e-21 2.039274601373271e-13 2.0392744813208329e-13 1.2005243807108626e-20
1.0267826658714554 7.570067963697288e-21 2.0632304560705227e-13 2.0632303246967971e-13 1.313737258619279e-20
1.0306404723013447 7.629951070295246e-21 2.0873649116434132e-13 2.0873647679287572e-13 1.4371465631900144e-20
1.03451277320114 7.689932399064371e-21 2.1116785688902782e-13 2.11167841172788e-13 1.571623979626061e-20
1.0383996230291617 7.750010163815391e-21 2.1361720427084018e-13 2.1361718708972596e-13 1.7181114235719183e-20
1.0403485208654093 7.78008466724676e-21 2.1484864070008445e-13 2.1484862273834694e-13 1.7961737514781048e-20
1.0423010764483396 7.810182636088548e-21 2.160845962739152e-13 2.160845774976519e-13 1.8776263267986667e-20
1.0462171883269815 7.870448146562934e-21 2.185700974022085e-13 2.185700768895356e-13 2.051267290180548e-20
1.0471985131304309 7.885528871521126e-21 2.191943099461247e-13 2.1919428897590786e-13 2.0970216836968316e-20
1.048180758391296 7.900615285977996e-21 2.1981965948313945e-13 2.198196380456192e-13 2.1437520307355463e-20
1.0501480137395462 7.930805086455025e-21 2.2107377376578927e-13 2.21073751363588e-13 2.2402201271393777e-20
1.0521189612883777 7.961017356582603e-21 2.2233244877589058e-13 2.223324253675457e-13 2.340834492531409e-20
1.0531058218030118 7.976111847026211e-21 2.2296293983541225e-13 2.2296291590788588e-13 2.3927526325675442e-20
1.0540936079674168 7.991146323171561e-21 2.235927388530216e-13 2.235927143951906e-13 2.4457831020568215e-20
1.058054026499678 8.051336599956776e-21 2.2612327184424858e-13 2.2612324515057693e-13 2.669367163245412e-20
1.0590464539527713 8.066397152835225e-21 2.2675874480039048e-13 2.2675871751794005e-13 2.728245043070991e-20
1.06003981227728 8.081462856345423e-21 2.2739535585674425e-13 2.273953279731067e-13 2.7883637479080337e-20
1.0620293250338977 8.11160963166973e-21 2.286719967634052e-13 2.286719676391707e-13 2.912423451580815e-20
1.0660195594769086 8.171964085202272e-21 2.312389856318917e-13 2.3123895386631673e-13 3.1765574917274745e-20
1.070024785945596 8.232398695471374e-21 2.338243124370839e-13 2.3382427780209195e-13 3.463499197979303e-20
1.0740450607676866 8.292912266729242e-21 2.3642805320374495e-13 2.3642801545262644e-13 3.775111844003455e-20
1.07808044048254 8.353503673857336e-21 2.3905028606620226e-13 2.3905024493218596e-13 4.113401626887254e-20
1.0861967418109137 8.474823095338398e-21 2.443478771058485e-13 2.4434782831770463e-13 4.878814387167047e-20
1.0902777775684922 8.535338321103647e-21 2.4701727901894464e-13 2.4701722591133564e-13 5.310760901751201e-20
1.0943741465085532 8.595923974446085e-21 2.4970533633316056e-13 2.4970527854263074e-13 5.779052984554214e-20
1.1026131145906286 8.717303700132161e-21 2.5513777469384633e-13 2.551377063294509e-13 6.836439549680824e-20
1.1109141095355224 8.838957338016866e-21 2.606459334306239e-13 2.606458526631789e-13 8.076744504943547e-20
1.1192775983109025 8.96078595803638e-21 2.662277663277763e-13 2.662276710310337e-13 9.529674258743294e-20
1.1277040513999907 9.082349251432635e-21 2.718709294443225e-13 2.718708171500777e-13 1.122942448679882e-19
1.1361939428280308 9.204165395114278e-21 2.7759159794231497e-13 2.7759146578927196e-13 1.3215304298253954e-19
1.1447477501889525 9.326234971077056e-21 2.8339069406893827e-13 2.833905387445431e-13 1.5532439521680394e-19
1.1533659546722406 9.448603442519386e-21 2.892705243085423e-13 2.8927034198265035e-13 1.8232589198064698e-19
1.1707974979042381 9.694607941598913e-21 3.012877465815707e-13 3.0128749630485964e-13 2.502767110547237e-19
1.1884924949847024 9.94184682459653e-21 3.136410826287145e-13 3.136407407993082e-13 3.418294062264694e-19
1.2064549276569216 1.0191991027732265e-20 3.2639204647625205e-13 3.2639158191096375e-13 4.645652882332761e-19
1.2246888378427687 1.0443420892095099e-20 3.394985892671128e-13 3.394979609936682e-13 6.282734445993101e-19
1.2431983285522175 1.0695932442107573e-20 3.529624471189501e-13 3.52961601570007e-13 8.455489430834098e-19
1.2619875648066055 1.0949894518185012e-20 3.6680432192764793e-13 3.668031894129469e-13 1.1325147009115386e-18
1.3004222497298317 1.1460610098283622e-20 3.956048089238453e-13 3.956028058814175e-13 2.0030424277216485e-18
1.3400274889804893 1.1977097868357408e-20 4.2602466030218217e-13 4.260211825856441e-13 3.477716538097775e-18
1.3808389325824078 1.2501238014596036e-20 4.582109678780898e-13 4.582050378025996e-13 5.930075490308974e-18
1.4228933163050095 1.3037402646558808e-20 4.924167879484495e-13 4.924068521300187e-13 9.935818431042052e-18
1.466228494730424 1.3594873316971246e-20 5.29110345711968e-13 5.290939797375429e-13 1.6365974425046447e-17
1.5108834753276823 1.41724499636166e-20 5.683885710755166e-13 5.683620576175546e-13 2.6513457962039682e-17
1.5568984535646726 1.476952242024665e-20 6.103742065424259e-13 6.103319167187e-13 4.228982372597287e-17
1.6043148490894465 1.5389428471513763e-20 6.553624100215881e-13 6.552958730558065e-13 6.653696578168918e-17
1.6531753430134553 1.603564443637625e-20 7.036792911074895e-13 7.035761500224177e-13 1.0314108507187229e-16
1.7035239163302658 1.6712201512862876e-20 7.557033228912641e-13 7.555457639035997e-13 1.5755898766433918e-16
1.755405889504358 1.743124482480174e-20 8.122231934477555e-13 8.119858846547353e-13 2.373087930202884e-16
1.8088679632656115 1.8192177089531894e-20 8.734961096420556e-13 8.731435794700809e-13 3.525301719745832e-16
1.8639582606462262 1.8993931713036656e-20 9.397676442158053e-13 9.392509162571254e-13 5.167279586795341e-16
1.9207263702978936 1.98379604672695e-20 1.0114209672240312e-12 1.0106733611484183e-12 7.476060756128981e-16
1.979223391128241 2.0726724459541553e-20 1.0889173609321818e-12 1.087849302862154e-12 1.0680580700279306e-15
2.039501978296691 2.1662006718085343e-20 1.1727143788734294e-12 1.1712071440120313e-12 1.5072348613983764e-15
2.1016163906111602 2.2651957668612972e-20 1.2636552943759342e-12 1.261553412885417e-12 2.1018814905172505e-15
2.1656225393682647 2.369944878700672e-20 1.3623554736577852e-12 1.359457970709731e-12 2.8975029480538144e-15
2.231578038680979 2.479984863935673e-20 1.4690295845231165e-12 1.4650799152001504e-12 3.9496693229660226e-15
2.299542257339062 2.5951848790494433e-20 1.5840873648165143e-12 1.578762002931806e-12 5.325361884708414e-15
2.369576372248914 2.715642581511352e-20 1.7080978797516754e-12 1.7009934907389525e-12 7.104389012722616e-15
2.4417434235010123 2.841516218075591e-20 1.84170301415408e-12 1.83232261339575e-12 9.380400758329523e-15
2.5161083711144245 2.9734546631371575e-20 1.9859124423253566e-12 1.9736501912701324e-12 1.2262251055224738e-14
2.5927381535095444 3.112753020523696e-20 2.1422628417139135e-12 2.126388122207687e-12 1.5874719506226604e-14
2.6717017477616296 3.2604824332587774e-20 2.312273874496041e-12 2.2919157711184653e-12 2.03581033775759e-14
2.753070231689431 3.418385909682657e-20 2.4980884606539427e-12 2.472220255106148e-12 2.5868205547795037e-14
2.836916847834745 3.591766462066083e-20 2.704731322545157e-12 2.6721544414930143e-12 3.257688105214308e-14
2.9233170693905177 3.7926744185808515e-20 2.943004443841563e-12 2.9023418576789113e-12 4.066258616265245e-14
2.967498994190263 3.915230624184795e-20 3.0840212544962335e-12 3.0388295261261216e-12 4.519172837011199e-14
3.0123486681368425 4.0463135906320903e-20 3.2354463976102286e-12 3.1852864130240153e-12 5.0159984586213495e-14
3.0578761833420214 4.259311484517327e-20 3.45723364447612e-12 3.401614793143059e-12 5.561885133306149e-14
3.1040917844459814 4.508265838579914e-20 3.7146124035103585e-12 3.653063162021837e-12 6.154924148852252e-14
3.127460860933648 4.736941509713067e-20 3.932414951169811e-12 3.867694408054897e-12 6.472054311491482e-14
3.1510058709225794 5.0267662670749755e-20 4.204432044175322e-12 4.136408763446105e-12 6.802328072921788e-14
3.162844764501044 5.287522545851287e-20 4.439147157459638e-12 4.369415813998155e-12 6.973134346148089e-14
3.1747281389236908 5.582413008638388e-20 4.704331727055562e-12 4.63285837168145e-12 7.147335537411201e-14
3.1986289994194426 6.379773171076081e-20 5.416746873169493e-12 5.341676927722472e-12 7.506994544702206e-14
3.2227097969389145 8.220947818695778e-20 7.032545067049133e-12 6.953666991768752e-12 7.887807528038057e-14
3.2348180950136065 9.946596298623311e-20 8.540706319839883e-12 8.459796748889128e-12 8.090957095075279e-14
3.240889293275058 1.1235170097408276e-19 9.66525420856783e-12 9.58327307329101e-12 8.198113527682058e-14
3.2469718861334385 1.2728361815585337e-19 1.0970349742225842e-11 1.088725985651691e-11 8.308988570893046e-14
3.2714166318528037 2.0562187677418515e-19 1.7855606610751746e-11 1.776793720887946e-11 8.766940187228449e-14
3.2744851364798273 2.1052046610967372e-19 1.8298132976519408e-11 1.820992455715649e-11 8.82084193629182e-14
3.2775565192852394 2.1554989324771631e-19 1.8752856688209692e-11 1.8664106618602396e-11 8.87500696072925e-14
3.283707930232385 2.1073692044471176e-19 1.8368537708003495e-11 1.8278820340564018e-11 8.971736743948733e-14
3.2898708863219004 1.9541201483539286e-19 1.7064735049777183e-11 1.6974138626406467e-11 9.059642337071791e-14
3.29141343181113 1.9179037848172696e-19 1.6756321571955338e-11 1.6665504444757918e-11 9.08171271974217e-14
3.292184975758714 1.9000969077911e-19 1.660463803624933e-11 1.6513710416021548e-11 9.092762022778372e-14
3.295272960557952 1.7890270686531814e-19 1.5648681070729183e-11 1.5557323887567516e-11 9.135718316167256e-14
3.3076538914384823 1.401364546515272e-19 1.2303838395726895e-11 1.2210756502194813e-11 9.30818935320811e-14
3.310756385682612 1.3216538307043324e-19 1.1614870647010685e-11 1.1521354154014208e-11 9.35164929964764e-14
3.313861789986515 1.247791303463769e-19 1.0976042475662524e-11 1.0882090012698489e-11 9.395246296402996e-14
3.3200813396944477 1.144676080240266e-19 1.0087899906642222e-11 9.993009139659827e-12 9.489076698239657e-14
3.345076488085796 9.649094865042161e-20 8.56765681204926e-12 8.468583057177136e-12 9.907375487212096e-14
3.3482140837626964 9.72306795876843e-20 8.641437100663211e-12 8.541796630830379e-12 9.964046983283411e-14
3.3513546224236106 9.797707833793056e-20 8.715941421387748e-12 8.615731750787064e-12 1.002096706006855e-13
3.3576445397418455 1.0317952700186859e-19 9.195972903468673e-12 9.094572948632877e-12 1.0139995483579819e-13
3.3702598118196083 1.2200220264782778e-19 1.0914415587084706e-11 1.0810519078839786e-11 1.0389650824492015e-13
3.382922481734668 1.265194721647473e-19 1.1361059927203327e-11 1.1254738731673801e-11 1.0632119552952672e-13
3.389271646505754 1.288477300739425e-19 1.1591845483401882e-11 1.148429567714046e-11 1.0754980626142133e-13
3.395632727569191 1.3140788185628452e-19 1.1844358904689669e-11 1.173554294095411e-11 1.0881596373555658e-13
3.421196662673239 1.4381522719126003e-19 1.3060275685998416e-11 1.294622050880852e-11 1.1405517718989495e-13
3.4276182099114902 1.4160099445337041e-19 1.2883331385521763e-11 1.2768109090144011e-11 1.1522229537775468e-13
3.4340518103208963 1.314956738113347e-19 1.1986371697880453e-11 1.1870046533226914e-11 1.163251646535414e-13
3.4469541582030403 1.170038070969179e-19 1.0705450158558422e-11 1.0587010249038892e-11 1.1843990951952676e-13
3.472904465399547 1.1304136312010172e-19 1.0420766280982875e-11 1.029745181465233e-11 1.233144663305479e-13
3.4990501388274233 1.0701634753114694e-19 9.939618668983535e-12 9.811320689625512e-12 1.2829797935802386e-13
3.5253949054701885 8.547883186421377e-20 7.999001609681235e-12 7.865869684053355e-12 1.331319256278806e-13
3.5519380250092896 6.498202680046258e-20 6.12672045989094e-12 5.988736056698315e-12 1.379844031926242e-13
3.578680990867387 5.704654587519451e-20 5.4190327144704154e-12 5.2757306946034924e-12 1.4330201986692274e-13
3.605625307711299 5.405505233152766e-20 5.1735222181952924e-12 5.024623496990529e-12 1.4889872120476264e-13
3.660119384959845 5.2306158032281944e-20 5.081799263975492e-12 4.921159545323707e-12 1.6063971865178417e-13
3.715437065384467 5.1196996381578955e-20 5.049214549382836e-12 4.876222795694641e-12 1.729917536881946e-13
3.8285932144167436 5.1545605237069004e-20 5.238419829565232e-12 5.0389696619310586e-12 1.99450167634174e-13
3.94519561050918 5.253162939993275e-20 5.501217882285984e-12 5.2730505445542515e-12 2.2816733773173245e-13
4.06534921144712 5.37337971599013e-20 5.7984887890958495e-12 5.539412554918542e-12 2.5907623417730625e-13
4.189162171576248 5.50258689655083e-20 6.1187613656635176e-12 5.826561738472518e-12 2.9219962719099676e-13
4.316745939156006 5.63525070302452e-20 6.457124558115933e-12 6.1297513634883425e-12 3.273731946275899e-13
4.448215356677963 5.768618260871785e-20 6.811253413358969e-12 6.4471919595341965e-12 3.640614538247732e-13
4.58368876423945 5.901998054555977e-20 7.180978329203804e-12 6.778708574407434e-12 4.0226975479637025e-13
4.723288106065518 6.036016179828217e-20 7.567706237447423e-12 7.1255069163603124e-12 4.42199321087111e-13
4.867139040275056 6.171435499362288e-20 7.97313982447384e-12 7.490426078925464e-12 4.827137455483754e-13
4.940699165968905 6.243049616945186e-20 8.187562543642676e-12 7.684257197689864e-12 5.033053459528113e-13
5.015371051989984 6.312358534189455e-20 8.403576545577968e-12 7.879528110351563e-12 5.240484352264046e-13
5.091171501069577 6.390282725109965e-20 8.635892608402624e-12 8.090489162695191e-12 5.454034457074321e-13
5.129500256944802 6.4282595345493e-20 8.752616329485939e-12 8.196504812513679e-12 5.56111516972261e-13
5.168117569889187 6.466568258020678e-20 8.871063420426274e-12 8.304113344178113e-12 5.669500762481595e-13
5.20702561229733 6.512811927943071e-20 9.001765269498662e-12 8.422941766961421e-12 5.78823502537241e-13
5.246226572918644 6.558654394943337e-20 9.133373593742678e-12 8.542626850604506e-12 5.907467431381751e-13
5.265937586045735 6.58142756083052e-20 9.19952165355328e-12 8.602796392284536e-12 5.967252612687396e-13
5.285722656980489 6.604103451187124e-20 9.265901360636092e-12 8.663187277552551e-12 6.027140830835405e-13
5.305582063971359 6.626683248728121e-20 9.332514674755294e-12 8.723802193767285e-12 6.087124809880115e-13
5.3255160863122235 6.650720961504258e-20 9.401558674852688e-12 8.786787784516255e-12 6.147708903364306e-13
5.365609099470188 6.710543247977071e-20 9.5575404014808e-12 8.930232136828601e-12 6.273082646521991e-13
5.406003951863644 6.770649739411613e-20 9.715745704561678e-12 9.075851806156719e-12 6.398938984049597e-13
5.446702915881641 6.831094131537456e-20 9.876279926351789e-12 9.223757967932013e-12 6.525219584197757e-13
5.487708281020852 6.894878958972605e-20 1.0043546539195598e-11 9.378302119715376e-12 6.652444194802219e-13
5.529022354014368 6.985320835678059e-20 1.0251894703011613e-11 9.573389148701645e-12 6.785055543099658e-13
5.570647458961463 7.078221752670979e-20 1.0466446848451868e-11 9.774632230125647e-12 6.918146183262212e-13
5.612585937458331 7.173825357117494e-20 1.0687674943690311e-11 9.982509274549564e-12 7.051656691407478e-13
5.654840148729818 7.276817879636367e-20 1.0922731840356248e-11 1.0204108230166696e-11 7.186236101895523e-13
5.67608639626678 7.349127489257123e-20 1.107271729288002e-11 1.034704460815766e-11 7.256726847223604e-13
5.686739436050992 7.386000686384949e-20 1.1149158928042362e-11 1.0419956644746817e-11 7.292022832955449e-13
5.6974124697621304 7.423369807006047e-20 1.1226598496269881e-11 1.0493863365772717e-11 7.327351304971628e-13
5.718818669136295 7.49964877502986e-20 1.1384571374811376e-11 1.0644761182671237e-11 7.398101921401388e-13
5.740305295436557 7.583584640891633e-20 1.1555239787445206e-11 1.0808286258930944e-11 7.469535285142619e-13
5.7835210386641895 7.804254483359553e-20 1.1981002956954658e-11 1.1219290368369282e-11 7.617125885853737e-13
5.827062130521658 8.053285161675359e-20 1.2456388911388322e-11 1.1679720672168483e-11 7.7666823921984e-13
5.8489554468988025 8.232321365798518e-20 1.2781153831411755e-11 1.1996383132275088e-11 7.847706991366667e-13
5.870931020387893 8.421587829770504e-20 1.3124126056221401e-11 1.2331227709089032e-11 7.928983471323637e-13
5.892989160043636 8.62189866566423e-20 1.3486771188883874e-11 1.2685720755457647e-11 8.010504334262307e-13
5.915130176081913 8.849048212950422e-20 1.3894096185954621e-11 1.3084586979963477e-11 8.095092059911494e-13
5.95966208400165 9.4919432597498e-20 1.5015721413234856e-11 1.418678182301112e-11 8.289395902237388e-13
6.004529249263818 1.041526418932563e-19 1.6600405178162546e-11 1.5749513163557186e-11 8.508920146053587e-13
6.027089341400364 1.1058492266971136e-19 1.7691839093533297e-11 1.6828185061002238e-11 8.636540325310615e-13
6.049734195844842 1.1811704498922835e-19 1.8967858456019658e-11 1.8090669337118335e-11 8.771891189013231e-13
6.095279466722835 1.3987173481168454e-19 2.2630441000046493e-11 2.1719716944699553e-11 9.107240553469497e-13
6.141167624020661 1.7306094437151093e-19 2.8211063208339685e-11 2.7256486498114247e-11 9.54576710225434e-13
6.164241091010745 1.942091306559646e-19 3.177742434470845e-11 3.079516624450628e-11 9.822581002021683e-13
6.187401249150058 2.179780679726818e-19 3.580061709577163e-11 3.478996484847384e-11 1.0106522472977866e-12
6.1990139391386085 2.295161176555685e-19 3.776636925045917e-11 3.6741274932975035e-11 1.0250943174841387e-12
6.204828454712694 2.3556691789018948e-19 3.879837281165165e-11 3.776598719357684e-11 1.0323856180748151e-12
6.210648424152782 2.399351201011462e-19 3.95548917171569e-11 3.8516329231919776e-11 1.0385624852371335e-12
6.233982942956859 2.5454380736309365e-19 4.212089382337023e-11 4.106094548996911e-11 1.0599483334011143e-12
6.239830258556775 2.5627753254558437e-19 4.244756116044482e-11 4.1384758026128914e-11 1.0628031343159105e-12
6.245683058788269 2.562171243504907e-19 4.2477361012513666e-11 4.141169966949043e-11 1.065661343023245e-12
6.257405133728602 2.55330523656156e-19 4.2409821361130595e-11 4.133922313128708e-11 1.0705982298435218e-12
6.269149208991335 2.5184727567431346e-19 4.190977186231825e-11 4.083767855006809e-11 1.0720933122501487e-12
6.280915325867298 2.4383407375408307e-19 4.065245391956198e-11 3.95831173248354e-11 1.0693365947265853e-12
6.304513850009849 2.243750499590146e-19 3.754875993558203e-11 3.648877754017426e-11 1.0599823954077734e-12
6.32820103803542 2.0070248377573138e-19 3.371339180261517e-11 3.266684945358611e-11 1.0465423490290467e-12
6.3519772230701035 1.7911674386868679e-19 3.020052904343294e-11 2.9166120467950274e-11 1.034408575482661e-12
6.375842739491607 1.6090872419943043e-19 2.723244411846099e-11 2.620882616441951e-11 1.0236179540414791e-12
6.399797922933955 1.4644719495498922e-19 2.4878073799801915e-11 2.3860411736349845e-11 1.0176620634520707e-12
6.42384311029221 1.3436840144634869e-19 2.2911921314229347e-11 2.1899248785891807e-11 1.0126725283375377e-12
6.447978639727206 1.2557868999755176e-19 2.149359055470079e-11 2.048214611308066e-11 1.011444441620135e-12
6.472204850670314 1.1821643600773213e-19 2.030951487623898e-11 1.9298554856491747e-11 1.0109600197472359e-12
6.496522083828205 1.133883272901593e-19 1.9553238642252536e-11 1.8539723161768407e-11 1.0135154804841238e-12
