Dust emission spectrum from A.P. Jones, M. Kohler, N. Ysard, M. Bocchio, and L. Verstraete (2017), A&A, 602A, 46J 
inside the DustPedia framework.

lambda    nu*dP/dnu     j_nu    j_nu(carb.) j_nu(sil)
 (um)   (erg s-1 H-1) (Jy cm2 sr-1 H-1)
0.9927057738263894 7.030197848469567e-21 1.8524970637983441e-13 1.8524969438109816e-13 1.1998736216868049e-20
1.0001793341362166 7.148297283375227e-21 1.8977976981455403e-13 1.897797553764227e-13 1.4438131366369642e-20
1.0077091589558085 7.266883595811624e-21 1.943805660148502e-13 1.9438054866458603e-13 1.7350264169058277e-20
1.0114953028030835 7.326354233907576e-21 1.9670763486413723e-13 1.9670761585397943e-13 1.9010157806079612e-20
1.0152956718711033 7.385940570904083e-21 1.990525642980165e-13 1.9905254347613483e-13 2.0821881647970764e-20
1.0229392996569957 7.505394628503283e-21 2.0379467355258676e-13 2.0379464859756461e-13 2.4955022151908405e-20
1.0267826658714554 7.565126841417573e-21 2.061883747689097e-13 2.0618834746186718e-13 2.730704242158737e-20
1.0306404723013447 7.624964427997437e-21 2.0860006902921277e-13 2.086000391584651e-13 2.9870747631542003e-20
1.03451277320114 7.684905697177556e-21 2.110298221431323e-13 2.1102978947891305e-13 3.2664219215403576e-20
1.0383996230291617 7.744949016214314e-21 2.134777014601224e-13 2.1347766575312843e-13 3.570699391405609e-20
1.0403485208654093 7.775008450503469e-21 2.1470845992907227e-13 2.147084226006723e-13 3.7328399866129634e-20
1.0423010764483396 7.805092812146258e-21 2.1594377593680897e-13 2.1594373691663584e-13 3.90201731696654e-20
1.0462171883269815 7.86533557324595e-21 2.184281162053236e-13 2.184280735787835e-13 4.262654010969827e-20
1.0471985131304309 7.880411555620003e-21 2.1905206374476032e-13 2.190520201679778e-13 4.3576782474934175e-20
1.048180758391296 7.89549361041775e-21 2.1967715855923872e-13 2.196771140119596e-13 4.45472791255454e-20
1.0501480137395462 7.925675850462454e-21 2.2093079464260414e-13 2.2093074809191958e-13 4.655068459893236e-20
1.0521189612883777 7.955882122276925e-21 2.221890337866901e-13 2.221889851465556e-13 4.8640134486856325e-20
1.0531058218030118 7.970974290717002e-21 2.22819325417731e-13 2.2281927569944125e-13 4.971828970869573e-20
1.0540936079674168 7.986007122015782e-21 2.234489437058091e-13 2.2344889288628116e-13 5.0819527917821455e-20
1.058054026499678 8.046194873531617e-21 2.2597886551025036e-13 2.2597881004792375e-13 5.5462326578193e-20
1.0590464539527713 8.061255821603681e-21 2.266142141264627e-13 2.266141574415635e-13 5.668489921049425e-20
1.06003981227728 8.076322336136087e-21 2.2725071243722106e-13 2.272506545040033e-13 5.7933217769893e-20
1.0620293250338977 8.106471991511764e-21 2.2852716306369326e-13 2.2852710255453127e-13 6.05091619571029e-20
1.0660195594769086 8.166837311339184e-21 2.3109391524547e-13 2.3109384925215297e-13 6.599331701429449e-20
1.070024785945596 8.227289738794798e-21 2.3367920305567987e-13 2.336791311050294e-13 7.195065049664444e-20
1.0740450607676866 8.287828251421564e-21 2.362831096901767e-13 2.3628303127039433e-13 7.841978243040121e-20
1.07808044048254 8.348451899874232e-21 2.3890572061642793e-13 2.389056351741361e-13 8.544229188311901e-20
1.0861967418109137 8.46985873199299e-21 2.442047435405827e-13 2.4420464221073827e-13 1.0132984438528657e-19
1.0902777775684922 8.530430209851623e-21 2.4687523564105075e-13 2.468751253462146e-13 1.1029483605284195e-19
1.0943741465085532 8.59108016925641e-21 2.495646273171647e-13 2.495645073036202e-13 1.2001354446868652e-19
1.1026131145906286 8.712613427677195e-21 2.5500049994490647e-13 2.5500035798905144e-13 1.4195585498349502e-19
1.1109141095355224 8.834455119229864e-21 2.6051317059747854e-13 2.605130029068877e-13 1.6769059080536205e-19
1.1192775983109025 8.956508206879954e-21 2.661006729968324e-13 2.661004751638372e-13 1.9783299519403486e-19
1.1277040513999907 9.078335414284438e-21 2.717507792930887e-13 2.717505462019219e-13 2.3309116688555034e-19
1.1361939428280308 9.20045499778649e-21 2.774796947898826e-13 2.774794205109251e-13 2.742789574162312e-19
1.1447477501889525 9.322869290238605e-21 2.832884231491319e-13 2.8328810081864634e-13 3.2233048557577137e-19
1.1533659546722406 9.445625054864591e-21 2.8917934048823076e-13 2.891789621712351e-13 3.7831699581203035e-19
1.1707974979042381 9.692535181857798e-21 3.0122332962779927e-13 3.012228104479579e-13 5.191798413253659e-19
1.1884924949847024 9.940874290012005e-21 3.1361040152837506e-13 3.136096926127486e-13 7.089156264314792e-19
1.2064549276569216 1.019232072620318e-20 3.2640260486060975e-13 3.264016416580638e-13 9.632025460562886e-19
1.2246888378427687 1.0445282919630086e-20 3.395591207469638e-13 3.395578184697785e-13 1.30227718528418e-18
1.2431983285522175 1.0699574279734816e-20 3.53082626629047e-13 3.5308087446182576e-13 1.7521672211791883e-18
1.2619875648066055 1.095558792067367e-20 3.6699504199676314e-13 3.669926958183035e-13 2.3461784597215375e-18
1.3004222497298317 1.1471323038366777e-20 3.9597460517188646e-13 3.9597045789187485e-13 4.147280011585333e-18
1.3400274889804893 1.1994229780344066e-20 4.2663404139471936e-13 4.26626844958489e-13 7.196436230291223e-18
1.3808389325824078 1.2526443278269323e-20 4.591348226395042e-13 4.591225587546082e-13 1.2263884896006115e-17
1.4228933163050095 1.3072631005499927e-20 4.937473470962152e-13 4.9372681133693e-13 2.0535759285215814e-17
1.466228494730424 1.364241752503925e-20 5.309607588626416e-13 5.309269536870608e-13 3.380517558078154e-17
1.5108834753276823 1.4235085809148535e-20 5.709005925560228e-13 5.708458611007259e-13 5.4731455296959435e-17
1.5568984535646726 1.485060713452787e-20 6.137251624321216e-13 6.136379192359711e-13 8.724319615034003e-17
1.6043148490894465 1.5493018078193462e-20 6.597737976447515e-13 6.596366207349947e-13 1.3717690975684677e-16
1.6531753430134553 1.616665702789881e-20 7.094284113186873e-13 7.092159069406733e-13 2.1250437801393706e-16
1.7035239163302658 1.687659798251437e-20 7.631371106116675e-13 7.628127013981972e-13 3.2440921347030604e-16
1.755405889504358 1.7636238322891366e-20 8.217750341411683e-13 8.212867492618465e-13 4.882848793216165e-16
1.8088679632656115 1.8446551310246394e-20 8.857098700454323e-13 8.849849989675646e-13 7.248710778678429e-16
1.8639582606462262 1.9308325840670393e-20 9.553230033244645e-13 9.54261241681666e-13 1.0617616427985135e-15
1.9207263702978936 2.0225211492084064e-20 1.0311646201425184e-12 1.029629529794866e-12 1.5350903476524436e-15
1.979223391128241 2.1202253320182973e-20 1.1139001619043038e-12 1.1117086319545425e-12 2.1915299497613356e-15
2.039501978296691 2.2244202560415523e-20 1.2042326700689958e-12 1.2011422313088806e-12 3.0904387601150558e-15
2.1016163906111602 2.3362622174261467e-20 1.3033002106443461e-12 1.2989936634767642e-12 4.306547167582093e-15
2.1656225393682647 2.456425255403313e-20 1.4120684503703168e-12 1.4061361712243657e-12 5.932279145950904e-15
2.231578038680979 2.5848711672581684e-20 1.5311594325043208e-12 1.5230790872561308e-12 8.080345248190031e-15
2.299542257339062 2.72193846085228e-20 1.6614570924995206e-12 1.6505706897974365e-12 1.0886402702083793e-14
2.369576372248914 2.8682276811240306e-20 1.8040715866395178e-12 1.7895597464677394e-12 1.4511840171778267e-14
2.4417434235010123 3.024427958048357e-20 1.9602556026239618e-12 1.941109878318012e-12 1.9145724305949547e-14
2.5161083711144245 3.191743493383644e-20 2.1317032994658443e-12 2.1066958612820274e-12 2.5007438183817114e-14
2.5927381535095444 3.37202158414809e-20 2.320696982236773e-12 2.2883489909318704e-12 3.234799130490264e-14
2.6717017477616296 3.566863338614177e-20 2.5295535493905536e-12 2.4881045295803746e-12 4.144901981017878e-14
2.753070231689431 3.778486514920472e-20 2.7612428236739427e-12 2.708620248109941e-12 5.2622575564002394e-14
2.836916847834745 4.012565175017277e-20 3.0216081215871217e-12 2.9553960694311316e-12 6.621205215598957e-14
2.9233170693905177 4.2811819727833393e-20 3.3220720210173674e-12 3.2394994742987623e-12 8.257254671860573e-14
2.967498994190263 4.4391544640577796e-20 3.4967152725509175e-12 3.4049897121674615e-12 9.172556038345551e-14
3.0123486681368425 4.607606644435486e-20 3.684258272482278e-12 3.5824970639290147e-12 1.0176120855326306e-13
3.0578761833420214 4.858236494098822e-20 3.943374116045311e-12 3.830591018147283e-12 1.1278309789802921e-13
3.1040917844459814 5.1456241508786263e-20 4.239767568958852e-12 4.115017866509443e-12 1.2474970244940817e-13
3.127460860933648 5.391227857793252e-20 4.4755766964143e-12 4.3444306940915384e-12 1.3114600232276104e-13
3.1510058709225794 5.696481633562172e-20 4.764587937195164e-12 4.62678264043656e-12 1.37805296758602e-13
3.162844764501044 5.961775823540866e-20 5.005217466400827e-12 4.863969016261262e-12 1.4124845013956478e-13
3.1747281389236908 6.260047176522422e-20 5.275377959281813e-12 5.130618484956758e-12 1.4475947432505612e-13
3.1986289994194426 7.057535107240935e-20 5.9922006941797196e-12 5.84019401563662e-12 1.520066785430979e-13
3.2227097969389145 8.866248999008047e-20 7.58456287964802e-12 7.4248848748596e-12 1.596780047884185e-13
3.2348180950136065 1.0549956178663364e-19 9.058785005843167e-12 8.895015162047948e-12 1.6376984379522019e-13
3.240889293275058 1.1804061820771463e-19 1.015465339663387e-11 9.988725203157568e-12 1.659281934763022e-13
3.2469718861334385 1.3256299341893553e-19 1.1425369751050153e-11 1.125720830976862e-11 1.6816144128153656e-13
3.2714166318528037 2.086011686340623e-19 1.8114319663385747e-11 1.793693590197307e-11 1.773837614126774e-13
3.2744851364798273 2.133702450308541e-19 1.8545831618922533e-11 1.836736287971078e-11 1.7846873921175311e-13
3.2775565192852394 2.182653908801469e-19 1.8989105183492507e-11 1.8809546212895575e-11 1.7955897059693164e-13
3.283707930232385 2.1367105956470335e-19 1.8624287127480445e-11 1.8442782217165497e-11 1.8150491031494427e-13
3.2898708863219004 1.9890846222239938e-19 1.7370069132356557e-11 1.7186796751452036e-11 1.8327238090452158e-13
3.29141343181113 1.9542027345622307e-19 1.707345785348615e-11 1.688974173905203e-11 1.8371611443412351e-13
3.292184975758714 1.9370528538292548e-19 1.6927590041873134e-11 1.6743651780536088e-11 1.8393826133703826e-13
3.295272960557952 1.829986961561418e-19 1.6006958657493008e-11 1.5822156937255428e-11 1.8480172023758433e-13
3.3076538914384823 1.4563478756027594e-19 1.2786586441004452e-11 1.2598318371003162e-11 1.8826807000129221e-13
3.310756385682612 1.379542762106114e-19 1.2123606319321375e-11 1.193446488020816e-11 1.891414391132154e-13
3.313861789986515 1.3083825880050868e-19 1.1509026245411784e-11 1.1319008721577144e-11 1.900175238346366e-13
3.3200813396944477 1.2092759929221895e-19 1.0657211578618704e-11 1.0465308077865921e-11 1.9190350075278436e-13
3.345076488085796 1.0383407251339906e-19 9.219669939356048e-12 9.019357462422827e-12 2.0031247693322032e-13
3.3482140837626964 1.0458867857441637e-19 9.295383835379265e-12 9.09393204712298e-12 2.0145178825628432e-13
3.3513546224236106 1.0534979121870945e-19 9.371810474391571e-12 9.169214428010203e-12 2.0259604638136634e-13
3.3576445397418455 1.1046264543208645e-19 9.845087719975092e-12 9.640098684040924e-12 2.049890359341658e-13
3.3702598118196083 1.288250724074572e-19 1.152479502644702e-11 1.1314786906072842e-11 2.1000812037418095e-13
3.382922481734668 1.3335378481095593e-19 1.1974760207534205e-11 1.1759879206599654e-11 2.1488100093454974e-13
3.389271646505754 1.3568559160950632e-19 1.2207016851276702e-11 1.1989667050210983e-11 2.1734980106571894e-13
3.395632727569191 1.38246588848955e-19 1.2460761048312886e-11 1.2240866997981889e-11 2.1989405033099783e-13
3.421196662673239 1.5060631523110763e-19 1.3676993983083483e-11 1.3446573964039576e-11 2.304200190439109e-13
3.4276182099114902 1.4853493030388668e-19 1.351420402672746e-11 1.3281441071663383e-11 2.3276295506408064e-13
3.4340518103208963 1.3882013115882795e-19 1.2654026121084435e-11 1.2419050127989839e-11 2.3497599309459794e-13
3.4469541582030403 1.2492054874981573e-19 1.1429805077309722e-11 1.119058746327511e-11 2.3921761403461507e-13
3.472904465399547 1.2137363770978082e-19 1.1188880568456274e-11 1.0939882982922125e-11 2.4899758553414925e-13
3.4990501388274233 1.1583833565691088e-19 1.0759000005530022e-11 1.0500007962700957e-11 2.589920428290621e-13
3.5253949054701885 9.530405623392341e-20 8.918433752526062e-12 8.649753872699273e-12 2.6867987982679047e-13
3.5519380250092896 7.577105059777804e-20 7.1439453156843325e-12 6.865545805695606e-12 2.7839950998872846e-13
3.578680990867387 6.84171413437159e-20 6.499161719331331e-12 6.210111521216702e-12 2.8905019811462933e-13
3.605625307711299 6.585842474231995e-20 6.303204029293106e-12 6.00294731912802e-12 3.002567101650855e-13
3.660119384959845 6.485256720940973e-20 6.300744323609071e-12 5.976992567181389e-12 3.237517564276843e-13
3.715437065384467 6.447987908804248e-20 6.3592157088132136e-12 6.0107670774444445e-12 3.484486313687694e-13
3.8285932144167436 6.626242413104162e-20 6.734044443297874e-12 6.332767337531573e-12 4.0127710576629935e-13
3.94519561050918 6.871121259868074e-20 7.195576375209494e-12 6.737069722668153e-12 4.585066525413418e-13
4.06534921144712 7.14084695315581e-20 7.70578726817066e-12 7.1858085953122104e-12 5.199786728584485e-13
4.189162171576248 7.422145836086299e-20 8.253270697211909e-12 7.667556516581714e-12 5.857141806301922e-13
4.316745939156006 7.708345919342662e-20 8.832570609773574e-12 8.177211659005522e-12 6.553589507680518e-13
4.448215356677963 7.995096324396855e-20 9.440150945514644e-12 8.71233051339997e-12 7.278204321146728e-13
4.58368876423945 8.280524076868178e-20 1.007493791099093e-11 9.27185265746869e-12 8.030852535222423e-13
4.723288106065518 8.564133893106535e-20 1.073735516113903e-11 9.855826788914132e-12 8.815283722248976e-13
4.867139040275056 8.844491606902622e-20 1.1426574621983299e-11 1.0465710736130208e-11 9.608638858530887e-13
4.940699165968905 8.986491131077602e-20 1.1785499507144805e-11 1.0784411169389332e-11 1.0010883377554724e-12
5.015371051989984 9.124604750075828e-20 1.2147490363560699e-11 1.1105950498013645e-11 1.0415398655470569e-12
5.091171501069577 9.269778357216315e-20 1.2527272084857155e-11 1.1444144810683509e-11 1.0831272741736479e-12
5.129500256944802 9.340657436609122e-20 1.2718091167352242e-11 1.1614139282847393e-11 1.103951884504848e-12
5.168117569889187 9.411429444815358e-20 1.2910926499271064e-11 1.1785909903237066e-11 1.125016596033998e-12
5.20702561229733 9.490213117170765e-20 1.3117017930727997e-11 1.1968892825994287e-11 1.148125104733709e-12
5.246226572918644 9.568048068368491e-20 1.3324159546914562e-11 1.2152848952418285e-11 1.1713105944962798e-12
5.265937586045735 9.606605357411031e-20 1.3428116192999836e-11 1.2245187624271381e-11 1.18292856872845e-12
5.285722656980489 9.644920373839451e-20 1.3532325996365364e-11 1.2337764594061507e-11 1.194561402303857e-12
5.305582063971359 9.682991639326097e-20 1.3636786032724286e-11 1.2430578419254738e-11 1.2062076134695482e-12
5.3255160863122235 9.722381830555087e-20 1.3743704444730044e-11 1.2525736921656907e-11 1.217967523073135e-12
5.365609099470188 9.812515913590044e-20 1.3975547704365316e-11 1.2733241233416555e-11 1.2423064709487674e-12
5.406003951863644 9.90226916393605e-20 1.4209556364273833e-11 1.2942838925481108e-11 1.2667174387927238e-12
5.446702915881641 9.991671801073878e-20 1.4445789464978635e-11 1.3154600929929523e-11 1.2911885350491095e-12
5.487708281020852 1.0083691287564522e-19 1.4688586026842516e-11 1.3372763511256069e-11 1.3158225155864471e-12
5.529022354014368 1.0201473455167711e-19 1.4972029794791163e-11 1.3630530214515653e-11 1.341499580275516e-12
5.570647458961463 1.032084295318283e-19 1.52612560011905e-11 1.3894010119666427e-11 1.3672458815240742e-12
5.612585937458331 1.0442008611769045e-19 1.55566644358129e-11 1.4163615122863581e-11 1.39304931294932e-12
5.654840148729818 1.0569578800902741e-19 1.5865269245070605e-11 1.4446231333259816e-11 1.4190379118107859e-12
5.67608639626678 1.0653594061002569e-19 1.6051461260268776e-11 1.4618806025638385e-11 1.4326552346303846e-12
5.686739436050992 1.069620283236701e-19 1.6145904985422485e-11 1.470643368957533e-11 1.4394712958471556e-12
5.6974124697621304 1.0739227870391498e-19 1.6241276212192694e-11 1.479498417818637e-11 1.4462920340063167e-12
5.718818669136295 1.082657511552912e-19 1.643489193225682e-11 1.497494516329084e-11 1.459946768965985e-12
5.740305295436557 1.0921175134805573e-19 1.6640784460015625e-11 1.5167055583185464e-11 1.4737288768301583e-12
5.7835210386641895 1.1161352563496616e-19 1.7134781849053853e-11 1.5632581040689366e-11 1.5022008083644878e-12
5.827062130521658 1.1427840767257052e-19 1.7675970260161328e-11 1.614493995270935e-11 1.5310303074519768e-12
5.8489554468988025 1.1614184262142018e-19 1.8031691072886094e-11 1.6485027789622284e-11 1.546663283263818e-12
5.870931020387893 1.1809923332677525e-19 1.8404477358112875e-11 1.6842139651296505e-11 1.5623377068163668e-12
5.892989160043636 1.201581761716699e-19 1.8795695604200926e-11 1.7217643575710077e-11 1.5780520284908545e-12
5.915130176081913 1.224747373595052e-19 1.9230043054032905e-11 1.763568078858323e-11 1.5943622654496693e-12
5.95966208400165 1.2893967062008408e-19 2.039753209814784e-11 1.8765627484710584e-11 1.6319046134372556e-12
6.004529249263818 1.3810790612420457e-19 2.2012376818238705e-11 2.0338013475520147e-11 1.6743633427185594e-12
6.027089341400364 1.4444882348951042e-19 2.310952777947339e-11 2.1410443562290663e-11 1.6990842171827279e-12
6.049734195844842 1.5184096174280787e-19 2.4383422988833872e-11 2.265811212301594e-11 1.725310865817931e-12
6.095279466722835 1.730840970976269e-19 2.8004009907275065e-11 2.621359429651655e-11 1.7904156107585046e-12
6.141167624020661 2.053136288399367e-19 3.346864760140843e-11 3.159294327739383e-11 1.8757043240146117e-12
6.164241091010745 2.2582006384443696e-19 3.694975601865935e-11 3.5020141801869315e-11 1.9296142167900288e-12
6.187401249150058 2.4878173932146815e-19 4.085979783518483e-11 3.887490059665259e-11 1.9848972385322356e-12
6.1990139391386085 2.5991987622745393e-19 4.27692404411909e-11 4.075622733951473e-11 2.0130131016761736e-12
6.204828454712694 2.65753599682983e-19 4.3770183559243354e-11 4.174297733633717e-11 2.027206222906183e-12
6.210648424152782 2.6996539568283454e-19 4.450558129677877e-11 4.246636697343836e-11 2.0392143233404126e-12
6.233982942956859 2.840246316904426e-19 4.699926302897571e-11 4.491854033709748e-11 2.0807226918782387e-12
6.239830258556775 2.8567891965858436e-19 4.731734886787483e-11 4.523113607272656e-11 2.0862127951482645e-12
6.245683058788269 2.856110308410072e-19 4.7350476268688956e-11 4.525876739208511e-11 2.0917088766038474e-12
6.257405133728602 2.847353154189782e-19 4.729389063716392e-11 4.519271939046845e-11 2.1011712466954804e-12
6.269149208991335 2.813536270604677e-19 4.681990818113349e-11 4.471602293012875e-11 2.1038852510047433e-12
6.280915325867298 2.7360952603605187e-19 4.561667070514397e-11 4.351840598361842e-11 2.0982647215255485e-12
6.304513850009849 2.548172505439114e-19 4.2643207298967246e-11 4.0563709038754693e-11 2.07949826021253e-12
6.32820103803542 2.320178532208313e-19 3.897365216255176e-11 3.692092554208895e-11 2.052726620462822e-12
6.3519772230701035 2.1125513901478532e-19 3.5619321921504856e-11 3.359080367529769e-11 2.028518246207158e-12
6.375842739491607 1.9371891675375197e-19 3.2785292416133764e-11 3.07783450111511e-11 2.006947404982663e-12
6.399797922933955 1.7986034118904546e-19 3.055421336771862e-11 2.8559369089425162e-11 1.994844278293447e-12
6.42384311029221 1.6827266461441702e-19 2.8693130300583745e-11 2.670849456604386e-11 1.9846357345398848e-12
6.447978639727206 1.5987963034912204e-19 2.7364414398875618e-11 2.5382625905665322e-11 1.981788493210301e-12
6.472204850670314 1.5284866872303386e-19 2.6259312292587976e-11 2.427891648524286e-11 1.9803958073451222e-12
6.496522083828205 1.4827302506944115e-19 2.5568926825884054e-11 2.3583978654468205e-11 1.9849481714158406e-12
6.520930681187647 1.4439301392096376e-19 2.4993391850372445e-11 2.3003009520292473e-11 1.9903823300799657e-12
