Dust emission spectrum from A.P. Jones, M. Kohler, N. Ysard, M. Bocchio, and L. Verstraete (2017), A&A, 602A, 46J 
inside the DustPedia framework.

lambda    nu*dP/dnu     j_nu    j_nu(carb.) j_nu(sil)
 (um)   (erg s-1 H-1) (Jy cm2 sr-1 H-1)
0.9927057738263894 6.568336312985414e-23 1.73079392587712e-15 1.7307939258759122e-15 1.2077068076199477e-27
1.0001793341362166 6.676825518664968e-23 1.7726269065097921e-15 1.772626906508337e-15 1.454979548402869e-27
1.0077091589558085 6.785159281059951e-23 1.8149500871508612e-15 1.8149500871491104e-15 1.750638616110263e-27
1.0114953028030835 6.83925452818079e-23 1.8362933862054586e-15 1.8362933862035397e-15 1.9193634905841753e-27
1.0152956718711033 6.893294945360163e-23 1.857756669125946e-15 1.8577566691238416e-15 2.1036731711971448e-27
1.0229392996569957 7.001137142105458e-23 1.9010252345076247e-15 1.9010252345051003e-15 2.5246787150711882e-27
1.0267826658714554 7.054808105870585e-23 1.9227958078537855e-15 1.9227958078510206e-15 2.7645544672842443e-27
1.0306404723013447 7.108400509003003e-23 1.9446816452293305e-15 1.9446816452263037e-15 3.0262447381192172e-27
1.03451277320114 7.161909179544267e-23 1.9666818044619313e-15 1.96668180445862e-15 3.311636950855803e-27
1.0383996230291617 7.215328974261054e-23 1.9887953316144196e-15 1.988795331610797e-15 3.62277283713089e-27
1.0403485208654093 7.242003944022486e-23 1.9998943068938356e-15 1.999894306890047e-15 3.788677785229301e-27
1.0423010764483396 7.268654779631243e-23 2.011021261210458e-15 2.011021261206496e-15 3.961860259858763e-27
1.0462171883269815 7.321881512808298e-23 2.0333586164605103e-15 2.0333586164561787e-15 4.3312858761328985e-27
1.0471985131304309 7.335172123423562e-23 2.0389602500050537e-15 2.038960250000625e-15 4.4286804209366324e-27
1.048180758391296 7.348456147555096e-23 2.04456877042126e-15 2.0445687704167318e-15 4.528173543356596e-27
1.0501480137395462 7.375004122563714e-23 2.0558064094879824e-15 2.0558064094832488e-15 4.733628694644908e-27
1.0521189612883777 7.40152481152196e-23 2.067071408480875e-15 2.067071408475927e-15 4.948006141326106e-27
1.0531058218030118 7.414754360864238e-23 2.0727084350906058e-15 2.072708435085547e-15 5.058662516494141e-27
1.0540936079674168 7.427910123732895e-23 2.0783335723733422e-15 2.07833357236817e-15 5.1717130108876804e-27
1.058054026499678 7.480458311326026e-23 2.100900499254527e-15 2.1009004992488788e-15 5.648610441675701e-27
1.0590464539527713 7.49357625794028e-23 2.106558745026939e-15 2.1065587450211646e-15 5.774262489280983e-27
1.06003981227728 7.506686411205912e-23 2.1122235641296785e-15 2.112223564123776e-15 5.9025905819585865e-27
1.0620293250338977 7.53288303235448e-23 2.1235728574367982e-15 2.12357285743063e-15 6.167492957027245e-27
1.0660195594769086 7.585179403799206e-23 2.146349608102849e-15 2.146349608096117e-15 6.731868147311694e-27
1.070024785945596 7.637342579585193e-23 2.1692297027600657e-15 2.1692297027527203e-15 7.345519716804458e-27
1.0740450607676866 7.689367751378272e-23 2.192212083467563e-15 2.192212083459551e-15 8.012527784918386e-27
1.07808044048254 7.741250149360001e-23 2.215295683062799e-15 2.2152956830540623e-15 8.737290565570739e-27
1.0861967418109137 7.844476028466393e-23 2.261735782564962e-15 2.261735782554583e-15 1.0379405409828212e-26
1.0902777775684922 7.895601612469477e-23 2.2850295479296425e-15 2.2850295479183358e-15 1.1307364159196004e-26
1.0943741465085532 7.946562097746717e-23 2.3084184634590794e-15 2.308418463446765e-15 1.231433892410346e-26
1.1026131145906286 8.04796965600903e-23 2.3554772662177794e-15 2.3554772662031883e-15 1.4591292360505853e-26
1.1109141095355224 8.148662909220073e-23 2.4029031581022404e-15 2.4029031580849734e-15 1.7267205675015498e-26
1.1192775983109025 8.248513259741935e-23 2.450659206625393e-15 2.450659206604985e-15 2.0407876218473132e-26
1.1277040513999907 8.347056787300592e-23 2.498606939751843e-15 2.498606939727753e-15 2.4089234701243582e-26
1.1361939428280308 8.444769650901675e-23 2.5468871983687938e-15 2.546887198340395e-15 2.839877626331909e-26
1.1447477501889525 8.541619263511415e-23 2.595490483636791e-15 2.595490483603354e-15 3.3437199222138416e-26
1.1533659546722406 8.637626596347635e-23 2.644423368497999e-15 2.644423368458678e-15 3.932029751238295e-26
1.1707974979042381 8.827424643580397e-23 2.7433753845483725e-15 2.7433753844942e-15 5.417208920941123e-26
1.1884924949847024 9.013444678470246e-23 2.843522533635656e-15 2.8435225335613895e-15 7.426586140010386e-26
1.2064549276569216 9.197141858890997e-23 2.9453263301427333e-15 2.945326330041414e-15 1.0131816517304683e-25
1.2246888378427687 9.376509240631203e-23 3.048150306624024e-15 3.0481503064864668e-15 1.37557418525702e-25
1.2431983285522175 9.551127093737191e-23 3.151842263399068e-15 3.151842263213201e-15 1.8586670017296136e-25
1.2619875648066055 9.720930075718772e-23 3.2563593731504987e-15 3.2563593729005426e-15 2.499569940587786e-25
1.3004222497298317 1.0043267982386108e-22 3.466800700023695e-15 3.4668006995779177e-15 4.4577777130635085e-25
1.3400274889804893 1.0342261168386694e-22 3.678736159164956e-15 3.678736158384331e-15 7.806254727871892e-25
1.3808389325824078 1.061680051202997e-22 3.891402141696643e-15 3.891402140353761e-15 1.342882089538122e-24
1.4228933163050095 1.086822251284337e-22 4.1048783761357e-15 4.104878373865227e-15 2.2704731651518244e-24
1.466228494730424 1.1102579952947095e-22 4.3211067732901545e-15 4.3211067695153526e-15 3.774801648558505e-24
1.5108834753276823 1.1315314637523985e-22 4.538026618265027e-15 4.538026612091092e-15 6.1739367112403e-24
1.5568984535646726 1.1502738422814282e-22 4.753691174377928e-15 4.7536911644337075e-15 9.944219295628644e-24
1.6043148490894465 1.166519361160059e-22 4.9676499766173654e-15 4.9676499608153755e-15 1.5801988296129142e-23
1.6531753430134553 1.180317412111324e-22 5.179491994423486e-15 5.1794919696781634e-15 2.4745322344896884e-23
1.7035239163302658 1.1918320096137267e-22 5.389304391166218e-15 5.3893043529699235e-15 3.819629424556469e-23
1.755405889504358 1.202010947448713e-22 5.6008689001191875e-15 5.6008688419738065e-15 5.814538209691083e-23
1.8088679632656115 1.2106201601128575e-22 5.812784225376257e-15 5.812784138052729e-15 8.732352842916356e-23
1.8639582606462262 1.2175011097858086e-22 6.0238615525201e-15 6.023861423087387e-15 1.2943271477592776e-22
1.9207263702978936 1.2227687176769492e-22 6.234178766333294e-15 6.234178576915726e-15 1.8941756803286488e-22
1.979223391128241 1.2266905244950105e-22 6.4446488456052264e-15 6.444648571807213e-15 2.737980141610231e-22
2.039501978296691 1.229586719301234e-22 6.656604092881638e-15 6.656603701831323e-15 3.9105031649327644e-22
2.1016163906111602 1.2323541674407842e-22 6.874773876125421e-15 6.8747733240348426e-15 5.52090577703037e-22
2.1656225393682647 1.2355129041766778e-22 7.102307665074244e-15 7.102306894318052e-15 7.707561911188279e-22
2.231578038680979 1.2391001481945365e-22 7.339862441724833e-15 7.339861377355771e-15 1.064369062810769e-21
2.299542257339062 1.243427274291143e-22 7.58981547008047e-15 7.589814015714789e-15 1.4543656804211032e-21
2.369576372248914 1.249182817328891e-22 7.857169924453785e-15 7.857167957442288e-15 1.9670114985902253e-21
2.4417434235010123 1.2571798269658154e-22 8.148297243310165e-15 8.148294609232755e-15 2.634077410057006e-21
2.5161083711144245 1.2688107261864743e-22 8.474139657576348e-15 8.474136163882195e-15 3.493694152915655e-21
2.5927381535095444 1.2863541683438198e-22 8.85296301363204e-15 8.852958422506425e-15 4.591125617116125e-21
2.6717017477616296 1.312530710387407e-22 9.308225188225253e-15 9.308219208933409e-15 5.9792918474289694e-21
2.753070231689431 1.3514364112535267e-22 9.87602860957679e-15 9.876020890056599e-15 7.719520190915607e-21
2.836916847834745 1.4123512083294703e-22 1.0635520410215739e-14 1.0635510527670593e-14 9.882545144485478e-21
2.9233170693905177 1.5157133395754572e-22 1.1761492291842012e-14 1.1761479744700979e-14 1.2547141028381484e-20
2.967498994190263 1.6034901480451902e-22 1.2630667699112458e-14 1.2630653625794246e-14 1.4073318215040038e-20
3.0123486681368425 1.7060032812165145e-22 1.3641261476377443e-14 1.364124571200098e-14 1.5764376461968373e-20
3.0578761833420214 1.9353734430384747e-22 1.5709201372616784e-14 1.570918373243773e-14 1.7640179057882502e-20
3.1040917844459814 2.230943093889128e-22 1.8381988074369475e-14 1.838196837110673e-14 1.9703262743513813e-20
3.127460860933648 2.543612225431313e-22 2.1116027556503012e-14 2.1116006739891593e-14 2.0816611421291712e-20
3.1510058709225794 2.9602010804739713e-22 2.4759385296005338e-14 2.4759363312432405e-14 2.1983572932621315e-20
3.162844764501044 3.347978329140047e-22 2.8108000210230232e-14 2.8107977620225293e-14 2.2590004947634973e-20
3.1747281389236908 3.798932754578259e-22 3.201382602587501e-14 3.201380281534766e-14 2.3210527353596985e-20
3.1986289994194426 5.056777249569158e-22 4.293457090152039e-14 4.2934546403545856e-14 2.4497974523975592e-20
3.2227097969389145 8.021815819507153e-22 6.862199166616476e-14 6.862196579677487e-14 2.5869389903479294e-20
3.2348180950136065 1.083359993484726e-21 9.302337468242615e-14 9.302334807911252e-14 2.6603313626405797e-20
3.240889293275058 1.2935771930403565e-21 1.112822707688671e-13 1.1128224377822964e-13 2.699063745615068e-20
3.2469718861334385 1.5367659333004225e-21 1.3245113553890957e-13 1.3245110814735314e-13 2.7391556422656696e-20
3.2714166318528037 2.833976978411158e-21 2.4609433035186375e-13 2.460943012974245e-13 2.905443927216618e-20
3.2744851364798273 2.915069280467127e-21 2.5337358554947253e-13 2.533735562976002e-13 2.9251872291971766e-20
3.2775565192852394 2.998490770135692e-21 2.608689192374253e-13 2.608688897869789e-13 2.9450446429525365e-20
3.283707930232385 2.9182637326922895e-21 2.5436566740530304e-13 2.543656375970225e-13 2.9808280580953596e-20
3.2898708863219004 2.6638417819020425e-21 2.326251753812397e-13 2.3262514524478116e-13 3.0136458601597105e-20
3.29141343181113 2.603842775861054e-21 2.274922611892005e-13 2.27492230970256e-13 3.0218944565784237e-20
3.292184975758714 2.5743613952419185e-21 2.2496925797421204e-13 2.2496922771395804e-13 3.026025393583669e-20
3.295272960557952 2.3882720679416674e-21 2.089029761270491e-13 2.0890294570565112e-13 3.0421398013571763e-20
3.3076538914384823 1.7436027686025636e-21 1.5308655227916555e-13 1.530865212090541e-13 3.107011151957992e-20
3.310756385682612 1.6123963842657696e-21 1.4169955097072796e-13 1.4169951973678335e-13 3.123394464349614e-20
3.313861789986515 1.4913381660615339e-21 1.3118372448044026e-13 1.311836930819973e-13 3.139844294985498e-20
3.3200813396944477 1.3215673580064958e-21 1.1646822588148082e-13 1.164681941302833e-13 3.175119749495256e-20
3.345076488085796 1.0187110985397129e-21 9.045373897747264e-14 9.045370565602995e-14 3.332144270862139e-20
3.3482140837626964 1.0300673568015286e-21 9.154787677092713e-14 9.154784323672829e-14 3.3534198821954197e-20
3.3513546224236106 1.041549168927265e-21 9.26551566740348e-14 9.265512292594778e-14 3.3748086989098654e-20
3.3576445397418455 1.125462629241457e-21 1.0030792099079517e-13 1.0030788679581656e-13 3.4194978605675685e-20
3.3702598118196083 1.4349723379650121e-21 1.283737843465859e-13 1.2837374921343371e-13 3.513315216505229e-20
3.382922481734668 1.5054642898088482e-21 1.3518606837460864e-13 1.351860323243565e-13 3.60502521243228e-20
3.389271646505754 1.5419839918814376e-21 1.3872530126461016e-13 1.387252647483297e-13 3.6516280444142183e-20
3.395632727569191 1.5813355995255596e-21 1.425325948867168e-13 1.425325578900274e-13 3.699668939053737e-20
3.421196662673239 1.7702866087469584e-21 1.6076483419046163e-13 1.6076479519815498e-13 3.899230663807254e-20
3.4276182099114902 1.7322062807170318e-21 1.5760191253394462e-13 1.5760187309039855e-13 3.9443546077031156e-20
3.4340518103208963 1.5653434161706774e-21 1.4268749288263195e-13 1.4268745300950452e-13 3.987312739729157e-20
3.4469541582030403 1.3277001819113372e-21 1.2148004817644246e-13 1.214800074729598e-13 4.070348265883828e-20
3.472904465399547 1.261096733994041e-21 1.1625474038826246e-13 1.162546977779404e-13 4.261032204484339e-20
3.4990501388274233 1.1592309938823343e-21 1.0766872813617223e-13 1.0766868355962677e-13 4.457654548012628e-20
3.5253949054701885 7.96718952458148e-22 7.45559578223992e-14 7.455591131354537e-14 4.65088538129675e-20
3.5519380250092896 4.560016015434623e-22 4.299333953522483e-14 4.299329106529919e-14 4.846992564012697e-20
3.578680990867387 3.2090285439809233e-22 3.04835821252827e-14 3.048353150030067e-14 5.0624982030542623e-20
3.605625307711299 2.6625517992794303e-22 2.5482855526964013e-14 2.5482802618802045e-14 5.2908161966836457e-20
3.660119384959845 2.2638188250742037e-22 2.1994107905871853e-14 2.199405014417284e-14 5.776169901209747e-20
3.715437065384467 1.9814128735867258e-22 1.9541339173655643e-14 1.9541276211616e-14 6.296203963236587e-20
3.8285932144167436 1.8378776481266475e-22 1.8677779942600573e-14 1.867770550290155e-14 7.443969901947857e-20
3.94519561050918 1.8101022087592937e-22 1.8955754377580245e-14 1.895566695122501e-14 8.742635523000557e-20
4.06534921144712 1.829900321435767e-22 1.9746708886835117e-14 1.9746606841583802e-14 1.0204525132253242e-19
4.189162171576248 1.877288878979617e-22 2.0875059096459553e-14 2.087494062287168e-14 1.1847358786644637e-19
4.316745939156006 1.944833260732201e-22 2.228477714855615e-14 2.2284640314405015e-14 1.3683415113816706e-19
4.448215356677963 2.0300517004636885e-22 2.3969685544747486e-14 2.396952844592115e-14 1.5709882633556029e-19
4.58368876423945 2.133269053403948e-22 2.5955547089734437e-14 2.5955367591148537e-14 1.7949858589437536e-19
4.723288106065518 2.2568871162825816e-22 2.829591273161977e-14 2.829570833885105e-14 2.0439276872321821e-19
4.867139040275056 2.405691761739159e-22 3.1080154354547087e-14 3.1079922810902954e-14 2.3154364413252666e-19
4.940699165968905 2.4955187581044258e-22 3.2727940933474844e-14 3.272769481560819e-14 2.461178666567453e-19
5.015371051989984 2.5885915747755107e-22 3.446164745877745e-14 3.446138608643998e-14 2.6137233747403693e-19
5.091171501069577 2.7021786778499793e-22 3.6517515537978397e-14 3.651723793964778e-14 2.775983306207034e-19
5.129500256944802 2.7604970536912374e-22 3.758649049525311e-14 3.7586204507114243e-14 2.859881388654282e-19
5.168117569889187 2.8213072070483716e-22 3.870367428842781e-14 3.870337966904601e-14 2.9461938179376755e-19
5.20702561229733 2.8959239037695135e-22 4.002637801994158e-14 4.0026074110892015e-14 3.0390904956557167e-19
5.246226572918644 2.972458861816355e-22 4.139351708779048e-14 4.1393203662385163e-14 3.1342540531510177e-19
5.265937586045735 3.011464936206918e-22 4.209426698613693e-14 4.2093948716216645e-14 3.1826992028472705e-19
5.285722656980489 3.0509740064589814e-22 4.280675553716823e-14 4.280643236445356e-14 3.231727146603611e-19
5.305582063971359 3.0909942371347293e-22 4.353120255624193e-14 4.353087442190441e-14 3.281343375216059e-19
5.3255160863122235 3.133987850329538e-22 4.43025212329527e-14 4.430218805238624e-14 3.3318056646857995e-19
5.365609099470188 3.24103964876932e-22 4.6160744728456836e-14 4.6160401076592076e-14 3.4365186475783257e-19
5.406003951863644 3.352180434922615e-22 4.8103112574163984e-14 4.810275819055151e-14 3.543836124901986e-19
5.446702915881641 3.4676079272003795e-22 5.013408672815278e-14 5.013372134702969e-14 3.6538112310056403e-19
5.487708281020852 3.5923362842483463e-22 5.232839745262975e-14 5.2328020770806826e-14 3.766818229336571e-19
5.529022354014368 3.7656301040592135e-22 5.526566957401375e-14 5.5265281029944616e-14 3.8854406913022454e-19
5.570647458961463 3.949151399385902e-22 5.839543413932256e-14 5.839503342962409e-14 4.007096984935941e-19
5.612585937458331 4.143636183025928e-22 6.173252679639976e-14 6.173211361091689e-14 4.13185482874961e-19
5.654840148729818 4.357420672432166e-22 6.540625079238582e-14 6.5405824771048e-14 4.2602133782311586e-19
5.67608639626678 4.502974834470137e-22 6.78450161490954e-14 6.784458340014136e-14 4.3274895403946175e-19
5.686739436050992 4.57800181485733e-22 6.910488094158642e-14 6.910444479553992e-14 4.361460465067663e-19
5.6974124697621304 4.654576577995364e-22 7.039264346224316e-14 7.039220389673527e-14 4.39565507904334e-19
5.718818669136295 4.8125185210476855e-22 7.305470194536e-14 7.305425547327822e-14 4.464720817707193e-19
5.740305295436557 4.986611506511853e-22 7.598186664110742e-14 7.598141313052847e-14 4.535105789664719e-19
5.7835210386641895 5.438177541175812e-22 8.348628474404152e-14 8.3485816552976e-14 4.681910655081596e-19
5.827062130521658 5.958369244988751e-22 9.216085498429667e-14 9.216037160806024e-14 4.833762364449139e-19
5.8489554468988025 6.323233898254187e-22 9.817185405485566e-14 9.817136249893425e-14 4.915559214053944e-19
5.870931020387893 6.714778174906486e-22 1.0464249377713667e-13 1.0464199391798403e-13 4.998591526464422e-19
5.892989160043636 7.135149426702351e-22 1.116112952007387e-13 1.1161078691288707e-13 5.08287851649553e-19
5.915130176081913 7.61322290774315e-22 1.1953698162757328e-13 1.195364645912052e-13 5.170363680728324e-19
5.95966208400165 8.949796513837487e-22 1.4158075694235305e-13 1.4158022030628902e-13 5.366360640433029e-19
6.004529249263818 1.0876158757163268e-21 1.7335003593665082e-13 1.7334947724713147e-13 5.586895193787115e-19
6.027089341400364 1.2215168069697212e-21 1.9542337487996442e-13 1.9542280356229937e-13 5.713176650986665e-19
6.049734195844842 1.3797516502143598e-21 2.2156780173523782e-13 2.2156721700550062e-13 5.8472973723023405e-19
6.095279466722835 1.836814192991447e-21 2.971859559653397e-13 2.9718533874087417e-13 6.172244655573533e-19
6.141167624020661 2.5402099820781328e-21 4.140854808524814e-13 4.140848219026137e-13 6.58949867656328e-19
6.164241091010745 2.9893976080623196e-21 4.891394961997645e-13 4.891388113943298e-13 6.84805434486309e-19
6.187401249150058 3.5010934751739525e-21 5.750179735372075e-13 5.750172617872074e-13 7.117500002184148e-19
6.1990139391386085 3.750947999764731e-21 6.172101926670469e-13 6.172094671503752e-13 7.255166716907648e-19
6.204828454712694 3.8825624105172666e-21 6.394662935564402e-13 6.394655610436058e-13 7.325128345757168e-19
6.210648424152782 3.97864451816241e-21 6.559058675138166e-13 6.559051289376283e-13 7.385761884210094e-19
6.233982942956859 4.3050915070078804e-21 7.123893688283988e-13 7.123886085351132e-13 7.602932857795978e-19
6.239830258556775 4.3468310276384175e-21 7.199709395788782e-13 7.199701758837556e-13 7.6369512264236525e-19
6.245683058788269 4.3504666503130674e-21 7.21248991247978e-13 7.212482241364608e-13 7.671115172570611e-19
6.257405133728602 4.3415359573287256e-21 7.211192839254459e-13 7.211185106027737e-13 7.7332267239201545e-19
6.269149208991335 4.277380322696299e-21 7.117965958241837e-13 7.117958191419988e-13 7.766821851138672e-19
6.280915325867298 4.116440908340389e-21 6.863004081524735e-13 6.862996316588929e-13 7.764935805203904e-19
6.304513850009849 3.719538514624481e-21 6.22458061991731e-13 6.224572891141553e-13 7.728775755372493e-19
6.32820103803542 3.227553822616704e-21 5.421546586712575e-13 5.421538929513544e-13 7.657199029662367e-19
6.3519772230701035 2.7763723786943923e-21 4.681187969764299e-13 4.681180373891652e-13 7.595872647402642e-19
6.375842739491607 2.396810888494935e-21 4.05640022989432e-13 4.056392683882339e-13 7.546011981674802e-19
6.399797922933955 2.0926198211643015e-21 3.554888870480217e-13 3.5548813339336216e-13 7.536546595318782e-19
6.42384311029221 1.8397260844600977e-21 3.137021712929698e-13 3.137014177110349e-13 7.535819348749461e-19
6.447978639727206 1.6554576177264658e-21 2.83342087871491e-13 2.8334133108274235e-13 7.567887486050427e-19
6.472204850670314 1.5019682036084137e-21 2.5803726287965446e-13 2.5803650217216667e-13 7.607074877175297e-19
6.496522083828205 1.4022413149427505e-21 2.4180936186613246e-13 2.418085945051604e-13 7.673609720493796e-19
