Dust emission spectrum from A.P. Jones, M. Kohler, N. Ysard, M. Bocchio, and L. Verstraete (2017), A&A, 602A, 46J 
inside the DustPedia framework.

lambda    nu*dP/dnu     j_nu    j_nu(carb.) j_nu(sil)
 (um)   (erg s-1 H-1) (Jy cm2 sr-1 H-1)
0.9927057738263894 1.3829965093998588e-26 3.6442743549021584e-19 3.6442743549021584e-19 1.2598729150416768e-41
1.0001793341362166 1.4057574028721232e-26 3.7321379589603276e-19 3.7321379589603276e-19 1.7851364727662603e-41
1.0077091589558085 1.428483399941011e-26 3.8210246271646653e-19 3.8210246271646653e-19 2.5234513979826516e-41
1.0114953028030835 1.4398305111705906e-26 3.8658471241640703e-19 3.8658471241640703e-19 2.997598291997247e-41
1.0152956718711033 1.4511655460451618e-26 3.910919948356189e-19 3.910919948356189e-19 3.5587404700591604e-41
1.0229392996569957 1.4737837937571868e-26 4.001778747185397e-19 4.001778747185397e-19 5.006967309344862e-41
1.0267826658714554 1.4850394822051596e-26 4.0474916511270126e-19 4.0474916511270126e-19 5.933750351943682e-41
1.0306404723013447 1.496278115142656e-26 4.0934449078817813e-19 4.0934449078817813e-19 7.027945070981147e-41
1.03451277320114 1.507498607662816e-26 4.13963652374996e-19 4.13963652374996e-19 8.319019704045966e-41
1.0383996230291617 1.5186998810101603e-26 4.186064480567512e-19 4.186064480567512e-19 9.841489163350953e-41
1.0403485208654093 1.5242929751157693e-26 4.209366449583956e-19 4.209366449583956e-19 1.0701866714299651e-40
1.0423010764483396 1.5298808627867215e-26 4.2327267361832e-19 4.2327267361832e-19 1.163575450809071e-40
1.0462171883269815 1.541040487153668e-26 4.279621224936441e-19 4.279621224936441e-19 1.3749077793530684e-40
1.0471985131304309 1.5438269318876624e-26 4.291380889283103e-19 4.291380889283103e-19 1.4333543009875398e-40
1.048180758391296 1.546611959075974e-26 4.3031549049100067e-19 4.3031549049100067e-19 1.4942306436645124e-40
1.0501480137395462 1.5521776950282372e-26 4.326745858135302e-19 4.326745858135302e-19 1.6236713416766085e-40
1.0521189612883777 1.557737563712346e-26 4.350393820005765e-19 4.350393820005765e-19 1.7640669524232251e-40
1.0531058218030118 1.560510968954162e-26 4.36222710960543e-19 4.36222710960543e-19 1.8386519351229017e-40
1.0540936079674168 1.5632688097702218e-26 4.374035221035747e-19 4.374035221035747e-19 1.916317582913084e-40
1.058054026499678 1.5742841111166596e-26 4.421405931780628e-19 4.421405931780628e-19 2.260376038589537e-40
1.0590464539527713 1.5770338404313325e-26 4.433283005886397e-19 4.433283005886397e-19 2.355425452294971e-40
1.06003981227728 1.579781899224778e-26 4.445173770342784e-19 4.445173770342784e-19 2.4543821802505554e-40
1.0620293250338977 1.5852729412645426e-26 4.468996233233913e-19 4.468996233233913e-19 2.6646509720329237e-40
1.0660195594769086 1.5962342769830832e-26 4.516803931001222e-19 4.516803931001222e-19 3.139400561081913e-40
1.070024785945596 1.607167102910343e-26 4.564826810638252e-19 4.564826810638252e-19 3.696581217629747e-40
1.0740450607676866 1.6180704117194695e-26 4.61306263813036e-19 4.61306263813036e-19 4.3501203113616585e-40
1.07808044048254 1.6289432042802207e-26 4.661509160370943e-19 4.661509160370943e-19 5.116231293952857e-40
1.0861967418109137 1.6505739858729108e-26 4.758969537382187e-19 4.758969537382187e-19 7.0646791175799665e-40
1.0902777775684922 1.6612861323998613e-26 4.807851366391512e-19 4.807851366391512e-19 8.294396806440226e-40
1.0943741465085532 1.6719630873952154e-26 4.856931102645716e-19 4.856931102645716e-19 9.73255276661711e-40
1.1026131145906286 1.6932076309553634e-26 4.955674849897008e-19 4.955674849897008e-19 1.3377079128429223e-39
1.1109141095355224 1.714300125899835e-26 5.055181730242968e-19 5.055181730242968e-19 1.834424353452984e-39
1.1192775983109025 1.7352135566847186e-26 5.155373998008996e-19 5.155373998008996e-19 2.5098349802157048e-39
1.1277040513999907 1.755850363799914e-26 5.255960293490538e-19 5.255960293490538e-19 3.4260732982810295e-39
1.1361939428280308 1.7763107826944248e-26 5.357236940484023e-19 5.357236940484023e-19 4.666210105932063e-39
1.1447477501889525 1.796588002594386e-26 5.459183932102368e-19 5.459183932102368e-19 6.340921404078268e-39
1.1533659546722406 1.8166864899071595e-26 5.561815104598842e-19 5.561815104598842e-19 8.597380414531019e-39
1.1707974979042381 1.856412776910285e-26 5.769335136086888e-19 5.769335136086888e-19 1.5699859383149272e-38
1.1884924949847024 1.8953386316792833e-26 5.979332319999222e-19 5.979332319999222e-19 2.8417201035066894e-38
1.2064549276569216 1.933770559184095e-26 6.192777530025541e-19 6.192777530025541e-19 5.098976028894251e-38
1.2246888378427687 1.9712867117136352e-26 6.408331758172818e-19 6.408331758172818e-19 9.070165423756619e-38
1.2431983285522175 2.007799313174962e-26 6.625675346565118e-19 6.625675346565118e-19 1.5996198836365242e-37
1.2619875648066055 2.043294969693206e-26 6.844718226388184e-19 6.844718226388184e-19 2.797234925772541e-37
1.3004222497298317 2.1106437138257336e-26 7.285657534404683e-19 7.285657534404683e-19 8.341234516443682e-37
1.3400274889804893 2.1730713670472455e-26 7.729601954781952e-19 7.729601954781952e-19 2.4068866675427394e-36
1.3808389325824078 2.2303485442168592e-26 8.174951664450166e-19 8.174951664450166e-19 6.726180454346256e-36
1.4228933163050095 2.2827599172450614e-26 8.621880727170588e-19 8.621880727170588e-19 1.8219903256537075e-35
1.466228494730424 2.3315806271301196e-26 9.074475376950318e-19 9.074475376950318e-19 4.788633560228596e-35
1.5108834753276823 2.3758558431152233e-26 9.528411186608093e-19 9.528411186608093e-19 1.222044440444881e-34
1.5568984535646726 2.4148142023210248e-26 9.979607063452103e-19 9.9796070634521e-19 3.0303937467672813e-34
1.6043148490894465 2.448530934564767e-26 1.0427126239672076e-18 1.042712623967207e-18 7.3082439535597434e-34
1.6531753430134553 2.4771128402423754e-26 1.0870115100961422e-18 1.0870115100961402e-18 1.7154140980803335e-33
1.7035239163302658 2.500907175062734e-26 1.1308766597763195e-18 1.1308766597763155e-18 3.92211058272343e-33
1.755405889504358 2.521906300993094e-26 1.175102988889335e-18 1.1751029888893262e-18 8.743587276028813e-33
1.8088679632656115 2.5396204971536753e-26 1.2193970041702353e-18 1.2193970041702165e-18 1.9018197169754775e-32
1.8639582606462262 2.5537190303130583e-26 1.2635101322698649e-18 1.2635101322698246e-18 4.0388006865612855e-32
1.9207263702978936 2.564444693131485e-26 1.3074595728724035e-18 1.3074595728723197e-18 8.379827555873407e-32
1.979223391128241 2.5723604006106313e-26 1.3514378040134058e-18 1.3514378040132355e-18 1.6999513938534992e-31
2.039501978296691 2.5781391505707003e-26 1.3957251938651522e-18 1.3957251938648148e-18 3.3741301068335075e-31
2.1016163906111602 2.58366296864949e-26 1.4413144492764214e-18 1.4413144492757654e-18 6.557733526811995e-31
2.1656225393682647 2.5900229596739985e-26 1.488866676910112e-18 1.4888666769088633e-18 1.2488786256561372e-30
2.231578038680979 2.59729738778301e-26 1.5385201570959343e-18 1.5385201570936022e-18 2.331802578164584e-30
2.299542257339062 2.6061391903937235e-26 1.5907738195391915e-18 1.5907738195349204e-18 4.2708875927282254e-30
2.369576372248914 2.617992175700416e-26 1.6466772597267372e-18 1.6466772597190589e-18 7.678389995147119e-30
2.4417434235010123 2.634561149712996e-26 1.7075669600385807e-18 1.7075669600250223e-18 1.3558316509690272e-29
2.5161083711144245 2.658765723915077e-26 1.7757378304131825e-18 1.7757378303896526e-18 2.3529375385222397e-29
2.5927381535095444 2.695384628983754e-26 1.8550210365958536e-18 1.855021036555694e-18 4.01592107404239e-29
2.6717017477616296 2.750125122795879e-26 1.95033790342505e-18 1.950337903357604e-18 6.744607956088747e-29
2.753070231689431 2.831580229885602e-26 2.0692625363500064e-18 2.0692625362384997e-18 1.1150673803552064e-28
2.836916847834745 2.959220041114171e-26 2.2284007660400067e-18 2.2284007658584057e-18 1.8160182608266097e-28
2.9233170693905177 3.1759290444480835e-26 2.464428068316391e-18 2.464428068024853e-18 2.9153827039192043e-28
2.967498994190263 3.3600225758441147e-26 2.6466847126401466e-18 2.6466847122726194e-18 3.6752669876801154e-28
3.0123486681368425 3.575042790114901e-26 2.8586166290618056e-18 2.858616628600048e-18 4.617575583933382e-28
3.0578761833420214 4.0562375309120334e-26 3.2924008757826217e-18 3.2924008752036105e-18 5.790110768472724e-28
3.1040917844459814 4.676409815903785e-26 3.853155631906037e-18 3.8531556311822535e-18 7.237833439238828e-28
3.127460860933648 5.332470190313005e-26 4.426798485912566e-18 4.426798485102894e-18 8.096708536245644e-28
3.1510058709225794 6.206647965656276e-26 5.19129559785669e-18 5.191295596950979e-18 9.057119861002853e-28
3.162844764501044 7.020316286743532e-26 5.893916634590488e-18 5.893916633630572e-18 9.599175908645238e-28
3.1747281389236908 7.966615428170175e-26 6.713512894513065e-18 6.713512893495913e-18 1.0171524610918711e-27
3.1986289994194426 1.060629869470216e-25 9.005278675250955e-18 9.005278674107045e-18 1.1439072768571708e-27
3.2227097969389145 1.6828586189429142e-25 1.4395881521439518e-17 1.4395881520133873e-17 1.3056444398559609e-27
3.2348180950136065 2.2729311297957275e-25 1.9516663471597826e-17 1.951666347018775e-17 1.4100766393677443e-27
3.240889293275058 2.7140822303695507e-25 2.3348373430972552e-17 2.3348373429498226e-17 1.4743177894528547e-27
3.2469718861334385 3.2244209033925094e-25 2.779071300679626e-17 2.7790713005249034e-17 1.5472271190942342e-27
3.2714166318528037 5.946677655070544e-25 5.163922171885258e-17 5.16392217169696e-17 1.882970558132343e-27
3.2744851364798273 6.116838547682181e-25 5.316667173018631e-17 5.316667172826794e-17 1.9183815512208603e-27
3.2775565192852394 6.291886861629063e-25 5.473946232901201e-17 5.4739462327057575e-17 1.954430663701278e-27
3.283707930232385 6.123484561795913e-25 5.337434790276118e-17 5.337434790076557e-17 1.995607683902144e-27
3.2898708863219004 5.589527470319967e-25 4.881163802277408e-17 4.881163802076191e-17 2.0121599598092163e-27
3.29141343181113 5.463608220509543e-25 4.7734394713006485e-17 4.773439471099016e-17 2.016312165914692e-27
3.292184975758714 5.4017361308007445e-25 4.7204894051191946e-17 4.7204894049173565e-17 2.0183903960888356e-27
3.295272960557952 5.011195579627434e-25 4.383309944419838e-17 4.383309944217706e-17 2.0213201366286645e-27
3.3076538914384823 3.6582832667508414e-25 3.2119355546578823e-17 3.2119355544548714e-17 2.030109444517039e-27
3.310756385682612 3.382940155190359e-25 2.972973058170206e-17 2.972973057966975e-17 2.0323057592574002e-27
3.313861789986515 3.1288965426860823e-25 2.7522952964284098e-17 2.75229529622496e-17 2.0345019190975194e-27
3.3200813396944477 2.772623925597389e-25 2.4434818830421465e-17 2.4434818828367635e-17 2.0538192135475495e-27
3.345076488085796 2.1370331572996243e-25 1.897521678851611e-17 1.8975216786293445e-17 2.2226630061579245e-27
3.3482140837626964 2.1608553752786875e-25 1.9204736497044886e-17 1.9204736494790235e-17 2.2546511170258172e-27
3.3513546224236106 2.1849409568252307e-25 1.943701293398034e-17 1.943701293169327e-17 2.287070752283811e-27
3.3576445397418455 2.361005838650282e-25 2.1042687777359287e-17 2.1042687774992045e-17 2.367238940653147e-27
3.3702598118196083 3.010439785212233e-25 2.6931637464403892e-17 2.6931637461842747e-17 2.5611406430077948e-27
3.382922481734668 3.1583022917934645e-25 2.836058433642994e-17 2.836058433370992e-17 2.7200179444071185e-27
3.389271646505754 3.234904857086322e-25 2.9102970797647283e-17 2.910297079484438e-17 2.802899460082266e-27
3.395632727569191 3.3174432038626954e-25 2.9901545780523646e-17 2.9901545777631213e-17 2.892435014881487e-27
3.421196662673239 3.7137454573880763e-25 3.372559390850107e-17 3.372559390521516e-17 3.28590532794867e-27
3.4276182099114902 3.6338166942648627e-25 3.3061677883817397e-17 3.306167788046155e-17 3.355835125929483e-27
3.4340518103208963 3.283688738455266e-25 2.993217390234495e-17 2.993217389893652e-17 3.4084407377380654e-27
3.4469541582030403 2.7850490771621135e-25 2.5482251239911586e-17 2.5482251236423024e-17 3.48856272697921e-27
3.472904465399547 2.6452525011483494e-25 2.4385373024354878e-17 2.438537302053738e-17 3.817506052269586e-27
3.4990501388274233 2.4314736581633553e-25 2.258339171852987e-17 2.258339171436732e-17 4.162545582001329e-27
3.5253949054701885 1.6708472883354121e-25 1.5635578841504818e-17 1.5635578837078868e-17 4.425949278256869e-27
3.5519380250092896 9.56016470359872e-26 9.01363955133645e-18 9.013639546662047e-18 4.674405578080709e-27
3.578680990867387 6.725796022753211e-26 6.389047420661276e-18 6.389047415604441e-18 5.056831912652985e-27
3.605625307711299 5.579204588049568e-26 5.3397670802543126e-18 5.339767074729502e-18 5.5248106605826455e-27
3.660119384959845 4.7423679560140325e-26 4.6074425832421765e-18 4.607442576604832e-18 6.63734597750778e-27
3.715437065384467 4.149684926198175e-26 4.0925544437316586e-18 4.092554435777737e-18 7.953921631733831e-27
3.8285932144167436 3.847841276254807e-26 3.910441627341134e-18 3.910441615944576e-18 1.1396557326465154e-26
3.94519561050918 3.788657219018742e-26 3.967558037166931e-18 3.96755802098648e-18 1.61804520772002e-26
4.06534921144712 3.82903813208685e-26 4.131968305879335e-18 4.131968283122285e-18 2.2757049866959128e-26
4.189162171576248 3.9270012978436865e-26 4.366743183868314e-18 4.366743152156254e-18 3.17120598631466e-26
4.316745939156006 4.066875921179993e-26 4.660009956853809e-18 4.660009913053319e-18 4.380048982674132e-26
4.448215356677963 4.243365949365905e-26 5.0103230097222305e-18 5.010322949737093e-18 5.998513712819117e-26
4.58368876423945 4.4570446759742383e-26 5.422899318944642e-18 5.4228992374560075e-18 8.148863455206676e-26
4.723288106065518 4.712821111337286e-26 5.908739250804343e-18 5.9087391409447674e-18 1.0985957467713774e-25
4.867139040275056 5.0205799143729696e-26 6.486300579723628e-18 6.486300432662841e-18 1.4706078821355594e-25
4.940699165968905 5.20642775476622e-26 6.8280656869044705e-18 6.828065517151432e-18 1.697530391487433e-25
5.015371051989984 5.398819159234266e-26 7.187391181065691e-18 7.187390985474344e-18 1.9559134717388908e-25
5.091171501069577 5.63389814330248e-26 7.613706846030339e-18 7.613706620897855e-18 2.2513248293310605e-25
5.129500256944802 5.754519674908228e-26 7.835262811690634e-18 7.835262570317806e-18 2.4137282814005733e-25
5.168117569889187 5.880281126432072e-26 8.066774326214459e-18 8.066774067525199e-18 2.5868925905431203e-25
5.20702561229733 6.034874499862651e-26 8.341178016452247e-18 8.341177739147515e-18 2.7730473129704325e-25
5.246226572918644 6.193400158014338e-26 8.624732155776078e-18 8.624731858647669e-18 2.971284089211973e-25
5.265937586045735 6.27417683642125e-26 8.770046487846781e-18 8.770046180331827e-18 3.0751495304046913e-25
5.285722656980489 6.355984364970146e-26 8.917777350227927e-18 8.917777031997991e-18 3.182299342712883e-25
5.305582063971359 6.438839400772943e-26 9.067969743029359e-18 9.067969413746753e-18 3.29282605752013e-25
5.3255160863122235 6.527897389410005e-26 9.227933435366182e-18 9.227933094638382e-18 3.4072779791106376e-25
5.365609099470188 6.750050952715282e-26 9.61380953950015e-18 9.613809174428502e-18 3.6507164518943446e-25
5.406003951863644 6.980668405038301e-26 1.00171182503253e-17 1.0017117859340692e-17 3.9098460849657273e-25
5.446702915881641 7.220160068514605e-26 1.0438784853001046e-17 1.0438784434444538e-17 4.18556506711638e-25
5.487708281020852 7.479020826733799e-26 1.0894447050903262e-17 1.0894446602899775e-17 4.4800348617387705e-25
5.529022354014368 7.839459796108512e-26 1.150545812408572e-17 1.1505457643654978e-17 4.804307370432759e-25
5.570647458961463 8.221202213652333e-26 1.2156552734039037e-17 1.2156552219060536e-17 5.149785011101991e-25
5.612585937458331 8.625785594669633e-26 1.285082755441346e-17 1.2850827002643451e-17 5.517700068460095e-25
5.654840148729818 9.070659501531021e-26 1.3615344370189702e-17 1.3615343779012294e-17 5.9117741193210685e-25
5.67608639626678 9.373996710569474e-26 1.412352903555563e-17 1.4123528422652903e-17 6.129027328135089e-25
5.686739436050992 9.530365047381163e-26 1.438607428664063e-17 1.4386073662604383e-17 6.240362500142248e-25
5.6974124697621304 9.689966679288647e-26 1.4654445107656824e-17 1.4654444472302904e-17 6.353539175643191e-25
5.718818669136295 1.0019181809806894e-25 1.5209257640269197e-17 1.5209256981716545e-17 6.5855265112913885e-25
5.740305295436557 1.0382180467005819e-25 1.5819508912170185e-17 1.581950822928157e-17 6.828886164555205e-25
5.7835210386641895 1.1324522280068006e-25 1.738527814705332e-17 1.7385277410013808e-17 7.370395065026671e-25
5.827062130521658 1.241042874114258e-25 1.919578455912811e-17 1.9195783763217812e-17 7.959102975595563e-25
5.8489554468988025 1.317266583932591e-25 2.0451323628068346e-17 2.0451322797505567e-17 8.305627824819355e-25
5.870931020387893 1.399074210624387e-25 2.1803045546036032e-17 2.1803044679425378e-17 8.6661065259774e-25
5.892989160043636 1.4869155216677805e-25 2.3259017758808607e-17 2.3259016854703345e-17 9.041052653986315e-25
5.915130176081913 1.5868348595692998e-25 2.4915262793817e-17 2.4915261849382564e-17 9.444344407722984e-25
5.95966208400165 1.8663089700288417e-25 2.952396026618585e-17 2.952395922337251e-17 1.0428133488718352e-24
6.004529249263818 2.2692522051104062e-25 3.6168555469653097e-17 3.616855430204062e-17 1.167612476615975e-24
6.027089341400364 2.549401085383614e-25 4.078638633423732e-17 4.078638508694359e-17 1.2472937190066837e-24
6.049734195844842 2.880498525073302e-25 4.625656552053633e-17 4.6256564183913133e-17 1.3366232024810976e-24
6.095279466722835 3.837024261970243e-25 6.208084234686326e-17 6.208084076751403e-17 1.5793492299597683e-24
6.141167624020661 5.309264958786002e-25 8.654755114510486e-17 8.654754921233229e-17 1.932772562880519e-24
6.164241091010745 6.2494438216633335e-25 1.0225638082444762e-16 1.0225637865895082e-16 2.1654968057909224e-24
6.187401249150058 7.320515144589833e-25 1.2023180225090495e-16 1.2023179982817897e-16 2.4227259569232592e-24
6.1990139391386085 7.843483653897736e-25 1.2906278779409103e-16 1.2906278523886697e-16 2.5552240378698643e-24
6.204828454712694 8.118970705066439e-25 1.3372117574203941e-16 1.337211731178771e-16 2.624162312616934e-24
6.210648424152782 8.320053962426773e-25 1.3716159327819935e-16 1.3716159059674466e-16 2.6814546949652586e-24
6.233982942956859 9.003188072450602e-25 1.4898116469617505e-16 1.4898116181115063e-16 2.8850243703566598e-24
6.239830258556775 9.090489176852047e-25 1.5056688406509224e-16 1.5056688115193827e-16 2.9131539582649067e-24
6.245683058788269 9.098011011770738e-25 1.5083281385757624e-16 1.5083281091604043e-16 2.94153583464468e-24
6.257405133728602 9.079131833685187e-25 1.508023222868832e-16 1.5080231929572005e-16 2.9911631124059503e-24
6.269149208991335 8.944627312770791e-25 1.4884706974414902e-16 1.4884706673711183e-16 3.0070371857773477e-24
6.280915325867298 8.607492301250258e-25 1.435056547890289e-16 1.4350565180809413e-16 2.9809348021014384e-24
6.304513850009849 7.776170410236329e-25 1.3013280933217656e-16 1.3013280644255944e-16 2.88961712898375e-24
6.32820103803542 6.745789319131807e-25 1.1331371393884411e-16 1.1331371118952475e-16 2.7493193656356073e-24
6.3519772230701035 5.800858553420473e-25 9.780715830109948e-17 9.780715568462041e-17 2.6164791014852508e-24
6.375842739491607 5.005926518770089e-25 8.472108324876704e-17 8.472108074904593e-17 2.4997210936811223e-24
6.399797922933955 4.368756261960201e-25 7.421531066661778e-17 7.421530824596359e-17 2.420654172365475e-24
6.42384311029221 3.839018743184747e-25 6.546129478426624e-17 6.546129243058252e-17 2.3536837315849468e-24
6.447978639727206 3.4529324321513296e-25 5.909913211481561e-17 5.909912979281714e-17 2.3219984721107365e-24
6.472204850670314 3.131300640582296e-25 5.379556268954281e-17 5.3795560390402983e-17 2.2991398444477114e-24
6.496522083828205 2.9222017552218906e-25 5.03918786405995e-17 5.039187633352822e-17 2.3070712783510943e-24
