Dust emission spectrum from A.P. Jones, M. Kohler, N. Ysard, M. Bocchio, and L. Verstraete (2017), A&A, 602A, 46J 
inside the DustPedia framework.

lambda    nu*dP/dnu     j_nu    j_nu(carb.) j_nu(sil)
 (um)   (erg s-1 H-1) (Jy cm2 sr-1 H-1)
0.9927057738263894 3.425655234308177e-24 9.026796115734948e-17 9.026796114231735e-17 1.5032127798399777e-26
1.0001793341362166 3.482186175046714e-24 9.244837820171819e-17 9.244837818361354e-17 1.8104651669985313e-26
1.0077091589558085 3.538636768548403e-24 9.465436028008581e-17 9.465436025830888e-17 2.1776942455467372e-26
1.0114953028030835 3.566825013117318e-24 9.576682888978147e-17 9.576682886590948e-17 2.3871988056305225e-26
1.0152956718711033 3.594984886860955e-24 9.688555620949104e-17 9.688555618333097e-17 2.616007058644347e-26
1.0229392996569957 3.651180909720099e-24 9.914085246790416e-17 9.914085243651929e-17 3.138488387274658e-26
1.0267826658714554 3.679148860652414e-24 1.0027561203040702e-16 1.0027561199604616e-16 3.4360877588474935e-26
1.0306404723013447 3.707076126948148e-24 1.0141638604090157e-16 1.0141638600329477e-16 3.760679420637092e-26
1.03451277320114 3.734960026937185e-24 1.0256312585406762e-16 1.0256312581292173e-16 4.114591006984984e-26
1.0383996230291617 3.762797894074521e-24 1.0371578222197943e-16 1.0371578217697602e-16 4.50033967019102e-26
1.0403485208654093 3.776698736291159e-24 1.0429431356214655e-16 1.042943135150866e-16 4.705994871810533e-26
1.0423010764483396 3.7905870774550034e-24 1.0487430530602745e-16 1.0487430525682095e-16 4.9206465279274614e-26
1.0462171883269815 3.818324942316857e-24 1.0603864468885925e-16 1.0603864463507471e-16 5.378452130636611e-26
1.0471985131304309 3.825251082829671e-24 1.0633063236883108e-16 1.0633063231383975e-16 5.499129527407013e-26
1.048180758391296 3.8321738114758046e-24 1.0662297958158829e-16 1.0662297952536429e-16 5.622399934751401e-26
1.0501480137395462 3.846008870533861e-24 1.0720874938633423e-16 1.0720874932756489e-16 5.876933014597032e-26
1.0521189612883777 3.859829794903459e-24 1.07795947643482e-16 1.0779594758205714e-16 6.142488215025425e-26
1.0531058218030118 3.866724238939449e-24 1.080897836416653e-16 1.0808978357886979e-16 6.279549199669415e-26
1.0540936079674168 3.873580245180162e-24 1.0838300053089858e-16 1.0838300046670293e-16 6.419567576430409e-26
1.058054026499678 3.900965481471155e-24 1.095593342882308e-16 1.0955933421812945e-16 7.010138048113377e-26
1.0590464539527713 3.9078018942465496e-24 1.0985428013006701e-16 1.0985428005840982e-16 7.16571724676785e-26
1.06003981227728 3.914634269109045e-24 1.1014956926691947e-16 1.1014956919367348e-16 7.324600226370084e-26
1.0620293250338977 3.9282867469030165e-24 1.1074117407800188e-16 1.1074117400147643e-16 7.65254576815561e-26
1.0660195594769086 3.955541511644156e-24 1.1192846630759445e-16 1.1192846622408336e-16 8.351105486042206e-26
1.070024785945596 3.982727265278861e-24 1.1312115689204173e-16 1.1312115680093702e-16 9.110470080062701e-26
1.0740450607676866 4.009841517224096e-24 1.143191912660562e-16 1.1431919116669962e-16 9.935655281188995e-26
1.07808044048254 4.036881797134967e-24 1.1552251439604017e-16 1.1552251428771949e-16 1.083206606371216e-25
1.0861967418109137 4.090682854550518e-24 1.1794342609611717e-16 1.1794342596749412e-16 1.2862302983066607e-25
1.0902777775684922 4.117330080668092e-24 1.1915774572576942e-16 1.191577455856779e-16 1.4009152506989543e-25
1.0943741465085532 4.143891765441452e-24 1.2037704033840652e-16 1.2037704018587322e-16 1.5253332866787448e-25
1.1026131145906286 4.196749135096299e-24 1.2283032369981107e-16 1.2283032351915581e-16 1.8065526503603628e-25
1.1109141095355224 4.249236441936334e-24 1.2530281077523693e-16 1.2530281056154992e-16 2.1368701767510522e-25
1.1192775983109025 4.3012867905624694e-24 1.2779258202899335e-16 1.2779258177655855e-16 2.524348073639352e-25
1.1277040513999907 4.3526584955892686e-24 1.3029242522939972e-16 1.3029242493157135e-16 2.9782835309827026e-25
1.1361939428280308 4.4035999174157645e-24 1.3280968836380963e-16 1.3280968801287142e-16 3.5093823159092505e-25
1.1447477501889525 4.4540942175954544e-24 1.3534388268013453e-16 1.3534388226713887e-16 4.1299567137120193e-25
1.1533659546722406 4.504152449501913e-24 1.378953565528846e-16 1.3789535606746915e-16 4.854154400831766e-25
1.1707974979042381 4.603122780621639e-24 1.4305524247771223e-16 1.4305524180963757e-16 6.680746504643191e-25
1.1884924949847024 4.700137641947443e-24 1.482779089773589e-16 1.4827790806244774e-16 9.149112172088825e-25
1.2064549276569216 4.795956495605832e-24 1.535874640345084e-16 1.5358746278768304e-16 1.2468253524469652e-24
1.2246888378427687 4.8895349394792506e-24 1.5895081039795632e-16 1.589508087070491e-16 1.6909072379743566e-24
1.2431983285522175 4.98065536583423e-24 1.643600794691051e-16 1.6436007718695577e-16 2.2821492818003507e-24
1.2619875648066055 5.069285528173584e-24 1.698131281293437e-16 1.698131250638236e-16 3.065520126432391e-24
1.3004222497298317 5.2376097817181524e-24 1.8079522810261082e-16 1.8079522264854586e-16 5.454064992140355e-24
1.3400274889804893 5.3938634777177446e-24 1.918594037610712e-16 1.9185939423377853e-16 9.527292729069055e-24
1.3808389325824078 5.5374833730699854e-24 2.0296674721501324e-16 2.0296673086746764e-16 1.63475456230772e-23
1.4228933163050095 5.6691816548992934e-24 2.1412242119703363e-16 2.141223936304783e-16 2.7566555289559786e-23
1.466228494730424 5.792129364328928e-24 2.254287700160261e-16 2.2542872430979954e-16 4.5706226510492554e-23
1.5108834753276823 5.90397031368724e-24 2.3677975642064794e-16 2.367796818750645e-16 7.454558339139023e-23
1.5568984535646726 6.002802580713368e-24 2.4807544604225334e-16 2.4807532632012425e-16 1.1972212908242132e-22
1.6043148490894465 6.088825622733113e-24 2.5929406291480424e-16 2.5929387323086603e-16 1.8968393824316483e-22
1.6531753430134553 6.1623196585778436e-24 2.7041611867428786e-16 2.7041582253868877e-16 2.9613559911159873e-22
1.7035239163302658 6.2241621188768806e-24 2.8144825753979546e-16 2.8144780186087975e-16 4.556789156356905e-22
1.755405889504358 6.279316930599947e-24 2.92589938429739e-16 2.9258924699171895e-16 6.914380200392622e-22
1.8088679632656115 6.3265897340994006e-24 3.037707632703893e-16 3.037697282996555e-16 1.034970733786752e-21
1.8639582606462262 6.365178104009619e-24 3.1493155404541597e-16 3.149300252252135e-16 1.5288202024714274e-21
1.9207263702978936 6.3957057463660065e-24 3.260794325476424e-16 3.260772030714585e-16 2.229476183734423e-21
1.979223391128241 6.4195921604934905e-24 3.3726531981986456e-16 3.372621088541559e-16 3.2109657087264996e-21
2.039501978296691 6.438529224037668e-24 3.4856215761035153e-16 3.4855758871892354e-16 4.568891427995848e-21
2.1016163906111602 6.457217747285934e-24 3.6022040623015817e-16 3.6021398070349187e-16 6.425526666369199e-21
2.1656225393682647 6.478392563471396e-24 3.7240839011361107e-16 3.7239945541203723e-16 8.934701573867397e-21
2.231578038680979 6.502265190496502e-24 3.851644447577549e-16 3.851521573221586e-16 1.2287435596317469e-20
2.299542257339062 6.5304790508312725e-24 3.9861704783089835e-16 3.9860032974277627e-16 1.6718088121985438e-20
2.369576372248914 6.566638800143924e-24 4.130315928902013e-16 4.130090817145792e-16 2.2511175622041022e-20
2.4417434235010123 6.614996689648391e-24 4.287450222682701e-16 4.2871501486395877e-16 3.0007404311249415e-20
2.5161083711144245 6.682822369251796e-24 4.46332686940826e-16 4.462930756104615e-16 3.9611330364454214e-20
2.5927381535095444 6.781996319745797e-24 4.667514130622408e-16 4.66699615464075e-16 5.1797598165774595e-20
2.6717017477616296 6.926676329068885e-24 4.912270819011323e-16 4.911599679907986e-16 6.711391033369678e-20
2.753070231689431 7.138160029965835e-24 5.216425433608884e-16 5.215563574086827e-16 8.618595220568905e-20
2.836916847834745 7.464698142337086e-24 5.621190322967132e-16 5.620093077556703e-16 1.0972454104306078e-19
2.9233170693905177 8.012522170201352e-24 6.217482902765261e-16 6.216097863190462e-16 1.3850395747993152e-19
2.967498994190263 8.474264513413251e-24 6.675165369353251e-16 6.673616709305732e-16 1.5486600475211304e-19
3.0123486681368425 9.012748143487374e-24 7.206624711669779e-16 7.204895407940736e-16 1.7293037290431656e-19
3.0578761833420214 1.0210795078160436e-23 8.287983729151432e-16 8.286054744254396e-16 1.928984897034798e-19
3.1040917844459814 1.1752871042826704e-23 9.683847873153303e-16 9.681700220064035e-16 2.1476530892683856e-19
3.127460860933648 1.3380946408740998e-23 1.1108314006123843e-15 1.1106048727420707e-15 2.2652787031395546e-19
3.1510058709225794 1.5549007237776877e-23 1.3005328040379338e-15 1.3002939752393488e-15 2.38828798584347e-19
3.162844764501044 1.7566025450574843e-23 1.474758192907687e-15 1.4745129828601046e-15 2.45210047582439e-19
3.1747281389236908 1.9911155185145178e-23 1.6779245626373346e-15 1.6776728307131186e-15 2.517319242157249e-19
3.1986289994194426 2.6450667269086295e-23 2.2457940961387383e-15 2.2455288566930223e-15 2.6523944571578834e-19
3.2227097969389145 4.186182595563191e-23 3.581036932900191e-15 3.580757338022508e-15 2.7959487768307246e-19
3.2348180950136065 5.647474933465826e-23 4.8492392178483e-15 4.848951951036145e-15 2.872668121542366e-19
3.240889293275058 6.739953277090773e-23 5.798164265619742e-15 5.797872951735966e-15 2.9131388377623194e-19
3.2469718861334385 8.0037938991957e-23 6.898328285369571e-15 6.898032783635307e-15 2.9550173426366274e-19
3.2714166318528037 1.474460705823933e-22 1.280378855559049e-14 1.280347571265977e-14 3.1284293072138687e-19
3.2744851364798273 1.5166012509684254e-22 1.3182077674157655e-14 1.3181762777957186e-14 3.148962004639767e-19
3.2775565192852394 1.5599516181414732e-22 1.3571590639541083e-14 1.3571273678888082e-14 3.169606530007686e-19
3.283707930232385 1.518271634331296e-22 1.323376544905107e-14 1.3233444777115487e-14 3.206719355809279e-19
3.2898708863219004 1.38607591969738e-22 1.2104178112301013e-14 1.2103854044981296e-14 3.240673197170969e-19
3.29141343181113 1.3549004968808635e-22 1.1837480380122867e-14 1.1837155459717877e-14 3.249204049884558e-19
3.292184975758714 1.3395819421395382e-22 1.1706388857282636e-14 1.1706063509697832e-14 3.253475848029814e-19
3.295272960557952 1.2428953791968147e-22 1.0871648469788726e-14 1.0871321457185733e-14 3.270126029900214e-19
3.3076538914384823 9.079285413501578e-23 7.971520383770921e-15 7.971186674216746e-15 3.3370955417697873e-19
3.310756385682612 8.39750074091775e-23 7.379835975049343e-15 7.379500575505997e-15 3.353995433450875e-19
3.313861789986515 7.76843178834611e-23 6.833405317177681e-15 6.833068221321038e-15 3.3709585664316467e-19
3.3200813396944477 6.886271659939394e-23 6.068792773308787e-15 6.068452037004527e-15 3.407363042617356e-19
3.345076488085796 5.312918736623242e-23 4.717464699264862e-15 4.71710775946788e-15 3.56939796983854e-19
3.3482140837626964 5.371985372476719e-23 4.7743853996285766e-15 4.774026265488965e-15 3.5913413961061e-19
3.3513546224236106 5.431704144202218e-23 4.831988863342908e-15 4.831627523930675e-15 3.6133941223356315e-19
3.3576445397418455 5.867874970353877e-23 5.229799049896698e-15 5.2294331028406e-15 3.659470560978973e-19
3.3702598118196083 7.476378074189633e-23 6.6884282100563e-15 6.688052595824142e-15 3.756142321586728e-19
3.382922481734668 7.842937705946692e-23 7.042717121563398e-15 7.0423320754445955e-15 3.850461188041977e-19
3.389271646505754 8.032833849712299e-23 7.226776034491926e-15 7.226386200523266e-15 3.898339686621111e-19
3.395632727569191 8.237481076291905e-23 7.424796820398985e-15 7.424402051884676e-15 3.9476851430884802e-19
3.421196662673239 9.220150690839697e-23 8.37308484230752e-15 8.37266960616175e-15 4.1523614577195376e-19
3.4276182099114902 9.022383478074318e-23 8.208865812278282e-15 8.208445969599612e-15 4.1984267866946814e-19
3.4340518103208963 8.155341780172846e-23 7.433929578600301e-15 7.433505360099368e-15 4.242185009339676e-19
3.4469541582030403 6.920486041486022e-23 6.332009207936231e-15 6.331576552022778e-15 4.326559134509443e-19
3.472904465399547 6.574670157905569e-23 6.060887731625671e-15 6.06043569223537e-15 4.520393903014244e-19
3.4990501388274233 6.045649852709628e-23 5.615165862826768e-15 5.614693896974943e-15 4.719658518243831e-19
3.5253949054701885 4.1622827336660464e-23 3.895011848013087e-15 3.8945203803002515e-15 4.914677128347458e-19
3.5519380250092896 2.3919825801980998e-23 2.255240308032081e-15 2.25472912150025e-15 5.111865318315666e-19
3.578680990867387 1.6902799299592815e-23 1.605650630820227e-15 1.6051178094394938e-15 5.328213807330431e-19
3.605625307711299 1.4067044645791038e-23 1.3463342440776492e-15 1.3457785619940475e-15 5.556820836017763e-19
3.660119384959845 1.200354663168506e-23 1.166203306317113e-15 1.1655992649160616e-15 6.0404140105124975e-19
3.715437065384467 1.0544406781630451e-23 1.0399237435650814e-15 1.0392682342006194e-15 6.555093644619905e-19
3.8285932144167436 9.816301773942506e-24 9.976002731778335e-16 9.96832418286821e-16 7.678548910126075e-19
3.94519561050918 9.690523044224334e-24 1.0148110627548812e-15 1.0139180397799477e-15 8.930229749333016e-19
4.06534921144712 9.812731456964359e-24 1.0589054999090358e-15 1.0578739133242288e-15 1.0315865848068572e-18
4.189162171576248 1.0079101829813715e-23 1.1207750106683468e-15 1.1195904592397564e-15 1.1845514285904271e-18
4.316745939156006 1.0450988484814784e-23 1.1975214228830156e-15 1.1961691799188755e-15 1.3522429641400502e-18
4.448215356677963 1.091547992014675e-23 1.2888372310722974e-15 1.287303825525357e-15 1.5334055469409907e-18
4.58368876423945 1.1474266573901905e-23 1.3960773766621663e-15 1.3943482075467865e-15 1.729169115379678e-18
4.723288106065518 1.2139847130006304e-23 1.5220435815667664e-15 1.5201019060762262e-15 1.941675490540148e-18
4.867139040275056 1.2937063324451578e-23 1.6713941969349513e-15 1.6692270299013536e-15 2.167167033598142e-18
4.940699165968905 1.3416161988625918e-23 1.7594873037588514e-15 1.7572015911825164e-15 2.2857125763353787e-18
5.015371051989984 1.391225724862893e-23 1.852124179534384e-15 1.8497161926588256e-15 2.407986875558016e-18
5.091171501069577 1.4515282427596342e-23 1.9616099258456304e-15 1.9590735349359546e-15 2.536390909676023e-18
5.129500256944802 1.4824751053113982e-23 2.018514614269487e-15 2.0159126040502635e-15 2.6020102192236e-18
5.168117569889187 1.514721110985223e-23 2.0779471434700953e-15 2.0752780670399525e-15 2.6690764301421685e-18
5.20702561229733 1.5541626856162832e-23 2.1481055865450008e-15 2.145364039874168e-15 2.7415466708333657e-18
5.246226572918644 1.5946020822284694e-23 2.2205921631701433e-15 2.2177769502323602e-15 2.815212937783731e-18
5.265937586045735 1.615205902714505e-23 2.257735352950396e-15 2.254882858438764e-15 2.8524945116318238e-18
5.285722656980489 1.636071278151163e-23 2.2954932784394008e-15 2.292603203473862e-15 2.890074965538787e-18
5.305582063971359 1.6572024251397046e-23 2.3338773517845103e-15 2.330949397571494e-15 2.927954213015943e-18
5.3255160863122235 1.6798825096087947e-23 2.3747070539212177e-15 2.3717406904755128e-15 2.9663634457050258e-18
5.365609099470188 1.73621605784179e-23 2.4728184448442344e-15 2.4697725585487936e-15 3.0458862954400297e-18
5.406003951863644 1.7946728155127183e-23 2.5753192632183907e-15 2.5721925349731957e-15 3.1267282451954367e-18
5.446702915881641 1.8553550919648723e-23 2.682440894267564e-15 2.67923200326996e-15 3.2088909976041486e-18
5.487708281020852 1.920875551873816e-23 2.798077111439594e-15 2.7947844596027723e-15 3.29265183682129e-18
5.529022354014368 2.0116921351760033e-23 2.9524278740876284e-15 2.949047698140913e-15 3.3801759467147605e-18
5.570647458961463 2.1078154970788584e-23 3.1167911429440787e-15 3.1133219717452198e-15 3.4691711988583973e-18
5.612585937458331 2.2096268694616424e-23 3.2919359688927642e-15 3.2883763268657573e-15 3.559642027006553e-18
5.654840148729818 2.3214678740429798e-23 3.4845960808133473e-15 3.48094413627086e-15 3.651944542488095e-18
5.67608639626678 2.3975209117837478e-23 3.61227523930638e-15 3.608575049744191e-15 3.700189562191614e-18
5.686739436050992 2.4367146661707517e-23 3.678217783747099e-15 3.674493315710668e-15 3.724468036432515e-18
5.6974124697621304 2.4767113736043426e-23 3.745609461131668e-15 3.741860610473323e-15 3.7488506583457065e-18
5.718818669136295 2.5591908955675e-23 3.88488745091128e-15 3.881089522055622e-15 3.7979288556580165e-18
5.740305295436557 2.65007188698437e-23 4.037960616006445e-15 4.034112887282238e-15 3.847728724206978e-18
5.7835210386641895 2.885640751445762e-23 4.430002948968126e-15 4.4260519713020684e-15 3.950977666056708e-18
5.827062130521658 3.1568558296995997e-23 4.882855029032791e-15 4.87879822738313e-15 4.056801649661783e-18
5.8489554468988025 3.347006123557629e-23 5.196420090886207e-15 5.19230644884537e-15 4.1136420408366456e-18
5.870931020387893 3.551000724289241e-23 5.533847306865348e-15 5.5296762645510666e-15 4.1710423142811684e-18
5.892989160043636 3.7699529581570487e-23 5.897134136127423e-15 5.892905130889048e-15 4.229005238373964e-18
5.915130176081913 4.018905001990973e-23 6.3101761134217e-15 6.305887088565004e-15 4.289024856696189e-18
5.95966208400165 4.7147387906403616e-23 7.458452108182283e-15 7.454028293312247e-15 4.4238148700367774e-18
6.004529249263818 5.717280426430183e-23 9.112507361377278e-15 9.10793282261911e-15 4.574538758169474e-18
6.027089341400364 6.41403860956265e-23 1.0261447607918161e-14 1.025678697723612e-14 4.660630682044763e-18
6.049734195844842 7.237259420026491e-23 1.1621973128524863e-14 1.1617221465379382e-14 4.7516631454812754e-18
6.095279466722835 9.614887205655466e-23 1.5556333659737457e-14 1.5551361763321605e-14 4.971896415849513e-18
6.141167624020661 1.327328464698687e-22 2.163708706885303e-14 2.1631833672994555e-14 5.2533958584829e-18
6.164241091010745 1.5609560677888367e-22 2.5541107764620917e-14 2.5535679826243493e-14 5.427938377422447e-18
6.187401249150058 1.8270474519860346e-22 3.000734287293284e-14 3.000173506515792e-14 5.607807774915754e-18
6.1990139391386085 1.9569775660005374e-22 3.220163277742162e-14 3.219593330806759e-14 5.699469354042391e-18
6.204828454712694 2.025415843804387e-22 3.33590300838339e-14 3.3353284249610654e-14 5.7458342232473375e-18
6.210648424152782 2.075381158694434e-22 3.4214031263693204e-14 3.420824540536042e-14 5.785858332784187e-18
6.233982942956859 2.2451370184187754e-22 3.7151631756980854e-14 3.714570411025329e-14 5.927646727557957e-18
6.239830258556775 2.2668405282129814e-22 3.75459569188651e-14 3.754000792564676e-14 5.948993218340839e-18
6.245683058788269 2.2687311943188337e-22 3.7612518767326427e-14 3.7606548367948594e-14 5.97039937782323e-18
6.257405133728602 2.264087768294591e-22 3.760598475433371e-14 3.759997589813471e-14 6.008856198998739e-18
6.269149208991335 2.2307292056672007e-22 3.7121446656831163e-14 3.7115418924732265e-14 6.027732098897131e-18
6.280915325867298 2.147045733233965e-22 3.579593138468178e-14 3.5789909069034684e-14 6.022315647099361e-18
6.304513850009849 1.940667875271788e-22 3.247672688054538e-14 3.2470737456471245e-14 5.989424074138335e-18
6.32820103803542 1.6848651083987997e-22 2.8301850811909526e-14 2.8295917752346556e-14 5.933059562969227e-18
6.3519772230701035 1.4502840286753477e-22 2.445295955209343e-14 2.4447075418873187e-14 5.8841332202455076e-18
6.375842739491607 1.2529266271198302e-22 2.1204726174625502e-14 2.119888340788317e-14 5.842766742331577e-18
6.399797922933955 1.0947878624793192e-22 1.8597975363242013e-14 1.859214574421901e-14 5.829619023003079e-18
6.42384311029221 9.633070980365016e-23 1.6425897900157465e-14 1.6420075804789888e-14 5.822095367574895e-18
6.447978639727206 8.675227169611455e-23 1.484820241047901e-14 1.4842365619437697e-14 5.836791041316514e-18
6.472204850670314 7.877348165377791e-23 1.3533238283345816e-14 1.3527382265057762e-14 5.8560182880512175e-18
6.496522083828205 7.359105307439397e-23 1.2690401711421838e-14 1.2684508265660904e-14 5.893445760933696e-18
