Dust emission spectrum from A.P. Jones, M. Kohler, N. Ysard, M. Bocchio, and L. Verstraete (2017), A&A, 602A, 46J 
inside the DustPedia framework.

lambda    nu*dP/dnu     j_nu    j_nu(carb.) j_nu(sil)
 (um)   (erg s-1 H-1) (Jy cm2 sr-1 H-1)
0.9927057738263894 9.649508107950055e-23 2.542700194556719e-15 2.5427001945567178e-15 7.94226051345365e-31
1.0001793341362166 9.808993723568614e-23 2.604184601136629e-15 2.604184601136628e-15 9.572043478834572e-31
1.0077091589558085 9.968253805649022e-23 2.6663903327673022e-15 2.666390332767302e-15 1.1521825350180013e-30
1.0114953028030835 1.0047779660596686e-22 2.697760590833167e-15 2.6977605908331655e-15 1.2634986655145708e-30
1.0152956718711033 1.0127225660790876e-22 2.7293074154242035e-15 2.729307415424202e-15 1.3851326215255018e-30
1.0229392996569957 1.0285769144956183e-22 2.7929043959566375e-15 2.792904395956636e-15 1.6630993494597454e-30
1.0267826658714554 1.0364674425244056e-22 2.824903560175475e-15 2.8249035601754734e-15 1.8215468778313845e-30
1.0306404723013447 1.0443464968150464e-22 2.8570723625428096e-15 2.8570723625428072e-15 1.994457963740055e-30
1.03451277320114 1.0522133170947992e-22 2.8894094204006004e-15 2.8894094204005984e-15 2.18309006403029e-30
1.0383996230291617 1.060067147297684e-22 2.921913333770569e-15 2.921913333770566e-15 2.3888040615021952e-30
1.0403485208654093 1.0639889560357195e-22 2.9382274191248966e-15 2.9382274191248942e-15 2.4985222813100023e-30
1.0423010764483396 1.0679072357094937e-22 2.9545826856853863e-15 2.954582685685383e-15 2.613072248858956e-30
1.0462171883269815 1.0757328351096118e-22 2.987416042520288e-15 2.987416042520285e-15 2.8574868852660533e-30
1.0471985131304309 1.0776868839257545e-22 2.9956498379356963e-15 2.9956498379356943e-15 2.9219371779123056e-30
1.048180758391296 1.079639969186738e-22 3.003893770301941e-15 3.003893770301938e-15 2.9877817489259015e-30
1.0501480137395462 1.083543202909619e-22 3.020411954324962e-15 3.0204119543249585e-15 3.1237693631575616e-30
1.0521189612883777 1.0874424442007009e-22 3.0369704108491844e-15 3.0369704108491828e-15 3.265686689549022e-30
1.0531058218030118 1.0893875466813236e-22 3.0452563189508777e-15 3.0452563189508734e-15 3.338950220819659e-30
1.0540936079674168 1.0913218128883517e-22 3.053524779119636e-15 3.0535247791196335e-15 3.413804998267649e-30
1.058054026499678 1.0990479191204825e-22 3.086696330475995e-15 3.086696330475992e-15 3.72964481464218e-30
1.0590464539527713 1.1009766495264576e-22 3.095013527983907e-15 3.095013527983903e-15 3.812879602856154e-30
1.06003981227728 1.1029042389422712e-22 3.103340401957912e-15 3.103340401957908e-15 3.897894500718544e-30
1.0620293250338977 1.106755949910835e-22 3.1200230840471795e-15 3.120023084047176e-15 4.073410438475406e-30
1.0660195594769086 1.1144451873256466e-22 3.1535035148548064e-15 3.153503514854801e-15 4.447447487448542e-30
1.070024785945596 1.122114918846678e-22 3.187136083667231e-15 3.1871360836672277e-15 4.854287455117319e-30
1.0740450607676866 1.1297644374884192e-22 3.2209192373327662e-15 3.2209192373327607e-15 5.2966614905578376e-30
1.07808044048254 1.1373930419120903e-22 3.254851409112299e-15 3.2548514091122942e-15 5.777515123256117e-30
1.0861967418109137 1.1525712566932024e-22 3.3231176228458913e-15 3.323117622845885e-15 6.867611634582002e-30
1.0902777775684922 1.1600888511389905e-22 3.35735949353105e-15 3.3573594935310423e-15 7.483967010509733e-30
1.0943741465085532 1.1675822485921247e-22 3.391741468957229e-15 3.391741468957221e-15 8.153059460706708e-30
1.1026131145906286 1.1824937884068698e-22 3.4609191573634265e-15 3.4609191573634154e-15 9.666884826418207e-30
1.1109141095355224 1.197300612181257e-22 3.530637423905232e-15 3.530637423905221e-15 1.1447348229252319e-29
1.1192775983109025 1.2119838201681613e-22 3.600842010732301e-15 3.600842010732288e-15 1.3538708286766201e-29
1.1277040513999907 1.2264752425654264e-22 3.671329464500791e-15 3.6713294645007754e-15 1.5992094836464312e-29
1.1361939428280308 1.2408448352815718e-22 3.7423067256822515e-15 3.7423067256822334e-15 1.8866486564979843e-29
1.1447477501889525 1.2550878048410048e-22 3.813759842363013e-15 3.8137598423629925e-15 2.22298369934516e-29
1.1533659546722406 1.2692072261632644e-22 3.885698473874594e-15 3.885698473874568e-15 2.6160372920566285e-29
1.1707974979042381 1.297120977055724e-22 4.031175459338372e-15 4.031175459338335e-15 3.6096159728593755e-29
1.1884924949847024 1.324480391727485e-22 4.178413440792182e-15 4.178413440792133e-15 4.956261704941145e-29
1.2064549276569216 1.3514992376525558e-22 4.328090564328741e-15 4.3280905643286734e-15 6.772553397585561e-29
1.2246888378427687 1.3778825804803e-22 4.479271658991288e-15 4.4792716589911964e-15 9.210196513953775e-29
1.2431983285522175 1.4035686829675868e-22 4.631733041707059e-15 4.631733041706937e-15 1.2465951705646753e-28
1.2619875648066055 1.4285478980826936e-22 4.785411788462084e-15 4.785411788461916e-15 1.6793713558781148e-28
1.3004222497298317 1.4759705190830805e-22 5.0948512354201624e-15 5.094851235419861e-15 3.0058702295589506e-28
1.3400274889804893 1.519964538331296e-22 5.406504841416649e-15 5.406504841416122e-15 5.283698472291829e-28
1.3808389325824078 1.5603664626210423e-22 5.719249775480759e-15 5.719249775479847e-15 9.125392888059082e-28
1.4228933163050095 1.5973721919519096e-22 6.033202358191705e-15 6.033202358190154e-15 1.5492716949881648e-27
1.466228494730424 1.6318708225868674e-22 6.3512157485008e-15 6.351215748498212e-15 2.586957232676452e-27
1.5108834753276823 1.663192017494156e-22 6.670260517232918e-15 6.670260517228669e-15 4.2504835777110456e-27
1.5568984535646726 1.69079321232333e-22 6.9874741784774495e-15 6.98747417847057e-15 6.879171523387849e-27
1.6043148490894465 1.7147242113947275e-22 7.302193150201357e-15 7.302193150190372e-15 1.0987145079009454e-26
1.6531753430134553 1.7350571249637246e-22 7.613811671677213e-15 7.613811671659915e-15 1.7299392299782588e-26
1.7035239163302658 1.7520325637928025e-22 7.922456112397076e-15 7.922456112370214e-15 2.686083647943724e-26
1.755405889504358 1.7670432738894614e-22 8.23368351086882e-15 8.233683510827663e-15 4.115473770758611e-26
1.8088679632656115 1.7797448617683128e-22 8.545432496941799e-15 8.545432496879548e-15 6.225192720935804e-26
1.8639582606462262 1.7899038916551813e-22 8.85595351740141e-15 8.85595351730839e-15 9.30199291321127e-26
1.9207263702978936 1.7976889532407188e-22 9.165359023950833e-15 9.165359023813437e-15 1.3739211252124932e-25
1.979223391128241 1.803493004453674e-22 9.474988904796703e-15 9.474988904595974e-15 2.0073017202156226e-25
2.039501978296691 1.8077864465658791e-22 9.786799475278218e-15 9.786799474987919e-15 2.9030217944733023e-25
2.1016163906111602 1.811887563282412e-22 1.010774143962069e-14 1.0107741439204726e-14 4.159643132152722e-25
2.1656225393682647 1.816560693955379e-22 1.0442442889213991e-14 1.0442442888622947e-14 5.910446778794266e-25
2.231578038680979 1.821860365288055e-22 1.0791867379508592e-14 1.0791867378674993e-14 8.335962000967768e-25
2.299542257339062 1.8282441928426197e-22 1.1159507552085979e-14 1.11595075509178e-14 1.168180403730184e-24
2.369576372248914 1.8367243225046251e-22 1.1552716628903572e-14 1.1552716627275136e-14 1.6284354647610704e-24
2.4417434235010123 1.848495972072518e-22 1.1980859309412068e-14 1.1980859307151401e-14 2.2606695922274758e-24
2.5161083711144245 1.8656062066715113e-22 1.2460020407371743e-14 1.2460020404242582e-14 3.1291602452104592e-24
2.5927381535095444 1.8914050008425146e-22 1.3017051546399576e-14 1.301705154207593e-14 4.323647564180453e-24
2.6717017477616296 1.9298918320112874e-22 1.3686436148968598e-14 1.3686436142999004e-14 5.969597392308089e-24
2.753070231689431 1.9870884000406127e-22 1.452124696740744e-14 1.4521246959164663e-14 8.242777155981616e-24
2.836916847834745 2.0766373912699188e-22 1.5637837974870187e-14 1.563783796347945e-14 1.1390737675341837e-23
2.9233170693905177 2.228585623584929e-22 1.7293172758409418e-14 1.7293172742649296e-14 1.5760123555778967e-23
2.967498994190263 2.357624043982017e-22 1.857096901735085e-14 1.857096899881686e-14 1.8533982366881435e-23
3.0123486681368425 2.508325077754513e-22 2.0056654421558248e-14 2.0056654399744884e-14 2.1813362048222593e-23
3.0578761833420214 2.845523886518589e-22 2.3096786775028108e-14 2.309678674931766e-14 2.5710448671815776e-23
3.1040917844459814 3.280034925768974e-22 2.702604250827972e-14 2.7026042477959948e-14 3.0319773409262143e-23
3.127460860933648 3.7396938190243507e-22 3.104540737219168e-14 3.104540733922708e-14 3.296460094137229e-23
3.1510058709225794 4.352121157233799e-22 3.640152869939328e-14 3.6401528663534615e-14 3.585866288429019e-23
3.162844764501044 4.922204002494545e-22 4.1324434490127015e-14 4.132443445267866e-14 3.744833917659632e-23
3.1747281389236908 5.585157788380088e-22 4.706644768817733e-14 4.7066447649066616e-14 3.9110707250998006e-23
3.1986289994194426 7.434312499141462e-22 6.312103566073501e-14 6.312103561801509e-14 4.2719946389419434e-23
3.2227097969389145 1.1793236270517306e-21 1.0088431089437195e-13 1.0088431084727965e-13 4.7092335995849707e-23
3.2348180950136065 1.592685900080104e-21 1.3675695809848778e-13 1.3675695804870407e-13 4.9783670732215635e-23
3.240889293275058 1.9017283574695613e-21 1.6359955257664958e-13 1.6359955252526672e-13 5.138289204218043e-23
3.2469718861334385 2.2592432737322532e-21 1.9472017864283443e-13 1.9472017858967046e-13 5.316393064348392e-23
3.2714166318528037 4.166288827153062e-21 3.617884219883498e-13 3.617884219271423e-13 6.120742624743985e-23
3.2744851364798273 4.28550557795436e-21 3.72489916947895e-13 3.724899168858188e-13 6.207609735004561e-23
3.2775565192852394 4.408146573964452e-21 3.835090786483316e-13 3.8350907858537324e-13 6.295836751858497e-23
3.283707930232385 4.290209218950779e-21 3.739490434197391e-13 3.7394904335565516e-13 6.408411358835369e-23
3.2898708863219004 3.916185500079833e-21 3.419885313650507e-13 3.41988531300348e-13 6.470271622354276e-23
3.29141343181113 3.827981288486502e-21 3.344426657326767e-13 3.3444266566781867e-13 6.485809278159816e-23
3.292184975758714 3.784640850784653e-21 3.3073361241105134e-13 3.307336123461154e-13 6.493589030691779e-23
3.295272960557952 3.5110714673256286e-21 3.071146243196794e-13 3.0711462425454107e-13 6.513828152867328e-23
3.3076538914384823 2.5633400993096957e-21 2.2505865738946978e-13 2.2505865732357455e-13 6.589520846468501e-23
3.310756385682612 2.3704518763647065e-21 2.083184815820288e-13 2.0831848151594265e-13 6.608613275276631e-23
3.313861789986515 2.1924822107483317e-21 1.9285899657664122e-13 1.9285899651036342e-13 6.627774377817065e-23
3.3200813396944477 1.9428998326761656e-21 1.712255491226401e-13 1.71225549055666e-13 6.697407657448749e-23
3.345076488085796 1.4976698020172602e-21 1.3298160149654178e-13 1.329816014248464e-13 7.169536404446304e-23
3.3482140837626964 1.5143658399112048e-21 1.345902055655617e-13 1.3459020549304818e-13 7.251349676211297e-23
3.3513546224236106 1.5312464718754517e-21 1.3621813159748278e-13 1.362181315241416e-13 7.334120804516822e-23
3.3576445397418455 1.6546125199080507e-21 1.474689053240077e-13 1.4746890524869396e-13 7.531379973739083e-23
3.3702598118196083 2.109637656778159e-21 1.8872988867836938e-13 1.887298885984127e-13 7.995659175576172e-23
3.382922481734668 2.2132770548684304e-21 1.9874548024608845e-13 1.987454801621905e-13 8.389786662629688e-23
3.389271646505754 2.266969502352296e-21 2.0394895720531337e-13 2.0394895711937e-13 8.594340319056124e-23
3.395632727569191 2.3248260608614944e-21 2.095465954312736e-13 2.0954659534314123e-13 8.813236121633689e-23
3.421196662673239 2.602632698274627e-21 2.3635258388637635e-13 2.363525837887251e-13 9.765121925187322e-23
3.4276182099114902 2.5466519469377012e-21 2.317028992814511e-13 2.317028991820167e-13 9.943440162629869e-23
3.4340518103208963 2.3013387149403904e-21 2.0977649256792744e-13 2.097764924670672e-13 1.0086028681596436e-22
3.4469541582030403 1.951966802099156e-21 1.7859831940104143e-13 1.785983192978434e-13 1.0319800050482957e-22
3.472904465399547 1.8540540734977648e-21 1.7091676567715352e-13 1.7091676556575308e-13 1.1140043749671823e-22
3.4990501388274233 1.7042992951775315e-21 1.5829436794179216e-13 1.5829436782180957e-13 1.1998247486372913e-22
3.5253949054701885 1.1713469299252296e-21 1.0961317291807458e-13 1.0961317279112486e-13 1.2694969436698276e-22
3.5519380250092896 6.704274532954034e-22 6.321011820068815e-14 6.321011806702419e-14 1.3366397086739806e-22
3.578680990867387 4.718046713674203e-22 4.481822535887754e-14 4.481822521569018e-14 1.4318737171093177e-22
3.605625307711299 3.914610065344069e-22 3.7466104045960353e-14 3.74661038914452e-14 1.5451514494132324e-22
3.660119384959845 3.328384786957243e-22 3.2336887274625613e-14 3.233688709368955e-14 1.809360608485408e-22
3.715437065384467 2.9131639906848374e-22 2.873057219387291e-14 2.873057198213506e-14 2.1173784874004507e-22
3.8285932144167436 2.702103934098354e-22 2.7460643375563003e-14 2.746064308513684e-14 2.904261727348628e-22
3.94519561050918 2.6612332773602363e-22 2.786897010730722e-14 2.7868969710140174e-14 3.971670389998554e-22
4.06534921144712 2.6903043468681603e-22 2.903144839764292e-14 2.9031447856619635e-14 5.4102328724206065e-22
4.189162171576248 2.759938022887721e-22 3.068993268721775e-14 3.0689931953461926e-14 7.337558152120454e-22
4.316745939156006 2.859204230151172e-22 3.27620523453715e-14 3.276205135496131e-14 9.904101947607858e-22
4.448215356677963 2.9844547666092e-22 3.5238729270690727e-14 3.523872794072514e-14 1.3299655921466892e-21
4.58368876423945 3.1361680201329608e-22 3.8157848208594666e-14 3.815784643182671e-14 1.7767679496936273e-21
4.723288106065518 3.317876367728221e-22 4.159815503319417e-14 4.159815267148196e-14 2.3617121948388125e-21
4.867139040275056 3.5366180603539306e-22 4.569107188088595e-14 4.569106875768126e-14 3.1232046805205183e-21
4.940699165968905 3.6686701867182744e-22 4.81134516762833e-14 4.8113448090614843e-14 3.5856684419059914e-21
5.015371051989984 3.805494018799418e-22 5.066214174544892e-14 5.0662137634591446e-14 4.1108574628039464e-21
5.091171501069577 3.972484748676259e-22 5.368456006380393e-14 5.368455535377627e-14 4.710027668596233e-21
5.129500256944802 4.0582218671542258e-22 5.5256105936957004e-14 5.5256100898094176e-14 5.038862828468218e-21
5.168117569889187 4.1476229742595047e-22 5.689853563833744e-14 5.689853024919148e-14 5.389145935876573e-21
5.20702561229733 4.257327765516252e-22 5.884319345392209e-14 5.884318768825247e-14 5.765669645863005e-21
5.246226572918644 4.369853091330928e-22 6.085318486009589e-14 6.085317869386627e-14 6.166229590796072e-21
5.265937586045735 4.427201756347818e-22 6.188344100991871e-14 6.18834346339689e-14 6.375949805050003e-21
5.285722656980489 4.485290007655365e-22 6.293095662714163e-14 6.293095003494208e-14 6.592199548795785e-21
5.305582063971359 4.544129850579301e-22 6.399605492335016e-14 6.399604810818884e-14 6.815161310637725e-21
5.3255160863122235 4.60734228426241e-22 6.513007998884021e-14 6.513007294290591e-14 7.045934301933056e-21
5.365609099470188 4.764744790419983e-22 6.786222687844564e-14 6.786221934200539e-14 7.536440260160503e-21
5.406003951863644 4.928160097055219e-22 7.071810260047136e-14 7.071809454236366e-14 8.058107696360144e-21
5.446702915881641 5.097878953427295e-22 7.370426846010031e-14 7.37042598473932e-14 8.612707130679207e-21
5.487708281020852 5.281275267814123e-22 7.693062380677043e-14 7.693061460225953e-14 9.204510917166328e-21
5.529022354014368 5.536092417014378e-22 8.12495773071578e-14 8.12495674517664e-14 9.855391369965292e-21
5.570647458961463 5.805949740510236e-22 8.585159731807289e-14 8.58515867697787e-14 1.0548294154298984e-20
5.612585937458331 6.091929601155025e-22 9.07585006824742e-14 9.075848939682879e-14 1.1285645394422693e-20
5.654840148729818 6.406291375133767e-22 9.616044257145806e-14 9.616043049667924e-14 1.2074778787776106e-20
5.67608639626678 6.620329058188865e-22 9.974657829017181e-14 9.974656578089559e-14 1.2509276240893261e-20
5.686739436050992 6.730656606296205e-22 1.0159917847286751e-13 1.0159916574098657e-13 1.2731880966618544e-20
5.6974124697621304 6.843260326847492e-22 1.034928046053449e-13 1.0349279164721817e-13 1.2958126722653437e-20
5.718818669136295 7.075515505639851e-22 1.0740731160069662e-13 1.0740729817894008e-13 1.3421756532719414e-20
5.740305295436557 7.33152258432639e-22 1.117116844877739e-13 1.1171167057995253e-13 1.390782136817868e-20
5.7835210386641895 7.9955692312072285e-22 1.2274707187712307e-13 1.2274705688927455e-13 1.4987848488602908e-20
5.827062130521658 8.760538038753408e-22 1.3550329672049248e-13 1.3550328055954805e-13 1.616094443901071e-20
5.8489554468988025 9.29709731120817e-22 1.443427991208288e-13 1.4434278227069678e-13 1.6850132035611874e-20
5.870931020387893 9.872892537288868e-22 1.538582614324378e-13 1.5385824386564692e-13 1.7566790844976517e-20
5.892989160043636 1.0491081678019668e-21 1.6410633388538291e-13 1.6410631557345602e-13 1.831192689758895e-20
5.915130176081913 1.1194129125246706e-21 1.7576162208784788e-13 1.7576160297499477e-13 1.9112853151954422e-20
5.95966208400165 1.3159688708066174e-21 2.081788882610987e-13 2.081788671978173e-13 2.1063281464282738e-20
6.004529249263818 1.5992608525125075e-21 2.54898749131012e-13 2.5489872559846444e-13 2.3532547584634197e-20
6.027089341400364 1.7961772126317197e-21 2.873599534383476e-13 2.873599283319135e-13 2.510643415381487e-20
6.049734195844842 2.0288799753206247e-21 3.25808254004693e-13 3.2580822713510224e-13 2.6869590736250685e-20
6.095279466722835 2.7010461812772672e-21 4.3701371350039033e-13 4.370136818474577e-13 3.1652932578860185e-20
6.141167624020661 3.735480333769075e-21 6.089292543281476e-13 6.089292157209025e-13 3.8607245341231376e-20
6.164241091010745 4.39607045570557e-21 7.193060174274632e-13 7.193059742441517e-13 4.3183311526432933e-20
6.187401249150058 5.148589840080975e-21 8.456020147449856e-13 8.456019665064347e-13 4.823855085852151e-20
6.1990139391386085 5.5160362457122674e-21 9.07651557469745e-13 9.076515066274381e-13 5.0842306976758667e-20
6.204828454712694 5.709594071206652e-21 9.403822971489376e-13 9.40382244952179e-13 5.219675893152783e-20
6.210648424152782 5.850897018982701e-21 9.645590772061024e-13 9.645590238831714e-13 5.332293094130815e-20
6.233982942956859 6.330987581808573e-21 1.0476265696381598e-12 1.0476265123129896e-12 5.732517000198721e-20
6.239830258556775 6.392373011644849e-21 1.0587765602273698e-12 1.0587765023481237e-12 5.787924609680073e-20
6.245683058788269 6.397721537383655e-21 1.0606563791935672e-12 1.0606563207552996e-12 5.843826783752924e-20
6.257405133728602 6.384591435149678e-21 1.060466168914208e-12 1.0604661094978366e-12 5.94163714221052e-20
6.269149208991335 6.290245395975223e-21 1.0467564074198432e-12 1.046756347687177e-12 5.973266668560103e-20
6.280915325867298 6.053565225084293e-21 1.0092612470970587e-12 1.0092611878711512e-12 5.922590742277881e-20
6.304513850009849 5.469871176987908e-21 9.153730761989599e-13 9.153730187533286e-13 5.744563124867226e-20
6.32820103803542 4.7463428279771456e-21 7.972762089378529e-13 7.972761542318181e-13 5.470603464398214e-20
6.3519772230701035 4.082819298299085e-21 6.883962946968573e-13 6.883962425834346e-13 5.211342259607902e-20
6.375842739491607 3.524622097255179e-21 5.965125556724424e-13 5.965125058365486e-13 4.983589383316034e-20
6.399797922933955 3.0772657677026497e-21 5.227580145460647e-13 5.227579662470553e-13 4.8299009414727096e-20
6.42384311029221 2.7053491035102003e-21 4.613044817080466e-13 4.613044347088634e-13 4.69991832119828e-20
6.447978639727206 2.4343548602494632e-21 4.166552990166397e-13 4.1665525262469977e-13 4.639194005367152e-20
6.472204850670314 2.208625447434982e-21 3.7944056592762484e-13 3.7944051996977025e-13 4.595785473105002e-20
6.496522083828205 2.06196123356337e-21 3.5557469657140866e-13 3.5557465044345653e-13 4.6127952262803666e-20
