Dust emission spectrum from A.P. Jones, M. Kohler, N. Ysard, M. Bocchio, and L. Verstraete (2017), A&A, 602A, 46J 
inside the DustPedia framework.

lambda    nu*dP/dnu     j_nu    j_nu(carb.) j_nu(sil)
 (um)   (erg s-1 H-1) (Jy cm2 sr-1 H-1)
0.9927057738263894 2.6869380243044957e-24 7.080234309075363e-17 7.080234309005194e-17 7.01676823509046e-28
1.0001793341362166 2.7310727469842492e-24 7.250710717850065e-17 7.250710717765521e-17 8.45423614681846e-28
1.0077091589558085 2.775138238307495e-24 7.423167502539536e-17 7.423167502437805e-17 1.0173222786650581e-27
1.0114953028030835 2.7971396075127966e-24 7.51012985465732e-17 7.510129854545776e-17 1.1154305488680046e-27
1.0152956718711033 2.819117189415813e-24 7.597576777430612e-17 7.597576777308353e-17 1.2226086201312697e-27
1.0229392996569957 2.8629707502159284e-24 7.773850920710512e-17 7.773850920563764e-17 1.4674552387650042e-27
1.0267826658714554 2.8847932946469353e-24 7.862536259286867e-17 7.86253625912617e-17 1.6069763969649776e-27
1.0306404723013447 2.9065824282552826e-24 7.951686868818433e-17 7.951686868642516e-17 1.759197368549155e-27
1.03451277320114 2.9283360557009644e-24 8.041298896313813e-17 8.041298896121292e-17 1.9252182402510276e-27
1.0383996230291617 2.9500520938004327e-24 8.131368442241416e-17 8.131368442030794e-17 2.106229167655593e-27
1.0403485208654093 2.9608953692728308e-24 8.17657355351845e-17 8.176573553298174e-17 2.2027541454331668e-27
1.0423010764483396 2.9717284719254188e-24 8.221891561466715e-17 8.221891561236364e-17 2.3035172885075108e-27
1.0462171883269815 2.9933631323928655e-24 8.312864264190689e-17 8.312864263938841e-17 2.5184741282896073e-27
1.0471985131304309 2.9987650392544987e-24 8.335677215562048e-17 8.335677215304533e-17 2.5751477204518977e-27
1.048180758391296 3.004164179112701e-24 8.358517950570645e-17 8.35851795030734e-17 2.6330436532209267e-27
1.0501480137395462 3.014954030845869e-24 8.404282516888882e-17 8.40428251661362e-17 2.7526035301249623e-27
1.0521189612883777 3.025732434191006e-24 8.450157452276905e-17 8.450157451989168e-17 2.8773606815025205e-27
1.0531058218030118 3.0311089329470674e-24 8.473112860161686e-17 8.473112859867509e-17 2.9417592390954272e-27
1.0540936079674168 3.03645518103343e-24 8.496019255248174e-17 8.496019254947416e-17 3.0075524089438025e-27
1.058054026499678 3.0578088578590114e-24 8.587912516502122e-17 8.58791251617361e-17 3.2851120267063576e-27
1.0590464539527713 3.0631392927900287e-24 8.610952424251549e-17 8.610952423915723e-17 3.358246723846083e-27
1.06003981227728 3.0684664720584407e-24 8.634018837324142e-17 8.634018836980849e-17 3.43294057004784e-27
1.0620293250338977 3.079110940177577e-24 8.680230914927744e-17 8.680230914569032e-17 3.587132915385096e-27
1.0660195594769086 3.1003594541036927e-24 8.772970216051042e-17 8.772970215659475e-17 3.915661305605588e-27
1.070024785945596 3.1215524412295833e-24 8.866126147514233e-17 8.86612614708694e-17 4.272904761062979e-27
1.0740450607676866 3.142687958946376e-24 8.959694400017958e-17 8.959694399551833e-17 4.661244063771964e-27
1.07808044048254 3.1637640807563764e-24 9.053670628261743e-17 9.053670627753422e-17 5.0832459081330626e-27
1.0861967418109137 3.205693027673554e-24 9.242721377817453e-17 9.242721377213498e-17 6.039516623712013e-27
1.0902777775684922 3.226456847419365e-24 9.33753954838571e-17 9.337539547727713e-17 6.579977192081776e-27
1.0943741465085532 3.247152252246949e-24 9.432741002395308e-17 9.432741001678658e-17 7.166511743176059e-27
1.1026131145906286 3.288330512704629e-24 9.62427555961615e-17 9.62427555876685e-17 8.492959608032779e-27
1.1109141095355224 3.329213382628631e-24 9.817288357900984e-17 9.817288356895772e-17 1.005211533707138e-26
1.1192775983109025 3.369748518419796e-24 1.0011628727061194e-16 1.0011628725872952e-16 1.1882416670734944e-26
1.1277040513999907 3.409746580402799e-24 1.0206731169663885e-16 1.0206731168261058e-16 1.402823240515258e-26
1.1361939428280308 3.4494023751568394e-24 1.0403171565931153e-16 1.0403171564277085e-16 1.654070143089697e-26
1.1447477501889525 3.488702808006236e-24 1.0600911442047481e-16 1.060091144009961e-16 1.9478694918633522e-26
1.1533659546722406 3.527656699947691e-24 1.0799978106630302e-16 1.0799978104339307e-16 2.2909927021061765e-26
1.1707974979042381 3.604652722984208e-24 1.1202492175644566e-16 1.1202492172487087e-16 3.157476353381416e-26
1.1884924949847024 3.680098153521002e-24 1.160981444810283e-16 1.160981444377255e-16 4.3302807316428017e-26
1.2064549276569216 3.754589438854337e-24 1.2023834472492256e-16 1.2023834466582342e-16 5.909911113743585e-26
1.2246888378427687 3.827308459108249e-24 1.2441955906812703e-16 1.2441955898785785e-16 8.026916057713713e-26
1.2431983285522175 3.898086107071288e-24 1.2863563030893218e-16 1.2863563020042922e-16 1.085029395020849e-25
1.2619875648066055 3.966897601012333e-24 1.328848585965124e-16 1.3288485845053542e-16 1.4597698342315004e-25
1.3004222497298317 4.097478894290345e-24 1.41439447040257e-16 1.4143944677969723e-16 2.6055978684493505e-25
1.3400274889804893 4.218555801228788e-24 1.5005377946625824e-16 1.5005377900957362e-16 4.566846521893466e-25
1.3808389325824078 4.32969517557879e-24 1.5869738778692964e-16 1.5869738700058887e-16 7.863407103454105e-25
1.4228933163050095 4.431462768933788e-24 1.6737433994703583e-16 1.673743386162666e-16 1.3307692326392096e-24
1.466228494730424 4.5263475131953465e-24 1.7616473810973736e-16 1.761647358950707e-16 2.214666673597608e-24
1.5108834753276823 4.612510381796881e-24 1.8498553120391451e-16 1.8498552757798976e-16 3.625924781195627e-24
1.5568984535646726 4.6884701029962784e-24 1.9375854801447596e-16 1.9375854216814277e-16 5.846333113201801e-24
1.6043148490894465 4.754389620749784e-24 2.024667937346549e-16 2.0246678443444464e-16 9.30021026452829e-24
1.6531753430134553 4.81049441732554e-24 2.110950585672332e-16 2.1109504398724915e-16 1.457998402725383e-23
1.7035239163302658 4.85747750869612e-24 2.1964861370094923e-16 2.1964859116978383e-16 2.2531165351234025e-23
1.755405889504358 4.899227518192885e-24 2.282835368471171e-16 2.282835025077449e-16 3.4339372145841155e-23
1.8088679632656115 4.934815525283027e-24 2.36944822047511e-16 2.369447704130056e-16 5.163450527026563e-23
1.8639582606462262 4.963622146378707e-24 2.4558640947824875e-16 2.4558633284767815e-16 7.663057060275471e-23
1.9207263702978936 4.986142147856066e-24 2.5421407216843905e-16 2.5421395987716274e-16 1.1229127626959772e-22
1.979223391128241 5.003493268788488e-24 2.628679073881801e-16 2.6286774485456756e-16 1.6253361254696209e-22
2.039501978296691 5.0170070804668136e-24 2.7160532349300587e-16 2.716050910304281e-16 2.324625777269438e-22
2.1016163906111602 5.030365188852537e-24 2.8062243875485467e-16 2.8062211008515184e-16 3.286697028988407e-22
2.1656225393682647 5.045714585219588e-24 2.9005134024288126e-16 2.9005088070869636e-16 4.595341848632886e-22
2.231578038680979 5.063233315421538e-24 2.999227794436343e-16 2.999221438666042e-16 6.355770300538254e-22
2.299542257339062 5.084216976264109e-24 3.10337962320262e-16 3.1033709245976677e-16 8.698604951596507e-22
2.369576372248914 5.111496404808117e-24 3.215053494466853e-16 3.2150417100224885e-16 1.1784444363301638e-21
2.4417434235010123 5.1484101603079626e-24 3.336895439844512e-16 3.3368796315693035e-16 1.5808275207983702e-21
2.5161083711144245 5.2006581861322975e-24 3.4734182861980103e-16 3.4733972811587277e-16 2.1005039282530685e-21
2.5927381535095444 5.277553479293054e-24 3.632124566036197e-16 3.6320969112144515e-16 2.7654821744683982e-21
2.6717017477616296 5.39020572811542e-24 3.8226342691327084e-16 3.8225981825019243e-16 3.608663078285229e-21
2.753070231689431 5.5553243551417e-24 4.059720591364598e-16 4.0596739076771174e-16 4.668368748122977e-21
2.836916847834745 5.8107442504056745e-24 4.3757026375069063e-16 4.375642747169764e-16 5.989033714155469e-21
2.9233170693905177 6.239766532919166e-24 4.841876366963845e-16 4.841800161836098e-16 7.620512774833483e-21
2.967498994190263 6.6015940785742945e-24 5.200065693733871e-16 5.199980118753251e-16 8.557498062034906e-21
3.0123486681368425 7.023669771947336e-24 5.616150738850903e-16 5.616054767775812e-16 9.59710750898861e-21
3.0578761833420214 7.962793738190668e-24 6.463307160268936e-16 6.463199642446563e-16 1.0751782237290354e-20
3.1040917844459814 9.1720132418197e-24 7.55733476532448e-16 7.557214527799446e-16 1.2023752503487106e-20
3.127460860933648 1.0448557111164329e-23 8.673964438413151e-16 8.673837328740449e-16 1.2710967270135539e-20
3.1510058709225794 1.2148739275410812e-23 1.0161313654153768e-15 1.0161179335539864e-15 1.3431861390034262e-20
3.162844764501044 1.3730238858172404e-23 1.1527241779105246e-15 1.152710371210697e-15 1.380669982751071e-20
3.1747281389236908 1.5569241201010295e-23 1.3120289601424191e-15 1.3120147697354874e-15 1.41904069317165e-20
3.1986289994194426 2.069802388597898e-23 1.7573658680133518e-15 1.7573508810247935e-15 1.4986988557737346e-20
3.2227097969389145 3.2784297126709516e-23 2.8045068782797725e-15 2.804491042268043e-15 1.5836011728710696e-20
3.2348180950136065 4.4244795682498675e-23 3.799106697009937e-15 3.799090406582082e-15 1.6290427856181853e-20
3.240889293275058 5.2812699539219583e-23 4.543306083145287e-15 4.5432895529590455e-15 1.6530186242639214e-20
3.2469718861334385 6.27245116480726e-23 5.406114629355633e-15 5.406097851034492e-15 1.6778321140487913e-20
3.2714166318528037 1.1559176011160444e-22 1.003765274579147e-14 1.0037634937975544e-14 1.7807815927753188e-20
3.2744851364798273 1.1889668179914313e-22 1.0334326796019115e-14 1.0334308865791874e-14 1.7930227243478028e-20
3.2775565192852394 1.2229649344730685e-22 1.063980399402132e-14 1.063978594066376e-14 1.8053357559982327e-20
3.283707930232385 1.190273715316528e-22 1.0374825434716896e-14 1.0374807159010092e-14 1.827570680236639e-20
3.2898708863219004 1.0865930814420532e-22 9.488885858604437e-15 9.488867378550414e-15 1.848005402134205e-20
3.29141343181113 1.0621424787175577e-22 9.279715212784154e-15 9.279696681360464e-15 1.8531423692495766e-20
3.292184975758714 1.0501282993022978e-22 9.176900520199051e-15 9.176881963047975e-15 1.8557151074872182e-20
3.295272960557952 9.742964746504084e-23 8.52220464814872e-15 8.52218599054894e-15 1.8657599780557437e-20
3.3076538914384823 7.115867872334782e-23 6.247659723108172e-15 6.247640660960831e-15 1.9062147343631514e-20
3.310756385682612 6.581169796462323e-23 5.7836200460439484e-15 5.7836008816953735e-15 1.916434857289935e-20
3.313861789986515 6.087820130704256e-23 5.355075977314144e-15 5.355056710336297e-15 1.9266977845039665e-20
3.3200813396944477 5.395976571951331e-23 4.755412688016142e-15 4.755393201181114e-15 1.9486835027873937e-20
3.345076488085796 4.162022956378743e-23 3.695557441694602e-15 3.695536977039324e-15 2.046465527687765e-20
3.3482140837626964 4.208340620210615e-23 3.740188891194622e-15 3.740168294123825e-15 2.0597070796100586e-20
3.3513546224236106 4.255169828922464e-23 3.7853558807934635e-15 3.7853351505874815e-15 2.0730205982480687e-20
3.3576445397418455 4.59722274491127e-23 4.097318239562031e-15 4.097297231322484e-15 2.100823954805929e-20
3.3702598118196083 5.858681259664407e-23 5.2412235740385455e-15 5.2412019822536136e-15 2.1591784930742736e-20
3.382922481734668 6.146097788678924e-23 5.519007003499742e-15 5.518984840506461e-15 2.2162993281877756e-20
3.389271646505754 6.29499448240003e-23 5.663320829709032e-15 5.663298376356341e-15 2.245335269043085e-20
3.395632727569191 6.455445687564359e-23 5.8185714991483804e-15 5.818548746494101e-15 2.275265427966996e-20
3.421196662673239 7.225856194943724e-23 6.562008475489145e-15 6.5619844790308325e-15 2.3996458313086952e-20
3.4276182099114902 7.070748428390719e-23 6.433203064588125e-15 6.433178786165195e-15 2.4278422929626727e-20
3.4340518103208963 6.390810572707561e-23 5.825486782563189e-15 5.825462235326271e-15 2.4547236917172768e-20
3.4469541582030403 5.422451032765091e-23 4.961358156526126e-15 4.961333088951772e-15 2.506757435266206e-20
3.472904465399547 5.1512937078317384e-23 4.748742079213875e-15 4.7487158184687756e-15 2.6260745097733483e-20
3.4990501388274233 4.7364534127211296e-23 4.3991915115727135e-15 4.399164019069162e-15 2.7492503552509e-20
3.5253949054701885 3.2594795450407e-23 3.050179975426064e-15 3.0501512695918886e-15 2.870583417415411e-20
3.5519380250092896 1.8712523488400578e-23 1.7642786191420779e-15 1.7642486798945298e-15 2.9939247547859527e-20
3.578680990867387 1.3210135039508739e-23 1.2548727156642366e-15 1.2548414213120528e-15 3.129435218395076e-20
3.605625307711299 1.0986517194304918e-23 1.05150191062103e-15 1.0514691797704701e-15 3.273085055988529e-20
3.660119384959845 9.368460117059079e-24 9.101917540583237e-16 9.101559648637826e-16 3.578919454115388e-20
3.715437065384467 8.22455329389226e-24 8.111322360433869e-16 8.110931625474175e-16 3.907349596942052e-20
3.8285932144167436 7.653902673136704e-24 7.778423660391482e-16 7.777960176833601e-16 4.634835578792451e-20
3.94519561050918 7.555541635116272e-24 7.912315157220523e-16 7.911768951452556e-16 5.462057679652602e-20
4.06534921144712 7.651580383244533e-24 8.256926816297722e-16 8.256287003486511e-16 6.398128112098615e-20
4.189162171576248 7.860550267870018e-24 8.74076724204891e-16 8.740021665785558e-16 7.455762633511881e-20
4.316745939156006 8.152080744294524e-24 9.341021996674627e-16 9.340157547916115e-16 8.644487585153559e-20
4.448215356677963 8.515976348680961e-24 1.0055176187767276e-15 1.005417975178742e-15 9.964359798572836e-20
4.58368876423945 8.953459531888466e-24 1.0893700451199384e-15 1.0892557234158293e-15 1.1432170410926336e-19
4.723288106065518 9.474221697144952e-24 1.1878385427801165e-15 1.1877078094476375e-15 1.3073333247917064e-19
4.867139040275056 1.0097660846535501e-23 1.3045597225777013e-15 1.3044109718085664e-15 1.4875076913483087e-19
4.940699165968905 1.047228106516499e-23 1.3734066114566342e-15 1.3732481433076836e-15 1.584681489506502e-19
5.015371051989984 1.0860020551691159e-23 1.445783117330569e-15 1.4456144455018548e-15 1.6867182871456233e-19
5.091171501069577 1.1331492059803377e-23 1.5313492803206925e-15 1.5311697252617634e-15 1.7955505892974236e-19
5.129500256944802 1.1573372262462536e-23 1.5758120297915353e-15 1.5756268337499394e-15 1.8519604159651156e-19
5.168117569889187 1.182538346678748e-23 1.6222472649943318e-15 1.6220562580482586e-15 1.91006946073421e-19
5.20702561229733 1.2133852269583741e-23 1.6770957177027392e-15 1.6768984628684793e-15 1.9725483426054974e-19
5.246226572918644 1.2450076209005357e-23 1.7337580308406523e-15 1.733554365652822e-15 2.0366518783023066e-19
5.265937586045735 1.2611172959500416e-23 1.7627901795668984e-15 1.7625832472259252e-15 2.0693234097410564e-19
5.285722656980489 1.2774301758331841e-23 1.7923011188206965e-15 1.792090877438233e-15 2.1024138246339653e-19
5.305582063971359 1.2939495115708969e-23 1.8222996862639525e-15 1.8220860935172763e-15 2.1359274667643826e-19
5.3255160863122235 1.3116844470246474e-23 1.8542167628101333e-15 1.8539997599417188e-15 2.1700286841452895e-19
5.365609099470188 1.355776339787472e-23 1.930974388220618e-15 1.9307503090728502e-15 2.2407914776808973e-19
5.406003951863644 1.4015260452966515e-23 2.0111615839701664e-15 2.0109302416552227e-15 2.3134231494465195e-19
5.446702915881641 1.449013353410205e-23 2.0949589069825907e-15 2.0947201104882795e-15 2.387964943110656e-19
5.487708281020852 1.5002937904748777e-23 2.1854293014805734e-15 2.1851828355406234e-15 2.4646593994991136e-19
5.529022354014368 1.571466013067276e-23 2.3063370279345737e-15 2.3060825146536484e-15 2.5451328092402845e-19
5.570647458961463 1.646794771014007e-23 2.4350875888598013e-15 2.4348248111889312e-15 2.627776708697339e-19
5.612585937458331 1.7265786728308574e-23 2.5722833636612327e-15 2.572012099454424e-15 2.712642068078018e-19
5.654840148729818 1.81423432353344e-23 2.7232226145140424e-15 2.7229426098682562e-15 2.8000464578590414e-19
5.67608639626678 1.8739016623334907e-23 2.8233532990151007e-15 2.823068720853531e-15 2.845781615696253e-19
5.686739436050992 1.9046508565421626e-23 2.8750681192278767e-15 2.874781230713196e-15 2.868885146814937e-19
5.6974124697621304 1.9360298458650568e-23 2.927919573103997e-15 2.9276303583766794e-15 2.8921472731822583e-19
5.718818669136295 2.000737789141586e-23 3.037147851323746e-15 3.0368539362003206e-15 2.9391512342558565e-19
5.740305295436557 2.0720516820534594e-23 3.157221178623493e-15 3.1569224739848437e-15 2.9870463864913716e-19
5.7835210386641895 2.257013788919796e-23 3.4649419667943547e-15 3.4646332912586807e-15 3.0867553567354706e-19
5.827062130521658 2.4699806981731433e-23 3.8204334706144365e-15 3.820114480883295e-15 3.1898973114107967e-19
5.8489554468988025 2.6193953427819115e-23 4.066762378892113e-15 4.066437862692991e-15 3.245161991237308e-19
5.870931020387893 2.779681411663426e-23 4.331830289039494e-15 4.3315001627622e-15 3.301262772940627e-19
5.892989160043636 2.951712571636334e-23 4.617204819113279e-15 4.616868997966734e-15 3.3582114654505407e-19
5.915130176081913 3.147336313201388e-23 4.941705866306696e-15 4.9413641458237675e-15 3.4172048292991984e-19
5.95966208400165 3.6943372219136356e-23 5.844234105995002e-15 5.843879275710128e-15 3.5483028487256106e-19
6.004529249263818 4.4826273169083904e-23 7.144651193739624e-15 7.144281750894376e-15 3.694428452459961e-19
6.027089341400364 5.03060054939323e-23 8.048165456472489e-15 8.04778773923749e-15 3.777172349973109e-19
6.049734195844842 5.678027962068244e-23 9.118076963714584e-15 9.11769050189365e-15 3.864618209314781e-19
6.095279466722835 7.548255250172714e-23 1.2212642198390388e-14 1.2212234862654185e-14 4.073357361985538e-19
6.141167624020661 1.0426243438739464e-22 1.6996059610329745e-14 1.6995625941257856e-14 4.3366907188465765e-19
6.164241091010745 1.226444909331569e-22 2.0067676626531353e-14 2.0067226812596538e-14 4.498139348235874e-19
6.187401249150058 1.4358005487265165e-22 2.3581521824158426e-14 2.3581055297353288e-14 4.6652680512880675e-19
6.1990139391386085 1.538036650989045e-22 2.5308052730815528e-14 2.5307577669443674e-14 4.750613718433288e-19
6.204828454712694 1.5918868205828052e-22 2.6218714789025426e-14 2.6218235402779898e-14 4.793862455296897e-19
6.210648424152782 1.6312073006151226e-22 2.689153139268117e-14 2.689104822170898e-14 4.831709721929011e-19
6.233982942956859 1.7648091694661994e-22 2.9203358123562766e-14 2.920286132035837e-14 4.968032043921394e-19
6.239830258556775 1.781896346069966e-22 2.9513767118045886e-14 2.951326810162412e-14 4.990164217850261e-19
6.245683058788269 1.7833950559686298e-22 2.9566296871197566e-14 2.9565795632531456e-14 5.012386661087846e-19
6.257405133728602 1.779763976410846e-22 2.9561476326349764e-14 2.956097100622004e-14 5.053201297254135e-19
6.269149208991335 1.7535388000197693e-22 2.9180546370328396e-14 2.918003863631024e-14 5.07734018149545e-19
6.280915325867298 1.6877134523792959e-22 2.8137861249642225e-14 2.8137353179462067e-14 5.080701801590789e-19
6.304513850009849 1.5253549529537552e-22 2.5526540029951516e-14 2.5526033177353476e-14 5.068525980421107e-19
6.32820103803542 1.3240889211458237e-22 2.2241642325648647e-14 2.2241138701732826e-14 5.036239158192758e-19
6.3519772230701035 1.139502888655307e-22 1.9212938634670284e-14 1.921243759358005e-14 5.010410902350188e-19
6.375842739491607 9.841853064610794e-23 1.6656506037045946e-14 1.6656006927072827e-14 4.991099731234877e-19
6.399797922933955 8.597282845508926e-23 1.4604843552932486e-14 1.4604343898966582e-14 4.996539659072423e-19
6.42384311029221 7.562318021900291e-23 1.2894939108145978e-14 1.289443840603972e-14 5.007021062567276e-19
6.447978639727206 6.80827455846075e-23 1.1652794414911844e-14 1.1652290689170744e-14 5.037257410968608e-19
6.472204850670314 6.180019836110172e-23 1.0617238096124143e-14 1.0616730920655617e-14 5.071754685253987e-19
6.496522083828205 5.771867763029283e-23 9.953291531784561e-15 9.952779264153431e-15 5.122676311308897e-19
6.520930681187647 5.428020267146153e-23 9.395512554562072e-15 9.3949948891949e-15 5.176653671744455e-19
6.57002334288761 5.076588759890186e-23 8.853364187297863e-15 8.852833280683472e-15 5.309066143912922e-19
