Dust emission spectrum from A.P. Jones, M. Kohler, N. Ysard, M. Bocchio, and L. Verstraete (2017), A&A, 602A, 46J 
inside the DustPedia framework.

lambda    nu*dP/dnu     j_nu    j_nu(carb.) j_nu(sil)
 (um)   (erg s-1 H-1) (Jy cm2 sr-1 H-1)
0.9927057738263894 9.351241999768391e-22 2.4641053809331763e-14 2.4641053809330416e-14 1.3516740646786131e-27
1.0001793341362166 9.505734124749469e-22 2.5236723692351932e-14 2.5236723692350304e-14 1.6285804739938688e-27
1.0077091589558085 9.660005938060649e-22 2.5839376634975864e-14 2.5839376634973914e-14 1.9597172001584573e-27
1.0114953028030835 9.737040228106178e-22 2.614329163860477e-14 2.6143291638602634e-14 2.148707915158904e-27
1.0152956718711033 9.813996700661944e-22 2.644891588993537e-14 2.6448915889933014e-14 2.3551702274876978e-27
1.0229392996569957 9.967570621663064e-22 2.706503657035907e-14 2.706503657035625e-14 2.8268301339511545e-27
1.0267826658714554 1.0044001821108175e-21 2.737503884709754e-14 2.7375038847094446e-14 3.0955965021310914e-27
1.0306404723013447 1.0120321410108376e-21 2.768668319284042e-14 2.7686683192837033e-14 3.388827136344595e-27
1.03451277320114 1.0196522023571357e-21 2.799995619859172e-14 2.799995619858801e-14 3.708641186998505e-27
1.0383996230291617 1.0272596337251544e-21 2.8314844287716726e-14 2.8314844287712665e-14 4.057331308497513e-27
1.0403485208654093 1.0310583854361602e-21 2.847288970079749e-14 2.847288970079325e-14 4.243272050973141e-27
1.0423010764483396 1.0348537069154454e-21 2.863133371915342e-14 2.863133371914898e-14 4.437376976685474e-27
1.0462171883269815 1.042433698091021e-21 2.894941059062817e-14 2.8949410590623313e-14 4.851458754571089e-27
1.0471985131304309 1.0443264111717327e-21 2.902917620174078e-14 2.902917620173582e-14 4.960631841742595e-27
1.048180758391296 1.046218187950189e-21 2.910903992862997e-14 2.91090399286249e-14 5.072159582875319e-27
1.0501480137395462 1.0499988879115804e-21 2.9269060841873876e-14 2.926906084186858e-14 5.302473568083673e-27
1.0521189612883777 1.0537757087817797e-21 2.9429471548668386e-14 2.942947154866284e-14 5.542799315043896e-27
1.0531058218030118 1.0556597370032995e-21 2.9509741455780804e-14 2.950974145577514e-14 5.6668533775841675e-27
1.0540936079674168 1.0575332615983211e-21 2.9589842161104576e-14 2.9589842161098776e-14 5.793593949316234e-27
1.058054026499678 1.0650167153907338e-21 2.991119067786341e-14 2.9911190677857084e-14 6.3282704930506056e-27
1.0590464539527713 1.0668848629605028e-21 2.9991763086748924e-14 2.999176308674247e-14 6.469153404697667e-27
1.06003981227728 1.0687519023561358e-21 3.0072429147901546e-14 3.007242914789494e-14 6.613039780767634e-27
1.0620293250338977 1.0724826131405787e-21 3.0234041303391486e-14 3.023404130338458e-14 6.910067968777872e-27
1.0660195594769086 1.0799302594344062e-21 3.055837925144487e-14 3.055837925143733e-14 7.542928129801444e-27
1.070024785945596 1.0873589641140295e-21 3.0884189597878153e-14 3.088418959786993e-14 8.23110351315087e-27
1.0740450607676866 1.094768042390014e-21 3.1211457283875386e-14 3.121145728386641e-14 8.979180334717487e-27
1.07808044048254 1.1021568149520575e-21 3.1540167119175115e-14 3.1540167119165315e-14 9.79210294245255e-27
1.0861967418109137 1.1168576961343232e-21 3.220147535939259e-14 3.2201475359380956e-14 1.1634213575621463e-26
1.0902777775684922 1.1241387812850907e-21 3.253318058947317e-14 3.253318058946049e-14 1.2675328967763334e-26
1.0943741465085532 1.1313963811848461e-21 3.2866241573301935e-14 3.286624157328813e-14 1.3805198907350114e-26
1.1026131145906286 1.1458385450192746e-21 3.3536367045491386e-14 3.353636704547502e-14 1.6360399736454714e-26
1.1109141095355224 1.1601790895600036e-21 3.421172319097368e-14 3.421172319095432e-14 1.9363877013061713e-26
1.1192775983109025 1.1743997036636394e-21 3.489178419689507e-14 3.489178419687218e-14 2.2889675223698504e-26
1.1277040513999907 1.1884343338918334e-21 3.557457855826803e-14 3.557457855824101e-14 2.702326413642462e-26
1.1361939428280308 1.2023507714909413e-21 3.626211151339284e-14 3.6262111513360984e-14 3.186315508237347e-26
1.1447477501889525 1.216144374713952e-21 3.695424782959549e-14 3.6954247829557976e-14 3.7522754461262904e-26
1.1533659546722406 1.2298181269214084e-21 3.7651081087582137e-14 3.7651081087538024e-14 4.4132503341260395e-26
1.1707974979042381 1.2568502358550867e-21 3.9060225811343205e-14 3.9060225811282387e-14 6.082399846981697e-26
1.1884924949847024 1.283344698686559e-21 4.048640335979113e-14 4.048640335970771e-14 8.341629875103557e-26
1.2064549276569216 1.309508679816744e-21 4.1936184669003015e-14 4.193618466888917e-14 1.1384548645919068e-25
1.2246888378427687 1.3350564172278365e-21 4.340050783397357e-14 4.340050783381894e-14 1.546263824581912e-25
1.2431983285522175 1.3599281262933138e-21 4.4877205606937696e-14 4.487720560672868e-14 2.090144858084038e-25
1.2619875648066055 1.3841144851909623e-21 4.636566812287974e-14 4.636566812259854e-14 2.812025644400621e-25
1.3004222497298317 1.4300290478037837e-21 4.9362674705833455e-14 4.936267470533153e-14 5.019290265406865e-25
1.3400274889804893 1.4726202581718866e-21 5.2381015178915843e-14 5.238101517803611e-14 8.79734016265245e-25
1.3808389325824078 1.5117299973914124e-21 5.54098133693877e-14 5.540981336787295e-14 1.5147668897344166e-24
1.4228933163050095 1.5475483638170683e-21 5.845020017900713e-14 5.84502001764436e-14 2.5635270904474688e-24
1.466228494730424 1.5809370221518184e-21 6.152982192892965e-14 6.152982192466342e-14 4.266224548040825e-24
1.5108834753276823 1.6112467563454837e-21 6.461933143813114e-14 6.461933143114632e-14 6.98480690456435e-24
1.5568984535646726 1.6379522007932714e-21 6.769100221839924e-14 6.769100220713714e-14 1.126210525813047e-23
1.6043148490894465 1.6611018889316804e-21 7.07384123612355e-14 7.073841234331996e-14 1.7915519185166916e-23
1.6531753430134553 1.6807659477411132e-21 7.375570064032589e-14 7.37557006122396e-14 2.8086302150888436e-23
1.7035239163302658 1.6971777281535883e-21 7.674409907728576e-14 7.674409903388248e-14 4.3403269603814744e-23
1.755405889504358 1.7116866770171045e-21 7.975744893506896e-14 7.975744886891847e-14 6.615047437655302e-23
1.8088679632656115 1.7239593304786802e-21 8.277578658910238e-14 8.27757864896344e-14 9.946795780489565e-23
1.8639582606462262 1.7337697527326263e-21 8.578217194599297e-14 8.578217179837175e-14 1.476212315265584e-22
1.9207263702978936 1.741281426145741e-21 8.877770208017625e-14 8.877770186385571e-14 2.163205251745491e-22
1.979223391128241 1.7468751667342016e-21 9.177536470614353e-14 9.177536439303011e-14 3.1311340129577085e-22
2.039501978296691 1.7510067781055706e-21 9.479411824181802e-14 9.479411779398035e-14 4.478377062424435e-22
2.1016163906111602 1.754953303164301e-21 9.7901296893157e-14 9.790129625995899e-14 6.331979891475245e-22
2.1656225393682647 1.75945517062011e-21 1.0114173556913956e-13 1.0114173468379168e-13 8.853478608496759e-22
2.231578038680979 1.764565250529701e-21 1.0452477329784274e-13 1.0452477207326683e-13 1.2245759033869215e-21
2.299542257339062 1.7707268235268397e-21 1.0808424518556652e-13 1.0808424350948539e-13 1.6760811055418821e-21
2.369576372248914 1.7789202689642827e-21 1.1189137923938795e-13 1.1189137696852656e-13 2.270861369659142e-21
2.4417434235010123 1.790303258667399e-21 1.1603688505324256e-13 1.1603688200666462e-13 3.0465779450908432e-21
2.5161083711144245 1.806858507328323e-21 1.2067655968357442e-13 1.2067655563492442e-13 4.048649996192304e-21
2.5927381535095444 1.831830713258249e-21 1.26070486268879e-13 1.2607048093759176e-13 5.331287254494612e-21
2.6717017477616296 1.869093740903605e-21 1.3255267324829236e-13 1.325526662900264e-13 6.958265963262685e-21
2.753070231689431 1.92448013595013e-21 1.4063718220805123e-13 1.4063717320403507e-13 9.004016187374237e-21
2.836916847834745 2.0112043834956164e-21 1.514510352923005e-13 1.5145102373724555e-13 1.1555054971452012e-20
2.9233170693905177 2.1583707768519584e-21 1.6748326079911484e-13 1.674832460903227e-13 1.470879215860586e-20
2.967498994190263 2.2833541845510548e-21 1.7985946455362622e-13 1.7985944803231407e-13 1.6521312163046608e-20
3.0123486681368425 2.429320842256799e-21 1.9424933811151733e-13 1.9424931957818201e-13 1.853333532155553e-20
3.0578761833420214 2.7559382252294512e-21 2.236963037100065e-13 2.2369628294070405e-13 2.0769302406424972e-20
3.1040917844459814 3.1768224617223696e-21 2.6175617282989207e-13 2.617561495959361e-13 2.323395599248733e-20
3.127460860933648 3.622069637422101e-21 3.0068939561889717e-13 3.0068937105258673e-13 2.45663104359182e-20
3.1510058709225794 4.2153019225189736e-21 3.5257160443279214e-13 3.5257157846824046e-13 2.5964551800421377e-20
3.162844764501044 4.767514145581697e-21 4.0025733571789933e-13 4.002573090258895e-13 2.6692009906476408e-20
3.1747281389236908 5.409692023284222e-21 4.558778753803215e-13 4.558778479434686e-13 2.743685305904817e-20
3.1986289994194426 7.200913715100175e-21 6.113936311571573e-13 6.113936021732109e-13 2.898394644684194e-20
3.2227097969389145 1.1423274742708312e-20 9.771950414122085e-13 9.77195010776672e-13 3.0635536792147644e-20
3.2348180950136065 1.5427399841062343e-20 1.3246832118791703e-12 1.32468318035789e-12 3.152128018097387e-20
3.240889293275058 1.8421004816972337e-20 1.5846995887882567e-12 1.5846995567987336e-12 3.198952324294855e-20
3.2469718861334385 2.1884144382486618e-20 1.886155666876797e-12 1.8861556344020333e-12 3.247476379067899e-20
3.2714166318528037 4.035714261443936e-20 3.5044970591762564e-12 3.5044970246849603e-12 3.449129565985247e-20
3.2744851364798273 4.1511947047470716e-20 3.6081581103527053e-12 3.608158075622085e-12 3.473062124922888e-20
3.2775565192852394 4.2699920728176606e-20 3.714896268091258e-12 3.714896233119863e-12 3.4971395248170593e-20
3.283707930232385 4.155745618082917e-20 3.622287443962784e-12 3.6222874085589755e-12 3.540380830387916e-20
3.2898708863219004 3.7934357250004276e-20 3.3126916801927958e-12 3.3126916443937004e-12 3.5799095805204146e-20
3.29141343181113 3.707994020316096e-20 3.2395963073415453e-12 3.239596271443081e-12 3.5898463983252455e-20
3.292184975758714 3.666010994473065e-20 3.203667420884417e-12 3.2036673849361867e-12 3.594823024340989e-20
3.295272960557952 3.401009965005141e-20 2.9748750699900505e-12 2.974875033848031e-12 3.614201993478264e-20
3.3076538914384823 2.482965353896549e-20 2.180018363708407e-12 2.180018326786217e-12 3.69221903720735e-20
3.310756385682612 2.2961199002522738e-20 2.017860880957367e-12 2.0178608438380846e-12 3.7119283184334057e-20
3.313861789986515 2.123725902221064e-20 1.868109326033619e-12 1.868109288716418e-12 3.731720054770451e-20
3.3200813396944477 1.881962306471111e-20 1.6585519435130648e-12 1.6585519057704246e-12 3.774264058749095e-20
3.345076488085796 1.450676845355192e-20 1.2880898706072815e-12 1.2880898309642444e-12 3.9643036956261084e-20
3.3482140837626964 1.4668488629663993e-20 1.303671046963355e-12 1.303671007062062e-12 3.9901293402971424e-20
3.3513546224236106 1.4831996795458876e-20 1.3194393772954883e-12 1.319439337134509e-12 4.01609790188937e-20
3.3576445397418455 1.6026978088633902e-20 1.4284195761519086e-12 1.4284195354473754e-12 4.0704533263188106e-20
3.3702598118196083 2.0434594823166238e-20 1.8280953574053942e-12 1.8280953155574853e-12 4.184790877183547e-20
3.382922481734668 2.1438454332899975e-20 1.9251073392523504e-12 1.9251072962883127e-12 4.2964038001438347e-20
3.389271646505754 2.1958523284933037e-20 1.9755086784730474e-12 1.9755086349414427e-12 4.353160461082829e-20
3.395632727569191 2.2518922415602314e-20 2.0297275587240525e-12 2.029727514606994e-12 4.411705790761737e-20
3.421196662673239 2.520974840948055e-20 2.2893699828086435e-12 2.2893699362565015e-12 4.655214197554424e-20
3.4276182099114902 2.4667461713175595e-20 2.2443280495121364e-12 2.2443280024098874e-12 4.7102249181336173e-20
3.4340518103208963 2.2291215627579688e-20 2.031936020139548e-12 2.031935972514245e-12 4.762530252787201e-20
3.4469541582030403 1.8907000657679425e-20 1.7299262153150066e-12 1.7299261666793972e-12 4.8635609024536684e-20
3.472904465399547 1.7958509223941394e-20 1.6555128336407138e-12 1.6555127826739741e-12 5.096673904521911e-20
3.4990501388274233 1.6507852542015933e-20 1.533240136640742e-12 1.533240083266943e-12 5.337379853461497e-20
3.5253949054701885 1.1345384902524202e-20 1.0616868541431022e-12 1.0616867984058526e-12 5.573724954792579e-20
3.5519380250092896 6.4932615732825496e-21 6.122061820972724e-13 6.122061239593709e-13 5.81379014114942e-20
3.578680990867387 4.5693036577948556e-21 4.3405267793271497e-13 4.3405261714643915e-13 6.078627590942062e-20
3.605625307711299 3.791032910290614e-21 3.6283366947845423e-13 3.628336058785185e-13 6.359993570864055e-20
3.660119384959845 3.2231121261562405e-21 3.131411184951199e-13 3.1314104889329966e-13 6.960182022734252e-20
3.715437065384467 2.8208316599518463e-21 2.7819960672367343e-13 2.7819953066445584e-13 7.605921764553662e-20
3.8285932144167436 2.6161622345762634e-21 2.6587244565145513e-13 2.6587235523665715e-13 9.041479796650083e-20
3.94519561050918 2.576264096300219e-21 2.6979155754259254e-13 2.697914507179477e-13 1.0682464490045789e-19
4.06534921144712 2.604010801170215e-21 2.810024274357038e-13 2.810023019266859e-13 1.25509017888699e-19
4.189162171576248 2.670915842944791e-21 2.970002469382761e-13 2.970001001673915e-13 1.4677088449053699e-19
4.316745939156006 2.7663566570591754e-21 3.169816295345497e-13 3.169814586660201e-13 1.7086852966996536e-19
4.448215356677963 2.886756842374865e-21 3.408516824476381e-13 3.4085148454925274e-13 1.9789838544564715e-19
4.58368876423945 3.0325287940565106e-21 3.689686670770118e-13 3.689684387720581e-13 2.2830495372949446e-19
4.723288106065518 3.207033822354697e-21 4.0208457263991624e-13 4.020843099088288e-13 2.6273108759015434e-19
4.867139040275056 3.417018385158109e-21 4.4145912843905845e-13 4.414588273140225e-13 3.0112503591567814e-19
4.940699165968905 3.543806325249199e-21 4.647590153981805e-13 4.647586933058938e-13 3.2209228670124867e-19
5.015371051989984 3.675088576189681e-21 4.892606779940267e-13 4.892603336862228e-13 3.443078041483637e-19
5.091171501069577 3.8354443568524855e-21 5.18325823693692e-13 5.183254554947337e-13 3.681989583961286e-19
5.129500256944802 3.917737391799427e-21 5.334329157963205e-13 5.33432535122235e-13 3.806740855699044e-19
5.168117569889187 4.003539088008956e-21 5.492194273497678e-13 5.492190337667053e-13 3.9358306251515053e-19
5.20702561229733 4.10895971179604e-21 5.679250565906736e-13 5.679246491282598e-13 4.074624138284932e-19
5.246226572918644 4.2170688070954545e-21 5.87255594919243e-13 5.872551731449234e-13 4.2177431938287367e-19
5.265937586045735 4.272158390953597e-21 5.971624432804272e-13 5.971620141837816e-13 4.2909664557447213e-19
5.285722656980489 4.327952793408226e-21 6.072343350406091e-13 6.072338985084388e-13 4.36532170557301e-19
5.305582063971359 4.384463413386192e-21 6.174743474302602e-13 6.174739033476141e-13 4.440826463238886e-19
5.3255160863122235 4.445196001515241e-21 6.283795587180018e-13 6.283791069328423e-13 4.517851594402061e-19
5.365609099470188 4.5966186079184475e-21 6.546767740245569e-13 6.546763061972984e-13 4.678272583192448e-19
5.406003951863644 4.753813116242606e-21 6.821625861927517e-13 6.821621018080955e-13 4.843846559994249e-19
5.446702915881641 4.917059104138487e-21 7.109000577621739e-13 7.108995562879936e-13 5.01474180305005e-19
5.487708281020852 5.093493844724e-21 7.419527272486681e-13 7.419522080847288e-13 5.191639395664422e-19
5.529022354014368 5.339021078697657e-21 7.835729124481191e-13 7.835723745715239e-13 5.378765950476065e-19
5.570647458961463 5.5990524845200735e-21 8.279224256969357e-13 8.279218684797538e-13 5.57217182018382e-19
5.612585937458331 5.874633965242825e-21 8.752119700179856e-13 8.75211392810282e-13 5.772077036258054e-19
5.654840148729818 6.177632109136555e-21 9.27281952806614e-13 9.272813548604598e-13 5.979461542321935e-19
5.67608639626678 6.384152391105226e-21 9.618817292897144e-13 9.618811203826732e-13 6.089070411984828e-19
5.686739436050992 6.490609976483653e-21 9.797567755598498e-13 9.797561611001166e-13 6.144597333028505e-19
5.6974124697621304 6.5992672834430796e-21 9.980282013010153e-13 9.98027581239821e-13 6.200611942168441e-19
5.718818669136295 6.823393196908636e-21 1.0358005981193358e-12 1.0357999667070756e-12 6.31412260337523e-19
5.740305295436557 7.070497220285548e-21 1.0773439562647032e-12 1.077343313217188e-12 6.430475153164553e-19
5.7835210386641895 7.711838701423296e-21 1.183912729682486e-12 1.1839120620674982e-12 6.676149882275398e-19
5.827062130521658 8.450820244568688e-21 1.3071274824283298e-12 1.3071267891176535e-12 6.933106760784952e-19
5.8489554468988025 8.96943923467848e-21 1.39255718461382e-12 1.3925564772275902e-12 7.073862302232439e-19
5.870931020387893 9.526030150094741e-21 1.4845278946478193e-12 1.4845271728869638e-12 7.217608553956074e-19
5.892989160043636 1.0123650796403112e-20 1.583588107234291e-12 1.5835873707923895e-12 7.364419020489985e-19
5.915130176081913 1.0803406511085184e-20 1.696267955476976e-12 1.6962672036797527e-12 7.517972224363924e-19
5.95966208400165 1.2704470609205247e-20 2.0097759347065945e-12 2.009775147919977e-12 7.867866175551274e-19
6.004529249263818 1.5445154824381857e-20 2.4617313921519647e-12 2.4617305648676185e-12 8.272843454658875e-19
6.027089341400364 1.7350527236106877e-20 2.775810016759594e-12 2.775809165651932e-12 8.511076618776899e-19
6.049734195844842 1.96023490905805e-20 3.1478486698471343e-12 3.1478477930561194e-12 8.767910151694942e-19
6.095279466722835 2.610753653756721e-20 4.2240490265272426e-12 4.2240480855120286e-12 9.410152131422575e-19
6.141167624020661 3.6119743939287736e-20 5.887962665642505e-12 5.8879616389373766e-12 1.0267051281621812e-18
6.164241091010745 4.251363922769785e-20 6.956284442514732e-12 6.956283361687437e-12 1.0808272933243037e-18
6.187401249150058 4.979761701230293e-20 8.178737592824106e-12 8.178736454357746e-12 1.1384663612607802e-18
6.1990139391386085 5.335421724576101e-20 8.779318377093243e-12 8.779317209080355e-12 1.1680128868643541e-18
6.204828454712694 5.522773850657523e-20 9.096126091531092e-12 9.096124908368128e-12 1.1831629604280886e-18
6.210648424152782 5.659533740931293e-20 9.330115749531068e-12 9.330114553410516e-12 1.196120551371425e-18
6.233982942956859 6.124162964851243e-20 1.0134020570830683e-11 1.0134019328314906e-11 1.2425157758049207e-18
6.239830258556775 6.183552560026102e-20 1.024189373424087e-11 1.0241892484679662e-11 1.2495612098784711e-18
6.245683058788269 6.188691866705945e-20 1.0260020647865494e-11 1.0260019391216525e-11 1.2566489682121791e-18
6.257405133728602 6.175902727789979e-20 1.0258034475424044e-11 1.0258033206004815e-11 1.2694192273316788e-18
6.269149208991335 6.084486832141993e-20 1.0125162337039263e-11 1.0125161061400726e-11 1.2756385366882658e-18
6.280915325867298 5.855277404766181e-20 9.76202346205208e-12 9.762022188348568e-12 1.2737035101901449e-18
6.304513850009849 5.290051523656981e-20 8.8528058153052e-12 8.852804552980798e-12 1.2623244034374225e-18
6.32820103803542 4.589451694718483e-20 7.70922114327763e-12 7.709219901050163e-12 1.2422274666105378e-18
6.3519772230701035 3.946948356404425e-20 6.65487356993878e-12 6.654872345825821e-12 1.2241129582340503e-18
6.375842739491607 3.4064318182628466e-20 5.7650984802549816e-12 5.765097271410336e-12 1.2088446448410397e-18
6.399797922933955 2.9732008014607266e-20 5.050797250374388e-12 5.050796048301267e-12 1.2020731228171575e-18
6.42384311029221 2.613016706259354e-20 4.4556035885033545e-12 4.455602391034149e-12 1.1974692058528077e-18
6.447978639727206 2.3505230650036674e-20 4.023069547034941e-12 4.023068346873854e-12 1.200161086306006e-18
6.472204850670314 2.1318557976031813e-20 3.662515847845915e-12 3.662514643299123e-12 1.204546790880937e-18
6.496522083828205 1.9897194114805285e-20 3.4311696286199245e-12 3.4311684134781173e-12 1.2151418064866475e-18
