Dust emission spectrum from A.P. Jones, M. Kohler, N. Ysard, M. Bocchio, and L. Verstraete (2017), A&A, 602A, 46J 
inside the DustPedia framework.

lambda    nu*dP/dnu     j_nu    j_nu(carb.) j_nu(sil)
 (um)   (erg s-1 H-1) (Jy cm2 sr-1 H-1)
0.9927057738263894 1.311014835247813e-23 3.4545985550340476e-16 3.454598554935833e-16 9.821482974329134e-27
1.0001793341362166 1.332654380659341e-23 3.538057128542775e-16 3.5380571284244743e-16 1.18301037533226e-26
1.0077091589558085 1.3542626705855455e-23 3.622492929333897e-16 3.622492929191587e-16 1.423112816770456e-26
1.0114953028030835 1.365052435360302e-23 3.6650730698021413e-16 3.6650730696461313e-16 1.5601050976468794e-26
1.0152956718711033 1.3758312034986298e-23 3.707892400007572e-16 3.7078923998365983e-16 1.7097300580860627e-26
1.0229392996569957 1.3973409570750577e-23 3.794212806709662e-16 3.794212806504519e-16 2.0514333347672607e-26
1.0267826658714554 1.4080458366805397e-23 3.8376446125903767e-16 3.837644612365768e-16 2.246083728612668e-26
1.0306404723013447 1.4187349900054197e-23 3.8813061968213747e-16 3.881306196575535e-16 2.4584042469343624e-26
1.03451277320114 1.4294073864404333e-23 3.9251956812090837e-16 3.9251956809400915e-16 2.689920298047217e-26
1.0383996230291617 1.4400620011341214e-23 3.969311164199787e-16 3.9693111639055585e-16 2.9422816559713e-26
1.0403485208654093 1.4453823216847814e-23 3.991453054659388e-16 3.9914530543517053e-16 3.076831208987926e-26
1.0423010764483396 1.450697815189531e-23 4.013650721331565e-16 4.013650721009838e-16 3.217271956656286e-26
1.0462171883269815 1.4613138158565822e-23 4.05821240568683e-16 4.0582124053351474e-16 3.5168188660056235e-26
1.0471985131304309 1.463964602100294e-23 4.069387303898445e-16 4.0693873035388664e-16 3.595783048811375e-26
1.048180758391296 1.4666140714122139e-23 4.080575931132758e-16 4.080575930765113e-16 3.6764454906043125e-26
1.0501480137395462 1.4719089967200642e-23 4.1029942483452384e-16 4.102994247960938e-16 3.8430049630769644e-26
1.0521189612883777 1.477198466998189e-23 4.1254671078456563e-16 4.1254671074439777e-16 4.016783721226024e-26
1.0531058218030118 1.4798370528479417e-23 4.136712550029831e-16 4.1367125496191833e-16 4.106478715791197e-26
1.0540936079674168 1.4824609108902676e-23 4.14793425002567e-16 4.147934249605859e-16 4.1981107849286494e-26
1.058054026499678 1.4929413803893807e-23 4.192953373817809e-16 4.192953373359346e-16 4.5846162341202546e-26
1.0590464539527713 1.4955576805349972e-23 4.2042410755277493e-16 4.204241075059105e-16 4.6864417262623613e-26
1.06003981227728 1.4981724232625166e-23 4.2155418811960124e-16 4.215541880716968e-16 4.790431571724828e-26
1.0620293250338977 1.5033971756373042e-23 4.2381826751034125e-16 4.238182674602905e-16 5.005080255270839e-26
1.0660195594769086 1.513827323893263e-23 4.2836200838522757e-16 4.2836200833060423e-16 5.462332823437973e-26
1.070024785945596 1.5242308598136563e-23 4.329263510857041e-16 4.329263510261098e-16 5.959426010091661e-26
1.0740450607676866 1.5346068256110167e-23 4.3751108481880855e-16 4.37511084753812e-16 6.499650251761018e-26
1.07808044048254 1.5449542712086147e-23 4.4211599696475793e-16 4.4211599689389243e-16 7.086551717888772e-26
1.0861967418109137 1.5655415385037057e-23 4.513802201544713e-16 4.513802200703117e-16 8.415963216990736e-26
1.0902777775684922 1.5757378803996164e-23 4.560270126621802e-16 4.560270125705101e-16 9.167020184319055e-26
1.0943741465085532 1.5859012549409852e-23 4.606927741956193e-16 4.606927740958005e-16 9.981886700706482e-26
1.1026131145906286 1.6061254943952977e-23 4.700803122333083e-16 4.700803121150686e-16 1.1823950701355557e-25
1.1109141095355224 1.6262071294259e-23 4.795410352052323e-16 4.795410350653524e-16 1.3987995260597718e-25
1.1192775983109025 1.646120513423789e-23 4.890675767141992e-16 4.890675765489296e-16 1.652696604710828e-25
1.1277040513999907 1.665773085677701e-23 4.986323081278754e-16 4.98632307932856e-16 1.9501933156623915e-25
1.1361939428280308 1.6852598844335538e-23 5.082633396791353e-16 5.08263339449303e-16 2.298323482154289e-25
1.1447477501889525 1.7045744238178697e-23 5.179587803180983e-16 5.179587800475805e-16 2.705178336117053e-25
1.1533659546722406 1.7237209048077643e-23 5.277199460520313e-16 5.277199457340257e-16 3.180057455911334e-25
1.1707974979042381 1.7615716553886298e-23 5.474589149878233e-16 5.474589145500074e-16 4.378157399393807e-25
1.1884924949847024 1.7986687916687394e-23 5.67436249081779e-16 5.674362484819961e-16 5.997830021009316e-25
1.2064549276569216 1.835302811940577e-23 5.877440816646691e-16 5.87744080847008e-16 8.1766103002138875e-25
1.2246888378427687 1.8710734086725512e-23 6.082554645866656e-16 6.0825546347738e-16 1.1092856212114475e-24
1.2431983285522175 1.9058969824495395e-23 6.289400821509474e-16 6.289400806532402e-16 1.4977071812135028e-24
1.2619875648066055 1.9397606802008115e-23 6.497894567124175e-16 6.497894546998546e-16 2.012562968211288e-24
1.3004222497298317 2.0040458195185108e-23 6.917695975225483e-16 6.917695939391118e-16 3.58343648284159e-24
1.3400274889804893 2.0636785948259937e-23 7.340492513268601e-16 7.340492450622397e-16 6.264620358726334e-24
1.3808389325824078 2.1184393725819348e-23 7.764768210704197e-16 7.764768103123335e-16 1.0758086190934702e-23
1.4228933163050095 2.1685965547350256e-23 8.190690882133281e-16 8.1906907005677815e-16 1.8156550089635934e-23
1.466228494730424 2.215359516693729e-23 8.622144630732466e-16 8.622144329427933e-16 3.013045326168798e-23
1.5108834753276823 2.2578208257507824e-23 9.0550296962597e-16 9.05502920439822e-16 4.918614835097394e-23
1.5568984535646726 2.295246809674433e-23 9.485475632939732e-16 9.485474842267734e-16 7.906719962940826e-23
1.6043148490894465 2.327707975152806e-23 9.912598841772063e-16 9.91259758787438e-16 1.253897684979105e-22
1.6531753430134553 2.3553052103986157e-23 1.0335596473038354e-15 1.0335594513549894e-15 1.9594884595009288e-22
1.7035239163302658 2.3783680633904713e-23 1.0754661180810207e-15 1.0754658162644277e-15 3.0181659305824355e-22
1.755405889504358 2.3987897451579097e-23 1.1177358168073609e-15 1.1177353583684841e-15 4.584388765448893e-22
1.8088679632656115 2.4161058285060432e-23 1.1600915224697985e-15 1.1600908355395522e-15 6.869302463751968e-22
1.8639582606462262 2.4300025175852298e-23 1.2022985950940063e-15 1.2022975792893512e-15 1.0158046552682746e-21
1.9207263702978936 2.4407115758258996e-23 1.244375331229046e-15 1.2443738482355162e-15 1.4829935299558106e-21
1.979223391128241 2.4487692596967367e-23 1.2865068790805947e-15 1.2865047407802318e-15 2.138300362718222e-21
2.039501978296691 2.4548166807236317e-23 1.3289622039399853e-15 1.328959157762599e-15 3.0461773867105812e-21
2.1016163906111602 2.460645458346745e-23 1.372688271146834e-15 1.372683981912232e-15 4.289234601866298e-21
2.1656225393682647 2.4672953922373596e-23 1.4183171148638938e-15 1.4183111432180006e-15 5.971645893413247e-21
2.231578038680979 2.4748427015706484e-23 1.4659836027703672e-15 1.4659753796772285e-15 8.223093138881421e-21
2.299542257339062 2.4839106809336806e-23 1.5161661725006004e-15 1.5161549693945105e-15 1.1203106089887042e-20
2.369576372248914 2.4958745864080665e-23 1.5698671534296997e-15 1.5698520475229003e-15 1.5105906798470598e-20
2.4417434235010123 2.512357951154622e-23 1.6283620631273642e-15 1.6283418983336363e-15 2.0164793727456014e-20
2.5161083711144245 2.5361397885663156e-23 1.6938383571237666e-15 1.6938116994302274e-15 2.665769353903005e-20
2.5927381535095444 2.5717663137018974e-23 1.7699442824693592e-15 1.7699093706208013e-15 3.491184855790756e-20
2.6717017477616296 2.6246633893768196e-23 1.861362761134855e-15 1.8613174547565166e-15 4.5306378338870006e-20
2.753070231689431 2.7029983876223284e-23 1.9752974824051967e-15 1.9752392061377266e-15 5.827626747005565e-20
2.836916847834745 2.825274315311364e-23 2.1275347426150045e-15 2.12746042466933e-15 7.431794567448559e-20
2.9233170693905177 3.032238954238825e-23 2.3529287600841604e-15 2.3528347842250877e-15 9.397585907257311e-20
2.967498994190263 3.207705639311262e-23 2.5267048915830203e-15 2.5265997142710804e-15 1.0517731194079322e-19
3.0123486681368425 3.41256703516625e-23 2.7287004512191745e-15 2.7285828937870866e-15 1.1755743208777416e-19
3.0578761833420214 3.8703560737419024e-23 3.141523056691716e-15 3.1413918003991013e-15 1.3125629261463297e-19
3.1040917844459814 4.4601323059705886e-23 3.6749524935455786e-15 3.674806216428945e-15 1.4627711663326932e-19
3.127460860933648 5.0837467065928157e-23 4.220318430357149e-15 4.220164065546913e-15 1.543648102365814e-19
3.1510058709225794 5.914538048903962e-23 4.946972263696683e-15 4.946809435320056e-15 1.628283766258205e-19
3.162844764501044 6.687766818395231e-23 5.61472425019274e-15 5.61455702902998e-15 1.672211627571773e-19
3.1747281389236908 7.586936230655191e-23 6.393555038974821e-15 6.393383326668099e-15 1.7171230672158412e-19
3.1986289994194426 1.0094855125138623e-22 8.571037475454717e-15 8.570856456708175e-15 1.8101874654028654e-19
3.2227097969389145 1.6006249818617406e-22 1.3692420349376678e-14 1.3692229433828604e-14 1.909155480735011e-19
3.2348180950136065 2.161196108445085e-22 1.8557243812504032e-14 1.8557047606150177e-14 1.9620635385707314e-19
3.240889293275058 2.580292566583541e-22 2.2197424135359396e-14 2.2197225137915306e-14 1.989974440889449e-19
3.2469718861334385 3.065122811666972e-22 2.6417750951806197e-14 2.6417549066099664e-14 2.0188570652902086e-19
3.2714166318528037 5.651232257030098e-22 4.907365968570345e-14 4.907344583509561e-14 2.138506078463947e-19
3.2744851364798273 5.812897298338497e-22 5.052485856098937e-14 5.052464329236978e-14 2.1526861959628975e-19
3.2775565192852394 5.97920530458814e-22 5.201913046529079e-14 5.201891377080464e-14 2.166944861517404e-19
3.283707930232385 5.819269187280691e-22 5.0722704533224846e-14 5.07224852728872e-14 2.1926033763820775e-19
3.2898708863219004 5.312062179785813e-22 4.6388618295730544e-14 4.638839668557608e-14 2.216101544627072e-19
3.29141343181113 5.192449973923675e-22 4.5365342202317944e-14 4.536512000170626e-14 2.2220061168212274e-19
3.292184975758714 5.133676751560183e-22 4.486236670626532e-14 4.486214420997358e-14 2.224962917323613e-19
3.295272960557952 4.76269929193678e-22 4.1659493901014124e-14 4.165927025181246e-14 2.2364920165645857e-19
3.3076538914384823 3.4775130001567577e-22 3.0532210964923145e-14 3.053198267722534e-14 2.2828769781254467e-19
3.310756385682612 3.2159426320916276e-22 2.826213401132836e-14 2.826190455281608e-14 2.2945851228145554e-19
3.313861789986515 2.974602341999579e-22 2.6165723036665337e-14 2.6165492402843977e-14 2.3063382136101306e-19
3.3200813396944477 2.6361521950607426e-22 2.3232109014513578e-14 2.3231875859392646e-14 2.3315512094193295e-19
3.345076488085796 2.03241360872044e-22 1.8046275369041272e-14 1.8046030993807048e-14 2.4437523422021176e-19
3.3482140837626964 2.0550572536390003e-22 1.8264449113068323e-14 1.8264203218389837e-14 2.4589467848630343e-19
3.3513546224236106 2.0779511678470139e-22 1.8485242632967226e-14 1.848499521112647e-14 2.474218407609099e-19
3.3576445397418455 2.245247940950476e-22 2.001098456884328e-14 2.001073395654176e-14 2.506123015275486e-19
3.3702598118196083 2.862290045932401e-22 2.56062779311126e-14 2.5606020624492356e-14 2.573066202452704e-19
3.382922481734668 3.0028376446874014e-22 2.6964559564817244e-14 2.6964295722127396e-14 2.6384268985256205e-19
3.389271646505754 3.075650368701792e-22 2.7670230445269884e-14 2.7669963283721764e-14 2.6716154812182955e-19
3.395632727569191 3.1541109894818233e-22 2.842936211810032e-14 2.8429091535909095e-14 2.7058219122386495e-19
3.421196662673239 3.5308491230229914e-22 3.206465953081528e-14 3.206437475460318e-14 2.84776212098819e-19
3.4276182099114902 3.454941162625083e-22 3.1434208557226224e-14 3.1433920581343186e-14 2.8797588303449195e-19
3.4340518103208963 3.1222935894064996e-22 2.846099071383265e-14 2.8460699696088067e-14 2.910177445871003e-19
3.4469541582030403 2.648541095064787e-22 2.4233249660520408e-14 2.4232952772452516e-14 2.968880678932695e-19
3.472904465399547 2.5157850738175224e-22 2.3191872022618672e-14 2.319156165435108e-14 3.103682675918478e-19
3.4990501388274233 2.3127349958266063e-22 2.148055364554388e-14 2.148022940681592e-14 3.242387279610845e-19
3.5253949054701885 1.590082240316243e-22 1.487978967707453e-14 1.4879451844196232e-14 3.3783287829700436e-19
3.5519380250092896 9.108693802486906e-23 8.587977850235517e-15 8.587626255887604e-15 3.515943479087822e-19
3.578680990867387 6.41575585438832e-23 6.094530410140602e-15 6.094163712987866e-15 3.666971527383547e-19
3.605625307711299 5.326691179007837e-23 5.098090553135741e-15 5.0977078864170815e-15 3.826667186610444e-19
3.660119384959845 4.5325529874544196e-23 4.4035970719470765e-15 4.403180576235786e-15 4.1649571129023775e-19
3.715437065384467 3.9703232085013164e-23 3.9156620753107795e-15 3.915209505952229e-15 4.525693585513738e-19
3.8285932144167436 3.685769741355152e-23 3.7457333581644094e-15 3.745201796024615e-15 5.315621397944049e-19
3.94519561050918 3.6320659051010954e-23 3.803572463870491e-15 3.802952503288842e-15 6.199605816475601e-19
4.06534921144712 3.673281116071792e-23 3.963888743495398e-15 3.9631704570830274e-15 7.18286412370656e-19
4.189162171576248 3.769581433551853e-23 4.191695592267237e-15 4.190868212180215e-15 8.273800870229535e-19
4.316745939156006 3.906146323740878e-23 4.4758387308455035e-15 4.474891103872523e-15 9.47626972979155e-19
4.448215356677963 4.078028994974412e-23 4.8151026217495925e-15 4.814024309757417e-15 1.0783119921762642e-18
4.58368876423945 4.285878873413062e-23 5.214641385354886e-15 5.213420965451603e-15 1.2204199032833459e-18
4.723288106065518 4.534487197168905e-23 5.685151600540808e-15 5.683775915623389e-15 1.375684917416882e-18
4.867139040275056 4.833394772683199e-23 6.244468139295352e-15 6.242926456519763e-15 1.5416827755893285e-18
4.940699165968905 5.0136360284988607e-23 6.575225422360294e-15 6.573595974350181e-15 1.629448010113251e-18
5.015371051989984 5.2003668718977895e-23 6.923193737551615e-15 6.9214734032679764e-15 1.720334283638955e-18
5.091171501069577 5.428027110918391e-23 7.335490653832149e-15 7.33367454896662e-15 1.816104865527728e-18
5.129500256944802 5.544902949376991e-23 7.549851999485973e-15 7.54798679701033e-15 1.8652024756415694e-18
5.168117569889187 5.666751850004449e-23 7.773847432423814e-15 7.771931963078402e-15 1.9154693454140765e-18
5.20702561229733 5.816142852920213e-23 8.038855307832508e-15 8.036885598571375e-15 1.969709261134644e-18
5.246226572918644 5.96936095667444e-23 8.312742286778153e-15 8.310717328055324e-15 2.0249587228320724e-18
5.265937586045735 6.047443497260762e-23 8.453118550266299e-15 8.45106558644949e-15 2.0529638168087812e-18
5.285722656980489 6.126529468721815e-23 8.59584017115938e-15 8.593758947736474e-15 2.0812234229070626e-18
5.305582063971359 6.20663512876576e-23 8.74095097742534e-15 8.738841239190198e-15 2.109738235139786e-18
5.3255160863122235 6.2926719660378e-23 8.895415256893293e-15 8.893276583121208e-15 2.1386737720835283e-18
5.365609099470188 6.506761992455277e-23 9.267303454822099e-15 9.265104848617941e-15 2.198606204156074e-18
5.406003951863644 6.72900411636687e-23 9.655985076145842e-15 9.653725412231009e-15 2.2596639148349613e-18
5.446702915881641 6.959792122831653e-23 1.0062349297305485e-14 1.0060027442396485e-14 2.321854908998253e-18
5.487708281020852 7.209127834595906e-23 1.0501302683428596e-14 1.049891729760875e-14 2.3853858198460015e-18
5.529022354014368 7.555331563466753e-23 1.1088461855522292e-14 1.1086010029883033e-14 2.4518256392607004e-18
5.570647458961463 7.921918346988898e-23 1.1714006739792676e-14 1.1711487206507457e-14 2.5195332852162368e-18
5.612585937458331 8.310354254169951e-23 1.2380893109888917e-14 1.2378304590013195e-14 2.588519875723007e-18
5.654840148729818 8.737265991081291e-23 1.3114910255691928e-14 1.3112251203585656e-14 2.659052106272749e-18
5.67608639626678 9.027831548177313e-23 1.3601972022778901e-14 1.3599276099721243e-14 2.6959230576601527e-18
5.686739436050992 9.177597781962427e-23 1.385357253450643e-14 1.3850858040776062e-14 2.7144937303739184e-18
5.6974124697621304 9.33044830542755e-23 1.4110734024913631e-14 1.4108000870063651e-14 2.7331548499791133e-18
5.718818669136295 9.64569917387853e-23 1.464230579311923e-14 1.4639535043739854e-14 2.770749379375797e-18
5.740305295436557 9.993154833024329e-23 1.5226743788948653e-14 1.522393485646399e-14 2.8089324846645564e-18
5.7835210386641895 1.0894229785809438e-22 1.6724697990798846e-14 1.6721809823012053e-14 2.8881677867957087e-18
5.827062130521658 1.1932093365586826e-22 1.8455921093675223e-14 1.845295154565092e-14 2.969548024304127e-18
5.8489554468988025 1.2659970840332167e-22 1.9655335065479124e-14 1.96523218357038e-14 3.0132297753284347e-18
5.870931020387893 1.344101361903704e-22 2.0946353659822584e-14 2.0943296265610325e-14 3.0573942122555515e-18
5.892989160043636 1.427949976680585e-22 2.2336651532866794e-14 2.233354948790967e-14 3.1020449571250028e-18
5.915130176081913 1.523302595996061e-22 2.3917727963227933e-14 2.3914579682036774e-14 3.1482811911563224e-18
5.95966208400165 1.78986652332567e-22 2.8314683669781996e-14 2.8311431824348128e-14 3.251845433865397e-18
6.004529249263818 2.174022415283966e-22 3.4650732140917616e-14 3.464736458020009e-14 3.3675607175196853e-18
6.027089341400364 2.4410374122345536e-22 3.905273890504531e-14 3.904930538230294e-14 3.433522742368904e-18
6.049734195844842 2.7565613097483843e-22 4.4266316308044905e-14 4.426281304565875e-14 3.503262386149033e-18
6.095279466722835 3.6679291833706384e-22 5.934498137766986e-14 5.934130990556904e-14 3.67147210081521e-18
6.141167624020661 5.070413355506725e-22 8.265397613775952e-14 8.265009027751394e-14 3.885860245596642e-18
6.164241091010745 5.966042208452179e-22 9.761922844517085e-14 9.761520998636838e-14 4.018458802457651e-18
6.187401249150058 6.986258317613485e-22 1.1474198357991483e-13 1.1473782831833482e-13 4.155261579987098e-18
6.1990139391386085 7.484418840909875e-22 1.231544557559477e-13 1.2315023074807685e-13 4.2250078708796486e-18
6.204828454712694 7.746827708462664e-22 1.275919013724486e-13 1.2758764106841616e-13 4.260304032434873e-18
6.210648424152782 7.938397675146028e-22 1.3086973691711388e-13 1.3086544605354336e-13 4.290863570547438e-18
6.233982942956859 8.589269490228494e-22 1.4213180511681282e-13 1.4212740558518242e-13 4.3995316303454445e-18
6.239830258556775 8.67248993704258e-22 1.436435115319671e-13 1.4363909534999398e-13 4.41618197315544e-18
6.245683058788269 8.679741233594157e-22 1.4389846221606517e-13 1.4389402933222687e-13 4.4328838382915115e-18
6.257405133728602 8.661941247192617e-22 1.4387288118703196e-13 1.4386841813811484e-13 4.463048917093547e-18
6.269149208991335 8.53403745035494e-22 1.4201446557292823e-13 1.420099869818636e-13 4.478591064653218e-18
6.280915325867298 8.213171646612256e-22 1.3693147014149277e-13 1.369269941656382e-13 4.4759758545477525e-18
6.304513850009849 7.421860654277143e-22 1.2420349946827843e-13 1.2419904522198837e-13 4.454246290064106e-18
6.32820103803542 6.44099336227167e-22 1.0819384430884936e-13 1.0818942936236613e-13 4.4149464832504984e-18
6.3519772230701035 5.541480526089226e-22 9.343383536185019e-14 9.342945415488688e-14 4.38120696332712e-18
6.375842739491607 4.784741112866606e-22 8.097770684947357e-14 8.097335372601978e-14 4.3531234537641895e-18
6.399797922933955 4.1782984867839295e-22 7.097986283981736e-14 7.097551662449563e-14 4.3462153217122e-18
6.42384311029221 3.674113294104671e-22 6.26493980638018e-14 6.264505451650973e-14 4.3435472920997035e-18
6.447978639727206 3.30676256608555e-22 5.659734200001622e-14 5.6592984393261153e-14 4.357606755065932e-18
6.472204850670314 3.0007690707396105e-22 5.155303791966609e-14 5.154866280520267e-14 4.375114463417664e-18
6.496522083828205 2.801973453196605e-22 4.8318602901168743e-14 4.831419653356113e-14 4.406367607618817e-18
