Dust emission spectrum from A.P. Jones, M. Kohler, N. Ysard, M. Bocchio, and L. Verstraete (2017), A&A, 602A, 46J 
inside the DustPedia framework.

lambda    nu*dP/dnu     j_nu    j_nu(carb.) j_nu(sil)
 (um)   (erg s-1 H-1) (Jy cm2 sr-1 H-1)
0.9927057738263894 5.433288704419491e-26 1.4317024340782874e-18 1.4317024340782874e-18 1.4153572124991468e-39
1.0001793341362166 5.522558594327539e-26 1.4661811859117274e-18 1.4661811859117274e-18 1.927602267838511e-39
1.0077091589558085 5.61168508051441e-26 1.5010595778308342e-18 1.5010595778308342e-18 2.621964877219802e-39
1.0114953028030835 5.656183514241428e-26 1.5186468547952432e-18 1.5186468547952432e-18 3.056533744617936e-39
1.0152956718711033 5.700632893712103e-26 1.5363318790908159e-18 1.5363318790908159e-18 3.562024290097214e-39
1.0229392996569957 5.789323192352685e-26 1.571980273489252e-18 1.571980273489252e-18 4.833127075090156e-39
1.0267826658714554 5.833455970200744e-26 1.5899149227698902e-18 1.5899149227698902e-18 5.6271793477162897e-39
1.0306404723013447 5.877520095044627e-26 1.6079433669815755e-18 1.6079433669815755e-18 6.54965932185691e-39
1.03451277320114 5.921511294854184e-26 1.6260648140816807e-18 1.6260648140816807e-18 7.620999173219867e-39
1.0383996230291617 5.965425321987254e-26 1.6442784623937027e-18 1.6442784623937027e-18 8.864824480832331e-39
1.0403485208654093 5.987352075281525e-26 1.6534196088926263e-18 1.6534196088926263e-18 9.559794352562373e-39
1.0423010764483396 6.009257954004949e-26 1.6625835007967043e-18 1.6625835007967043e-18 1.0308443641146656e-38
1.0462171883269815 6.053004994468788e-26 1.6809791089149868e-18 1.6809791089149868e-18 1.198341065675854e-38
1.0471985131304309 6.063927891673167e-26 1.6855920654589641e-18 1.6855920654589641e-18 1.244245390615372e-38
1.048180758391296 6.074845113782516e-26 1.6902106177660622e-18 1.6902106177660622e-18 1.2918828423220807e-38
1.0501480137395462 6.096662273719609e-26 1.6994644573079108e-18 1.6994644573079108e-18 1.3926172029721305e-38
1.0521189612883777 6.118455957381665e-26 1.7087405224751906e-18 1.7087405224751906e-18 1.5010883639075707e-38
1.0531058218030118 6.129326991093281e-26 1.7133821482909912e-18 1.7133821482909912e-18 1.5584056233926822e-38
1.0540936079674168 6.140136779066038e-26 1.7180138416219955e-18 1.7180138416219955e-18 1.6178773227794117e-38
1.058054026499678 6.183311763003827e-26 1.736594501204881e-18 1.736594501204881e-18 1.8789715119649178e-38
1.0590464539527713 6.194089149953587e-26 1.7412530702526943e-18 1.7412530702526943e-18 1.9504839184888578e-38
1.06003981227728 6.20485986688512e-26 1.7459169738851355e-18 1.7459169738851355e-18 2.0246779091558236e-38
1.0620293250338977 6.226381038841125e-26 1.7552607305000757e-18 1.7552607305000757e-18 2.1815100747998013e-38
1.0660195594769086 6.269340578942866e-26 1.774011658569008e-18 1.774011658569008e-18 2.5319554043307277e-38
1.070024785945596 6.31218638685015e-26 1.792846406590913e-18 1.792846406590913e-18 2.9377580164430286e-38
1.0740450607676866 6.35491449793802e-26 1.811764088053381e-18 1.811764088053381e-18 3.407504371367969e-38
1.07808044048254 6.397520980054654e-26 1.8307638089424684e-18 1.8307638089424684e-18 3.951086272280623e-38
1.0861967418109137 6.482277689577076e-26 1.8689839002421282e-18 1.8689839002421282e-18 5.307033081510244e-38
1.0902777775684922 6.524247851487273e-26 1.8881523980542073e-18 1.8881523980542073e-18 6.147570298332675e-38
1.0943741465085532 6.566077999375513e-26 1.907397878457251e-18 1.907397878457251e-18 7.118878676737701e-38
1.1026131145906286 6.64930333522874e-26 1.9461160406616453e-18 1.9461160406616453e-18 9.536594019099704e-38
1.1109141095355224 6.731924229853466e-26 1.9851308333931486e-18 1.9851308333931486e-18 1.2758202262851983e-37
1.1192775983109025 6.813834544134273e-26 2.0244116524008864e-18 2.0244116524008864e-18 1.7044780998518046e-37
1.1277040513999907 6.894651124934251e-26 2.063844009560131e-18 2.063844009560131e-18 2.273979477300444e-37
1.1361939428280308 6.97476758909616e-26 2.103544207670588e-18 2.103544207670588e-18 3.029511831433698e-37
1.1447477501889525 7.05415716177664e-26 2.143504319102939e-18 2.143504319102939e-18 4.030340964543348e-37
1.1533659546722406 7.132837368458763e-26 2.1837297098283807e-18 2.1837297098283807e-18 5.3541052613826186e-37
1.1707974979042381 7.288326933023239e-26 2.265056628621311e-18 2.265056628621311e-18 9.407648967373827e-37
1.1884924949847024 7.440643044508824e-26 2.347341878331816e-18 2.347341878331816e-18 1.6431855082762086e-36
1.2064549276569216 7.590989139337277e-26 2.430966111749585e-18 2.430966111749585e-18 2.8527905535342832e-36
1.2246888378427687 7.737708805686647e-26 2.5154029994891188e-18 2.5154029994891188e-18 4.92216410894311e-36
1.2431983285522175 7.880457805467454e-26 2.600526589421262e-18 2.600526589421262e-18 8.439173579544893e-36
1.2619875648066055 8.019183643713292e-26 2.686300962954937e-18 2.686300962954937e-18 1.4376852517617923e-35
1.3004222497298317 8.282244789829939e-26 2.8589192367969002e-18 2.8589192367969e-18 4.091780454000097e-35
1.3400274889804893 8.525870293267069e-26 3.0326470029652605e-18 3.0326470029652605e-18 1.1342922467106564e-34
1.3808389325824078 8.749165764416915e-26 3.206853359930102e-18 3.206853359930102e-18 3.062233902834331e-34
1.4228933163050095 8.953255282455247e-26 3.381603933995838e-18 3.3816039339958364e-18 8.051475142879317e-34
1.466228494730424 9.143149224868847e-26 3.558499394935333e-18 3.558499394935332e-18 2.062363633363769e-33
1.5108834753276823 9.315108103714824e-26 3.735840308539943e-18 3.735840308539937e-18 5.147335879483657e-33
1.5568984535646726 9.466114868455295e-26 3.9120238200473725e-18 3.91202382004736e-18 1.2521133524799888e-32
1.6043148490894465 9.596474404411951e-26 4.086681064879906e-18 4.086681064879876e-18 2.9698392381005977e-32
1.6531753430134553 9.706615135943049e-26 4.2594758726498435e-18 4.259475872649774e-18 6.871208373726134e-32
1.7035239163302658 9.797908686445823e-26 4.430482809840112e-18 4.430482809839957e-18 1.5515305290048845e-31
1.755405889504358 9.878173921942887e-26 4.602816407521857e-18 4.602816407521515e-18 3.421524791186282e-31
1.8088679632656115 9.945497611699618e-26 4.77532371717777e-18 4.775323717177033e-18 7.372235836724024e-31
1.8639582606462262 9.998591311776203e-26 4.947028737654809e-18 4.947028737653256e-18 1.5527583784583322e-30
1.9207263702978936 1.003841371872109e-25 5.117996948091176e-18 5.117996948087978e-18 3.198557847971069e-30
1.979223391128241 1.0067177883521682e-25 5.2889808007809685e-18 5.2889808007745205e-18 6.447696620379742e-30
2.039501978296691 1.0087527828138465e-25 5.461077122401262e-18 5.461077122388537e-18 1.2726397963070268e-29
2.1016163906111602 1.0106840478396875e-25 5.63817161712065e-18 5.638171617096038e-18 2.461235258813514e-29
2.1656225393682647 1.0129394197075201e-25 5.822850882839351e-18 5.8228508827926815e-18 4.6667688233971355e-29
2.231578038680979 1.0155502224415928e-25 6.015654946249012e-18 6.0156549461622176e-18 8.679459518843956e-29
2.299542257339062 1.0187728570901265e-25 6.218536581199554e-18 6.218536581041135e-18 1.5841787444669502e-28
2.369576372248914 1.0231735368781243e-25 6.435605925677082e-18 6.43560592539316e-18 2.8392154613253905e-28
2.4417434235010123 1.0294209510574993e-25 6.672098706795136e-18 6.672098706295202e-18 4.999346605938803e-28
2.5161083711144245 1.0386595781348233e-25 6.93700497650132e-18 6.9370049756359185e-18 8.654013584274519e-28
2.5927381535095444 1.0527626360448087e-25 7.245336399879704e-18 7.245336398406042e-18 1.4736626686816162e-27
2.6717017477616296 1.0739686423259458e-25 7.616387097648787e-18 7.616387095178946e-18 2.4698436421800507e-27
2.753070231689431 1.1056479489469387e-25 8.079855393115796e-18 8.07985538904014e-18 4.075656473279777e-27
2.836916847834745 1.155434351112622e-25 8.700842645546842e-18 8.700842638920477e-18 6.626363722444657e-27
2.9233170693905177 1.240139573937686e-25 9.623120453476878e-18 9.623120442855609e-18 1.062127196586525e-26
2.967498994190263 1.3121814421276647e-25 1.0336033418516276e-17 1.033603340513629e-17 1.3379985435288986e-26
3.0123486681368425 1.3963500227414827e-25 1.116526326911836e-17 1.1165263252319454e-17 1.6798903928217818e-26
3.0578761833420214 1.5848388216543397e-25 1.2863952578279632e-17 1.2863952557228972e-17 2.105065587704181e-26
3.1040917844459814 1.8278264136705705e-25 1.5060484254458418e-17 1.506048422816107e-17 2.629734729796321e-26
3.127460860933648 2.084913254047116e-25 1.7308096448511154e-17 1.730809641910245e-17 2.9408706468642596e-26
3.1510058709225794 2.427507407663339e-25 2.0303888006695902e-17 2.0303887973808975e-17 3.2886927230308223e-26
3.162844764501044 2.7463749578127957e-25 2.305723045447586e-17 2.305723041962633e-17 3.484953862085356e-26
3.1747281389236908 3.117253722998029e-25 2.6269277403318742e-17 2.626927736639721e-17 3.692153555364082e-26
3.1986289994194426 4.1518981657256505e-25 3.5251694384487343e-17 3.5251694342978166e-17 4.150916624263008e-26
3.2227097969389145 6.590776508032321e-25 5.638027857831514e-17 5.638027853095496e-17 4.736017312848944e-26
3.2348180950136065 8.903655437371175e-25 7.645178710445677e-17 7.645178705332031e-17 5.113645780618272e-26
3.240889293275058 1.0632796216620496e-24 9.147051401139176e-17 9.147051395793304e-17 5.345874574377826e-26
3.2469718861334385 1.2633100209676205e-24 1.0888245450332625e-16 1.0888245444723238e-16 5.60939104019013e-26
3.2714166318528037 2.3303533396759064e-24 2.023611161909619e-16 2.0236111612273782e-16 6.822412410146965e-26
3.2744851364798273 2.397046653349831e-24 2.083478116140297e-16 2.0834781154452637e-16 6.950331843194643e-26
3.2775565192852394 2.4656557669320867e-24 2.1451223446720524e-16 2.1451223439639975e-16 7.080549657184403e-26
3.283707930232385 2.399634276673846e-24 2.0916018229499248e-16 2.091601822226988e-16 7.229364001875431e-26
3.2898708863219004 2.1903273754921006e-24 1.9127460697097707e-16 1.9127460689808405e-16 7.28929943283974e-26
3.29141343181113 2.140968614740048e-24 1.8705192026859684e-16 1.870519201955535e-16 7.304335407637587e-26
3.292184975758714 2.1167156196866264e-24 1.8497633750391735e-16 1.8497633743079877e-16 7.31186123808257e-26
3.295272960557952 1.9636259625375958e-24 1.717590357818749e-16 1.7175903570864944e-16 7.322549828529601e-26
3.3076538914384823 1.4333128327075253e-24 1.258434110382479e-16 1.258434109647003e-16 7.354761650657394e-26
3.310756385682612 1.3253893140074147e-24 1.1647698573931795e-16 1.1647698566568976e-16 7.362817069842445e-26
3.313861789986515 1.2258162921990432e-24 1.07827419963474e-16 1.0782741988976525e-16 7.370874404661527e-26
3.3200813396944477 1.0861723879343079e-24 9.572313530426843e-17 9.572313522985975e-17 7.44086830614922e-26
3.345076488085796 8.370318837112952e-25 7.432201694236492e-17 7.432201686185086e-17 8.051407232002269e-26
3.3482140837626964 8.46366095131621e-25 7.52213129253932e-17 7.52213128437233e-17 8.166988370511659e-26
3.3513546224236106 8.558035270181187e-25 7.613141294109444e-17 7.613141285825319e-17 8.284124963806928e-26
3.3576445397418455 9.248035996175133e-25 8.242399524625585e-17 8.242399516051901e-17 8.573684675251884e-26
3.3702598118196083 1.1793333515894576e-24 1.0550411415204073e-16 1.0550411405930256e-16 9.273814178397842e-26
3.382922481734668 1.2372672636068337e-24 1.1110279933432087e-16 1.1110279923584487e-16 9.847600583336959e-26
3.389271646505754 1.2672809752352412e-24 1.140115176305509e-16 1.1401151752908197e-16 1.0146896604045494e-25
3.395632727569191 1.2996176734022706e-24 1.1714014369008024e-16 1.1714014358537833e-16 1.0470190658610645e-25
3.421196662673239 1.4548706382087033e-24 1.3212099993556772e-16 1.3212099981666104e-16 1.1890669165105314e-25
3.4276182099114902 1.4235358475347416e-24 1.2951804564479268e-16 1.295180455233607e-16 1.2143196060041149e-25
3.4340518103208963 1.2863128367475154e-24 1.172527075159313e-16 1.172527073925986e-16 1.2333272683095827e-25
3.4469541582030403 1.090891202477655e-24 9.981283247356855e-17 9.981283234733844e-17 1.2623011271411456e-25
3.472904465399547 1.0360943676251237e-24 9.551280126189663e-17 9.551280112379027e-17 1.3810634906743202e-25
3.4990501388274233 9.52303821433807e-25 8.84494477753775e-17 8.844944762481451e-17 1.505630005051807e-25
3.5253949054701885 6.542062750240665e-25 6.121980065537021e-17 6.121980049528926e-17 1.600809309585261e-25
3.5519380250092896 3.7408889142019657e-25 3.527033824167705e-17 3.5270338072613435e-17 1.69063614945431e-25
3.578680990867387 2.6302615101242913e-25 2.4985690110246827e-17 2.498568992737296e-17 1.828738697199674e-25
3.605625307711299 2.1809956580198537e-25 2.087395906186572e-17 2.087395886209943e-17 1.9976629541380352e-25
3.660119384959845 1.8531515195909808e-25 1.8004274033050526e-17 1.8004273793138298e-17 2.3991222954231355e-25
3.715437065384467 1.621089282558645e-25 1.5987710549146193e-17 1.5987710261736858e-17 2.8740932961284903e-25
3.8285932144167436 1.5032683737811778e-25 1.5277249771645865e-17 1.5277249360089402e-17 4.1155646645828227e-25
3.94519561050918 1.4808027478896808e-25 1.5507264194701268e-17 1.5507263610702394e-17 5.839988707850899e-25
4.06534921144712 1.4977007418774623e-25 1.6161897018656468e-17 1.6161896197676518e-17 8.209799486198209e-25
4.189162171576248 1.5376100365631816e-25 1.709790152169449e-17 1.7097900378118152e-17 1.1435763389896092e-24
4.316745939156006 1.5945106720566327e-25 1.8270622837044034e-17 1.827062125808189e-17 1.5789621401729673e-24
4.448215356677963 1.6664723807683739e-25 1.9676749575836286e-17 1.9676747414035867e-17 2.16180041580015e-24
4.58368876423945 1.7538924770967368e-25 2.1339661167903894e-17 2.1339658231778676e-17 2.936125217339924e-24
4.723288106065518 1.8588963580439968e-25 2.3306070004501227e-17 2.330606604676563e-17 3.95773559739765e-24
4.867139040275056 1.9855927243338238e-25 2.5652716336754108e-17 2.5652711039366074e-17 5.297388037949505e-24
4.940699165968905 2.0620428586981423e-25 2.704304131659924e-17 2.7043035201985545e-17 6.1146136901912486e-24
5.015371051989984 2.1415008792395637e-25 2.850957603824229e-17 2.850956899302791e-17 7.04521438245802e-24
5.091171501069577 2.238150247413858e-25 3.024658846812326e-17 3.024658035888215e-17 8.109241120087091e-24
5.129500256944802 2.287878883596211e-25 3.1151396375370915e-17 3.1151387681129947e-17 8.69424096383229e-24
5.168117569889187 2.3397581821844487e-25 3.2097617150913196e-17 3.209760783287731e-17 9.318035882207304e-24
5.20702561229733 2.403064946855458e-25 3.321426569396585e-17 3.32142557053416e-17 9.988624248491289e-24
5.246226572918644 2.4680635966611756e-25 3.436946898559291e-17 3.4369458282811584e-17 1.0702781318906922e-23
5.265937586045735 2.5012147042502555e-25 3.4961987531216426e-17 3.496197645423628e-17 1.1076980157666632e-23
5.285722656980489 2.534809864073269e-25 3.5564703584781554e-17 3.5564692121756226e-17 1.1463025326134308e-23
5.305582063971359 2.5688564108232527e-25 3.617781211430108e-17 3.6177800253049555e-17 1.1861251533547225e-23
5.3255160863122235 2.605372738267832e-25 3.682993890506941e-17 3.682992663144606e-17 1.2273623352451138e-23
5.365609099470188 2.695771397822514e-25 3.839472170246727e-17 3.8394708551782374e-17 1.3150684901542405e-23
5.406003951863644 2.7896652416188094e-25 4.003113309887205e-17 4.0031119014528113e-17 1.4084343940721265e-23
5.446702915881641 2.88722219075417e-25 4.174296828060989e-17 4.174295320276025e-17 1.507784963595683e-23
5.487708281020852 2.992558103869705e-25 4.35916232414048e-17 4.35916071024349e-17 1.613896990165589e-23
5.529022354014368 3.1378662389660762e-25 4.605239334134702e-17 4.6052376034093745e-17 1.7307253280639217e-23
5.570647458961463 3.2917331681708215e-25 4.8674301890789414e-17 4.867428333877824e-17 1.8552011186072632e-23
5.612585937458331 3.454769648471717e-25 5.146968760754601e-17 5.146966772984649e-17 1.9877699508647592e-23
5.654840148729818 3.6338181763170767e-25 5.4544750401953476e-17 5.454472910427902e-17 2.129767445338043e-23
5.67608639626678 3.7551162469618635e-25 5.657724766006522e-17 5.657722557983752e-17 2.2080227699970212e-23
5.686739436050992 3.817629628547489e-25 5.762707216577822e-17 5.762704968451213e-17 2.2481266077626627e-23
5.6974124697621304 3.8814253421683163e-25 5.870003117539032e-17 5.87000082864488e-17 2.2888941520407044e-23
5.718818669136295 4.012986604868243e-25 6.091769601450782e-17 6.091767228990892e-17 2.3724598899136276e-23
5.740305295436557 4.157846989467935e-25 6.335383758195956e-17 6.335381298082468e-17 2.460113488077962e-23
5.7835210386641895 4.532520332601488e-25 6.958273800930548e-17 6.958271145856004e-17 2.6550745439297243e-23
5.827062130521658 4.9637185680608695e-25 7.677613258336797e-17 7.677610391330637e-17 2.8670061604682817e-23
5.8489554468988025 5.265352304640706e-25 8.17476320370343e-17 8.174760212046612e-17 2.9916568182273023e-23
5.870931020387893 5.588935124026859e-25 8.709745783150105e-17 8.709742661829274e-17 3.121320832220412e-23
5.892989160043636 5.936230351594439e-25 9.285725056743521e-17 9.285721800560966e-17 3.2561825534523574e-23
5.915130176081913 6.33093235420306e-25 9.940343973642022e-17 9.940340572439275e-17 3.401202749573562e-23
5.95966208400165 7.432667713117098e-25 1.1758063094474679e-16 1.175805933982175e-16 3.754652928920996e-23
6.004529249263818 9.018623164186647e-25 1.4374364005869192e-16 1.4374359803247247e-16 4.202621946766925e-23
6.027089341400364 1.012011725098731e-24 1.6190587440831764e-16 1.6190582952432473e-16 4.488399290063681e-23
6.049734195844842 1.1421347150288781e-24 1.834100202417842e-16 1.8340997215511303e-16 4.808667113136212e-23
6.095279466722835 1.517779354735536e-24 2.455679568475749e-16 2.45567900065934e-16 5.678164090568386e-23
6.141167624020661 2.0955974886309093e-24 3.416081740782214e-16 3.4160810464689185e-16 6.94313295420288e-23
6.164241091010745 2.464543967416662e-24 4.0326043994052195e-16 4.0326036218288477e-16 7.775763709593294e-23
6.187401249150058 2.8847617657161466e-24 4.737919385535108e-16 4.737918515957484e-16 8.695776237400303e-23
6.1990139391386085 3.0899614090538806e-24 5.084463119018199e-16 5.08446220205207e-16 9.169661282283653e-23
6.204828454712694 3.198046099172109e-24 5.267249999949811e-16 5.267249058330626e-16 9.416191849490629e-23
6.210648424152782 3.2769784359373188e-24 5.402315723447093e-16 5.402314761332235e-16 9.62114858170844e-23
6.233982942956859 3.54521255884069e-24 5.866476317736512e-16 5.866475282783076e-16 1.0349534382952001e-22
6.239830258556775 3.579551395544863e-24 5.928854756798469e-16 5.92885371176488e-16 1.0450335868081277e-22
6.245683058788269 3.582622219744597e-24 5.939506884456721e-16 5.939505829252665e-16 1.0552040565657989e-22
6.257405133728602 3.575469556872611e-24 5.938773908337313e-16 5.938772835340098e-16 1.0729972146259653e-22
6.269149208991335 3.5230017349122624e-24 5.862608542633655e-16 5.862607463894601e-16 1.0787390540065617e-22
6.280915325867298 3.3911116311643015e-24 5.653722106986246e-16 5.653721037493221e-16 1.069493025694728e-22
6.304513850009849 3.0657573130904443e-24 5.130489570521125e-16 5.13048853348338e-16 1.0370377440619476e-22
6.32820103803542 2.6623916556178116e-24 4.472204395744005e-16 4.472203408634142e-16 9.87109862725455e-23
6.3519772230701035 2.2925107560487767e-24 3.865358211356875e-16 3.865357271500555e-16 9.398563209535186e-23
6.375842739491607 1.9813671214681815e-24 3.353296701716634e-16 3.353295803375798e-16 8.983408358529489e-23
6.399797922933955 1.7321252893976978e-24 2.942490007636102e-16 2.9424891373237315e-16 8.703123701205217e-23
6.42384311029221 1.5249550268811992e-24 2.6002876574810947e-16 2.60028681087932e-16 8.466017749919967e-23
6.447978639727206 1.3741305235672967e-24 2.3519116852427674e-16 2.351910849734724e-16 8.355080432408582e-23
6.472204850670314 1.2485554661500245e-24 2.145011021303744e-16 2.145010193734091e-16 8.275696527151768e-23
6.496522083828205 1.1671264344008776e-24 2.0126500004822134e-16 2.0126491698420262e-16 8.306401875290787e-23
6.520930681187647 1.0986085235727476e-24 1.9016123131027966e-16 1.901611477355903e-16 8.357468925429442e-23
6.57002334288761 1.0290412316433082e-24 1.7946060274696785e-16 1.7946051642439231e-16 8.632257556942869e-23
