Dust emission spectrum from A.P. Jones, M. Kohler, N. Ysard, M. Bocchio, and L. Verstraete (2017), A&A, 602A, 46J 
inside the DustPedia framework.

lambda    nu*dP/dnu     j_nu    j_nu(carb.) j_nu(sil)
 (um)   (erg s-1 H-1) (Jy cm2 sr-1 H-1)
0.9927057738263894 7.328201614778392e-25 1.931022748848321e-17 1.9310227487921984e-17 5.612213677538901e-28
1.0001793341362166 7.448661204750734e-25 1.9775411581605735e-17 1.9775411580929672e-17 6.760636846753932e-28
1.0077091589558085 7.568934284673055e-25 2.0246006571949663e-17 2.0246006571136305e-17 8.133598192316998e-28
1.0114953028030835 7.628986090997838e-25 2.0483309466885872e-17 2.0483309465994166e-17 8.91703085383176e-28
1.0152956718711033 7.68897356809816e-25 2.0721936371636207e-17 2.0721936370658926e-17 9.772767061696431e-28
1.0229392996569957 7.808672996370808e-25 2.1202961908635006e-17 2.1202961907462277e-17 1.1727249944931442e-27
1.0267826658714554 7.868239148828922e-25 2.1444973447215144e-17 2.1444973445931066e-17 1.2840733453498648e-27
1.0306404723013447 7.927714679539468e-25 2.1688256319251542e-17 2.1688256317846e-17 1.4055387024207318e-27
1.03451277320114 7.987093862590715e-25 2.1932800006668433e-17 2.193280000513044e-17 1.5379954077402728e-27
1.0383996230291617 8.046371005062568e-25 2.217859386369135e-17 2.2178593862008965e-17 1.682389185650517e-27
1.0403485208654093 8.075969541335196e-25 2.2301956244714985e-17 2.23019562429556e-17 1.7593788700638032e-27
1.0423010764483396 8.105540448123165e-25 2.2425627119415877e-17 2.242562711757613e-17 1.8397426025478587e-27
1.0462171883269815 8.164596568101281e-25 2.2673888880380342e-17 2.2673888878369187e-17 2.0111609136869698e-27
1.0471985131304309 8.179342235773072e-25 2.2736144986526775e-17 2.2736144984470415e-17 2.0563510286868635e-27
1.048180758391296 8.1940803844098145e-25 2.2798477013242773e-17 2.2798477011140252e-17 2.102513938505921e-27
1.0501480137395462 8.223533777534385e-25 2.2923368133141074e-17 2.292336813094324e-17 2.19783832210097e-27
1.0521189612883777 8.252956054867751e-25 2.3048560845070453e-17 2.3048560842773148e-17 2.2972983366736368e-27
1.0531058218030118 8.267632597627161e-25 2.3111206372229054e-17 2.311120636988041e-17 2.3486356109785533e-27
1.0540936079674168 8.28222669322112e-25 2.3173718453499004e-17 2.317371845109792e-17 2.4010825770788108e-27
1.058054026499678 8.340517926779006e-25 2.3424498268883737e-17 2.342449826626141e-17 2.6223158477584465e-27
1.0590464539527713 8.355069023193399e-25 2.348737520014174e-17 2.348737519746113e-17 2.6806030125459424e-27
1.06003981227728 8.369611265469202e-25 2.355032456283106e-17 2.3550324560090923e-17 2.740130303693155e-27
1.0620293250338977 8.398668850200578e-25 2.3676439860119924e-17 2.3676439857256914e-17 2.863006191299483e-27
1.0660195594769086 8.456674067716245e-25 2.3929531662764584e-17 2.39295316596398e-17 3.1247770766424463e-27
1.070024785945596 8.514528225682338e-25 2.4183762008410847e-17 2.418376200500147e-17 3.409379573602085e-27
1.0740450607676866 8.572226013467136e-25 2.443911912727709e-17 2.4439119123558383e-17 3.718701716903671e-27
1.07808044048254 8.629762164312404e-25 2.4695591150791668e-17 2.469559114673688e-17 4.0547785043743215e-27
1.0861967418109137 8.744226486847576e-25 2.521153721980578e-17 2.521153721498964e-17 4.816136204544e-27
1.0902777775684922 8.800911905383841e-25 2.547031213019626e-17 2.5470312124949943e-17 5.2463232481626486e-27
1.0943741465085532 8.857411035928725e-25 2.573013451890323e-17 2.573013451319013e-17 5.713099318982729e-27
1.1026131145906286 8.96983046037077e-25 2.625287200909819e-17 2.6252872002329773e-17 6.768420632406894e-27
1.1109141095355224 9.08144531249829e-25 2.6779649452481212e-17 2.6779649444472782e-17 8.008425360014922e-27
1.1192775983109025 9.192112741840079e-25 2.731005577583778e-17 2.7310055766374255e-17 9.463526456996335e-27
1.1277040513999907 9.301316292777494e-25 2.784254861344553e-17 2.784254860227672e-17 1.1168812076995468e-26
1.1361939428280308 9.40958710951177e-25 2.837869822605844e-17 2.8378698212893734e-17 1.316470474496658e-26
1.1447477501889525 9.516889379455347e-25 2.891839949331334e-17 2.8918399477815633e-17 1.549771510850408e-26
1.1533659546722406 9.62324698992278e-25 2.9461726479054243e-17 2.9461726460832925e-17 1.8221312732964138e-26
1.1707974979042381 9.833475982055262e-25 3.056034692217573e-17 3.0560346897080854e-17 2.5094881884516118e-26
1.1884924949847024 1.0039476977079214e-24 3.167210764429541e-17 3.1672107609904707e-17 3.4390708141199055e-26
1.2064549276569216 1.0242875154004716e-24 3.2802157833730155e-17 3.2802157786829675e-17 4.690048676920275e-26
1.2246888378427687 1.044143950366996e-24 3.3943417755929463e-17 3.394341769227802e-17 6.365143785598519e-26
1.2431983285522175 1.0634707725075617e-24 3.5094205048081406e-17 3.5094204962109595e-17 8.597181813839225e-26
1.2619875648066055 1.0822612251092285e-24 3.625405652679992e-17 3.625405641122956e-17 1.1557035792621825e-25
1.3004222497298317 1.1179209973976228e-24 3.8589125602804917e-17 3.858912539686423e-17 2.059406929654018e-25
1.3400274889804893 1.1509875996917504e-24 4.094056060660301e-17 4.0940560246277195e-17 3.6032581072474205e-25
1.3808389325824078 1.1813427824947978e-24 4.330004909359599e-17 4.330004847428884e-17 6.193071469800043e-25
1.4228933163050095 1.209140769522434e-24 4.566869874674832e-17 4.5668697700615154e-17 1.0461331692899013e-24
1.466228494730424 1.2350604477210517e-24 4.8068359684755834e-17 4.8068357947139264e-17 1.737616573377165e-24
1.5108834753276823 1.258600674632302e-24 5.0476398988561495e-17 5.047639614934897e-17 2.8392125207099076e-24
1.5568984535646726 1.279357831737879e-24 5.287151467811683e-17 5.28715101096581e-17 4.568458729198892e-24
1.6043148490894465 1.2973768099584572e-24 5.524909482209383e-17 5.524908757000194e-17 7.252091908572302e-24
1.6531753430134553 1.3127196508686571e-24 5.760502092766993e-17 5.760500958320977e-17 1.1344460193443019e-23
1.7035239163302658 1.3255758347637425e-24 5.994076018676001e-17 5.994074269486254e-17 1.7491897472440996e-23
1.755405889504358 1.337006058430953e-24 6.229889725905657e-17 6.229887066153633e-17 2.659752024415252e-23
1.8088679632656115 1.3467574519052934e-24 6.466446479061796e-17 6.466442489253735e-17 3.989808060285492e-23
1.8639582606462262 1.3546611854164727e-24 6.702491986193925e-17 6.702486079513061e-17 5.906680865789946e-23
1.9207263702978936 1.3608522166486978e-24 6.938185341596458e-17 6.938176708204053e-17 8.633392403439156e-23
1.979223391128241 1.3656351165988215e-24 7.174620331668136e-17 7.174607868297934e-17 1.246337020112082e-22
2.039501978296691 1.369372409744028e-24 7.413360801881051e-17 7.413343024696205e-17 1.7777184848083856e-22
2.1016163906111602 1.3730671391130443e-24 7.659751025749018e-17 7.659725962007521e-17 2.506374149816754e-22
2.1656225393682647 1.3773034174153132e-24 7.917386039088189e-17 7.917351097980711e-17 3.4941107475712515e-22
2.231578038680979 1.3821279469012472e-24 8.18709369206373e-17 8.187045511317805e-17 4.818074592405747e-22
2.299542257339062 1.3878920187680598e-24 8.471620763548233e-17 8.471555029155386e-17 6.573439284812515e-22
2.369576372248914 1.3953646574053975e-24 8.776631464764132e-17 8.776542700482801e-17 8.876428132968515e-22
2.4417434235010123 1.4054527750621727e-24 9.109314934110157e-17 9.109196263002922e-17 1.1867110723605723e-21
2.5161083711144245 1.4197059403433513e-24 9.481939396366814e-17 9.481782266994062e-17 1.5712937274690977e-21
2.5927381535095444 1.4406568894351343e-24 9.914907162717325e-17 9.914701044447195e-17 2.0611827012996495e-21
2.6717017477616296 1.4713255498663736e-24 1.043436883797043e-16 1.0434100897405472e-16 2.679405649579896e-21
2.753070231689431 1.5162549536058847e-24 1.1080489748929112e-16 1.1080144498260143e-16 3.452506689664517e-21
2.836916847834745 1.5857375063551753e-24 1.194118255758295e-16 1.1940741464780905e-16 4.410928020426092e-21
2.9233170693905177 1.7024369767323895e-24 1.321041311465478e-16 1.3209854285028662e-16 5.588296261159502e-21
2.967498994190263 1.800865643225048e-24 1.4185391496202038e-16 1.4184765415073952e-16 6.260811280889404e-21
3.0123486681368425 1.9156735196601084e-24 1.5317791983624733e-16 1.5317091487329567e-16 7.004962951659917e-21
3.0578761833420214 2.171189016211495e-24 1.762328898144442e-16 1.7622506050435594e-16 7.829310088308055e-21
3.1040917844459814 2.500160862349246e-24 2.0600223861197748e-16 2.0599350413433274e-16 8.73447764467677e-21
3.127460860933648 2.847498329323729e-24 2.363876560583068e-16 2.3637843370369874e-16 9.222354608053978e-21
3.1510058709225794 3.3100922611954596e-24 2.768590627199609e-16 2.7684932944019676e-16 9.733279764221254e-21
3.162844764501044 3.7404305804060094e-24 3.140283872966665e-16 3.1401838868997214e-16 9.998606694325422e-21
3.1747281389236908 4.240821944040371e-24 3.573765178117598e-16 3.5736624783533724e-16 1.0269976422481928e-20
3.1986289994194426 5.636323617715828e-24 4.785520976019898e-16 4.785412649852867e-16 1.083261670315638e-20
3.2227097969389145 8.924986689298363e-24 7.634809574215476e-16 7.634695260701755e-16 1.1431351372097736e-20
3.2348180950136065 1.2043372550621124e-23 1.034111619363827e-15 1.0340998678216275e-15 1.1751542199481491e-20
3.240889293275058 1.4374693941179666e-23 1.2366085240125626e-15 1.2365966035526633e-15 1.192045989927631e-20
3.2469718861334385 1.7071685339955545e-23 1.4713783406064303e-15 1.471366245343387e-15 1.2095263042987352e-20
3.2714166318528037 3.1456598816302553e-23 2.731599684760067e-15 2.7315868650289785e-15 1.2819731088659733e-20
3.2744851364798273 3.2355820151424646e-23 2.8123208666404755e-15 2.812307960962159e-15 1.2905678315672187e-20
3.2775565192852394 3.328085816519821e-23 2.895437127010536e-15 2.8954241349002667e-15 1.2992110269999127e-20
3.283707930232385 3.2391243010112474e-23 2.823329520924895e-15 2.8233163731076495e-15 1.3147817245268839e-20
3.2898708863219004 2.957002681328004e-23 2.5822602228859335e-15 2.582246932312332e-15 1.32905736013802e-20
3.29141343181113 2.890471043130035e-23 2.5253436943254496e-15 2.5253303678757194e-15 1.3326449730189995e-20
3.292184975758714 2.857779702022618e-23 2.497367231368762e-15 2.4973538869528444e-15 1.3344415916983322e-20
3.295272960557952 2.651440108509512e-23 2.3192237481035247e-15 2.319210333604482e-15 1.3414499042891393e-20
3.3076538914384823 1.9366027346168495e-23 1.7003175328432516e-15 1.7003038362909608e-15 1.3696552291206854e-20
3.310756385682612 1.7911102670991548e-23 1.5740516603960424e-15 1.5740378926313071e-15 1.3767764734865723e-20
3.313861789986515 1.656868710044766e-23 1.4574441485178675e-15 1.4574303092597714e-15 1.383925809597141e-20
3.3200813396944477 1.4686158429521246e-23 1.2942744135878443e-15 1.2942604210299752e-15 1.3992557868658006e-20
3.345076488085796 1.1328472988556344e-23 1.0058815891856887e-15 1.0058669145713356e-15 1.4674614352943364e-20
3.3482140837626964 1.1454479491681685e-23 1.018023986543664e-15 1.0180092195673178e-15 1.4766976345959023e-20
3.3513546224236106 1.1581877378759138e-23 1.0303120535477353e-15 1.0302971937303443e-15 1.4859817390855375e-20
3.3576445397418455 1.251253116090251e-23 1.115191170699814e-15 1.1151761169496603e-15 1.505375015374732e-20
3.3702598118196083 1.5944733318400812e-23 1.4264287208372073e-15 1.4264132601426768e-15 1.5460694530376766e-20
3.382922481734668 1.6726673893325012e-23 1.5020039305681087e-15 1.5019880722329435e-15 1.5858335165211248e-20
3.389271646505754 1.7131757714569483e-23 1.5412664869796501e-15 1.5412504266664411e-15 1.6060313209791202e-20
3.395632727569191 1.7568284681649192e-23 1.5835052370510694e-15 1.5834889685591105e-15 1.6268491959275915e-20
3.421196662673239 1.9664314490713038e-23 1.785773130152197e-15 1.7857559974356656e-15 1.7132716531790036e-20
3.4276182099114902 1.9242220451582566e-23 1.7507214806506033e-15 1.7507041527766329e-15 1.7327873970125046e-20
3.4340518103208963 1.7392134526235718e-23 1.5853646208171423e-15 1.5853471072472927e-15 1.7513569849827637e-20
3.4469541582030403 1.4757241386234983e-23 1.3502373645610692e-15 1.3502194922897745e-15 1.787227129493293e-20
3.472904465399547 1.401920469768428e-23 1.2923663654392565e-15 1.2923476698737827e-15 1.869556547359711e-20
3.4990501388274233 1.2890259601522057e-23 1.1972401220854835e-15 1.1972205785466534e-15 1.9543538829992655e-20
3.5253949054701885 8.871583153638466e-24 8.301915968985585e-16 8.301712209816956e-16 2.0375916862738212e-20
3.5519380250092896 5.094435359460649e-24 4.803202190698248e-16 4.802989994516044e-16 2.1219618220373113e-20
3.578680990867387 3.597262291369133e-24 3.417153789137049e-16 3.416932330888221e-16 2.214582488280085e-20
3.605625307711299 2.9921574803330588e-24 2.8637458548557546e-16 2.8635145956612437e-16 2.312591945107571e-20
3.660119384959845 2.5516802832283604e-24 2.479082286488657e-16 2.4788302340856665e-16 2.5205240299034974e-20
3.715437065384467 2.2401888791268904e-24 2.2093472432540923e-16 2.2090729709169466e-16 2.7427233714640565e-20
3.8285932144167436 2.0843266133710205e-24 2.1182364262785322e-16 2.1179133291259693e-16 3.230971525623013e-20
3.94519561050918 2.0568518948576253e-24 2.1539766716657498e-16 2.1535986727138652e-16 3.77998951884134e-20
4.06534921144712 2.0821409414568277e-24 2.2468672501269904e-16 2.246427867025604e-16 4.3938310138620825e-20
4.189162171576248 2.1380099949837842e-24 2.3774223292883133e-16 2.3769144660716206e-16 5.078632166929295e-20
4.316745939156006 2.2161746360763087e-24 2.5393929075775683e-16 2.538809118562036e-16 5.837890155323803e-20
4.448215356677963 2.3138361841528827e-24 2.732044987993894e-16 2.7313781482785994e-16 6.668397152944343e-20
4.58368876423945 2.4312988888974263e-24 2.9581684832160126e-16 2.957410720302771e-16 7.577629132407064e-20
4.723288106065518 2.571164666522977e-24 3.2236194046955187e-16 3.2227616061760875e-16 8.577985194302431e-20
4.867139040275056 2.738667258621293e-24 3.53820063224389e-16 3.53723502054481e-16 9.656116990798702e-20
4.940699165968905 2.839397012428618e-24 3.723779571187664e-16 3.722756612391882e-16 1.0229587957828647e-19
5.015371051989984 2.9436106447986148e-24 3.9187979009686665e-16 3.9177153049741987e-16 1.0825959944666224e-19
5.091171501069577 3.0704811323869886e-24 4.14947921024327e-16 4.14833354209147e-16 1.1456681518003475e-19
5.129500256944802 3.1355518074516117e-24 4.2693176596788273e-16 4.2681395488569603e-16 1.178110821866966e-19
5.168117569889187 3.2033504739173946e-24 4.3944676802455706e-16 4.3932562929788247e-16 1.2113872667462574e-19
5.20702561229733 3.286454583512028e-24 4.542414713791173e-16 4.541167467445678e-16 1.247246345495021e-19
5.246226572918644 3.3716401197416565e-24 4.695238837556998e-16 4.693954984614665e-16 1.283852942331869e-19
5.265937586045735 3.415034027890419e-24 4.773535710424906e-16 4.772233271330225e-16 1.302439094682632e-19
5.285722656980489 3.458973380931376e-24 4.853119941816599e-16 4.851798726642843e-16 1.3212151737558435e-19
5.305582063971359 3.503466926390126e-24 4.93401529480546e-16 4.932675112603893e-16 1.3401822015672859e-19
5.3255160863122235 3.551253445487916e-24 5.020105012716679e-16 5.018745568142321e-16 1.3594445743563234e-19
5.365609099470188 3.670208262197642e-24 5.227321015832378e-16 5.225921655572805e-16 1.399360259572614e-19
5.406003951863644 3.79363711875694e-24 5.443792687528913e-16 5.442352570060122e-16 1.4401174687911272e-19
5.446702915881641 3.921756053463075e-24 5.670008323856693e-16 5.668526597338536e-16 1.4817265181563737e-19
5.487708281020852 4.060141412601359e-24 5.914276302140248e-16 5.912751978397753e-16 1.5243237424945156e-19
5.529022354014368 4.2524713268128596e-24 6.241071712467692e-16 6.239502801778863e-16 1.5689106888299805e-19
5.570647458961463 4.45605659432539e-24 6.589095556465268e-16 6.587481101832535e-16 1.614454632732387e-19
5.612585937458331 4.671707692080279e-24 6.959981705625722e-16 6.958320736840879e-16 1.6609687848449524e-19
5.654840148729818 4.9086927143654046e-24 7.368101702224135e-16 7.366393072436894e-16 1.7086297872426396e-19
5.67608639626678 5.070144661579829e-24 7.639039947768434e-16 7.637306399867321e-16 1.733547901111414e-19
5.686739436050992 5.1533534202681366e-24 7.778980633030722e-16 7.777234523489287e-16 1.7461095414347176e-19
5.6974124697621304 5.238270182550449e-24 7.922002767392013e-16 7.920244027472305e-16 1.7587399197087456e-19
5.718818669136295 5.413392255018749e-24 8.217604898019598e-16 8.215820690075757e-16 1.7842079438411233e-19
5.740305295436557 5.606429937221632e-24 8.542614784937705e-16 8.540804685703267e-16 1.81009923443848e-19
5.7835210386641895 6.107327876268057e-24 9.375900478473427e-16 9.374036605844291e-16 1.8638726291353425e-19
5.827062130521658 6.684204901688738e-24 1.0338769104448542e-15 1.0336849886199754e-15 1.9192182487870302e-19
5.8489554468988025 7.08907800820333e-24 1.1006202566648244e-15 1.1004253666300194e-15 1.9489003480508258e-19
5.870931020387893 7.523459894913235e-24 1.1724491632174573e-15 1.1722512685785705e-15 1.978946388869269e-19
5.892989160043636 7.989723993206818e-24 1.2497894435693237e-15 1.2495885075815833e-15 2.0093598774047623e-19
5.915130176081913 8.519996851688263e-24 1.3377444998903236e-15 1.3375404146440673e-15 2.0408524625638377e-19
5.95966208400165 1.0003037706019995e-23 1.582424413730001e-15 1.5822132947883941e-15 2.1111894160654737e-19
6.004529249263818 1.2140684688461486e-23 1.935047266254934e-15 1.9348282977526318e-15 2.1896850230266305e-19
6.027089341400364 1.3626797376643558e-23 2.1800721176774937e-15 2.1798486859076964e-15 2.234317697975957e-19
6.049734195844842 1.5382780367260274e-23 2.4702480551629067e-15 2.4700199061535066e-15 2.2814900939987566e-19
6.095279466722835 2.0455566254284256e-23 3.3095927913053306e-15 3.3093533070209774e-15 2.394842843529206e-19
6.141167624020661 2.826222447576242e-23 4.6070903171684655e-15 4.606836440118192e-15 2.538770502741532e-19
6.164241091010745 3.3248141034126306e-23 5.440219431215999e-15 5.439956679332211e-15 2.6275188378571585e-19
6.187401249150058 3.892692252119291e-23 6.393339755964124e-15 6.393067840821218e-15 2.719151429058005e-19
6.1990139391386085 4.1699882142000025e-23 6.861623326335454e-15 6.86134673743915e-15 2.7658889630530667e-19
6.204828454712694 4.3160492080264144e-23 7.108624918398042e-15 7.108345963559972e-15 2.789548380720707e-19
6.210648424152782 4.422681905422481e-23 7.29108368106632e-15 7.290802670597506e-15 2.810104688114225e-19
6.233982942956859 4.7849535790598893e-23 7.91795030259138e-15 7.91766195278776e-15 2.883498036210565e-19
6.239830258556775 4.831260496471602e-23 8.002075849920334e-15 8.001786353892159e-15 2.894960281775603e-19
6.245683058788269 4.835274543653039e-23 8.016236342751463e-15 8.015945696625071e-15 2.9064612639003203e-19
6.257405133728602 4.825318997172132e-23 8.014745505168124e-15 8.014452770100712e-15 2.9273506741157296e-19
6.269149208991335 4.754066378568003e-23 7.911216701099445e-15 7.910922835376533e-15 2.9386572291387615e-19
6.280915325867298 4.575385465515902e-23 7.62816467515973e-15 7.627870869868602e-15 2.9380529112699647e-19
6.304513850009849 4.1347398669596685e-23 6.9194125946226394e-15 6.919119992914548e-15 2.9260170809245654e-19
6.32820103803542 3.588569310871781e-23 6.027969405871904e-15 6.027679159655462e-15 2.9024621643971518e-19
6.3519772230701035 3.087681550165798e-23 5.206080365162117e-15 5.2057921078106106e-15 2.882573515078787e-19
6.375842739491607 2.6662394937771536e-23 4.51238541489704e-15 4.5120987754514354e-15 2.866394456055138e-19
6.399797922933955 2.328506255267496e-23 3.955606693569629e-15 3.955320273252078e-15 2.864203175494662e-19
6.42384311029221 2.0476664637558912e-23 3.4915926951839264e-15 3.491306213399476e-15 2.8648178445080487e-19
6.447978639727206 1.843023985374813e-23 3.154452632441968e-15 3.1541649816299557e-15 2.876508120117625e-19
6.472204850670314 1.6725206897072626e-23 2.8733808068960394e-15 2.873091756139611e-15 2.89050756428291e-19
6.496522083828205 1.5617109267614412e-23 2.6930908296263414e-15 2.6927994659599605e-15 2.91363666380729e-19
6.520930681187647 1.4683514497692136e-23 2.5416107165844155e-15 2.5413168818514556e-15 2.938347329607252e-19
