Dust emission spectrum from A.P. Jones, M. Kohler, N. Ysard, M. Bocchio, and L. Verstraete (2017), A&A, 602A, 46J 
inside the DustPedia framework.

lambda    nu*dP/dnu     j_nu    j_nu(carb.) j_nu(sil)
 (um)   (erg s-1 H-1) (Jy cm2 sr-1 H-1)
0.9927057738263894 5.776734773098456e-24 1.5222024239099206e-16 1.5222024239099206e-16 4.460969038360327e-37
1.0001793341362166 5.8714298001405345e-24 1.558802819441292e-16 1.558802819441292e-16 5.917972066890177e-37
1.0077091589558085 5.965970045273697e-24 1.595826627656916e-16 1.595826627656916e-16 7.83604800703475e-37
1.0114953028030835 6.013170491836503e-24 1.6144954334989931e-16 1.6144954334989931e-16 9.010627052503269e-37
1.0152956718711033 6.060318323169559e-24 1.6332678162092158e-16 1.6332678162092158e-16 1.0356472243903168e-36
1.0229392996569957 6.154391156330809e-24 1.6711075149282086e-16 1.6711075149282086e-16 1.3662391325306533e-36
1.0267826658714554 6.201201325863335e-24 1.690144329100209e-16 1.690144329100209e-16 1.568144633378338e-36
1.0306404723013447 6.2479382138542646e-24 1.7092805546930928e-16 1.7092805546930928e-16 1.799075586689894e-36
1.03451277320114 6.294597320613437e-24 1.7285153590362916e-16 1.7285153590362916e-16 2.0630884145732742e-36
1.0383996230291617 6.341174172812527e-24 1.747847899497202e-16 1.747847899497202e-16 2.364790317891876e-36
1.0403485208654093 6.364430362955224e-24 1.7575505547745806e-16 1.7575505547745806e-16 2.531382711237678e-36
1.0423010764483396 6.387664324336711e-24 1.767277323682217e-16 1.767277323682217e-16 2.709411891724776e-36
1.0462171883269815 6.434063357117259e-24 1.7868027696380106e-16 1.7868027696380106e-16 3.102889031549589e-36
1.0471985131304309 6.445648363002688e-24 1.7916990326245586e-16 1.7916990326245586e-16 3.209662125413413e-36
1.048180758391296 6.457227331201541e-24 1.7966012288550986e-16 1.7966012288550986e-16 3.320018753787765e-36
1.0501480137395462 6.4803668819445205e-24 1.8064233660528507e-16 1.8064233660528507e-16 3.551955282990108e-36
1.0521189612883777 6.5034814653344695e-24 1.816269070888097e-16 1.816269070888097e-16 3.799682017192597e-36
1.0531058218030118 6.515011311044443e-24 1.8211957189554928e-16 1.8211957189554928e-16 3.9297896270630196e-36
1.0540936079674168 6.5264760220228425e-24 1.826111786479588e-16 1.826111786479588e-16 4.0642368224493335e-36
1.058054026499678 6.572266664574378e-24 1.8458332019486344e-16 1.8458332019486344e-16 4.648371116597082e-36
1.0590464539527713 6.5836969413106306e-24 1.8507777713784286e-16 1.8507777713784286e-16 4.8067559995602347e-36
1.06003981227728 6.595120131506547e-24 1.8557279986065525e-16 1.8557279986065525e-16 4.970404478431104e-36
1.0620293250338977 6.617944987345014e-24 1.865645369345813e-16 1.865645369345813e-16 5.314179643871485e-36
1.0660195594769086 6.663506753560353e-24 1.885547374387924e-16 1.885547374387924e-16 6.072765477539992e-36
1.070024785945596 6.70894775989637e-24 1.905538294685642e-16 1.905538294685642e-16 6.936698391434183e-36
1.0740450607676866 6.75426383716328e-24 1.9256171999451197e-16 1.9256171999451197e-16 7.920203022160727e-36
1.07808044048254 6.799450850969542e-24 1.9457831521690081e-16 1.9457831521690081e-16 9.039370459929378e-36
1.0861967418109137 6.889340750809496e-24 1.986349175884355e-16 1.986349175884355e-16 1.17598252202398e-35
1.0902777775684922 6.93385233218099e-24 2.0066941365167154e-16 2.0066941365167154e-16 1.340485669469213e-35
1.0943741465085532 6.978215499226501e-24 2.0271208231014077e-16 2.0271208231014077e-16 1.527377700704038e-35
1.1026131145906286 7.066480919396352e-24 2.068215446783134e-16 2.068215446783134e-16 1.980561641114683e-35
1.1109141095355224 7.154106062803875e-24 2.1096251303092826e-16 2.1096251303092826e-16 2.5641032349204045e-35
1.1192775983109025 7.240978484999817e-24 2.151317459335257e-16 2.151317459335257e-16 3.31432858212235e-35
1.1277040513999907 7.326691307421862e-24 2.1931708640099023e-16 2.1931708640099023e-16 4.277326615979094e-35
1.1361939428280308 7.411663316785856e-24 2.235309096693475e-16 2.235309096693475e-16 5.511631151322359e-35
1.1447477501889525 7.495866433072674e-24 2.277723859311255e-16 2.277723859311255e-16 7.091317571044217e-35
1.1533659546722406 7.57931972621197e-24 2.320421006597786e-16 2.320421006597786e-16 9.110068453757304e-35
1.1707974979042381 7.744252270666164e-24 2.4067485035433027e-16 2.4067485035433027e-16 1.4968999461196316e-34
1.1884924949847024 7.90583270417149e-24 2.4940978996812014e-16 2.4940978996812014e-16 2.4453689554801583e-34
1.2064549276569216 8.065343667260712e-24 2.582875139831467e-16 2.582875139831467e-16 3.972414500084513e-34
1.2246888378427687 8.221026912404998e-24 2.6725218373618044e-16 2.6725218373618044e-16 6.417275955256391e-34
1.2431983285522175 8.372519928888261e-24 2.76290556120068e-16 2.76290556120068e-16 1.0310503445399014e-33
1.2619875648066055 8.519769429007335e-24 2.853989363273734e-16 2.853989363273734e-16 1.647728221485847e-33
1.3004222497298317 8.799083519242846e-24 3.037324997956559e-16 3.0373249979565584e-16 4.142459813547435e-33
1.3400274889804893 9.057904924879249e-24 3.2218914056518193e-16 3.2218914056518193e-16 1.0203007366592153e-32
1.3808389325824078 9.295304326352426e-24 3.4070308773630465e-16 3.4070308773630465e-16 2.4632648115470727e-32
1.4228933163050095 9.512497066946214e-24 3.592827020887526e-16 3.5928270208875246e-16 5.83141731187167e-32
1.466228494730424 9.714826308982735e-24 3.780995223001274e-16 3.7809952230012726e-16 1.3542011894283956e-31
1.5108834753276823 9.89833579735261e-24 3.969744789592602e-16 3.969744789592598e-16 3.0851058715786232e-31
1.5568984535646726 1.0059837841601743e-23 4.157389362905746e-16 4.1573893629057395e-16 6.895271431410698e-31
1.6043148490894465 1.0199673722305583e-23 4.3435549048863005e-16 4.343554904886286e-16 1.5120824442914497e-30
1.6531753430134553 1.0318316045392549e-23 4.527903664273104e-16 4.527903664273073e-16 3.253625848065841e-30
1.7035239163302658 1.0417239541841078e-23 4.710535910582736e-16 4.710535910582668e-16 6.870319870265927e-30
1.755405889504358 1.050477625227644e-23 4.894786918452428e-16 4.894786918452286e-16 1.424097602433502e-29
1.8088679632656115 1.0578911966007168e-23 5.079457176057439e-16 5.079457176057148e-16 2.897876120252732e-29
1.8639582606462262 1.0638298258611773e-23 5.263538188935782e-16 5.263538188935203e-16 5.789548725792524e-29
1.9207263702978936 1.0683975575787818e-23 5.447130983293354e-16 5.447130983292218e-16 1.1358143573898707e-28
1.979223391128241 1.0718320257019324e-23 5.631070664678282e-16 5.631070664676095e-16 2.1886833946514317e-28
2.039501978296691 1.0744167416018468e-23 5.816561587190713e-16 5.8165615871865695e-16 4.143748799135974e-28
2.1016163906111602 1.0769390595541998e-23 6.007779831813689e-16 6.007779831805977e-16 7.71108723195911e-28
2.1656225393682647 1.079857070270017e-23 6.207524924617563e-16 6.207524924603454e-16 1.4109402549830663e-27
2.231578038680979 1.0832068495643129e-23 6.416421855263917e-16 6.416421855238528e-16 2.5390392712987082e-27
2.299542257339062 1.087264038512332e-23 6.636603193594471e-16 6.63660319354952e-16 4.49498153815366e-27
2.369576372248914 1.0926339815600575e-23 6.87250155802421e-16 6.872501557945896e-16 7.831539080758421e-27
2.4417434235010123 1.1000311409026425e-23 7.129752260347131e-16 7.129752260212798e-16 1.3433439039379426e-26
2.5161083711144245 1.1106768026564703e-23 7.417993989087722e-16 7.417993988860764e-16 2.269583469796548e-26
2.5927381535095444 1.1265682539069859e-23 7.753282361584297e-16 7.753282361206423e-16 3.778722949831957e-26
2.6717017477616296 1.1500908344323178e-23 8.1562316135445825e-16 8.156231612924372e-16 6.202113643613229e-26
2.753070231689431 1.1848338983367993e-23 8.658530568017572e-16 8.65853056701378e-16 1.0037928952785887e-25
2.836916847834745 1.238925712104116e-23 9.329563086089404e-16 9.329563084486525e-16 1.6028783650421504e-25
2.9233170693905177 1.330265634394275e-23 1.0322472328054407e-15 1.032247232552779e-15 2.5266133636315487e-25
2.967498994190263 1.4075699623193453e-23 1.1087407352631177e-15 1.10874073494734e-15 3.1577725913205215e-25
3.0123486681368425 1.4978100286716962e-23 1.197654099966406e-15 1.1976540995729522e-15 3.9345372228707157e-25
3.0578761833420214 1.6991313342826707e-23 1.3791651624021426e-15 1.3791651619127337e-15 4.894086874726157e-25
3.1040917844459814 1.958513701783243e-23 1.6137289923836113e-15 1.6137289917765602e-15 6.07051005132605e-25
3.127460860933648 2.232581896934419e-23 1.853398107874836e-15 1.853398107198341e-15 6.764951847763193e-25
3.1510058709225794 2.597708495856158e-23 2.172746505629641e-15 2.1727465048757547e-15 7.538864541883366e-25
3.162844764501044 2.937413280714466e-23 2.466109544175654e-15 2.4661095433781945e-15 7.974594672835216e-25
3.1747281389236908 3.3324892864632e-23 2.8083079944322162e-15 2.808307993588829e-15 8.433869615087237e-25
3.1986289994194426 4.434501544020382e-23 3.7651138572668276e-15 3.765113856321995e-15 9.448333253575463e-25
3.2227097969389145 7.031737091106604e-23 6.015244115816973e-15 6.0152441147431614e-15 1.0738122991366526e-24
3.2348180950136065 9.494642198443515e-23 8.15263314145851e-15 8.15263314030166e-15 1.1568493084981567e-24
3.240889293275058 1.1335923019193674e-22 9.75192869527956e-15 9.751928694071713e-15 1.2078478559984793e-24
3.2469718861334385 1.3465987994615545e-22 1.1606096689101183e-14 1.1606096687835525e-14 1.2656612774314756e-24
3.2714166318528037 2.482795738052074e-22 2.1559877134179783e-14 2.1559877132648856e-14 1.5309335843887112e-24
3.2744851364798273 2.553817885053896e-22 2.21974139246799e-14 2.219741392312109e-14 1.5588047656027167e-24
3.2775565192852394 2.6268796878219233e-22 2.2853872753386514e-14 2.285387275179935e-14 1.5871623839231271e-24
3.283707930232385 2.5566027064436363e-22 2.2284207778396508e-14 2.228420777677705e-14 1.6194545920864025e-24
3.2898708863219004 2.3337573038110516e-22 2.037999050036144e-14 2.037999049872911e-14 1.6323270921334451e-24
3.29141343181113 2.281205214655317e-22 1.993040967486687e-14 1.9930409673231314e-14 1.6355572165518886e-24
3.292184975758714 2.255383039113068e-22 1.9709425789816485e-14 1.970942578817931e-14 1.637174086615803e-24
3.295272960557952 2.0923921259159725e-22 1.8302225621445662e-14 1.8302225619806232e-14 1.6394263738416418e-24
3.3076538914384823 1.527756106943736e-22 1.3413543459953467e-14 1.3413543458307287e-14 1.646181025637175e-24
3.310756385682612 1.412841156675062e-22 1.2416237064745347e-14 1.2416237063097465e-14 1.6478791779845528e-24
3.313861789986515 1.3068151169290053e-22 1.1495238179200162e-14 1.1495238177550581e-14 1.6495813723391864e-24
3.3200813396944477 1.1581262212318803e-22 1.020643446711382e-14 1.0206434465449077e-14 1.6647434256932355e-24
3.345076488085796 8.928917377669729e-23 7.928194391804522e-15 7.92819439000719e-15 1.797331216486455e-24
3.3482140837626964 9.02839147701039e-23 8.024039058411694e-15 8.024039056589286e-15 1.8224064672636983e-24
3.3513546224236106 9.128964900668834e-23 8.121034497242285e-15 8.121034495394475e-15 1.8478099364569306e-24
3.3576445397418455 9.863898731837892e-23 8.791293010957256e-15 8.791293009046692e-15 1.910562099263754e-24
3.3702598118196083 1.25745847928765e-22 1.124932511756854e-14 1.1249325115506482e-14 2.0620630896502477e-24
3.382922481734668 1.3191888567375486e-22 1.1845910673084628e-14 1.1845910670898586e-14 2.186043515834186e-24
3.389271646505754 1.3511688628116022e-22 1.2155853014024837e-14 1.2155853011774201e-14 2.250640322764197e-24
3.395632727569191 1.385626863816985e-22 1.2489252281668246e-14 1.2489252279347864e-14 2.3203846985431534e-24
3.421196662673239 1.5510690271100833e-22 1.4085705316260225e-14 1.4085705313633951e-14 2.626275794347387e-24
3.4276182099114902 1.5177204678567743e-22 1.3808727695360156e-14 1.380872769267969e-14 2.6804658694609314e-24
3.4340518103208963 1.3716008930475321e-22 1.2502706475956585e-14 1.2502706473235384e-14 2.721204147824308e-24
3.4469541582030403 1.1635046365113993e-22 1.0645671456747431e-14 1.0645671453964195e-14 2.7832357436243622e-24
3.472904465399547 1.1052010623678658e-22 1.018834313966396e-14 1.0188343136626336e-14 3.037623732118248e-24
3.4990501388274233 1.0160199799458304e-22 9.436736903948808e-15 9.436736900644873e-15 3.3039378336590073e-24
3.5253949054701885 6.986016353661687e-23 6.537426265600883e-15 6.537426262093497e-15 3.5073855269874285e-24
3.5519380250092896 4.002913948436031e-23 3.7740796947397264e-15 3.774079691040219e-15 3.6995075383006424e-24
3.578680990867387 2.820356904342974e-23 2.679146668153109e-15 2.6791466641589954e-15 3.994113216952371e-24
3.605625307711299 2.3422390620177475e-23 2.2417193777474343e-15 2.2417193733938044e-15 4.353630194044605e-24
3.660119384959845 1.9938413024895417e-23 1.9371144134160853e-15 1.9371144082107116e-15 5.2053736913152676e-24
3.715437065384467 1.747377504209948e-23 1.7233206127490075e-15 1.7233206065395593e-15 6.20944825904248e-24
3.8285932144167436 1.623264712293116e-23 1.6496735305369133e-15 1.6496735217173405e-15 8.819572776064964e-24
3.94519561050918 1.6005491113457862e-23 1.6761272196182156e-15 1.6761272071962314e-15 1.2421984101326819e-23
4.06534921144712 1.6195196798918638e-23 1.747646212239195e-15 1.7476461948945198e-15 1.7344675241993138e-23
4.189162171576248 1.6626658811760482e-23 1.8488496318202414e-15 1.8488496078075963e-15 2.4012645138548195e-23
4.316745939156006 1.7234573642877475e-23 1.974815222654656e-15 1.9748151896811476e-15 3.2973507377973365e-23
4.448215356677963 1.7996962807473972e-23 2.1249780936965012e-15 2.1249780487705662e-15 4.4925935131402114e-23
4.58368876423945 1.8916362238690266e-23 2.3015593371560925e-15 2.301559276397671e-15 6.075842078422968e-23
4.723288106065518 2.0013461706663158e-23 2.509204655490839e-15 2.5092045738918597e-15 8.159897905074817e-23
4.867139040275056 2.132977508624412e-23 2.7556843007558982e-15 2.7556841918749097e-15 1.0888098839851292e-22
4.940699165968905 2.2122395953000158e-23 2.901282411544331e-15 2.9012822860360458e-15 1.255082845442394e-22
5.015371051989984 2.2942906640332055e-23 3.0543650378192028e-15 3.0543648933836864e-15 1.4443551703664292e-22
5.091171501069577 2.394260122930311e-23 3.235627309095503e-15 3.2356271430279667e-15 1.660675358032104e-22
5.129500256944802 2.445554210405984e-23 3.3298278642297013e-15 3.3298276862696684e-15 1.7796003336395424e-22
5.168117569889187 2.4990136092219485e-23 3.4282338531599833e-15 3.428233662519178e-15 1.9064080534559043e-22
5.20702561229733 2.5645611371750266e-23 3.5446405687042812e-15 3.5446403644361927e-15 2.0426808835298538e-22
5.246226572918644 2.6317672896619362e-23 3.664915456866627e-15 3.664915238085093e-15 2.187815341335219e-22
5.265937586045735 2.66600879896224e-23 3.726547994022398e-15 3.726547767635701e-15 2.2638669717077307e-22
5.285722656980489 2.700684990620758e-23 3.789201806756086e-15 3.789201572522993e-15 2.3423309227974377e-22
5.305582063971359 2.7358028455731236e-23 3.852895822121706e-15 3.852895579794065e-15 2.4232764065145277e-22
5.3255160863122235 2.773523143437099e-23 3.920693819514572e-15 3.9206935688056776e-15 2.507088947395682e-22
5.365609099470188 2.8674267725243294e-23 4.083953595701887e-15 4.08395332717715e-15 2.685247360589989e-22
5.406003951863644 2.9648841923005217e-23 4.254548967167504e-15 4.25454867967462e-15 2.8749288435014916e-22
5.446702915881641 3.0660669466761525e-23 4.432867539989977e-15 4.432867232309418e-15 3.0768055870060963e-22
5.487708281020852 3.175376077516467e-23 4.6254673365197385e-15 4.625467007277099e-15 3.292426390140286e-22
5.529022354014368 3.32728250186677e-23 4.883233091039554e-15 4.883232738092049e-15 3.529475051931669e-22
5.570647458961463 3.4881102987804036e-23 5.157809732359155e-15 5.157809354152042e-15 3.7820711434566694e-22
5.612585937458331 3.658501612043061e-23 5.4504917619285776e-15 5.4504913568151615e-15 4.0511341490892806e-22
5.654840148729818 3.845773820591759e-23 5.772627109239295e-15 5.772626675309093e-15 4.339302024822937e-22
5.67608639626678 3.973335367977584e-23 5.986509188162748e-15 5.9865087383896286e-15 4.497731208252567e-22
5.686739436050992 4.039082103618794e-23 6.0969894546135684e-15 6.096988996721448e-15 4.578921182108743e-22
5.6974124697621304 4.106181292286466e-23 6.209908696437004e-15 6.209908230291559e-15 4.661454484767439e-22
5.718818669136295 4.2445672894285657e-23 6.443312308514978e-15 6.443311825451786e-15 4.830631900513382e-22
5.740305295436557 4.39711225120306e-23 6.699956398059069e-15 6.6999558972636995e-15 5.007953677741207e-22
5.7835210386641895 4.7929054009240416e-23 7.358014004196755e-15 7.35801346407101e-15 5.40125743052058e-22
5.827062130521658 5.248789976004591e-23 8.118546399728913e-15 8.118545816889644e-15 5.82839269255228e-22
5.8489554468988025 5.568697254784528e-23 8.64572373834408e-15 8.64572313051095e-15 6.078331309742282e-22
5.870931020387893 5.911950952779417e-23 9.213130719624594e-15 9.213130085804191e-15 6.338204034431739e-22
5.892989160043636 6.280429019632383e-23 9.824136473921634e-15 9.824135813084335e-15 6.608372987032453e-22
5.915130176081913 6.699498264960634e-23 1.0519037872883684e-14 1.0519037183046444e-14 6.898372393235661e-22
5.95966208400165 7.871440992432889e-23 1.2452177792116797e-14 1.245217703201947e-14 7.600973262823388e-22
6.004529249263818 9.560695108172246e-23 1.5238347265659917e-14 1.5238346417066593e-14 8.485933222744128e-22
6.027089341400364 1.0735058621643496e-22 1.7174396401308245e-14 1.71743954965872e-14 9.047210438535103e-22
6.049734195844842 1.2122751674146943e-22 1.9467354425744742e-14 1.94673534582818e-14 9.674629413550671e-22
6.095279466722835 1.6131584914713477e-22 2.609997517662638e-14 2.60999740398347e-14 1.1367916729294687e-21
6.141167624020661 2.230118903176191e-22 3.635368197492255e-14 3.6353680593287404e-14 1.3816351445834073e-21
6.164241091010745 2.6241613496719094e-22 4.2937779740762175e-14 4.293777819845628e-14 1.5423059000437198e-21
6.187401249150058 3.0729968221353834e-22 5.047075771842312e-14 5.047075599900797e-14 1.7194151529808637e-21
6.1990139391386085 3.2921720736046057e-22 5.41719629269726e-14 5.417196111636724e-14 1.8106053571370174e-21
6.204828454712694 3.4076219609681965e-22 5.612425905425561e-14 5.612425719625339e-14 1.858002203055187e-21
6.210648424152782 3.491912691554233e-22 5.756649061711655e-14 5.756648871962491e-14 1.8974916419730696e-21
6.233982942956859 3.7783073590698306e-22 6.252192294602774e-14 6.252192090805772e-14 2.03797001625877e-21
6.239830258556775 3.8149307598726044e-22 6.318716476784836e-14 6.318716271026104e-14 2.057587326673776e-21
6.245683058788269 3.8181308238936267e-22 6.329948546986151e-14 6.329948339248289e-14 2.077378605243011e-21
6.257405133728602 3.8103188760693338e-22 6.328853305477029e-14 6.328853094265592e-14 2.1121143717192214e-21
6.269149208991335 3.754063032177179e-22 6.247116424589337e-14 6.247116212196878e-14 2.1239246042988535e-21
6.280915325867298 3.612903294358923e-22 6.023497144123007e-14 6.023496933400505e-14 2.1072250128657215e-21
6.304513850009849 3.2647527409003003e-22 5.463504829948393e-14 5.46350462521659e-14 2.047318037490467e-21
6.32820103803542 2.8331768172550993e-22 4.759084107446259e-14 4.759083912002451e-14 1.954438100055253e-21
6.3519772230701035 2.4373694169528024e-22 4.109601608223898e-14 4.109601421538931e-14 1.8668496720852577e-21
6.375842739491607 2.1043455108786956e-22 3.5614272511360294e-14 3.561427072119697e-14 1.7901633243399767e-21
6.399797922933955 1.8374574952324616e-22 3.121425656834338e-14 3.121425482880017e-14 1.7395432134020838e-21
6.42384311029221 1.6155346879685212e-22 2.754740195813252e-14 2.754740026098363e-14 1.6971488997106466e-21
6.447978639727206 1.4538260189620758e-22 2.488315588413188e-14 2.4883154205135195e-14 1.6789966795045985e-21
6.472204850670314 1.319099425709357e-22 2.2662051330942023e-14 2.2662049664028803e-14 1.6669132167100134e-21
6.496522083828205 1.2315503933917244e-22 2.1237458314669297e-14 2.1237456638708928e-14 1.6759603671851066e-21
6.520930681187647 1.157793557500279e-22 2.004057348666502e-14 2.0040571797684028e-14 1.6889809924924883e-21
6.57002334288761 1.0823681345450136e-22 1.887605975801062e-14 1.8876058009762312e-14 1.748248309388938e-21
