Dust emission spectrum from A.P. Jones, M. Kohler, N. Ysard, M. Bocchio, and L. Verstraete (2017), A&A, 602A, 46J 
inside the DustPedia framework.

lambda    nu*dP/dnu     j_nu    j_nu(carb.) j_nu(sil)
 (um)   (erg s-1 H-1) (Jy cm2 sr-1 H-1)
0.9927057738263894 7.420218343369121e-22 1.955269679476563e-14 1.9552693086505553e-14 3.7082600758364894e-21
1.0001793341362166 7.544993196278357e-22 2.0031162880875392e-14 2.0031158418331033e-14 4.462544362962889e-21
1.0077091589558085 7.670266508815077e-22 2.051705832095006e-14 2.051705295784973e-14 5.363100328896844e-21
1.0114953028030835 7.733084470292298e-22 2.076280654456514e-14 2.0762800668113215e-14 5.8764519252816125e-21
1.0152956718711033 7.796020409907425e-22 2.1010429734906396e-14 2.1010423298115572e-14 6.436790821401109e-21
1.0229392996569957 7.9221765306712e-22 2.1511159103649464e-14 2.1511151388431284e-14 7.715218177290367e-21
1.0267826658714554 7.985253571759882e-22 2.1763897560378274e-14 2.1763889117592987e-14 8.44278528677728e-21
1.0306404723013447 8.04843733136711e-22 2.2018523479740434e-14 2.2018514243860297e-14 9.235880141966406e-21
1.03451277320114 8.111725940284566e-22 2.2275043441076776e-14 2.2275033340972112e-14 1.01001046628446e-20
1.0383996230291617 8.1751175930535795e-22 2.2533464187790513e-14 2.253345314627841e-14 1.1041512108153354e-20
1.0403485208654093 8.206851514533526e-22 2.2663389509730552e-14 2.2663377966547762e-14 1.1543182795479826e-20
1.0423010764483396 8.238610549693785e-22 2.2793792635048647e-14 2.27937805684076e-14 1.2066641044056343e-20
1.0462171883269815 8.302203137432097e-22 2.305603587762541e-14 2.305602269507374e-14 1.3182551673220614e-20
1.0471985131304309 8.318116662236714e-22 2.3121896724203177e-14 2.3121883247609058e-14 1.3476594121853521e-20
1.048180758391296 8.334036289023936e-22 2.3187877815349066e-14 2.3187864038440488e-14 1.3776908575018303e-20
1.0501480137395462 8.365893752431622e-22 2.3320201197888643e-14 2.3320186801023966e-14 1.439686467325492e-20
1.0521189612883777 8.397775338230409e-22 2.3453006966185438e-14 2.34529919227185e-14 1.5043466935767482e-20
1.0531058218030118 8.413704010332072e-22 2.3519532035499952e-14 2.3519516658379003e-14 1.5377120949108483e-20
1.0540936079674168 8.429569489315026e-22 2.358598445385204e-14 2.3585968735928648e-14 1.5717923392380526e-20
1.058054026499678 8.49308778311609e-22 2.3852993521459975e-14 2.3852976366664633e-14 1.7154795346628718e-20
1.0590464539527713 8.508981344266106e-22 2.392004624366324e-14 2.3920028710486835e-14 1.7533176407412872e-20
1.06003981227728 8.524880458828857e-22 2.3987219393695562e-14 2.3987201474163887e-14 1.7919531679997392e-20
1.0620293250338977 8.556695267259579e-22 2.4121927475662514e-14 2.4121908758856164e-14 1.8716806351152962e-20
1.0660195594769086 8.620390651842514e-22 2.4392794306233963e-14 2.4392773891959598e-14 2.0414274374729464e-20
1.070024785945596 8.68417272525479e-22 2.4665602234311013e-14 2.4665579975994235e-14 2.2258316781086885e-20
1.0740450607676866 8.748040355892904e-22 2.4940359721269476e-14 2.49403354603615e-14 2.4260907973325323e-20
1.07808044048254 8.811992493871544e-22 2.5217075477749962e-14 2.52170490428091e-14 2.6434940857648132e-20
1.0861967418109137 8.940048667358645e-22 2.57761358380877e-14 2.5776104484190977e-14 3.13538967207052e-20
1.0902777775684922 9.003928567476038e-22 2.6057853263059512e-14 2.6057819133241162e-14 3.4129818355019364e-20
1.0943741465085532 9.067885788485494e-22 2.6341548359149684e-14 2.634151121983344e-14 3.71393162440865e-20
1.1026131145906286 9.196029897359202e-22 2.691491182066693e-14 2.6914867886013436e-14 4.393465349734318e-20
1.1109141095355224 9.32447733814496e-22 2.7496309876960908e-14 2.749625797143777e-14 5.1905523135625824e-20
1.1192775983109025 9.453125479873727e-22 2.8085532821659583e-14 2.808547157882499e-14 6.124283458631396e-20
1.1277040513999907 9.58151180080242e-22 2.8681285498407804e-14 2.868121333206007e-14 7.216634773361243e-20
1.1361939428280308 9.710184976005671e-22 2.928528169686814e-14 2.9285196768184004e-14 8.492868414712223e-20
1.1447477501889525 9.839147953204916e-22 2.989762724350168e-14 2.98975274236549e-14 9.981984677760035e-20
1.1533659546722406 9.968451272699774e-22 3.0518574980316226e-14 3.0518457807849045e-14 1.1717246718195194e-19
1.1707974979042381 1.0228481891567274e-21 3.1787941076371607e-14 3.178778023503748e-14 1.6084133412921546e-19
1.1884924949847024 1.0489952968696828e-21 3.3093249814376324e-14 3.309303013633472e-14 2.1967804159789083e-19
1.2064549276569216 1.0754659326396114e-21 3.444111417627857e-14 3.4440815621529164e-14 2.9855474939985754e-19
1.2246888378427687 1.1020930997997728e-21 3.5827250140445186e-14 3.582684637799121e-14 4.037624539712582e-19
1.2431983285522175 1.1288599372165937e-21 3.725202716557192e-14 3.72514837701457e-14 5.433954262222468e-19
1.2619875648066055 1.1558108950945736e-21 3.871785531337021e-14 3.87171274982465e-14 7.27815123700154e-19
1.3004222497298317 1.2101283549967831e-21 4.1771999269351824e-14 4.177071200608616e-14 1.2872632656648935e-18
1.3400274889804893 1.2652759120942588e-21 4.5005789095419356e-14 4.50035541269105e-14 2.234968508870076e-18
1.3808389325824078 1.321547536302375e-21 4.843900860050811e-14 4.8435197613663456e-14 3.810986844635759e-18
1.4228933163050095 1.3795351862136677e-21 5.2104418623329236e-14 5.209803332968613e-14 6.385293643102994e-18
1.466228494730424 1.4403940993207798e-21 5.605991332789323e-14 5.604939566866016e-14 1.0517659233077927e-17
1.5108834753276823 1.5042311389834905e-21 6.03274514885599e-14 6.031041250825278e-14 1.7038980307124527e-17
1.5568984535646726 1.571287090909743e-21 6.493595961164292e-14 6.49087818864782e-14 2.717772516471803e-17
1.6043148490894465 1.6423095664217384e-21 6.993813691287718e-14 6.989537666443002e-14 4.276024844715514e-17
1.6531753430134553 1.7181656838207854e-21 7.539688318690638e-14 7.53305991540989e-14 6.628403280746142e-17
1.7035239163302658 1.7999104058510145e-21 8.138953288477714e-14 8.128827696818312e-14 1.0125591659401268e-16
1.755405889504358 1.8896079462141728e-21 8.804783685067577e-14 8.789532940118468e-14 1.5250744949110058e-16
1.8088679632656115 1.9881484906640096e-21 9.546081062420126e-14 9.523425569249291e-14 2.2655493170835136e-16
1.8639582606462262 2.0965674492085595e-21 1.0373240687866344e-13 1.0340032957947873e-13 3.320772991847007e-16
1.9207263702978936 2.216382436616802e-21 1.1300030925456664e-13 1.1251985720572063e-13 4.804520488460211e-16
1.979223391128241 2.3494589800917467e-21 1.2343323602404406e-13 1.227468442132087e-13 6.863918108353498e-16
2.039501978296691 2.4978394655840706e-21 1.352253415636865e-13 1.3425671102298722e-13 9.68630540699294e-16
2.1016163906111602 2.6645134312375125e-21 1.4864174450513349e-13 1.4729096191856528e-13 1.3507825865682673e-15
2.1656225393682647 2.852188878371235e-21 1.639571943329438e-13 1.620951024193802e-13 1.862091913563663e-15
2.231578038680979 3.0630208356638485e-21 1.8143934227324487e-13 1.7890107141057485e-13 2.5382708626700255e-15
2.299542257339062 3.299769083443486e-21 2.0141619019488013e-13 1.9799382497900475e-13 3.422365215875361e-15
2.369576372248914 3.565669002514059e-21 2.2427515699436964e-13 2.1970949284542132e-13 4.565664148948302e-15
2.4417434235010123 3.864195676160325e-21 2.504543447190105e-13 2.4442599247529525e-13 6.0283522437152815e-15
2.5161083711144245 4.199532042894763e-21 2.8047856385103516e-13 2.725981789329255e-13 7.88038491810963e-15
2.5927381535095444 4.576619693846506e-21 3.1497270249645367e-13 3.0477075021112786e-13 1.0201952285325818e-14
2.6717017477616296 5.000156616322386e-21 3.5460186487663716e-13 3.4151864792932067e-13 1.3083216947316493e-14
2.753070231689431 5.475415906087058e-21 4.0013250854836694e-13 3.835082022982885e-13 1.6624306250078468e-14
2.836916847834745 6.011378147924888e-21 4.526787289784766e-13 4.317430654558335e-13 2.093566352264305e-14
2.9233170693905177 6.623529773854524e-21 5.139665419966293e-13 4.878345675912474e-13 2.6131974405381886e-14
2.967498994190263 6.967251591662678e-21 5.488093565007895e-13 5.197667106548297e-13 2.9042645845959704e-14
3.0123486681368425 7.333504269266571e-21 5.863895478785976e-13 5.541540322097689e-13 3.2235515668828716e-14
3.0578761833420214 7.802229032320128e-21 6.332978654061096e-13 5.975541870852447e-13 3.574367832086493e-14
3.1040917844459814 8.322150467731613e-21 6.857085286934417e-13 6.461536613071165e-13 3.9554867386325185e-14
3.127460860933648 8.697797645357471e-21 7.220555591138197e-13 6.804626419930005e-13 4.159291712081909e-14
3.1510058709225794 9.141617248444917e-21 7.646130027309341e-13 7.208975680097976e-13 4.371543472113667e-14
3.162844764501044 9.487837335287029e-21 7.965527479485742e-13 7.517396198484738e-13 4.481312810010036e-14
3.1747281389236908 9.870949058814833e-21 8.318305858358224e-13 7.858979467795658e-13 4.593263905625684e-14
3.1986289994194426 1.085958312473771e-20 9.22032983892519e-13 8.737889817725358e-13 4.824400211998296e-14
3.2227097969389145 1.2958594982018617e-20 1.1085328021354644e-12 1.0578414900746028e-12 5.0691312060861667e-14
3.2348180950136065 1.4863120472865684e-20 1.2762310155556951e-12 1.224234154638436e-12 5.199686091725902e-14
3.240889293275058 1.6267266904669365e-20 1.3994204675950648e-12 1.3467349615574357e-12 5.268550603762875e-14
3.2469718861334385 1.7888247149375405e-20 1.5417563575521138e-12 1.48835830859363e-12 5.3398048958483667e-14
3.2714166318528037 2.6337554590335545e-20 2.2870767509367995e-12 2.2307356575125478e-12 5.634109342425148e-14
3.2744851364798273 2.687543227724912e-20 2.3359735169612975e-12 2.2792860217805773e-12 5.668749518071993e-14
3.2775565192852394 2.7427175158799817e-20 2.386166271603325e-12 2.3291306827163654e-12 5.703558888695985e-14
3.283707930232385 2.6956196274045078e-20 2.3495925947823896e-12 2.2919353680563557e-12 5.765722672603348e-14
3.2898708863219004 2.5371993983187562e-20 2.2156588241124776e-12 2.1574366685596366e-12 5.822215555284075e-14
3.29141343181113 2.4998073562750447e-20 2.1840290561643093e-12 2.125665064410309e-12 5.836399175399932e-14
3.292184975758714 2.4814294903166497e-20 2.168480898539128e-12 2.110045897995136e-12 5.843500054399226e-14
3.295272960557952 2.36585858090313e-20 2.0694246073578092e-12 2.010713546468098e-12 5.87110608897111e-14
3.3076538914384823 1.9633122294640403e-20 1.7237681980572765e-12 1.6639487451170465e-12 5.981945294022972e-14
3.310756385682612 1.880832723173882e-20 1.6529009549109827e-12 1.5928022048784644e-12 6.00987500325185e-14
3.313861789986515 1.8045256157625185e-20 1.5873287265305565e-12 1.5269497986463871e-12 6.037892788416948e-14
3.3200813396944477 1.6992987949992695e-20 1.4975726715484616e-12 1.4365907388161914e-12 6.098193273227097e-14
3.345076488085796 1.5258876024648074e-20 1.3548712593802439e-12 1.291201112670754e-12 6.36701467094896e-14
3.3482140837626964 1.5359532441778236e-20 1.365087995415335e-12 1.3010536470589245e-12 6.403434835641054e-14
3.3513546224236106 1.546096456706413e-20 1.3753917117215488e-12 1.31099156420427e-12 6.440014751727842e-14
3.3576445397418455 1.6057992789846484e-20 1.4311837907228372e-12 1.3660187022585495e-12 6.516508846428745e-14
3.3702598118196083 1.8145246319206116e-20 1.6232883911900486e-12 1.5565188826446605e-12 6.676950854538805e-14
3.382922481734668 1.8715475721040334e-20 1.6805922250132774e-12 1.6122644814405123e-12 6.83277435727654e-14
3.389271646505754 1.9008350099775153e-20 1.7100949867300852e-12 1.6409776715331334e-12 6.911731519695137e-14
3.395632727569191 1.9327439411473787e-20 1.7420654367483177e-12 1.6721344203623931e-12 6.993101638592477e-14
3.421196662673239 2.0841130960959658e-20 1.8926432289130495e-12 1.8193452109462256e-12 7.329801796682404e-14
3.4276182099114902 2.0647866257143763e-20 1.8786118305285986e-12 1.8045637593681287e-12 7.404807116047011e-14
3.4340518103208963 1.9612497585132726e-20 1.787759849167904e-12 1.713003014635324e-12 7.475683453257973e-14
3.4469541582030403 1.8149266479687702e-20 1.6605961167720827e-12 1.5844802329529971e-12 7.611588381908579e-14
3.472904465399547 1.7901818353973267e-20 1.6502867616092234e-12 1.5710382242664876e-12 7.92485373427365e-14
3.4990501388274233 1.7436995505373398e-20 1.619538416836248e-12 1.537087204819501e-12 8.245121201674682e-14
3.5253949054701885 1.53182842135418e-20 1.4334657763728037e-12 1.3479080093598842e-12 8.555776701291944e-14
3.5519380250092896 1.3309524692943288e-20 1.2548660185388195e-12 1.1661897873185982e-12 8.867623122022156e-14
3.578680990867387 1.265096281154203e-20 1.201755168407225e-12 1.1096615494617233e-12 9.209361894550187e-14
3.605625307711299 1.2524882975812024e-20 1.1987364281555995e-12 1.1030460666042539e-12 9.569036155134544e-14
3.660119384959845 1.2733192401502037e-20 1.2370919640872048e-12 1.133856203343787e-12 1.0323576074341703e-13
3.715437065384467 1.3019900790985758e-20 1.2840650263033826e-12 1.1728911806055382e-12 1.1117384569784446e-13
3.8285932144167436 1.3896960321128845e-20 1.4123049323423178e-12 1.2841274805954718e-12 1.281774517468462e-13
3.94519561050918 1.4877649480804196e-20 1.5580173755335216e-12 1.4113847190197527e-12 1.4663265651376906e-13
4.06534921144712 1.5911757777620434e-20 1.71705991321962e-12 1.550563530193635e-12 1.664963830259848e-13
4.189162171576248 1.6980179068951725e-20 1.8881603438970854e-12 1.700377079240139e-12 1.8778326465694655e-13
4.316745939156006 1.806999804204315e-20 2.0705419203401132e-12 1.860154221220431e-12 2.103876991196822e-13
4.448215356677963 1.9169237968383485e-20 2.263393617658285e-12 2.029428061328936e-12 2.3396555632934943e-13
4.58368876423945 2.0270611348571712e-20 2.466331223227713e-12 2.207810948733881e-12 2.5852027449383165e-13
4.723288106065518 2.1368755596311903e-20 2.679125770953473e-12 2.3949446002206796e-12 2.841811707327927e-13
4.867139040275056 2.2452878233271787e-20 2.9007827698152207e-12 2.590564841389851e-12 3.1021792842537024e-13
4.940699165968905 2.2992195271585968e-20 3.0153538471134065e-12 2.6919026439380693e-12 3.2345120317533684e-13
5.015371051989984 2.3522253031921723e-20 3.1314928137805746e-12 2.7947109809247293e-12 3.3678183285584545e-13
5.091171501069577 2.4057400923399435e-20 3.2511414556887e-12 2.9006357395293023e-12 3.5050571615939754e-13
5.129500256944802 2.4320647287044533e-20 3.3114607996794063e-12 2.954073498489874e-12 3.5738730118953324e-13
5.168117569889187 2.4582504795052242e-20 3.372313572958253e-12 3.007960828093887e-12 3.6435274486436594e-13
5.20702561229733 2.4855626260581492e-20 3.435451778734323e-12 3.0634685287503537e-12 3.7198324998397025e-13
5.246226572918644 2.512586524511422e-20 3.498948112384046e-12 3.1193023439127742e-12 3.796457684712718e-13
5.265937586045735 2.5259867104666243e-20 3.530825071725489e-12 3.147337184552147e-12 3.8348788717334106e-13
5.285722656980489 2.539310470305725e-20 3.5627849436025754e-12 3.1754483160230834e-12 3.873366275794914e-13
5.305582063971359 2.5525563921679013e-20 3.594825509823419e-12 3.2036339877252682e-12 3.9119152209815084e-13
5.3255160863122235 2.5659347355168988e-20 3.627243739654419e-12 3.2321587564419912e-12 3.950849832124277e-13
5.365609099470188 2.5940825556896814e-20 3.694641091577004e-12 3.2914989143774585e-12 4.0314217719954487e-13
5.406003951863644 2.6219754794588582e-20 3.7624818861523695e-12 3.3512515008445877e-12 4.112303853077819e-13
5.446702915881641 2.6496072329209383e-20 3.830757155929273e-12 3.4114112971054497e-12 4.19345858823824e-13
5.487708281020852 2.677360021212543e-20 3.90002350080947e-12 3.4725015012582658e-12 4.275219995512039e-13
5.529022354014368 2.708272682159709e-20 3.974753202849708e-12 3.5387088817085545e-12 4.360443211411541e-13
5.570647458961463 2.739126787918277e-20 4.050300476401304e-12 3.605703031785878e-12 4.4459744461542573e-13
5.612585937458331 2.7699366512726136e-20 4.1266940676279555e-12 3.6735165165536195e-12 4.531775510743357e-13
5.654840148729818 2.8012940987652435e-20 4.204830291604632e-12 3.7430039406327745e-12 4.61826350971857e-13
5.67608639626678 2.819506192582788e-20 4.248068226007812e-12 3.781711758959811e-12 4.663564670479997e-13
5.686739436050992 2.8286562280704914e-20 4.269853088111543e-12 3.80122831035633e-12 4.68624777755213e-13
5.6974124697621304 2.837837148908323e-20 4.291751468251626e-12 3.820856292045081e-12 4.708951762065444e-13
5.718818669136295 2.856296539639235e-20 4.33589795983748e-12 3.860455966834012e-12 4.754419930034689e-13
5.740305295436557 2.875605278354142e-20 4.3816097662118876e-12 3.901577079381151e-12 4.800326868307363e-13
5.7835210386641895 2.920517889834543e-20 4.483545936201191e-12 3.994028280104529e-12 4.895176560966614e-13
5.827062130521658 2.9683328110376716e-20 4.591257750151214e-12 4.0921287850730646e-12 4.991289650781512e-13
5.8489554468988025 2.998981871889803e-20 4.6560923631436474e-12 4.151756319639147e-12 5.043360435045013e-13
5.870931020387893 3.030629324005617e-20 4.7229052385261e-12 4.213345929375141e-12 5.09559309150959e-13
5.892989160043636 3.063359524732971e-20 4.791848127825188e-12 4.277049847657244e-12 5.147982801679442e-13
5.915130176081913 3.09923993376794e-20 4.8661886235521e-12 4.34595427920262e-12 5.202343443494797e-13
5.95966208400165 3.1941562622267293e-20 5.052975905083569e-12 4.52025454622346e-12 5.327213588601093e-13
6.004529249263818 3.322537174228593e-20 5.29563747103309e-12 4.748808298425427e-12 5.468291726076632e-13
6.027089341400364 3.40873685967444e-20 5.453439996849943e-12 4.898409262136478e-12 5.550307347134647e-13
6.049734195844842 3.5076183912601837e-20 5.632718729902353e-12 5.068989617540514e-12 5.637291123618389e-13
6.095279466722835 3.7858467418199726e-20 6.125281955022841e-12 5.540001480989665e-12 5.85280474033176e-13
6.141167624020661 4.199109631626594e-20 6.845065341967864e-12 6.231602783049369e-12 6.134625589184978e-13
6.164241091010745 4.4607475516871536e-20 7.298887923847904e-12 6.667635808419548e-12 6.312521154283545e-13
6.187401249150058 4.7501873927100226e-20 7.801685810009388e-12 7.152186081844417e-12 6.494997281649699e-13
6.1990139391386085 4.890556191706172e-20 8.047301987447743e-12 7.388521004840154e-12 6.587809826075887e-13
6.204828454712694 4.9637674640047317e-20 8.17543067352849e-12 7.511963907295253e-12 6.634667662332378e-13
6.210648424152782 5.0169804568399976e-20 8.270824155869397e-12 7.603387801131742e-12 6.674363547376551e-13
6.233982942956859 5.1944899869766664e-20 8.595634813299618e-12 7.914454757297537e-12 6.811800560020824e-13
6.239830258556775 5.215428859980951e-20 8.638378609042247e-12 7.955363903759878e-12 6.830147052823694e-13
6.245683058788269 5.215340479885896e-20 8.64633466357399e-12 7.961483118979765e-12 6.848515445942255e-13
6.257405133728602 5.205921987627596e-20 8.646918447266705e-12 7.958894192517898e-12 6.88024254748806e-13
6.269149208991335 5.165323572054437e-20 8.595587620324429e-12 7.906602544858816e-12 6.8898507546561e-13
6.280915325867298 5.070745888072231e-20 8.454038452417602e-12 7.76682499254674e-12 6.872134598708599e-13
6.304513850009849 4.840408341240832e-20 8.100336059140281e-12 7.419134113052737e-12 6.812019460875444e-13
6.32820103803542 4.562076603571245e-20 7.663237299125986e-12 6.990672652854325e-12 6.725646462716607e-13
6.3519772230701035 4.3095080047383404e-20 7.2661784068284256e-12 6.6014115788875146e-12 6.647668279409103e-13
6.375842739491607 4.095199955958299e-20 6.930780447698871e-12 6.27294825599067e-12 6.578321917082026e-13
6.399797922933955 3.929206040422113e-20 6.674834426039552e-12 6.020829811353163e-12 6.540046146863892e-13
6.42384311029221 3.7899974762125545e-20 6.4625405245132906e-12 5.8117424546193585e-12 6.507980698939311e-13
6.447978639727206 3.6914925282476646e-20 6.3182239709173115e-12 5.668215135887548e-12 6.500088350297644e-13
6.472204850670314 3.609166035096928e-20 6.2005262344250674e-12 5.550828715058634e-12 6.496975193664327e-13
6.496522083828205 3.557994348114045e-20 6.135579758437575e-12 5.484239961959128e-12 6.513397964784488e-13
