Dust emission spectrum from A.P. Jones, M. Kohler, N. Ysard, M. Bocchio, and L. Verstraete (2017), A&A, 602A, 46J 
inside the DustPedia framework.

lambda    nu*dP/dnu     j_nu    j_nu(carb.) j_nu(sil)
 (um)   (erg s-1 H-1) (Jy cm2 sr-1 H-1)
0.9927057738263894 1.3371447023085841e-20 3.5234522388859993e-13 3.5234521313204573e-13 1.075655430754547e-20
1.0001793341362166 1.3595860242447874e-20 3.6095578079040055e-13 3.6095576784807176e-13 1.2942328716293715e-20
1.0077091589558085 1.382122274584065e-20 3.697014084417529e-13 3.697013928903361e-13 1.5551416848493425e-20
1.0114953028030835 1.3934250725574038e-20 3.741251673507513e-13 3.741251503122916e-13 1.703845971991636e-20
1.0152956718711033 1.404750510646475e-20 3.785830506742108e-13 3.785830320127766e-13 1.8661434082300868e-20
1.0229392996569957 1.427456876309114e-20 3.8759868403591697e-13 3.8759866167225143e-13 2.2363665506314585e-20
1.0267826658714554 1.438812058700419e-20 3.921498293421323e-13 3.921498048718322e-13 2.4470299925062187e-20
1.0306404723013447 1.4501879900615656e-20 3.967353784909743e-13 3.9673535172456957e-13 2.6766404899029912e-20
1.03451277320114 1.4615843667553292e-20 4.0135546370704334e-13 4.0135543443889234e-13 2.9268150982846126e-20
1.0383996230291617 1.4730008962549437e-20 4.060102202388781e-13 4.0601018824586923e-13 3.1993008943531674e-20
1.0403485208654093 1.4787166299962903e-20 4.083506433712647e-13 4.08350609926321e-13 3.3444943905581186e-20
1.0423010764483396 1.4844372974118885e-20 4.10699786485189e-13 4.1069975152534156e-13 3.4959847378651423e-20
1.0462171883269815 1.4958933007214766e-20 4.1542430412274357e-13 4.1542426593370634e-13 3.8189037097385613e-20
1.0471985131304309 1.4987603339326395e-20 4.166109116123452e-13 4.1661087257247903e-13 3.9039866105676107e-20
1.048180758391296 1.501628572211993e-20 4.1779971491540943e-13 4.177996750065919e-13 3.990881762885667e-20
1.0501480137395462 1.507368648586098e-20 4.2018391823587324e-13 4.201838765333105e-13 4.1702562689628363e-20
1.0521189612883777 1.5131134995473474e-20 4.225769327736154e-13 4.225768892003233e-13 4.3573292062465777e-20
1.0531058218030118 1.5159839274609414e-20 4.2377569383752784e-13 4.2377564929896155e-13 4.4538566342641025e-20
1.0540936079674168 1.5188431584735956e-20 4.249731990347317e-13 4.249731535102389e-13 4.5524492764895815e-20
1.058054026499678 1.530291341247193e-20 4.297851427048728e-13 4.2978509302389034e-13 4.968098247904922e-20
1.0590464539527713 1.533156184684195e-20 4.3099362135888295e-13 4.309935705834265e-13 5.077545644421063e-20
1.06003981227728 1.5360221406213235e-20 4.3220430196764677e-13 4.322042500746847e-13 5.189296193089851e-20
1.0620293250338977 1.5417573772107204e-20 4.3463227889445936e-13 4.346322246955425e-13 5.419891696955949e-20
1.0660195594769086 1.553241062651093e-20 4.395147653911282e-13 4.395147062830842e-13 5.910804391125762e-20
1.070024785945596 1.5647422071640847e-20 4.444327640893949e-13 4.4443269964898436e-13 6.444041069710949e-20
1.0740450607676866 1.576260633898659e-20 4.4938644112937694e-13 4.493863708988471e-13 7.023052983464829e-20
1.07808044048254 1.587796179797808e-20 4.543759670368601e-13 4.5437589052130473e-13 7.651555526521645e-20
1.0861967418109137 1.6109005041447333e-20 4.644582122699631e-13 4.644581215366656e-13 9.073329743850252e-20
1.0902777775684922 1.6224291441625865e-20 4.695397153750512e-13 4.695396166197436e-13 9.875530759965255e-20
1.0943741465085532 1.633973710050874e-20 4.746574725890216e-13 4.746573651378163e-13 1.0745120529787767e-19
1.1026131145906286 1.6571102855049178e-20 4.85002525103719e-13 4.850023980213435e-13 1.2708237536580176e-19
1.1109141095355224 1.680309716596345e-20 4.954949750137213e-13 4.954948249101585e-13 1.5010356271366849e-19
1.1192775983109025 1.7035537113352934e-20 5.061311602710947e-13 5.061309832069368e-13 1.7706415785516203e-19
1.1277040513999907 1.7267593995664014e-20 5.168879437363484e-13 5.168877351399853e-13 2.08596363184201e-19
1.1361939428280308 1.750025261716395e-20 5.27796153138598e-13 5.277959077119138e-13 2.4542668423309475e-19
1.1447477501889525 1.7733518491715417e-20 5.388577629919188e-13 5.388574746030726e-13 2.883888462363032e-19
1.1533659546722406 1.7967480811278606e-20 5.500773343278737e-13 5.500769958890704e-13 3.3843880330799936e-19
1.1707974979042381 1.8438203745926288e-20 5.730200634297952e-13 5.730195990910378e-13 4.643387572691969e-19
1.1884924949847024 1.8911843324716854e-20 5.966226516580374e-13 5.96622017784744e-13 6.33873293617322e-19
1.2064549276569216 1.939158192459954e-20 6.210031083779527e-13 6.210022473556305e-13 8.610223220704141e-19
1.2246888378427687 1.987440756397411e-20 6.460845924151236e-13 6.460834285910669e-13 1.1638240567668167e-18
1.2431983285522175 2.0359959614719984e-20 6.71872340981105e-13 6.718707755106971e-13 1.5654704078618417e-18
1.2619875648066055 2.084898469708038e-20 6.984083437508839e-13 6.984062481229326e-13 2.095627951510989e-18
1.3004222497298317 2.183464041421475e-20 7.537023487327199e-13 7.536986463641488e-13 3.7023685712595624e-18
1.3400274889804893 2.2834532825970046e-20 8.122229773243948e-13 8.122165564917099e-13 6.420832684987321e-18
1.3808389325824078 2.3852451354293046e-20 8.742697970036885e-13 8.742588611090662e-13 1.0935894622088968e-17
1.4228933163050095 2.489682249128685e-20 9.403416994655823e-13 9.40323398058804e-13 1.8301406778279113e-17
1.466228494730424 2.5985263263281055e-20 1.011342386801604e-12 1.0113122775716209e-12 3.010922998302096e-17
1.5108834753276823 2.711553760372042e-20 1.0874733523201044e-12 1.0874246340748776e-12 4.8718245227098203e-17
1.5568984535646726 2.8286380482951404e-20 1.1689800490482142e-12 1.1689024385411298e-12 7.761050708475004e-17
1.6043148490894465 2.950382496753622e-20 1.2564272852218343e-12 1.256305329591282e-12 1.2195563055262856e-16
1.6531753430134553 3.077401687294858e-20 1.3504314381380739e-12 1.35024263169263e-12 1.8880644544369068e-16
1.7035239163302658 3.2103903733822043e-20 1.451695440050648e-12 1.4514073911311182e-12 2.8804891952978463e-16
1.755405889504358 3.3515552423021863e-20 1.5616847386860164e-12 1.561251460797802e-12 4.3327788821454804e-16
1.8088679632656115 3.500674341485468e-20 1.680846334862719e-12 1.6802035432296154e-12 6.427916331035751e-16
1.8639582606462262 3.657404348495882e-20 1.8095833555995807e-12 1.8086424443294593e-12 9.40911270121548e-16
1.9207263702978936 3.8218545182643296e-20 1.9485389134785844e-12 1.947179462054054e-12 1.359451424530433e-15
1.979223391128241 3.9942988095490254e-20 2.098479828281021e-12 2.0965403668814457e-12 1.9394613995751786e-15
2.039501978296691 4.174850771371991e-20 2.2601357265535462e-12 2.257402638658897e-12 2.733087894649373e-15
2.1016163906111602 4.3648067196030276e-20 2.434937942602889e-12 2.4311320368809938e-12 3.805905721894915e-15
2.1656225393682647 4.5644368067030826e-20 2.6238523619951235e-12 2.6186134481875296e-12 5.238913807594427e-15
2.231578038680979 4.772562772591149e-20 2.827047861817887e-12 2.8199171019736553e-12 7.130759844231851e-15
2.299542257339062 4.9886291882298475e-20 3.045033334089185e-12 3.03543332334931e-12 9.600010739874359e-15
2.369576372248914 5.2124835397021145e-20 3.2785728663344974e-12 3.265785347833559e-12 1.2787518500938663e-14
2.4417434235010123 5.444079074178404e-20 3.5285305698511388e-12 3.511672536868208e-12 1.6858032982930474e-14
2.5161083711144245 5.684271758784931e-20 3.7964143698830386e-12 3.774411959755416e-12 2.2002410127622696e-14
2.5927381535095444 5.935099078770675e-20 4.084661434591356e-12 4.056222800720789e-12 2.843863387056705e-14
2.6717017477616296 6.198118917267964e-20 4.3955913693097715e-12 4.3591805667694765e-12 3.64108025402949e-14
2.753070231689431 6.476084705920542e-20 4.732593949750817e-12 4.686405154382351e-12 4.6188795368466483e-14
2.836916847834745 6.778213400294817e-20 5.104242240773895e-12 5.046173301532947e-12 5.806893924094767e-14
2.9233170693905177 7.125822564051606e-20 5.5294299371675156e-12 5.457073501848053e-12 7.235643531946121e-14
2.967498994190263 7.337763692023478e-20 5.7799453873507145e-12 5.699604960736102e-12 8.034042661461337e-14
3.0123486681368425 7.56377101652905e-20 6.048017569482221e-12 5.958927131758975e-12 8.90904377232462e-14
3.0578761833420214 7.935909697994462e-20 6.441485697198291e-12 6.342789208203084e-12 9.869648899520743e-14
3.1040917844459814 8.370581302858574e-20 6.896990161073704e-12 6.7878702545721164e-12 1.091199065015866e-13
3.127460860933648 8.774450192063704e-20 7.284189397908822e-12 7.16950040983851e-12 1.1468898807031176e-13
3.1510058709225794 9.287093950589303e-20 7.76780803573059e-12 7.647322700992626e-12 1.2048533473796458e-13
3.162844764501044 9.75140569646593e-20 8.186806676156334e-12 8.06332502787315e-12 1.2348164828318438e-13
3.1747281389236908 1.0276109204720747e-19 8.659736656469049e-12 8.533200092577669e-12 1.2653656389138006e-13
3.1986289994194426 1.1695310713848545e-19 9.929904409015123e-12 9.797063510582402e-12 1.3284089843271817e-13
3.2227097969389145 1.498156958722576e-19 1.2815865715349177e-11 1.267635327518207e-11 1.3951244016710802e-13
3.2348180950136065 1.8063642461274084e-19 1.551045812019984e-11 1.536738754676887e-11 1.4307057343096744e-13
3.240889293275058 2.036615230664041e-19 1.752034349168399e-11 1.737539608010561e-11 1.4494741157838266e-13
3.2469718861334385 2.3034848241196695e-19 1.985332795580989e-11 1.9706438577396635e-11 1.4688937841325807e-13
3.2714166318528037 3.7020687890368024e-19 3.21476902069022e-11 3.199278279474962e-11 1.549074121525796e-13
3.2744851364798273 3.789384107733744e-19 3.293677597421734e-11 3.278092567927815e-11 1.5585029493919457e-13
3.2775565192852394 3.879020160305517e-19 3.374750414433631e-11 3.359070643834737e-11 1.5679770598893668e-13
3.283707930232385 3.792565056682812e-19 3.305727069880545e-11 3.2898782819091845e-11 1.5848787971359918e-13
3.2898708863219004 3.518285701138464e-19 3.072411559234038e-11 3.056409333046091e-11 1.6002226187946725e-13
3.29141343181113 3.453456330564845e-19 3.017212086849435e-11 3.001171341060138e-11 1.6040745789297234e-13
3.292184975758714 3.4215793871662624e-19 2.990062612239872e-11 2.9740025826227384e-11 1.6060029617132717e-13
3.295272960557952 3.2230387394099636e-19 2.819203029141482e-11 2.803068060330679e-11 1.6134968810802648e-13
3.3076538914384823 2.52972392171132e-19 2.2210719113694487e-11 2.2046361378002712e-11 1.6435773569177253e-13
3.310756385682612 2.38705469875474e-19 2.0977755982139473e-11 2.0812640427178227e-11 1.6511555496123803e-13
3.313861789986515 2.2548092537062455e-19 1.9834151812483186e-11 1.9668276113218096e-11 1.6587569926508667e-13
3.3200813396944477 2.0701394871898257e-19 1.8243903493794705e-11 1.8076391036799906e-11 1.6751245699479858e-13
3.345076488085796 1.747887156728745e-19 1.551989851327367e-11 1.5345087239424683e-11 1.7481127384898703e-13
3.3482140837626964 1.7609711057622325e-19 1.565074018926962e-11 1.5474939969217224e-11 1.7580022005239324e-13
3.3513546224236106 1.7741716718842164e-19 1.5782851076956306e-11 1.5606057657848062e-11 1.7679341910824587e-13
3.3576445397418455 1.8668430285294872e-19 1.6638415007538908e-11 1.6459544365077235e-11 1.788706424616719e-13
3.3702598118196083 2.202278228680408e-19 1.9701758906428002e-11 1.9518531527557893e-11 1.8322737887010305e-13
3.382922481734668 2.2823873492855493e-19 2.0495137237498667e-11 2.0307681438045857e-11 1.8745579945281302e-13
3.389271646505754 2.323664749124688e-19 2.090495712390395e-11 2.0715359303309524e-11 1.8959782059442462e-13
3.395632727569191 2.3691397033153027e-19 2.1354077506633553e-11 2.116227219897998e-11 1.9180530765357145e-13
3.421196662673239 2.589899093250897e-19 2.3519620847791317e-11 2.3318684298419073e-11 2.0093654937223638e-13
3.4276182099114902 2.550043798141076e-19 2.3201150123182693e-11 2.2998182629022742e-11 2.0296749415994462e-13
3.4340518103208963 2.3692819864195846e-19 2.1596980131121036e-11 2.1392095045672452e-11 2.048850854485889e-13
3.4469541582030403 2.109756228847406e-19 1.9303551495487215e-11 1.909499258064616e-11 2.085589148410584e-13
3.472904465399547 2.0374770502991144e-19 1.8782569103908692e-11 1.856553698319846e-11 2.1703212071023728e-13
3.4990501388274233 1.9285178979945948e-19 1.791196667107044e-11 1.7686278849235535e-11 2.2568782183490587e-13
3.5253949054701885 1.54337151434584e-19 1.4442676576581801e-11 1.4208604017343645e-11 2.3407255923815355e-13
3.5519380250092896 1.176684240362816e-19 1.1094168288100819e-11 1.0851687808564538e-11 2.424804795362799e-13
3.578680990867387 1.0340745001737925e-19 9.823002356533683e-12 9.571309016272541e-12 2.516933402611433e-13
3.605625307711299 9.796498319371692e-20 9.37607115888809e-12 9.1146867011557e-12 2.61384457732392e-13
3.660119384959845 9.462250945668706e-20 9.193039921145368e-12 8.911349174718861e-12 2.8169074642650646e-13
3.715437065384467 9.240719378537154e-20 9.113498453136155e-12 8.810479538732595e-12 3.030189144035617e-13
3.8285932144167436 9.252207650607453e-20 9.402731387338963e-12 9.05414851329231e-12 3.485828740466557e-13
3.94519561050918 9.373072539111288e-20 9.815670074035191e-12 9.41781458729158e-12 3.9785548674361205e-13
4.06534921144712 9.528435678483437e-20 1.028226747030222e-11 9.831586888531638e-12 4.5068058177058184e-13
4.189162171576248 9.696070272494821e-20 1.0781827038349577e-11 1.0274769677992618e-11 5.070573603569573e-13
4.316745939156006 9.866390907510472e-20 1.1305355943554443e-11 1.0738695701228116e-11 5.666602423263254e-13
4.448215356677963 1.0034818192175398e-19 1.1848537478637386e-11 1.1220008192427062e-11 6.285292862103223e-13
4.58368876423945 1.0200403455175859e-19 1.2410860776921107e-11 1.1718225814735503e-11 6.926349621856042e-13
4.723288106065518 1.0364513283308265e-19 1.2994596019196037e-11 1.2235315296309874e-11 7.59280722886161e-13
4.867139040275056 1.0528769188229169e-19 1.3602564415691879e-11 1.2776081260796464e-11 8.264831548954155e-13
4.940699165968905 1.061690287462425e-19 1.3923733053446429e-11 1.3063253969221093e-11 8.604790842253311e-13
5.015371051989984 1.0700521125099287e-19 1.4245491263732939e-11 1.335087814633925e-11 8.94613117393689e-13
5.091171501069577 1.0798610003003595e-19 1.4593350610219926e-11 1.3663689559824898e-11 9.29661050395025e-13
5.129500256944802 1.08457608660168e-19 1.4767416149176045e-11 1.382022740958984e-11 9.471887395862034e-13
5.168117569889187 1.0893371439280352e-19 1.4943906109744687e-11 1.39789981014642e-11 9.649080082804914e-13
5.20702561229733 1.095459260594233e-19 1.5141028537703e-11 1.4156655442469623e-11 9.84373095233374e-13
5.246226572918644 1.1014984150020204e-19 1.5339116732367154e-11 1.4335229219516937e-11 1.003887512850216e-12
5.265937586045735 1.10448751142323e-19 1.5438530141832897e-11 1.4424870110098656e-11 1.0136600317342415e-12
5.285722656980489 1.1074566517061232e-19 1.553819405122232e-11 1.451475300992509e-11 1.023441041297237e-12
5.305582063971359 1.1104061272132782e-19 1.5638111990859224e-11 1.4604882745266827e-11 1.0332292455923948e-12
5.3255160863122235 1.1136040865209016e-19 1.574207401059564e-11 1.4698963127469234e-11 1.043110883126412e-12
5.365609099470188 1.1220145217722239e-19 1.5980374057076385e-11 1.4916808977753916e-11 1.063565079322472e-12
5.406003951863644 1.1304572205503466e-19 1.6221832922208195e-11 1.5137769894646866e-11 1.084063027561333e-12
5.446702915881641 1.1389419162742498e-19 1.646662887142552e-11 1.5362034550052196e-11 1.1045943213733243e-12
5.487708281020852 1.1479849121882362e-19 1.6722323858713492e-11 1.5597077020275207e-11 1.1252468384382792e-12
5.529022354014368 1.1615864249807537e-19 1.704783788387644e-11 1.590106340514975e-11 1.146774478726697e-12
5.570647458961463 1.175584678321469e-19 1.738317190594238e-11 1.621482991795099e-11 1.1683419879913913e-12
5.612585937458331 1.190021272001894e-19 1.7729119260778248e-11 1.653918047842983e-11 1.1899387823484094e-12
5.654840148729818 1.205697700561257e-19 1.8097900595559294e-11 1.6886226457811128e-11 1.2116741377481663e-12
5.67608639626678 1.2170850254457404e-19 1.8337467172610744e-11 1.711440018679565e-11 1.2230669858150933e-12
5.686739436050992 1.2228978661801708e-19 1.8459628209809792e-11 1.7230860437515695e-11 1.2287677722940963e-12
5.6974124697621304 1.2287930297711608e-19 1.858342819892414e-11 1.7348956956118798e-11 1.2344712428053406e-12
5.718818669136295 1.240839267472419e-19 1.8836113035376348e-11 1.7590227474817933e-11 1.2458855605584075e-12
5.740305295436557 1.2541827898265114e-19 1.9110201257051457e-11 1.7852798233597645e-11 1.2574030234538136e-12
5.7835210386641895 1.2898419239045424e-19 1.9801506905310428e-11 1.8520312843653915e-11 1.2811940616565153e-12
5.827062130521658 1.3302770439333442e-19 2.0576010766367207e-11 1.9270743375374194e-11 1.3052673909930125e-12
5.8489554468988025 1.359753294344177e-19 2.111095431719227e-11 1.9792621568155626e-11 1.3183327490366382e-12
5.870931020387893 1.3909488917183392e-19 2.167642131349759e-11 2.0344994037664113e-11 1.331427275833476e-12
5.892989160043636 1.424001089180622e-19 2.227488121494977e-11 2.0930331612842774e-11 1.3445496021069968e-12
5.915130176081913 1.4615925127238105e-19 2.294880360888537e-11 2.159063013565965e-11 1.3581734732257162e-12
5.95966208400165 1.5687294814240425e-19 2.4816419800651776e-11 2.3426826352195342e-11 1.3895934484564375e-12
6.004529249263818 1.7233100069571114e-19 2.746703669061942e-11 2.604187373529209e-11 1.4251629553273267e-12
6.027089341400364 1.8313163413452792e-19 2.9298165842379163e-11 2.7852263407671952e-11 1.4459024347072134e-12
6.049734195844842 1.9579041097431341e-19 3.1441057492975437e-11 2.997314562321578e-11 1.467911869759649e-12
6.095279466722835 2.324162651324299e-19 3.7603612928744746e-11 3.608096688220332e-11 1.5226460465414398e-12
6.141167624020661 2.8834935031048875e-19 4.700449184092164e-11 4.541002247650926e-11 1.5944693644123907e-12
6.164241091010745 3.2398364275637105e-19 5.3011749045164864e-11 5.137182435187248e-11 1.6399246932923947e-12
6.187401249150058 3.6402937817780767e-19 5.978801675308382e-11 5.810149027873463e-11 1.6865264743491818e-12
6.1990139391386085 3.834511719113399e-19 6.309604177627831e-11 6.138581649215548e-11 1.7102252841228287e-12
6.204828454712694 3.936362747919824e-19 6.483273236477288e-11 6.311054494115202e-11 1.7221874236208497e-12
6.210648424152782 4.009712681832764e-19 6.610276598104747e-11 6.437047009303417e-11 1.7322958880132874e-12
6.233982942956859 4.2545120035107663e-19 7.040196743600446e-11 6.863478111765493e-11 1.7671863183495375e-12
6.239830258556775 4.283240816914371e-19 7.09438415201485e-11 6.917207982110185e-11 1.771761699046653e-12
6.245683058788269 4.281626483990758e-19 7.098362154452408e-11 6.920727991868735e-11 1.7763416258367306e-12
6.257405133728602 4.2654548142808954e-19 7.084823784767491e-11 6.906403522755076e-11 1.7842026201241587e-12
6.269149208991335 4.2054040979506123e-19 6.9981907035552e-11 6.819556859195855e-11 1.7863384435934162e-12
6.280915325867298 4.0688442505116287e-19 6.783650080284521e-11 6.605509586624275e-11 1.7814049366024437e-12
6.304513850009849 3.737968139979053e-19 6.255422265557853e-11 6.078906505401067e-11 1.7651576015678574e-12
6.32820103803542 3.3362388405031714e-19 5.604112368767126e-11 5.4299000152611024e-11 1.7421235350602452e-12
6.3519772230701035 2.9700965816414936e-19 5.007822615479441e-11 4.8356960282619735e-11 1.7212658721746714e-12
6.375842739491607 2.661345949812896e-19 4.5041035045649e-11 4.333838592643264e-11 1.702649119216372e-12
6.399797922933955 2.4159343034914187e-19 4.104127219111678e-11 3.934921632141388e-11 1.6920558697029038e-12
6.42384311029221 2.210965625228392e-19 3.7700433947579246e-11 3.6017363893617425e-11 1.6830700539618297e-12
6.447978639727206 2.0615294225860881e-19 3.528438569187015e-11 3.3604066528142175e-11 1.6803191637279708e-12
6.472204850670314 1.9362965362620266e-19 3.3265461754786375e-11 3.158666193631212e-11 1.6787998184742647e-12
6.496522083828205 1.8537783112260117e-19 3.196746135647413e-11 3.0285148579735126e-11 1.682312776739013e-12
6.520930681187647 1.7836149287853966e-19 3.08730911661062e-11 2.918652143680088e-11 1.686569729305311e-12
