Dust emission spectrum from A.P. Jones, M. Kohler, N. Ysard, M. Bocchio, and L. Verstraete (2017), A&A, 602A, 46J 
inside the DustPedia framework.

lambda    nu*dP/dnu     j_nu    j_nu(carb.) j_nu(sil)
 (um)   (erg s-1 H-1) (Jy cm2 sr-1 H-1)
0.9927057738263894 8.037740869416863e-21 2.117990372548069e-13 2.117990318051473e-13 5.449659576759943e-21
1.0001793341362166 8.172879608039853e-21 2.1698135223658528e-13 2.169813456784294e-13 6.558155880922395e-21
1.0077091589558085 8.30855507738912e-21 2.2224404965552172e-13 2.2224404177390866e-13 7.881613066716794e-21
1.0114953028030835 8.376587862848907e-21 2.249056944457639e-13 2.249056858097293e-13 8.636034651576153e-21
1.0152956718711033 8.444747468695422e-21 2.2758762033841405e-13 2.2758761087890526e-13 9.459508779339395e-21
1.0229392996569957 8.581371381423843e-21 2.3301076970279627e-13 2.3301075836451045e-13 1.1338285817824816e-20
1.0267826658714554 8.649680487540964e-21 2.3574800520624603e-13 2.357479927987275e-13 1.240751855362652e-20
1.0306404723013447 8.718103931442855e-21 2.3850564800345613e-13 2.385056344304052e-13 1.357305087457235e-20
1.03451277320114 8.786639605998609e-21 2.412837666922443e-13 2.4128375184912894e-13 1.4843115363135014e-20
1.0383996230291617 8.85528546826335e-21 2.440824314763665e-13 2.440824152497586e-13 1.6226607889290344e-20
1.0403485208654093 8.889649099314437e-21 2.454894910500156e-13 2.4548947408615237e-13 1.6963863208404318e-20
1.0423010764483396 8.924039541091555e-21 2.4690171423890896e-13 2.469016965057715e-13 1.7733137530876294e-20
1.0462171883269815 8.992899914738571e-21 2.497416886166896e-13 2.497416692436096e-13 1.9373079962816286e-20
1.0471985131304309 9.01013140040133e-21 2.504549240784032e-13 2.5045490427319854e-13 1.9805204790470075e-20
1.048180758391296 9.027369386395098e-21 2.511694586708693e-13 2.511694384243224e-13 2.0246546956946816e-20
1.0501480137395462 9.061864748449282e-21 2.52602430075649e-13 2.5260240891801445e-13 2.115763453409412e-20
1.0521189612883777 9.096385781844762e-21 2.5404061256260067e-13 2.540405904547193e-13 2.210788131835219e-20
1.0531058218030118 9.11363299244946e-21 2.5476102185492083e-13 2.547609992567015e-13 2.2598219307582365e-20
1.0540936079674168 9.130811630265326e-21 2.554806404235351e-13 2.554806173244724e-13 2.3099062630536643e-20
1.058054026499678 9.199586013493462e-21 2.5837206818491444e-13 2.5837204297422455e-13 2.5210689875095555e-20
1.0590464539527713 9.21679444207965e-21 2.5909816974912955e-13 2.5909814398237077e-13 2.5766758740114912e-20
1.06003981227728 9.234008754725368e-21 2.598255716929223e-13 2.598255453583758e-13 2.6334546508020322e-20
1.0620293250338977 9.268454936473194e-21 2.6128428184711497e-13 2.6128425434089346e-13 2.7506221487152144e-20
1.0660195594769086 9.337416872607644e-21 2.6421736360218697e-13 2.6421733360136624e-13 3.0000820755203934e-20
1.070024785945596 9.406470372791676e-21 2.671713978803933e-13 2.671713651695676e-13 3.271082575869342e-20
1.0740450607676866 9.475614066896682e-21 2.7014647143131847e-13 2.701464357774845e-13 3.565383408225484e-20
1.07808044048254 9.544846665236498e-21 2.7314267340583077e-13 2.7314263455703763e-13 3.884879314282405e-20
1.0861967418109137 9.683467838066134e-21 2.7919577584524686e-13 2.791957297675554e-13 4.607769143435544e-20
1.0902777775684922 9.752613269963691e-21 2.822458703615845e-13 2.822458202043981e-13 5.015718629431688e-20
1.0943741465085532 9.821839121990583e-21 2.8531727928932667e-13 2.8531722470938173e-13 5.457994485412312e-20
1.1026131145906286 9.960528791451818e-21 2.915244481600972e-13 2.915243835937237e-13 6.456637352476334e-20
1.1109141095355224 1.0099531159086044e-20 2.9781812780672e-13 2.9781805152635525e-13 7.628036476891129e-20
1.1192775983109025 1.0238733131387142e-20 3.0419597838410176e-13 3.041958883816226e-13 9.000247911035335e-20
1.1277040513999907 1.0377631546652138e-20 3.1064389354703566e-13 3.1064378749135993e-13 1.0605567570865551e-19
1.1361939428280308 1.0516818407053967e-20 3.1718035275994887e-13 3.1718022794874166e-13 1.248112072612873e-19
1.1447477501889525 1.0656294299831152e-20 3.238064071082764e-13 3.238062604130143e-13 1.4669526214920375e-19
1.1533659546722406 1.0796111081942129e-20 3.3052468887761304e-13 3.3052451668093727e-13 1.7219667575949987e-19
1.1707974979042381 1.1077190650847748e-20 3.442554696129285e-13 3.442552332404792e-13 2.3637244932946123e-19
1.1884924949847024 1.1359676816968139e-20 3.583701698533047e-13 3.58369847014421e-13 3.228388836583322e-19
1.2064549276569216 1.164547765366636e-20 3.729390335245763e-13 3.729385947684708e-13 4.387561055536493e-19
1.2246888378427687 1.1932741216844442e-20 3.8791396526732363e-13 3.879133718979593e-13 5.933693643437929e-19
1.2431983285522175 1.222123277926979e-20 4.032968842996371e-13 4.0329608572563526e-13 7.985740018009979e-19
1.2619875648066055 1.2511371841045662e-20 4.1911136741252413e-13 4.1911029781530654e-13 1.0695972175275643e-18
1.3004222497298317 1.3094799905870858e-20 4.5201483779941664e-13 4.520129460371239e-13 1.8917622928482244e-18
1.3400274889804893 1.368474907477813e-20 4.867657123605445e-13 4.867624278504808e-13 3.284510063759009e-18
1.3808389325824078 1.4283333080671766e-20 5.235305389576838e-13 5.235249383308318e-13 5.6006268519584744e-18
1.4228933163050095 1.4895499961821055e-20 5.625962812479508e-13 5.625868974194326e-13 9.383828518206377e-18
1.466228494730424 1.5531790560341696e-20 6.044948622396683e-13 6.044794054860447e-13 1.545675362365497e-17
1.5108834753276823 1.6190748312396096e-20 6.49332777434465e-13 6.493077369463899e-13 2.5040488075259674e-17
1.5568984535646726 1.6871564112794108e-20 6.972444514766104e-13 6.972045110875358e-13 3.994038907452987e-17
1.6043148490894465 1.757790637870214e-20 7.485592534384052e-13 7.484964129707223e-13 6.284046768270628e-17
1.6531753430134553 1.8313563069529613e-20 8.03639362892427e-13 8.035419518676368e-13 9.741102479010122e-17
1.7035239163302658 1.9082908234088243e-20 8.629034990889815e-13 8.627546933784097e-13 1.4880571057187505e-16
1.755405889504358 1.9899530316130757e-20 9.272349865960868e-13 9.270108616249009e-13 2.2412497118582614e-16
1.8088679632656115 2.0762395227457585e-20 9.96904953639149e-13 9.965720084767286e-13 3.329451624204358e-16
1.8639582606462262 2.1669860403848803e-20 1.072165256245125e-12 1.0716772353952605e-12 4.880208498639963e-16
1.9207263702978936 2.2623080722516598e-20 1.153417873964766e-12 1.1527118015600207e-12 7.060724047454985e-16
1.979223391128241 2.3624275014152557e-20 1.2411456162579814e-12 1.2401368947473997e-12 1.0087215105819021e-15
2.039501978296691 2.4674795283702436e-20 1.3358174799566195e-12 1.3343939803652988e-12 1.4234995913206254e-15
2.1016163906111602 2.5783167322785962e-20 1.4383320139417368e-12 1.4363469036451372e-12 1.985110296599503e-15
2.1656225393682647 2.6951783119090772e-20 1.5493149054699317e-12 1.5465783749078814e-12 2.7365305620505976e-15
2.231578038680979 2.8174373069475287e-20 1.6689209747339862e-12 1.6651907314845191e-12 3.730243249467488e-15
2.299542257339062 2.944837067608134e-20 1.7975132438156002e-12 1.7924837353689313e-12 5.0295084466682935e-15
2.369576372248914 3.077373327210494e-20 1.935621016992302e-12 1.9289113162580654e-12 6.709700734236663e-15
2.4417434235010123 3.2151045389325805e-20 2.083840902440021e-12 2.0749816350571566e-12 8.859267382864388e-15
2.5161083711144245 3.3586426946844453e-20 2.2431720245775732e-12 2.2315910096920877e-12 1.1581014885485926e-14
2.5927381535095444 3.509335263070077e-20 2.4151991769416118e-12 2.40020638629685e-12 1.4992790644762612e-14
2.6717017477616296 3.668273915959984e-20 2.6014720563582185e-12 2.582244958723853e-12 1.922709763436562e-14
2.753070231689431 3.837322752890524e-20 2.8042391766383513e-12 2.7798080936210082e-12 2.44310830173429e-14
2.836916847834745 4.022414880759913e-20 3.0290253097371107e-12 2.9982582554101174e-12 3.076705432699313e-14
2.9233170693905177 4.237214344132577e-20 3.2879544268810415e-12 3.2495508732830292e-12 3.840355359801129e-14
2.967498994190263 4.369335126853884e-20 3.4417186859944134e-12 3.3990376092004798e-12 4.268107679393258e-14
3.0123486681368425 4.510697000255811e-20 3.606768984484251e-12 3.559395665708461e-12 4.737331877579049e-14
3.0578761833420214 4.7450499575798896e-20 3.851501919429167e-12 3.798973004281374e-12 5.2528915147794035e-14
3.1040917844459814 5.019988904078541e-20 4.1362496614548234e-12 4.07811982227134e-12 5.812983918348314e-14
3.127460860933648 5.2762867463793376e-20 4.380157290432331e-12 4.319032333046158e-12 6.112495738617273e-14
3.1510058709225794 5.602306993691385e-20 4.685819430249682e-12 4.6215752206722385e-12 6.424420957744301e-14
3.162844764501044 5.897585970568075e-20 4.951326783024828e-12 4.885469403089146e-12 6.585737993568243e-14
3.1747281389236908 6.231826492452016e-20 5.251596225607471e-12 5.184093612198756e-12 6.750261340871341e-14
3.1986289994194426 7.13732211450875e-20 6.059943858481687e-12 5.98904446555969e-12 7.089939292199637e-14
3.2227097969389145 9.234965614478915e-20 7.89997860450784e-12 7.825482644521034e-12 7.449595998680821e-14
3.2348180950136065 1.1203301107103147e-19 9.619783662251223e-12 9.543369067464634e-12 7.641459478658687e-14
3.240889293275058 1.2673757952787298e-19 1.0902824908703838e-11 1.0825398280942639e-11 7.742662776119586e-14
3.2469718861334385 1.4377942388251185e-19 1.2392094038335271e-11 1.2313620257388206e-11 7.847378094706534e-14
3.2714166318528037 2.332068723984524e-19 2.025100751824926e-11 2.016820863870353e-11 8.279887954573317e-14
3.2744851364798273 2.3879536277501877e-19 2.0755745904329917e-11 2.0672437952709697e-11 8.330795162021473e-14
3.2775565192852394 2.445332986294553e-19 2.127441510455001e-11 2.1190595594365673e-11 8.381951018434009e-14
3.283707930232385 2.390212601533959e-19 2.0833895744879864e-11 2.0749162675631787e-11 8.473306924807283e-14
3.2898708863219004 2.2150167920848855e-19 1.934306583941424e-11 1.9257502550675565e-11 8.556328873867677e-14
3.29141343181113 2.1736121472131707e-19 1.8990391697299007e-11 1.890461996605734e-11 8.577173124167412e-14
3.292184975758714 2.1532540278096517e-19 1.881693696004166e-11 1.8731060874271304e-11 8.587608577034899e-14
3.295272960557952 2.0263061618538162e-19 1.772416942935076e-11 1.7637887645253968e-11 8.62817840967991e-14
3.3076538914384823 1.583193452472922e-19 1.3900277723479199e-11 1.3812367046254793e-11 8.79106772244057e-14
3.310756385682612 1.4920700150017392e-19 1.3112510869274238e-11 1.3024189737000124e-11 8.832113227411204e-14
3.313861789986515 1.4076274843740698e-19 1.2382021749559658e-11 1.2293288867871745e-11 8.873288168791223e-14
3.3200813396944477 1.2896942655584177e-19 1.136592865502433e-11 1.1276309597319075e-11 8.961905770525532e-14
3.345076488085796 1.0837256741942605e-19 9.622653507679616e-12 9.529083850300759e-12 9.356965737885605e-14
3.3482140837626964 1.0920932500071095e-19 9.706046659361898e-12 9.611941771186817e-12 9.410488817507984e-14
3.3513546224236106 1.100536729884813e-19 9.790263021190904e-12 9.695620554512863e-12 9.464246667804526e-14
3.3576445397418455 1.1597934970565435e-19 1.033676920457098e-11 1.0241002580559786e-11 9.57666240111941e-14
3.3702598118196083 1.3744543950891312e-19 1.229598002980399e-11 1.2197855549795325e-11 9.812448000866623e-14
3.382922481734668 1.4257160229467568e-19 1.2802491900045504e-11 1.27020774376014e-11 1.0041446244410185e-13
3.389271646505754 1.4521406681817823e-19 1.3064250519638295e-11 1.2962675702614081e-11 1.0157481702421089e-13
3.395632727569191 1.4812083242465853e-19 1.3350769190677333e-11 1.3247998558260899e-11 1.0277063241643498e-13
3.421196662673239 1.622201149208856e-19 1.473167663854906e-11 1.462395786009248e-11 1.0771877845657874e-13
3.4276182099114902 1.5967565598984107e-19 1.4527824456735171e-11 1.441900339999007e-11 1.0882105674510145e-13
3.4340518103208963 1.481197095904097e-19 1.3501720957604011e-11 1.3391858302098454e-11 1.0986265550555801e-13
3.4469541582030403 1.3153951444309606e-19 1.2035417912385475e-11 1.1923557997839834e-11 1.1185991454564212e-13
3.472904465399547 1.2694973222303022e-19 1.1702915219838762e-11 1.1586451557193876e-11 1.164636626448859e-13
3.4990501388274233 1.2000355957414892e-19 1.1145863679757233e-11 1.1024693365919788e-11 1.2117031383744544e-13
3.5253949054701885 9.534199961799869e-20 8.921984446699995e-12 8.796248739163284e-12 1.257357075367113e-13
3.5519380250092896 7.186919814554669e-20 6.776065758403559e-12 6.645747155389077e-12 1.3031860301448386e-13
3.578680990867387 6.273761357225163e-20 5.959645324006668e-12 5.824304527466522e-12 1.3534079654014754e-13
3.605625307711299 5.925018176848957e-20 5.670739710534057e-12 5.5301131405082494e-12 1.4062657002580848e-13
3.660119384959845 5.710738631418851e-20 5.5482620910505145e-12 5.396546801213812e-12 1.517152898367021e-13
3.715437065384467 5.569138238503542e-20 5.492465536805217e-12 5.32908443610101e-12 1.633811007042076e-13
3.8285932144167436 5.577978773154118e-20 5.668726650855403e-12 5.4803570480916654e-12 1.8836960276373675e-13
3.94519561050918 5.658292851128391e-20 5.9254780731926625e-12 5.7099866986709e-12 2.1549137452176168e-13
4.06534921144712 5.762165889633476e-20 6.218033356645737e-12 5.973350246593118e-12 2.446831100526214e-13
4.189162171576248 5.875389508863274e-20 6.533310061417083e-12 6.257343746852988e-12 2.759663145640948e-13
4.316745939156006 5.991902747501257e-20 6.865792565354186e-12 6.556606770435273e-12 3.0918579491891295e-13
4.448215356677963 6.108895231992519e-20 7.213032934246053e-12 6.8691971167546505e-12 3.438358174914034e-13
4.58368876423945 6.225818819737085e-20 7.574972003179471e-12 7.1950505681072704e-12 3.799214350722014e-13
4.723288106065518 6.343610915815271e-20 7.953355734199012e-12 7.535723042079043e-12 4.176326921199681e-13
4.867139040275056 6.463570512089401e-20 8.350561463951143e-12 7.894665148734898e-12 4.55896315216244e-13
4.940699165968905 6.528262122673807e-20 8.561609743675145e-12 8.08626580585839e-12 4.753439378167563e-13
5.015371051989984 6.590570605365357e-20 8.773957350687083e-12 8.279022717449452e-12 4.949346332376298e-13
5.091171501069577 6.662867545952756e-20 9.00426648804791e-12 8.489163233805206e-12 5.151032542427025e-13
5.129500256944802 6.698011053834945e-20 9.119905724059012e-12 8.594689291402157e-12 5.252164326568537e-13
5.168117569889187 6.73359749375313e-20 9.237383420582834e-12 8.701930570834886e-12 5.354528497479518e-13
5.20702561229733 6.778142025085471e-20 9.36849461464705e-12 8.82182797340687e-12 5.466666412401791e-13
5.246226572918644 6.822318393913586e-20 9.500543696145408e-12 8.942616216563116e-12 5.579274795822935e-13
5.265937586045735 6.84427268507306e-20 9.566926656442198e-12 9.003352798627166e-12 5.635738578150327e-13
5.285722656980489 6.86614011692325e-20 9.633552460520736e-12 9.064322493215684e-12 5.692299673050528e-13
5.305582063971359 6.887922606666675e-20 9.700424238269313e-12 9.125529117389607e-12 5.748951208797063e-13
5.3255160863122235 6.911378417424e-20 9.770027955108435e-12 9.1894110031793e-12 5.80616951929136e-13
5.365609099470188 6.971653478802457e-20 9.929428561370972e-12 9.336970755925332e-12 5.924578054456399e-13
5.406003951863644 7.032357532485493e-20 1.0091291104821716e-11 9.486946867502668e-12 6.04344237319048e-13
5.446702915881641 7.093556304220451e-20 1.0255743279891073e-11 9.63947254145139e-12 6.162707384396836e-13
5.487708281020852 7.158655789358444e-20 1.0427781692228144e-11 9.799495296125033e-12 6.282863961031106e-13
5.529022354014368 7.254079508565848e-20 1.0646334082358933e-11 1.0005523281144097e-11 6.40810801214838e-13
5.570647458961463 7.352428390129135e-20 1.087191156780253e-11 1.021853109502238e-11 6.533804727801492e-13
5.612585937458331 7.453984906167151e-20 1.1105060932832472e-11 1.0439071134289008e-11 6.659897985434637e-13
5.654840148729818 7.564066598363665e-20 1.1353901175365214e-11 1.0675201099170932e-11 6.787000761942837e-13
5.67608639626678 7.642759420010864e-20 1.1515124008799892e-11 1.082976647332814e-11 6.853575354717521e-13
5.686739436050992 7.682938017888078e-20 1.1597385463777703e-11 1.0908694418544189e-11 6.886910452335131e-13
5.6974124697621304 7.723690904161906e-20 1.1680783652793543e-11 1.0988756029649223e-11 6.9202762314432e-13
5.718818669136295 7.806980281206015e-20 1.1851104884945896e-11 1.115239525914252e-11 6.987096258033751e-13
5.740305295436557 7.899000873546898e-20 1.2035844985880192e-11 1.1330388875727418e-11 7.054561101527749e-13
5.7835210386641895 8.143088201716537e-20 1.2501176637888164e-11 1.1781781415454761e-11 7.193952224334024e-13
5.827062130521658 8.419603334774255e-20 1.3022990185008175e-11 1.2289470181429514e-11 7.335200035786595e-13
5.8489554468988025 8.619777758901403e-20 1.3382702233516878e-11 1.2641529906689029e-11 7.41172326827848e-13
5.870931020387893 8.831666900087419e-20 1.3763189558335815e-11 1.3014341119517847e-11 7.488484388179677e-13
5.892989160043636 9.056201182911562e-20 1.4166127198969826e-11 1.3409579567547034e-11 7.565476314227929e-13
5.915130176081913 9.311275615659525e-20 1.4619850169713623e-11 1.3855313697541578e-11 7.645364721720466e-13
5.95966208400165 1.0035660516162625e-19 1.5875851591686703e-11 1.50929642010886e-11 7.828873905981044e-13
6.004529249263818 1.1078946392587098e-19 1.7658217374128487e-11 1.685459713830112e-11 8.036202358273685e-13
6.027089341400364 1.1806943712722705e-19 1.888924306397401e-11 1.807356981122959e-11 8.156732527444254e-13
6.049734195844842 1.2660175858925948e-19 2.0330378544631187e-11 1.95019221547736e-11 8.284563898575859e-13
6.095279466722835 1.5127248615724066e-19 2.447501689687919e-11 2.361488862263954e-11 8.601282742396484e-13
6.141167624020661 1.889516686623526e-19 3.0801446781151347e-11 2.9899902110693965e-11 9.015446704573749e-13
6.164241091010745 2.1296709842021087e-19 3.48466925066918e-11 3.39190043012935e-11 9.276882053982995e-13
6.187401249150058 2.3997549048891736e-19 3.9413463598734277e-11 3.845895869889776e-11 9.54504899836516e-13
6.1990139391386085 2.5308650718282075e-19 4.1644824686862234e-11 4.067668005409304e-11 9.681446327691875e-13
6.204828454712694 2.5996367161292967e-19 4.2816570081482904e-11 4.1841539220389056e-11 9.750308610938483e-13
6.210648424152782 2.649270863289922e-19 4.367498267143054e-11 4.269411810247031e-11 9.80864568960241e-13
6.233982942956859 2.8152789688430616e-19 4.6586113313161296e-11 4.55850509987453e-11 1.0010623144159935e-12
6.239830258556775 2.8349843755080494e-19 4.695619294948484e-11 4.595243443420936e-11 1.0037585152754702e-12
6.245683058788269 2.834272803534773e-19 4.6988439741836163e-11 4.598198180723052e-11 1.0064579346056372e-12
6.257405133728602 2.824144981346744e-19 4.6908408145569255e-11 4.58972875956413e-11 1.0111205499279557e-12
6.269149208991335 2.7844953069199467e-19 4.6336639041362104e-11 4.532410646916382e-11 1.0125325721982948e-12
6.280915325867298 2.693328364246049e-19 4.490365334591729e-11 4.3893724340264933e-11 1.009929005652339e-12
6.304513850009849 2.471967458294035e-19 4.136792957907236e-11 4.036683509498455e-11 1.0010944840878187e-12
6.32820103803542 2.202607190033978e-19 3.6998724573757283e-11 3.6010323466782814e-11 9.884011069744672e-13
6.3519772230701035 1.9569473798468461e-19 3.2995712687174797e-11 3.201877125519544e-11 9.769414319793517e-13
6.375842739491607 1.7497745551198507e-19 2.961345820699443e-11 2.8646707917468942e-11 9.6675028952549e-13
6.399797922933955 1.5850746126965784e-19 2.6926840903287975e-11 2.596571562152902e-11 9.611252817589579e-13
6.42384311029221 1.4475317992065134e-19 2.4682689029762e-11 2.3726276086711897e-11 9.564129430501103e-13
6.447978639727206 1.3473389622561365e-19 2.3060562260757334e-11 2.2105309177379946e-11 9.55253083377379e-13
6.472204850670314 1.263410631141015e-19 2.1705321082661166e-11 2.0750525508827008e-11 9.547955738341626e-13
6.496522083828205 1.2082667960748948e-19 2.083594455600783e-11 1.9878735491479216e-11 9.572090645286219e-13
6.520930681187647 1.16142994107558e-19 2.0103516670097358e-11 1.9143466615942613e-11 9.600500541547383e-13
6.57002334288761 1.1107890942285728e-19 1.9371709727965052e-11 1.8402028761395336e-11 9.696809665697243e-13
