Dust emission spectrum from A.P. Jones, M. Kohler, N. Ysard, M. Bocchio, and L. Verstraete (2017), A&A, 602A, 46J 
inside the DustPedia framework.

lambda    nu*dP/dnu     j_nu    j_nu(carb.) j_nu(sil)
 (um)   (erg s-1 H-1) (Jy cm2 sr-1 H-1)
0.9927057738263894 2.9336015544317807e-25 7.730206721169575e-18 7.730206639362161e-18 8.180741359219557e-26
1.0001793341362166 2.9824587121500594e-25 7.918113998834631e-18 7.918113900334032e-18 9.85005985917963e-26
1.0077091589558085 3.0313291672982857e-25 8.108448023804558e-18 8.108447905359772e-18 1.184447868920092e-25
1.0114953028030835 3.055764498495199e-25 8.204520120237064e-18 8.204519990417362e-18 1.298197013382285e-25
1.0152956718711033 3.0801973182315586e-25 8.301192906333059e-18 8.30119276409282e-18 1.422402403759607e-25
1.0229392996569957 3.12902387870655e-25 8.496267437791148e-18 8.496267267197397e-18 1.7059375209692593e-25
1.0267826658714554 3.1533596648912137e-25 8.594516893042859e-18 8.594516706304085e-18 1.867387757492701e-25
1.0306404723013447 3.1776840890542555e-25 8.693353609570067e-18 8.693353405225566e-18 2.0434450018492163e-25
1.03451277320114 3.201995287657061e-25 8.792775379216279e-18 8.792775155679783e-18 2.2353649610534784e-25
1.0383996230291617 3.2262914126490393e-25 8.892779972740232e-18 8.892779728289712e-18 2.4445051959939556e-25
1.0403485208654093 3.2384332493820016e-25 8.943000126422825e-18 8.942999870824137e-18 2.5559868963109093e-25
1.0423010764483396 3.2505706319621475e-25 8.993365141319628e-18 8.993364874086341e-18 2.6723328500942677e-25
1.0462171883269815 3.274831129998544e-25 9.094528618070512e-18 9.09452832602722e-18 2.9204329204813184e-25
1.0471985131304309 3.280893118149965e-25 9.119909580663874e-18 9.119909282081556e-18 2.9858231764022443e-25
1.048180758391296 3.286953795785667e-25 9.145326509047674e-18 9.145326203786188e-18 3.0526148141098894e-25
1.0501480137395462 3.299071108111298e-25 9.196268119581968e-18 9.196267800530261e-18 3.190517106338882e-25
1.0521189612883777 3.3111828448708695e-25 9.247353161918981e-18 9.24735282848147e-18 3.3343751090370304e-25
1.0531058218030118 3.317227665300998e-25 9.272924534460093e-18 9.27292419359825e-18 3.4086184184898254e-25
1.0540936079674168 3.3232418892468643e-25 9.298450132657441e-18 9.298449784211478e-18 3.4844596410397884e-25
1.058054026499678 3.3472822682916024e-25 9.400903923162255e-18 9.400903542732444e-18 3.804298093776164e-25
1.0590464539527713 3.35328809848356e-25 9.426605035173041e-18 9.426604646318615e-18 3.8885442580720563e-25
1.06003981227728 3.359292168954494e-25 9.452341138787641e-18 9.452340741330184e-18 3.9745745661355698e-25
1.0620293250338977 3.3712949235484278e-25 9.503918172248889e-18 9.503917757035693e-18 4.152131991035453e-25
1.0660195594769086 3.3952781413195556e-25 9.607490502296246e-18 9.607490049267877e-18 4.530283649972375e-25
1.070024785945596 3.419230227533696e-25 9.711618528108499e-18 9.711618033982836e-18 4.941256628237994e-25
1.0740450607676866 3.4431495081783834e-25 9.816299858543113e-18 9.81629931976822e-18 5.387748909536347e-25
1.07808044048254 3.4670343297248883e-25 9.921532098152191e-18 9.921531510885493e-18 5.872666972494437e-25
1.0861967418109137 3.514653724775565e-25 1.0133523340250685e-17 1.013352264319661e-17 6.970540720112531e-25
1.0902777775684922 3.53829331268338e-25 1.0240011041026468e-17 1.0240010281977054e-17 7.590494128170316e-25
1.0943741465085532 3.5618904317754477e-25 1.0347032510901988e-17 1.0347031684611987e-17 8.262900018408903e-25
1.1026131145906286 3.6089511476952316e-25 1.0562667041046238e-17 1.0562666062829905e-17 9.782163356014616e-25
1.1109141095355224 3.655823874941994e-25 1.0780407574135959e-17 1.0780406417556107e-17 1.1565798538030744e-24
1.1192775983109025 3.7024557537931224e-25 1.1000112377148739e-17 1.1000111011444347e-17 1.365704393057357e-24
1.1277040513999907 3.748646047903705e-25 1.1221192413852704e-17 1.122119080327983e-17 1.6105728746260772e-24
1.1361939428280308 3.794608706583442e-25 1.144429124432569e-17 1.1444289347406125e-17 1.8969195696332908e-24
1.1447477501889525 3.840333420024975e-25 1.1669390238742095e-17 1.1669388007407219e-17 2.2313348699182406e-24
1.1533659546722406 3.885832316120528e-25 1.1896538555115216e-17 1.1896535933728623e-17 2.621386593075787e-24
1.1707974979042381 3.976295929219665e-25 1.2357480028826006e-17 1.2357476424443265e-17 3.604382739210355e-24
1.1884924949847024 4.065731067451619e-25 1.2826392481906655e-17 1.2826387550586854e-17 4.931319799556454e-24
1.2064549276569216 4.154802834067601e-25 1.3305492479602282e-17 1.3305485765955006e-17 6.713647281305425e-24
1.2246888378427687 4.24267784662608e-25 1.3792254075813897e-17 1.3792244980194404e-17 9.095619495429367e-24
1.2431983285522175 4.329198502744998e-25 1.4286220540969282e-17 1.428620827766801e-17 1.2263301273386418e-23
1.2619875648066055 4.414390153672376e-25 1.4787515846410847e-17 1.4787499390949987e-17 1.645546085974974e-23
1.3004222497298317 4.579706491412361e-25 1.5808529353370246e-17 1.5808500139625123e-17 2.921374511909169e-23
1.3400274889804893 4.738432325726125e-25 1.6854575658645794e-17 1.6854524741152533e-17 5.091749326009087e-23
1.3808389325824078 4.890478362490315e-25 1.792519125903511e-17 1.7925104092187775e-17 8.716684733060127e-23
1.4228933163050095 5.036854498476079e-25 1.9023971114046564e-17 1.9023824473536213e-17 1.4664051035312748e-22
1.466228494730424 5.180693582909364e-25 2.0163178492137953e-17 2.01629359477381e-17 2.4254439985561487e-22
1.5108834753276823 5.320507253219438e-25 2.1337986888772252e-17 2.1337592291547152e-17 3.945972251082762e-22
1.5568984535646726 5.455185280523301e-25 2.254442826517423e-17 2.2543796149255775e-17 6.32115918463235e-22
1.6043148490894465 5.585419414282574e-25 2.378563918147596e-17 2.3784640280782502e-17 9.989006934644005e-22
1.6531753430134553 5.712010185348662e-25 2.506555501384776e-17 2.5063999675716284e-17 1.555338131474878e-21
1.7035239163302658 5.836240611228672e-25 2.6390696759513383e-17 2.638831000839207e-17 2.3867511213079696e-21
1.755405889504358 5.962941110139973e-25 2.778481467902783e-17 2.7781203190677746e-17 3.611488350084203e-21
1.8088679632656115 6.091676500553341e-25 2.924914208037864e-17 2.924375174781939e-17 5.3903325592468e-21
1.8639582606462262 6.222250175362572e-25 3.078598721616125e-17 3.077804818938217e-17 7.939026779081718e-21
1.9207263702978936 6.355707723861337e-25 3.2404016854792494e-17 3.2392474229703284e-17 1.154262508920481e-20
1.979223391128241 6.4937689273606195e-25 3.411623354518863e-17 3.4099660793588045e-17 1.657275160058061e-20
2.039501978296691 6.638301499901397e-25 3.5937721382626853e-17 3.5914214678006084e-17 2.350670462076179e-20
2.1016163906111602 6.793876224515979e-25 3.7900113473812994e-17 3.786716200581511e-17 3.2951467997879125e-20
2.1656225393682647 6.9632747069797625e-25 4.0028168996224335e-17 3.998250303427712e-17 4.5665961947220786e-20
2.231578038680979 7.146848446380195e-25 4.233466081391336e-17 4.227207442212283e-17 6.258639179052395e-20
2.299542257339062 7.346286217101648e-25 4.4841349334228743e-17 4.4756495984428073e-17 8.485334980067864e-20
2.369576372248914 7.5648118314243565e-25 4.7581515836981346e-17 4.746767456472758e-17 1.138412722537694e-19
2.4417434235010123 7.806154207664437e-25 5.05948818512944e-17 5.0443699065486454e-17 1.5118278580795368e-19
2.5161083711144245 8.076555826800544e-25 5.394174293767836e-17 5.3742942925986293e-17 1.9880001169207013e-19
2.5927381535095444 8.385928220041247e-25 5.771374182475942e-17 5.745481463767426e-17 2.589271870851656e-19
2.6717017477616296 8.745268220225875e-25 6.201982573136547e-17 6.168570993755796e-17 3.341157938075091e-19
2.753070231689431 9.170752922550094e-25 6.701803908809575e-17 6.659079133093434e-17 4.2724775716142415e-19
2.836916847834745 9.699544832864842e-25 7.304111500832285e-17 7.249955651431383e-17 5.415584940090243e-19
2.9233170693905177 1.0412723231341663e-24 8.079968739789027e-17 8.011917920985833e-17 6.805081880319313e-19
2.967498994190263 1.0917441008156956e-24 8.599651807452678e-17 8.523747781434021e-17 7.590402601865797e-19
3.0123486681368425 1.1483789589050317e-24 9.18247803206042e-17 9.097927063818132e-17 8.455096824228754e-19
3.0578761833420214 1.2561568909319093e-24 1.0196079535052962e-16 1.0101994702416405e-16 9.40848326365554e-19
3.1040917844459814 1.3898461180989627e-24 1.1451719605974637e-16 1.1347228598123655e-16 1.0449100785097677e-18
3.127460860933648 1.5224766707107427e-24 1.2638978147468862e-16 1.2528903036270906e-16 1.1007511119795412e-18
3.1510058709225794 1.6959061580984295e-24 1.4184710042570495e-16 1.4068805220326312e-16 1.159048222441803e-18
3.162844764501044 1.8544980831690552e-24 1.5569465327147554e-16 1.5450540123844357e-16 1.1892520330320199e-18
3.1747281389236908 2.0373750062209156e-24 1.7169077004592393e-16 1.7047067557848976e-16 1.2200944674341645e-18
3.1986289994194426 2.5422536090765724e-24 2.1585006109937693e-16 2.1456617153925585e-16 1.2838895601210127e-18
3.2227097969389145 3.7216273987308725e-24 3.1836368483958897e-16 3.1701210094717495e-16 1.351583892414001e-18
3.2348180950136065 4.835307364942961e-24 4.151866520997993e-16 4.1379891835080634e-16 1.387733748992958e-18
3.240889293275058 5.667272127805822e-24 4.87537129473545e-16 4.861303271379446e-16 1.4068023356003464e-18
3.2469718861334385 6.630073525512059e-24 5.714343011720457e-16 5.700077678868351e-16 1.4265332852107149e-18
3.2714166318528037 1.174455893668561e-23 1.0198633894415202e-15 1.0183552398652895e-15 1.5081495762306528e-18
3.2744851364798273 1.2064826171553646e-23 1.0486571576877945e-15 1.0471393677202297e-15 1.5177899675648869e-18
3.2775565192852394 1.239413135565544e-23 1.0782903465433057e-15 1.0767628659301649e-15 1.5274806131410062e-18
3.283707930232385 1.2080374422383007e-23 1.0529660044195238e-15 1.051421149084786e-15 1.544855334737783e-18
3.2898708863219004 1.1080489252408925e-23 9.67625319628069e-16 9.660646110684262e-16 1.5607085596425864e-18
3.29141343181113 1.0844571258633958e-23 9.474673586765362e-16 9.459026681985742e-16 1.5646904779622609e-18
3.292184975758714 1.0728631573215005e-23 9.375576749114786e-16 9.359909906780325e-16 1.5666842334456721e-18
3.295272960557952 9.998482657344462e-24 8.745707040295884e-16 8.729962566887928e-16 1.574447340795415e-18
3.3076538914384823 7.464318089222105e-24 6.553595474672507e-16 6.537538985096572e-16 1.6056489575934457e-18
3.310756385682612 6.947266990989373e-24 6.105351157465094e-16 6.089215977702159e-16 1.613517976293392e-18
3.313861789986515 6.469707648077776e-24 5.6909986271981e-16 5.674784482033455e-16 1.6214145164644912e-18
3.3200813396944477 5.801100313790066e-24 5.112443626988476e-16 5.0960598252917005e-16 1.6383801696774956e-18
3.345076488085796 4.617879386254569e-24 4.1003230182972127e-16 4.083183643601179e-16 1.7139374696032778e-18
3.3482140837626964 4.664185986835176e-24 4.145324294960107e-16 4.1280825848122056e-16 1.7241710147901963e-18
3.3513546224236106 4.7109782952534356e-24 4.190838465016973e-16 4.173493935032168e-16 1.734452998480522e-18
3.3576445397418455 5.045355038418137e-24 4.496720383379165e-16 4.479160954037703e-16 1.7559429341462412e-18
3.3702598118196083 6.2706510306086505e-24 5.609775058504847e-16 5.591764821001669e-16 1.801023750317776e-18
3.382922481734668 6.5558857998630896e-24 5.886984048681407e-16 5.868534795302296e-16 1.8449253379110577e-18
3.389271646505754 6.703455044199318e-24 6.030794258672327e-16 6.012122317930702e-16 1.8671940741624047e-18
3.395632727569191 6.863246202400605e-24 6.186139683872659e-16 6.167238244302129e-16 1.8901439570530427e-18
3.421196662673239 7.631654830901026e-24 6.930525924031381e-16 6.91067352602784e-16 1.9852398003538843e-18
3.4276182099114902 7.48445529883386e-24 6.809607392040871e-16 6.78954185590405e-16 2.0065536136822834e-18
3.4340518103208963 6.827127454298821e-24 6.223207572093995e-16 6.2029399996981e-16 2.0267572395894985e-18
3.4469541582030403 5.889975771515789e-24 5.389127381543119e-16 5.368471119597746e-16 2.0656261945372088e-18
3.472904465399547 5.63414112665254e-24 5.193857032008766e-16 5.172306694690683e-16 2.1550337318081913e-18
3.4990501388274233 5.240118949639734e-24 4.866993253005042e-16 4.844525906814982e-16 2.2467346190059602e-18
3.5253949054701885 3.8200681911005734e-24 3.5747717818893516e-16 3.551410245821383e-16 2.336153606796821e-18
3.5519380250092896 2.480555566434678e-24 2.3387498496220373e-16 2.314486871691096e-16 2.4262977930940525e-18
3.578680990867387 1.9556416685295455e-24 1.857726180780263e-16 1.8324747481779116e-16 2.5251432602351276e-18
3.605625307711299 1.7501437392086083e-24 1.6750344564091988e-16 1.6487403255887305e-16 2.6294130820468137e-18
3.660119384959845 1.6145645282316304e-24 1.568628463620784e-16 1.5401362995748313e-16 2.8492164045952517e-18
3.715437065384467 1.524246851882449e-24 1.5032618952906016e-16 1.4724417457077875e-16 3.0820149582814753e-18
3.8285932144167436 1.512208645034787e-24 1.536810697276166e-16 1.5009491074832203e-16 3.586158979294632e-18
3.94519561050918 1.5470210302706612e-24 1.620071536560475e-16 1.5786546860461142e-16 4.1416850514361e-18
4.06534921144712 1.6015960236464207e-24 1.7283045454871632e-16 1.6808104579428042e-16 4.749408754435874e-18
4.189162171576248 1.6679481796169093e-24 1.8547234370375858e-16 1.80060416768857e-16 5.411926934901518e-18
4.316745939156006 1.7429530078424036e-24 1.997154210821673e-16 1.935869238010941e-16 6.128497281073241e-18
4.448215356677963 1.8253937740232182e-24 2.1553202191196613e-16 2.086408141006703e-16 6.891207811295881e-18
4.58368876423945 1.915234345283448e-24 2.330271240636994e-16 2.2532452301587594e-16 7.702601047823473e-18
4.723288106065518 2.0132821701843176e-24 2.5241695156422117e-16 2.4384764720378435e-16 8.569304360436842e-18
4.867139040275056 2.1210544636255993e-24 2.7402804121599876e-16 2.645562485035235e-16 9.471792712475197e-18
4.940699165968905 2.1809829324511292e-24 2.8602902846699597e-16 2.760894779570469e-16 9.939550509949076e-18
5.015371051989984 2.2419279589156368e-24 2.984655119061314e-16 2.880482689479248e-16 1.041724295820657e-17
5.091171501069577 2.311068035625788e-24 3.123200682178404e-16 3.014054231983024e-16 1.091464501953804e-17
5.129500256944802 2.3460796129164247e-24 3.194384828416244e-16 3.082716618739301e-16 1.1166820967694373e-17
5.168117569889187 2.3820097748078568e-24 3.2677239205178797e-16 3.1534891832904315e-16 1.1423473722744837e-17
5.20702561229733 2.423675424225732e-24 3.3499136010247377e-16 3.232892789876125e-16 1.1702081114861228e-17
5.246226572918644 2.465946340393843e-24 3.4339984747944785e-16 3.314160198910816e-16 1.1983827588366258e-17
5.265937586045735 2.4873139666548814e-24 3.4767682974451146e-16 3.3555097249795027e-16 1.2125857246561208e-17
5.285722656980489 2.50883926006802e-24 3.520032247420776e-16 3.3973457823574736e-16 1.22686465063303e-17
5.305582063971359 2.53052446361407e-24 3.563797424003676e-16 3.4396755571843613e-16 1.2412186681931356e-17
5.3255160863122235 2.5534037322821837e-24 3.609529725963594e-16 3.48395495986996e-16 1.255747660936342e-17
5.365609099470188 2.6077881094506837e-24 3.7141613269670275e-16 3.585580332100309e-16 1.2858099486671898e-17
5.406003951863644 2.663541151378652e-24 3.822127786317787e-16 3.6905070101576646e-16 1.3162077616012192e-17
5.446702915881641 2.720727304406943e-24 3.9335813479038954e-16 3.7988878997768926e-16 1.3469344812700351e-17
5.487708281020852 2.7814269417640233e-24 4.05161440849167e-16 3.91380434357199e-16 1.3781006491967957e-17
5.529022354014368 2.8619168416821527e-24 4.2002466028252182e-16 4.059184951058352e-16 1.4106165176686668e-17
5.570647458961463 2.9459879044689346e-24 4.356182512460977e-16 4.2118329192461124e-16 1.4434959321486513e-17
5.612585937458331 3.0338964088246898e-24 4.519945359162804e-16 4.3722721155981276e-16 1.4767324356467542e-17
5.654840148729818 3.129046495987587e-24 4.696796918241228e-16 4.545750279190772e-16 1.510466390504558e-17
5.67608639626678 3.1922768206759096e-24 4.809710922504518e-16 4.656900542457005e-16 1.5281038004751282e-17
5.686739436050992 3.224699029449754e-24 4.867679208412879e-16 4.713983147667409e-16 1.536960607454691e-17
5.6974124697621304 3.257676310580991e-24 4.926687598829572e-16 4.772103329791881e-16 1.5458426903769128e-17
5.718818669136295 3.325349187720269e-24 5.047926417543694e-16 4.891558187268741e-16 1.563682302749537e-17
5.740305295436557 3.3993459144646276e-24 5.179642480721709e-16 5.021468051990509e-16 1.581744287312016e-17
5.7835210386641895 3.588591281461942e-24 5.509164628879313e-16 5.347252156224501e-16 1.6191247265481124e-17
5.827062130521658 3.803682874894096e-24 5.883332358668369e-16 5.717607628613017e-16 1.657247300553521e-17
5.8489554468988025 3.953302561512273e-24 6.13773028719724e-16 5.969952223187671e-16 1.6777806400956712e-17
5.870931020387893 4.112733417639026e-24 6.409246439005521e-16 6.239400779951945e-16 1.698456590535755e-17
5.892989160043636 4.282754544444692e-24 6.699282007233875e-16 6.527354537354115e-16 1.719274698797608e-17
5.915130176081913 4.475158682677569e-24 7.026550617447797e-16 6.85246650035777e-16 1.740841170900283e-17
5.95966208400165 5.010415450789592e-24 7.926195986932943e-16 7.747228604411651e-16 1.7896738252129213e-17
6.004529249263818 5.775939216502982e-24 9.20600087865812e-16 9.021554120980615e-16 1.8444675767750467e-17
6.027089341400364 6.306256207434741e-24 1.008901280672408e-15 9.90141562436433e-16 1.8759718235974872e-17
6.049734195844842 6.930057342338532e-24 1.1128651819351255e-15 1.0937720287592459e-15 1.9093153175879358e-17
6.095279466722835 8.727310967127439e-24 1.4120286432176098e-15 1.3921212935299244e-15 1.9907349687686053e-17
6.141167624020661 1.1480558916655e-23 1.8714723558283004e-15 1.8505149237982407e-15 2.0957432030059645e-17
6.164241091010745 1.3237969701403527e-23 2.1660597482880164e-15 2.144446482821653e-15 2.1613265466363436e-17
6.187401249150058 1.523072207097818e-23 2.5014867506007252e-15 2.4791990949839375e-15 2.2287655616787635e-17
6.1990139391386085 1.6203088198536344e-23 2.666182306298845e-15 2.6435513028805712e-15 2.2631003418274626e-17
6.204828454712694 1.6714493415712568e-23 2.752912644563324e-15 2.7301081194518186e-15 2.2804525111505856e-17
6.210648424152782 1.7087755945414404e-23 2.8170296029407413e-15 2.794076476057406e-15 2.2953126883335613e-17
6.233982942956859 1.8352882907561966e-23 3.0369618507334655e-15 3.013487370710782e-15 2.3474480022684025e-17
6.239830258556775 1.8513108671862447e-23 3.0663488321164673e-15 3.0427995666372076e-15 2.354926547925984e-17
6.245683058788269 1.8525041596376415e-23 3.071203307178974e-15 3.0475790995799788e-15 2.3624207598994457e-17
6.257405133728602 1.8485760848302262e-23 3.0704429853315714e-15 3.0466861658110213e-15 2.375681952055042e-17
6.269149208991335 1.823154774112589e-23 3.0339022110989624e-15 3.0100897365379135e-15 2.3812474561048447e-17
6.280915325867298 1.7600872644461313e-23 2.9344490419524922e-15 2.9106761947711358e-15 2.3772847181356543e-17
6.304513850009849 1.604845697623033e-23 2.6856803305316838e-15 2.662073095444459e-15 2.360723508722474e-17
6.32820103803542 1.4130737650529737e-23 2.373638262517007e-15 2.35028852769101e-15 2.334973482599721e-17
6.3519772230701035 1.2374375597122363e-23 2.0864196252317774e-15 2.063298254838855e-15 2.31213703929225e-17
6.375842739491607 1.0894907179624873e-23 1.843871128934126e-15 1.820948363513208e-15 2.292276542091873e-17
6.399797922933955 9.714446620263256e-24 1.6502652715023006e-15 1.6274316022714228e-15 2.283366923087727e-17
6.42384311029221 8.731563284064626e-24 1.4888685789313524e-15 1.4661022338198551e-15 2.2766345111497545e-17
6.447978639727206 8.018017465729539e-24 1.372334625183542e-15 1.3495498813973101e-15 2.278474378623163e-17
6.472204850670314 7.423152678390637e-24 1.275293308119246e-15 1.2524730089924324e-15 2.2820299126813745e-17
6.496522083828205 7.038596420601214e-24 1.2137700485371241e-15 1.1908444368489159e-15 2.2925611688208247e-17
