Dust emission spectrum from A.P. Jones, M. Kohler, N. Ysard, M. Bocchio, and L. Verstraete (2017), A&A, 602A, 46J 
inside the DustPedia framework.

lambda    nu*dP/dnu     j_nu    j_nu(carb.) j_nu(sil)
 (um)   (erg s-1 H-1) (Jy cm2 sr-1 H-1)
0.9927057738263894 2.537349531673922e-25 6.686060134537039e-18 6.686060052729627e-18 8.180741359219548e-26
1.0001793341362166 2.5796615931702863e-25 6.84873003938838e-18 6.848729940887781e-18 9.850059859179616e-26
1.0077091589558085 2.621996324319899e-25 7.01353094335943e-18 7.013530824914643e-18 1.1844478689200905e-25
1.0114953028030835 2.643168113056587e-25 7.096726850325334e-18 7.096726720505631e-18 1.2981970133822828e-25
1.0152956718711033 2.664340696784101e-25 7.180451057887705e-18 7.180450915647463e-18 1.4224024037596041e-25
1.0229392996569957 2.7066611777788044e-25 7.349422094983053e-18 7.3494219243893e-18 1.7059375209692554e-25
1.0267826658714554 2.727759012311648e-25 7.434537573521965e-18 7.434537386783188e-18 1.8673877574926963e-25
1.0306404723013447 2.7488502229220446e-25 7.52017077151272e-18 7.520170567168224e-18 2.043445001849211e-25
1.03451277320114 2.7699332580908264e-25 7.60632004915738e-18 7.606319825620883e-18 2.235364961053472e-25
1.0383996230291617 2.7910065800542426e-25 7.692983752671481e-18 7.69298350822096e-18 2.4445051959939478e-25
1.0403485208654093 2.801539121901184e-25 7.736507993833728e-18 7.736507738235036e-18 2.5559868963109006e-25
1.0423010764483396 2.8120686652389973e-25 7.780160215651672e-18 7.780159948418389e-18 2.6723328500942585e-25
1.0462171883269815 2.8331180046917257e-25 7.867847760458776e-18 7.867847468415484e-18 2.9204329204813073e-25
1.0471985131304309 2.8383781726301994e-25 7.889849305640859e-18 7.889849007058541e-18 2.985823176402233e-25
1.048180758391296 2.843637427322718e-25 7.91188266155669e-18 7.91188235629521e-18 3.052614814109878e-25
1.0501480137395462 2.8541531045028457e-25 7.956044699616076e-18 7.956044380564364e-18 3.1905171063388687e-25
1.0521189612883777 2.864664851912608e-25 8.000333662397105e-18 8.000333328959593e-18 3.334375109037017e-25
1.0531058218030118 2.8699115353590824e-25 8.022504263525278e-18 8.022503922663436e-18 3.4086184184898107e-25
1.0540936079674168 2.875132073635993e-25 8.044636262564375e-18 8.044635914118409e-18 3.4844596410397737e-25
1.058054026499678 2.8960022256125433e-25 8.133475608599565e-18 8.133475228169756e-18 3.8042980937761455e-25
1.0590464539527713 2.9012166511248573e-25 8.155763146026483e-18 8.155762757172059e-18 3.8885442580720375e-25
1.06003981227728 2.9064297869957247e-25 8.178081709149972e-18 8.178081311692517e-18 3.9745745661355505e-25
1.0620293250338977 2.91685210104913e-25 8.222811803051963e-18 8.222811387838765e-18 4.152131991035431e-25
1.0660195594769086 2.9376802808390153e-25 8.312643094970364e-18 8.312642641942e-18 4.53028364997235e-25
1.070024785945596 2.9584853632735258e-25 8.402967731666684e-18 8.40296723754102e-18 4.941256628237965e-25
1.0740450607676866 2.979265964426299e-25 8.493783960207004e-18 8.493783421432113e-18 5.387748909536313e-25
1.07808044048254 3.0000207185314576e-25 8.585090028916247e-18 8.58508944164955e-18 5.872666972494396e-25
1.0861967418109137 3.04141248689098e-25 8.769064276796634e-18 8.76906357974256e-18 6.970540720112475e-25
1.0902777775684922 3.061967660873198e-25 8.861499000722688e-18 8.861498241673271e-18 7.5904941281702515e-25
1.0943741465085532 3.0824903249561154e-25 8.95441008581605e-18 8.954409259526047e-18 8.262900018408825e-25
1.1026131145906286 3.1234331005600545e-25 9.141654324489249e-18 9.141653346272913e-18 9.78216335601451e-25
1.1109141095355224 3.1642309755837745e-25 9.330783085396911e-18 9.330781928817055e-18 1.1565798538030597e-24
1.1192775983109025 3.2048388484544765e-25 9.52167691606694e-18 9.521675550362547e-18 1.365704393057337e-24
1.1277040513999907 3.245083970399384e-25 9.713830317835324e-18 9.713828707262446e-18 1.6105728746260497e-24
1.1361939428280308 3.285151565046662e-25 9.907801884004247e-18 9.907799987084677e-18 1.8969195696332537e-24
1.1447477501889525 3.325033288611313e-25 1.0103578715142145e-17 1.0103576483807276e-17 2.23133486991819e-24
1.1533659546722406 3.3647400039133675e-25 1.0301206003777626e-17 1.0301203382391034e-17 2.621386593075718e-24
1.1707974979042381 3.4437529678198138e-25 1.0702450039324697e-17 1.0702446434941958e-17 3.604382739210229e-24
1.1884924949847024 3.521965362404252e-25 1.111094395975198e-17 1.111093902843218e-17 4.931319799556226e-24
1.2064549276569216 3.5999545042107232e-25 1.152862590492466e-17 1.152861919127738e-17 6.713647281305015e-24
1.2246888378427687 3.6770080877601867e-25 1.1953353900188478e-17 1.195334480456898e-17 9.095619495428637e-24
1.2431983285522175 3.7529938333648043e-25 1.2384763036010285e-17 1.2384750772709008e-17 1.2263301273385132e-23
1.2619875648066055 3.827941035578566e-25 1.2823003122108159e-17 1.2822986666647299e-17 1.6455460859747487e-23
1.3004222497298317 3.973810200409108e-25 1.3717057046272857e-17 1.371702783252774e-17 2.921374511908495e-23
1.3400274889804893 4.114497181375939e-25 1.4635242053427156e-17 1.4635191135933898e-17 5.09174932600714e-23
1.3808389325824078 4.24997960726535e-25 1.5577555335187555e-17 1.557746816834022e-17 8.716684733054686e-23
1.4228933163050095 4.381186755772207e-25 1.6547543772064687e-17 1.6547397131554335e-17 1.4664051035298002e-22
1.466228494730424 4.510886328086005e-25 1.7556299120062074e-17 1.755605657566221e-17 2.425443998552273e-22
1.5108834753276823 4.637864962633011e-25 1.8600238107875358e-17 1.8599843510650255e-17 3.9459722510728704e-22
1.5568984535646726 4.761234942703955e-25 1.9676567174109532e-17 1.967593505819107e-17 6.321159184607822e-22
1.6043148490894465 4.88166737717212e-25 2.0788694675368896e-17 2.0787695774675433e-17 9.989006934584872e-22
1.6531753430134553 4.999933009350011e-25 2.194080399801776e-17 2.1939248659886297e-17 1.555338131461001e-21
1.7035239163302658 5.117215918268726e-25 2.3139363598574133e-17 2.3136976847452854e-17 2.3867511212762515e-21
1.755405889504358 5.237774731631651e-25 2.440584227830217e-17 2.4402230789952142e-17 3.6114883500135185e-21
1.8088679632656115 5.361315489380042e-25 2.5742318797192746e-17 2.5736928464633646e-17 5.390332559093112e-21
1.8639582606462262 5.487737241588545e-25 2.715181868356048e-17 2.7143879656781722e-17 7.939026778755465e-21
1.9207263702978936 5.618016261187032e-25 2.864296181124621e-17 2.863141918615769e-17 1.1542625088528174e-20
1.979223391128241 5.753710941200565e-25 3.022820005104327e-17 3.0211627299444063e-17 1.657275159920854e-20
2.039501978296691 5.896495848474794e-25 3.192181387655421e-17 3.189830717193617e-17 2.3506704618039618e-20
2.1016163906111602 6.050400714745877e-25 3.375258336668401e-17 3.3719631898691417e-17 3.295146799259071e-20
2.1656225393682647 6.217893440467003e-25 3.574336787058648e-17 3.569770190864933e-17 4.566596193715358e-20
2.231578038680979 6.399303107893558e-25 3.7906544199256066e-17 3.784395780748433e-17 6.258639177173507e-20
2.299542257339062 6.596130685557223e-25 4.026243895000214e-17 4.0177585600235854e-17 8.485334976627942e-20
2.369576372248914 6.811184643642711e-25 4.284131545001941e-17 4.272747417782745e-17 1.1384127219194996e-19
2.4417434235010123 7.047703447527216e-25 4.5679051907595623e-17 4.552786912189678e-17 1.5118278569883767e-19
2.5161083711144245 7.311089593625566e-25 4.8829343090161373e-17 4.86305430786586e-17 1.988000115027815e-19
2.5927381535095444 7.609879970426687e-25 5.2372812693649976e-17 5.211388550688775e-17 2.589271867622161e-19
2.6717017477616296 7.9534301723725165e-25 5.640425666033915e-17 5.60701408670738e-17 3.3411579326532646e-19
2.753070231689431 8.355446214726581e-25 6.105993976133849e-17 6.063269200507311e-17 4.2724775626537185e-19
2.836916847834745 8.84749207521612e-25 6.662484656099229e-17 6.608328806844207e-17 5.4155849255021e-19
2.9233170693905177 9.498316645884197e-25 7.370415968452994e-17 7.302365149883916e-17 6.805081856907923e-19
2.967498994190263 9.950081136650613e-25 7.837663896435691e-17 7.761759870712118e-17 7.59040257235724e-19
3.0123486681368425 1.0454586164079228e-24 8.359523399616662e-17 8.274972431745058e-17 8.455096787160545e-19
3.0578761833420214 1.1393988795830587e-24 9.248368322654711e-17 9.15428349048289e-17 9.408483217182199e-19
3.1040917844459814 1.2552566031322281e-24 1.0342761306755624e-16 1.0238270299485488e-16 1.0449100727013735e-18
3.127460860933648 1.3690238632227076e-24 1.13650757502626e-16 1.1255000639714356e-16 1.1007511054824134e-18
3.1510058709225794 1.517320525562651e-24 1.2691003917858115e-16 1.2575099096340658e-16 1.1590482151745776e-18
3.162844764501044 1.6525177505085913e-24 1.387373653957773e-16 1.375481133704471e-16 1.1892520253301692e-18
3.1747281389236908 1.808188461901496e-24 1.5237708741105473e-16 1.511569929517813e-16 1.2200944592734171e-18
3.1986289994194426 2.2371808478505495e-24 1.8994785609697694e-16 1.8866396654603284e-16 1.2838895509440268e-18
3.2227097969389145 3.2376725037291427e-24 2.769641444875783e-16 2.7561256060563794e-16 1.3515838819403485e-18
3.2348180950136065 4.181716150636254e-24 3.5906563897097915e-16 3.576779052332971e-16 1.3877337376820658e-18
3.240889293275058 4.886855811888096e-24 4.204004326860277e-16 4.1899363036225303e-16 1.4068023237744222e-18
3.2469718861334385 5.702940195561019e-24 4.915263205960736e-16 4.900997873232734e-16 1.4265332728002646e-18
3.2714166318528037 1.003481161360324e-23 8.713938973637326e-16 8.698857478026043e-16 1.5081495611286428e-18
3.2744851364798273 1.0306155472345405e-23 8.95796056291335e-16 8.942782663391562e-16 1.5177899521790358e-18
3.2775565192852394 1.058513207084029e-23 9.209072746889116e-16 9.193797940914454e-16 1.5274805974662021e-18
3.283707930232385 1.0319776611224414e-23 8.99506386547868e-16 8.979615312291352e-16 1.5448553187330205e-18
3.2898708863219004 9.47338562608402e-24 8.272818632450405e-16 8.257211547015354e-16 1.5607085435053178e-18
3.29141343181113 9.273665369707338e-24 8.102206185506195e-16 8.086559280888278e-16 1.5646904617917519e-18
3.292184975758714 9.175511967092923e-24 8.018330769664214e-16 8.00266392749163e-16 1.5666842172585262e-18
3.295272960557952 8.55763174897737e-24 7.485389813654854e-16 7.469645340409009e-16 1.5744473245848828e-18
3.3076538914384823 6.41239971170631e-24 5.630021822503725e-16 5.613965333090597e-16 1.605648941312854e-18
3.310756385682612 5.974506163157661e-24 5.25047593043812e-16 5.234340750838165e-16 1.6135179599952937e-18
3.313861789986515 5.569981930971415e-24 4.899565984576539e-16 4.883351839575049e-16 1.6214145001488872e-18
3.3200813396944477 5.003798309257021e-24 4.4097904523535763e-16 4.3934066508215043e-16 1.638380153207218e-18
3.345076488085796 4.0032924630805354e-24 3.554616927459085e-16 3.537477552941283e-16 1.7139374517801894e-18
3.3482140837626964 4.0427478117051386e-24 3.593017253076863e-16 3.5757755431097544e-16 1.7241709967107743e-18
3.3513546224236106 4.082613121223438e-24 3.6318511854416734e-16 3.614506655640261e-16 1.7344529801413106e-18
3.3576445397418455 4.366364508440557e-24 3.891563653471635e-16 3.8740042243199883e-16 1.75594291516458e-18
3.3702598118196083 5.4049318537650445e-24 4.835295690697449e-16 4.817285453399627e-16 1.8010237297822117e-18
3.382922481734668 5.64763864412786e-24 5.071406004569472e-16 5.052956751408448e-16 1.8449253161024363e-18
3.389271646505754 5.773175456792769e-24 5.193863935771715e-16 5.175191995254819e-16 1.8671940516896865e-18
3.395632727569191 5.909225680757319e-24 5.326239858903223e-16 5.307338419564595e-16 1.8901439338629107e-18
3.421196662673239 6.5636395761807544e-24 5.960630459140978e-16 5.940778061400867e-16 1.985239774011153e-18
3.4276182099114902 6.439414182845533e-24 5.858794083084435e-16 5.838728547216641e-16 2.006553586779394e-18
3.4340518103208963 5.88275563079499e-24 5.362373799435966e-16 5.342106227313314e-16 2.0267572122653154e-18
3.4469541582030403 5.0889754917966245e-24 4.656239385478012e-16 4.635583123812298e-16 2.0656261665715478e-18
3.472904465399547 4.873323392286744e-24 4.492493958048891e-16 4.470943621036813e-16 2.1550337012077144e-18
3.4990501388274233 4.5407576797070315e-24 4.2174304062667024e-16 4.1949630604102827e-16 2.2467345856419722e-18
3.5253949054701885 3.339412582262258e-24 3.124980306625915e-16 3.101618770912677e-16 2.3361535713237293e-18
3.5519380250092896 2.2054567997856903e-24 2.0793776316248107e-16 2.0551146540684924e-16 2.4262977556318058e-18
3.578680990867387 1.762049021587643e-24 1.673826372130277e-16 1.6485749399331713e-16 2.5251432197105718e-18
3.605625307711299 1.5895206835530722e-24 1.5213047102807946e-16 1.495010579903046e-16 2.6294130377748828e-18
3.660119384959845 1.4779980201134577e-24 1.4359474167715175e-16 1.407455253257365e-16 2.8492163514153162e-18
3.715437065384467 1.40471887207615e-24 1.3853795081680917e-16 1.35455935922248e-16 3.082014894561161e-18
3.8285932144167436 1.4013420470706395e-24 1.4241404157767514e-16 1.3882788268965704e-16 3.586158888018162e-18
3.94519561050918 1.4378321898324676e-24 1.5057267868494692e-16 1.4643099376306996e-16 4.141684921877008e-18
4.06534921144712 1.491215039684394e-24 1.609190890420401e-16 1.5616968046977928e-16 4.7494085722608715e-18
4.189162171576248 1.554710759411048e-24 1.7288057977655293e-16 1.6746865309545409e-16 5.411926681098821e-18
4.316745939156006 1.6256434095219531e-24 1.8627355792227026e-16 1.8014506099166867e-16 6.128496930601547e-18
4.448215356677963 1.7029460003159024e-24 2.0107409145261696e-16 1.9418288412119042e-16 6.891207331426592e-18
4.58368876423945 1.7865628221987955e-24 2.173716221418837e-16 2.0966902174581559e-16 7.702600396068146e-18
4.723288106065518 1.877156445535088e-24 2.3535007392814526e-16 2.2678077044619764e-16 8.569303481947607e-18
4.867139040275056 1.9759553752538952e-24 2.552820732785419e-16 2.458102817418003e-16 9.471791536741654e-18
4.940699165968905 2.030466728402699e-24 2.6628930333117014e-16 2.56349754178244e-16 9.939549152926219e-18
5.015371051989984 2.08579891744131e-24 2.7768021677577976e-16 2.6726297538099944e-16 1.0417241394780324e-17
5.091171501069577 2.1480886285033826e-24 2.902948665509454e-16 2.793802233307941e-16 1.0914643220151327e-17
5.129500256944802 2.179583070440866e-24 2.967685774241124e-16 2.8560175838551577e-16 1.116681903859669e-17
5.168117569889187 2.211845795229315e-24 3.034287050375661e-16 2.9200523338221806e-16 1.142347165534801e-17
5.20702561229733 2.2490110855030218e-24 3.1084990790748273e-16 2.9914782900868587e-16 1.1702078898796894e-17
5.246226572918644 2.286665942903879e-24 3.1843382930393653e-16 3.0645000408994366e-16 1.1983825213992852e-17
5.265937586045735 2.3056809913960284e-24 3.222881663664059e-16 3.1016231157716066e-16 1.2125854789245244e-17
5.285722656980489 2.3248233687724722e-24 3.2618483606696413e-16 3.13916192103513e-16 1.2268643963451005e-17
5.305582063971359 2.3440948255145057e-24 3.301244157449485e-16 3.1771223169415426e-16 1.2412184050794211e-17
5.3255160863122235 2.3643809704122127e-24 3.3423243211827417e-16 3.216749582314382e-16 1.2557473886836071e-17
5.365609099470188 2.412308294970908e-24 3.4357477685524185e-16 3.307166802854777e-16 1.2858096569764122e-17
5.406003951863644 2.4613576279768387e-24 3.531998511487654e-16 3.400377766565607e-16 1.3162074492204593e-17
5.446702915881641 2.5115814880978596e-24 3.6312018772774305e-16 3.496508462589854e-16 1.3469341468757555e-17
5.487708281020852 2.564757744774362e-24 3.735999417057497e-16 3.5981893879281995e-16 1.3781002912929844e-17
5.529022354014368 2.6347943421045187e-24 3.8669138891061807e-16 3.7258522757184923e-16 1.410616133876894e-17
5.570647458961463 2.707795115028311e-24 4.003970861360327e-16 3.8596213092825955e-16 1.4434955207773198e-17
5.612585937458331 2.7839719395995693e-24 4.1476040552443457e-16 3.9999308557537395e-16 1.476731994906051e-17
5.654840148729818 2.866226034638182e-24 4.302295163633386e-16 4.1512485718026145e-16 1.5104659183077076e-17
5.67608639626678 2.920675906701097e-24 4.4004977007544455e-16 4.247687369660765e-16 1.5281033109368186e-17
5.686739436050992 2.948572156448599e-24 4.450866034123824e-16 4.2971700232208623e-16 1.5369601090296073e-17
5.6974124697621304 2.9769301033291784e-24 4.502106171511746e-16 4.3475219532199287e-16 1.5458421829181726e-17
5.718818669136295 3.035075193090601e-24 4.607286447693917e-16 4.450918270016506e-16 1.5636817767741144e-17
5.740305295436557 3.0985697523586417e-24 4.721344612357241e-16 4.563170238165982e-16 1.581743741912565e-17
5.7835210386641895 3.2605739096232468e-24 5.005596080427759e-16 4.843683666634926e-16 1.619124137928329e-17
5.827062130521658 3.444284153531639e-24 5.327433721320837e-16 5.161709054826006e-16 1.6572466649482968e-17
5.8489554468988025 3.5718925054160566e-24 5.545569172099629e-16 5.37779117441623e-16 1.677779976833994e-17
5.870931020387893 3.707702451963802e-24 5.7780498573580935e-16 5.608204267507626e-16 1.6984558985046714e-17
5.892989160043636 3.852363544854755e-24 6.026044573309883e-16 5.85411717562556e-16 1.7192739768432308e-17
5.915130176081913 4.015926493857722e-24 6.305499488603058e-16 6.131415446926966e-16 1.740840416760911e-17
5.95966208400165 4.470549860281703e-24 7.0721589277321e-16 6.893191628475936e-16 1.7896729925616508e-17
6.004529249263818 5.1198584180509385e-24 8.160304208277117e-16 7.975857543824248e-16 1.844466644528675e-17
6.027089341400364 5.569394194707011e-24 8.910150096637227e-16 8.722553013861016e-16 1.8759708277621174e-17
6.049734195844842 6.097733480326249e-24 9.792062235209837e-16 9.60113081016333e-16 1.9093142504650342e-17
6.095279466722835 7.619244045473554e-24 1.2327497980073719e-15 1.2128424609279355e-15 1.9907337079436907e-17
6.141167624020661 9.948136411956493e-24 1.6216686332210374e-15 1.6007112166195862e-15 2.0957416601451156e-17
6.164241091010745 1.1434554164708856e-23 1.87097629579625e-15 1.8493630476156348e-15 2.1613248180614942e-17
6.187401249150058 1.3118602035723176e-23 2.154593132606329e-15 2.1323054963279118e-15 2.2287636278417144e-17
6.1990139391386085 1.3940231757661998e-23 2.2938342865615617e-15 2.271203303538934e-15 2.2630983022628247e-17
6.204828454712694 1.437223438986867e-23 2.367137597200733e-15 2.3443330930349635e-15 2.280450416576894e-17
6.210648424152782 1.4687530964358017e-23 2.4213366373487196e-15 2.398383531868267e-15 2.2953105480452946e-17
6.233982942956859 1.5755713852716153e-23 2.6071926760921168e-15 2.5837182190965535e-15 2.3474456995562987e-17
6.239830258556775 1.589075844113305e-23 2.632005756087384e-15 2.608456513859637e-15 2.3549242227746675e-17
6.245683058788269 1.5900498225466484e-23 2.6360892353082844e-15 2.612465051187206e-15 2.362418412107787e-17
6.257405133728602 1.586660580511411e-23 2.6354072680653573e-15 2.6116504724185727e-15 2.3756795646784413e-17
6.269149208991335 1.5651098172394927e-23 2.604490963992262e-15 2.5806785134314635e-15 2.38124505607979e-17
6.280915325867298 1.5117518079842175e-23 2.5204197168060407e-15 2.4966468934164385e-15 2.3772823389602165e-17
6.304513850009849 1.3804553996218147e-23 2.310167213852244e-15 2.2865600018276706e-15 2.3607212024572936e-17
6.32820103803542 1.2183649415770205e-23 2.046572312470962e-15 2.023222599587696e-15 2.3349712883266203e-17
6.3519772230701035 1.0699485582888395e-23 1.8040196472793447e-15 1.780898297768785e-15 2.3121349510559088e-17
6.375842739491607 9.449006928430852e-24 1.5991647092703422e-15 1.5762419637997771e-15 2.2922745470565502e-17
6.399797922933955 8.45206558232216e-24 1.4358152191471037e-15 1.4129815692353753e-15 2.283364991172838e-17
6.42384311029221 7.621753667877623e-24 1.2996286212765418e-15 1.2768622949495245e-15 2.276632632701738e-17
6.447978639727206 7.019377901204588e-24 1.2014111196744268e-15 1.17862639441958e-15 2.2784725254846474e-17
6.472204850670314 6.517114120634878e-24 1.119636411425261e-15 1.0968161306471699e-15 2.2820280778090972e-17
6.496522083828205 6.192724135040827e-24 1.0679036877246455e-15 1.0449780944481798e-15 2.292559327646592e-17
6.520930681187647 5.919570086295748e-24 1.0246349926147808e-15 1.001593201205466e-15 2.30417914093147e-17
6.57002334288761 5.642839152694212e-24 9.840881826761522e-16 9.60716329187214e-16 2.3371853488938458e-17
