Dust emission spectrum from A.P. Jones, M. Kohler, N. Ysard, M. Bocchio, and L. Verstraete (2017), A&A, 602A, 46J 
inside the DustPedia framework.

lambda    nu*dP/dnu     j_nu    j_nu(carb.) j_nu(sil)
 (um)   (erg s-1 H-1) (Jy cm2 sr-1 H-1)
0.9927057738263894 7.0894345282889725e-25 1.8681062653883823e-17 1.8681062653883817e-17 5.83513017314891e-33
1.0001793341362166 7.206607633641369e-25 1.9132784824674946e-17 1.913278482467494e-17 7.032521739551072e-33
1.0077091589558085 7.323615040884103e-25 1.958980652645127e-17 1.958980652645126e-17 8.465014542988368e-33
1.0114953028030835 7.382042199621155e-25 1.9820281891833102e-17 1.9820281891833096e-17 9.282847338473266e-33
1.0152956718711033 7.440410689559737e-25 2.005205448066517e-17 2.0052054480665158e-17 1.0176484566308568e-32
1.0229392996569957 7.556891616701583e-25 2.051929760294423e-17 2.0519297602944215e-17 1.2218689098070112e-32
1.0267826658714554 7.614862843035522e-25 2.0754393503327493e-17 2.075439350332748e-17 1.338279338814732e-32
1.0306404723013447 7.672749772517773e-25 2.0990735724801758e-17 2.099073572480174e-17 1.4653160549925152e-32
1.03451277320114 7.730546819471051e-25 2.1228314109063048e-17 2.122831410906303e-17 1.603902904185324e-32
1.0383996230291617 7.788248429124894e-25 2.1467118370556667e-17 2.146711837055665e-17 1.7550397186544602e-32
1.0403485208654093 7.817061717812497e-25 2.1586976956833345e-17 2.1586976956833326e-17 1.8356490230030433e-32
1.0423010764483396 7.8458490786810385e-25 2.1707138098910395e-17 2.1707138098910382e-17 1.9198081828349174e-32
1.0462171883269815 7.903343278355369e-25 2.1948362761370874e-17 2.1948362761370852e-17 2.0993781197870486e-32
1.0471985131304309 7.917699555371926e-25 2.2008855952177948e-17 2.200885595217793e-17 2.1467293552006156e-32
1.048180758391296 7.932048753207719e-25 2.206942361854218e-17 2.2069423618542166e-17 2.195104958394273e-32
1.0501480137395462 7.960725572396228e-25 2.2190781705241913e-17 2.219078170524189e-17 2.2950142259930315e-32
1.0521189612883777 7.9893730594327515e-25 2.2312435671542323e-17 2.23124356715423e-17 2.3992800168112346e-32
1.0531058218030118 8.00366360826997e-25 2.2373311731064947e-17 2.2373311731064916e-17 2.4531062846835325e-32
1.0540936079674168 8.017874543668547e-25 2.2434059601692562e-17 2.243405960169253e-17 2.508101631380008e-32
1.058054026499678 8.074637773129093e-25 2.2677768958596385e-17 2.2677768958596367e-17 2.740147210757187e-32
1.0590464539527713 8.088808037336254e-25 2.273887489947083e-17 2.2738874899470805e-17 2.8012993000572407e-32
1.06003981227728 8.102969918758555e-25 2.2800051932749224e-17 2.2800051932749196e-17 2.863759225017357e-32
1.0620293250338977 8.131268203425551e-25 2.292261857667036e-17 2.292261857667033e-17 2.992709709899934e-32
1.0660195594769086 8.18776055994253e-25 2.316859725199168e-17 2.3168597251991634e-17 3.2675124397577154e-32
1.070024785945596 8.24410960785214e-25 2.3415693675919668e-17 2.3415693675919624e-17 3.566415273146983e-32
1.0740450607676866 8.30031015297513e-25 2.366389643754397e-17 2.366389643754393e-17 3.8914247685726306e-32
1.07808044048254 8.356357042618422e-25 2.3913194026128262e-17 2.3913194026128225e-17 4.244704988514182e-32
1.0861967418109137 8.467870457336782e-25 2.44147417188648e-17 2.4414741718864747e-17 5.045592221324937e-32
1.0902777775684922 8.523101763469095e-25 2.466631464634756e-17 2.4666314646347502e-17 5.498424742414643e-32
1.0943741465085532 8.578155295777827e-25 2.4918916914784768e-17 2.4918916914784715e-17 5.990002869089914e-32
1.1026131145906286 8.687709465845333e-25 2.5427161156136354e-17 2.5427161156136286e-17 7.102201096959449e-32
1.1109141095355224 8.79649429357551e-25 2.593937699195365e-17 2.5939376991953572e-17 8.410296658225168e-32
1.1192775983109025 8.904370923683366e-25 2.6455165793132052e-17 2.6455165793131953e-17 9.94680608823518e-32
1.1277040513999907 9.010838516806116e-25 2.6973032800410694e-17 2.6973032800410574e-17 1.174929416556419e-31
1.1361939428280308 9.11641103472064e-25 2.7494498392764217e-17 2.7494498392764082e-17 1.3861092170187586e-31
1.1447477501889525 9.221053260055242e-25 2.80194600663371e-17 2.801946006633694e-17 1.633212513804408e-31
1.1533659546722406 9.3247877840555e-25 2.8547988787646595e-17 2.854798878764641e-17 1.9219865819189212e-31
1.1707974979042381 9.52986840285722e-25 2.9616799293094635e-17 2.961679929309437e-17 2.651962755569831e-31
1.1884924949847024 9.730876347384417e-25 3.0698547728265353e-17 3.0698547728264996e-17 3.641335130160398e-31
1.2064549276569216 9.929382154180835e-25 3.17982163909828e-17 3.1798216390982307e-17 4.975753516592867e-31
1.2246888378427687 1.0123218958629541e-24 3.2908934637483004e-17 3.2908934637482326e-17 6.766674989842765e-31
1.2431983285522175 1.0311933180985096e-24 3.402905908192528e-17 3.4029059081924355e-17 9.158658395984251e-31
1.2619875648066055 1.0495453945096064e-24 3.5158127425431437e-17 3.515812742543021e-17 1.2338238532980562e-30
1.3004222497298317 1.0843865038160086e-24 3.743156009695989e-17 3.743156009695768e-17 2.2083944543695728e-30
1.3400274889804893 1.1167086404065304e-24 3.9721260059382795e-17 3.9721260059378906e-17 3.8819009184180146e-30
1.3808389325824078 1.1463916868234835e-24 4.2018977942302503e-17 4.201897794229579e-17 6.704370285103818e-30
1.4228933163050095 1.1735795695971781e-24 4.4325568345892825e-17 4.432556834588143e-17 1.138240428970758e-29
1.466228494730424 1.1989255023085729e-24 4.666199325428591e-17 4.66619932542669e-17 1.9006216403334878e-29
1.5108834753276823 1.2219369924445375e-24 4.9005995636807325e-17 4.900599563677608e-17 3.1228042611750823e-29
1.5568984535646726 1.2422154212986219e-24 5.133654498472602e-17 5.1336544984675476e-17 5.054085200855764e-29
1.6043148490894465 1.2597973798000546e-24 5.364876600147285e-17 5.3648766001392113e-17 8.072188221312083e-29
1.6531753430134553 1.2747358469119686e-24 5.593820820007066e-17 5.593820819994357e-17 1.2709757608001988e-28
1.7035239163302658 1.2872075978884328e-24 5.820580000944081e-17 5.820580000924347e-17 1.9734492107339236e-28
1.755405889504358 1.29823587469414e-24 6.049236865127374e-17 6.049236865097138e-17 3.0236133825977944e-28
1.8088679632656115 1.3075676535439074e-24 6.278276936527904e-17 6.27827693648217e-17 4.5736109786461565e-28
1.8639582606462262 1.3150314306036468e-24 6.506414829110447e-17 6.506414829042105e-17 6.834117242358468e-28
1.9207263702978936 1.3207510676868976e-24 6.733733160452851e-17 6.733733160351913e-17 1.0094114389315045e-27
1.979223391128241 1.3250152685780483e-24 6.961216338217138e-17 6.961216338069662e-17 1.4747522842398697e-27
2.039501978296691 1.3281696342115047e-24 7.190301655305573e-17 7.190301655092287e-17 2.1328323387964523e-27
2.1016163906111602 1.3311826995542627e-24 7.426095751557152e-17 7.426095751251547e-17 3.056064341989383e-27
2.1656225393682647 1.3346160200486877e-24 7.671998857380775e-17 7.671998856946537e-17 4.3423690619707686e-27
2.231578038680979 1.3385096561298365e-24 7.928718891066571e-17 7.928718890454134e-17 6.124380245608226e-27
2.299542257339062 1.3431998151495158e-24 8.198821875000944e-17 8.198821874142691e-17 8.58254990495541e-27
2.369576372248914 1.3494301144930293e-24 8.487710176336284e-17 8.487710175139882e-17 1.1964015659467629e-26
2.4417434235010123 1.358078673359235e-24 8.802263982424119e-17 8.802263980763219e-17 1.660900108575086e-26
2.5161083711144245 1.3706494579625761e-24 9.154300707455676e-17 9.154300705156703e-17 2.2989748740318938e-26
2.5927381535095444 1.3896036740882085e-24 9.563548074904644e-17 9.563548071728089e-17 3.1765573940913747e-26
2.6717017477616296 1.4178797133142426e-24 1.0055340844138972e-16 1.0055340839753143e-16 4.3858266555727556e-26
2.753070231689431 1.4599016816623136e-24 1.0668671241359266e-16 1.0668671235303348e-16 6.055917910516368e-26
2.836916847834745 1.5256927772593466e-24 1.1489023818270573e-16 1.148902380990187e-16 8.368705230862369e-26
2.9233170693905177 1.6373282132458708e-24 1.2705188149033946e-16 1.2705188137455075e-16 1.1578866285877014e-25
2.967498994190263 1.7321319506804543e-24 1.3643977237235693e-16 1.3643977223618893e-16 1.3616803371584703e-25
3.0123486681368425 1.842851077533703e-24 1.4735501207673654e-16 1.4735501191647508e-16 1.602614354563098e-25
3.0578761833420214 2.0905889778501373e-24 1.6969067834712465e-16 1.696906781582315e-16 1.888930922827051e-25
3.1040917844459814 2.4098215781156887e-24 1.9855867965264323e-16 1.9855867942988567e-16 2.227575189251641e-25
3.127460860933648 2.74753015275225e-24 2.2808870722423766e-16 2.2808870698204873e-16 2.421889048753588e-25
3.1510058709225794 3.197476768579543e-24 2.674398026893874e-16 2.6743980242593597e-16 2.634514007825081e-25
3.162844764501044 3.616313144689429e-24 3.0360809013150835e-16 3.0360808985637773e-16 2.751306551749599e-25
3.1747281389236908 4.103381232278748e-24 3.4579430954575033e-16 3.457943092584064e-16 2.8734397163995033e-25
3.1986289994194426 5.461943876919592e-24 4.637463844461599e-16 4.637463841322992e-16 3.1386083061610457e-25
3.2227097969389145 8.66441848446064e-24 7.411908555503975e-16 7.411908552044132e-16 3.4598450935722107e-25
3.2348180950136065 1.1701365796505464e-23 1.0047449982744815e-15 1.0047449979087241e-15 3.65757580889703e-25
3.240889293275058 1.3971881809978745e-23 1.2019558964813605e-15 1.2019558961038537e-15 3.7750696194250398e-25
3.2469718861334385 1.659852201109208e-23 1.4305972308451395e-15 1.4305972304545473e-15 3.9059214350309975e-25
3.2714166318528037 3.0609468934182034e-23 2.6580373860365326e-15 2.658037385586844e-15 4.496872132464421e-25
3.2744851364798273 3.1485347103334314e-23 2.736660614310732e-15 2.736660613854663e-15 4.560692866533407e-25
3.2775565192852394 3.238638299238795e-23 2.8176177206812767e-15 2.817617720218726e-15 4.625512715650576e-25
3.283707930232385 3.1519904465756993e-23 2.7473807271650958e-15 2.7473807266942736e-15 4.7082205901641875e-25
3.2898708863219004 2.8771975102623847e-23 2.512568801865373e-15 2.5125688013900064e-15 4.753668947035215e-25
3.29141343181113 2.812394416030557e-23 2.4571297890561013e-15 2.4571297885795934e-15 4.76508436762704e-25
3.292184975758714 2.780552461800631e-23 2.42987960138702e-15 2.42987960090994e-15 4.770800104181134e-25
3.295272960557952 2.5795627106879026e-23 2.2563523419402267e-15 2.2563523414616595e-15 4.785669663330515e-25
3.3076538914384823 1.8832702770436287e-23 1.6534921767387599e-15 1.653492176254632e-15 4.841280621894636e-25
3.310756385682612 1.741556480594266e-23 1.5305031299902295e-15 1.5305031295046982e-15 4.855307712447546e-25
3.313861789986515 1.610803256876129e-23 1.416923240154742e-15 1.4169232396678033e-15 4.869385257171129e-25
3.3200813396944477 1.427436611761907e-23 1.2579836262069985e-15 1.2579836257149438e-15 4.920544401390318e-25
3.345076488085796 1.1003288341349957e-23 9.770076844642695e-16 9.770076839375281e-16 5.267414501225214e-25
3.3482140837626964 1.1125953109550353e-23 9.88826000073394e-16 9.888259995406418e-16 5.327522211093367e-25
3.3513546224236106 1.1249974079083583e-23 1.0007862729609761e-15 1.0007862724221427e-15 5.388333652297417e-25
3.3576445397418455 1.2156336880955626e-23 1.0834450187068637e-15 1.0834450181535375e-15 5.533258756215794e-25
3.3702598118196083 1.5499378702858055e-23 1.3865869372286672e-15 1.3865869366412311e-15 5.874361843279738e-25
3.382922481734668 1.626081101535791e-23 1.4601708752772066e-15 1.4601708746608137e-15 6.163924894992489e-25
3.389271646505754 1.6655286139729125e-23 1.4984005019164056e-15 1.4984005012849846e-15 6.31420921399965e-25
3.395632727569191 1.7080354732857877e-23 1.5395260072499856e-15 1.5395260066024825e-15 6.475030619974982e-25
3.421196662673239 1.912138308936228e-23 1.7364679632466357e-15 1.7364679625291975e-15 7.174375291973485e-25
3.4276182099114902 1.8710095936682878e-23 1.7023070151288216e-15 1.7023070143982831e-15 7.305384609278199e-25
3.4340518103208963 1.6907794640376315e-23 1.5412150474376464e-15 1.541215046696632e-15 7.410143521171988e-25
3.4469541582030403 1.43409805868492e-23 1.3121509180483085e-15 1.3121509172901187e-15 7.5818939146396155e-25
3.472904465399547 1.3621621764471714e-23 1.2557150131381178e-15 1.255715012319666e-15 8.1845219385334e-25
3.4990501388274233 1.2521382576812989e-23 1.1629790297762903e-15 1.1629790288947863e-15 8.815038969579024e-25
3.5253949054701885 8.605814179041453e-24 8.053212704184087e-16 8.053212694857171e-16 9.326916320838417e-25
3.5519380250092896 4.925589452781955e-24 4.644008684131625e-16 4.644008674311415e-16 9.820210104542334e-25
3.578680990867387 3.466320034535727e-24 3.2927675773865216e-16 3.2927675668666325e-16 1.0519888533863097e-24
3.605625307711299 2.876040048007537e-24 2.7526117258253225e-16 2.7526117144731896e-16 1.135213309772849e-24
3.660119384959845 2.4453439251111464e-24 2.375771309972205e-16 2.3757712966789427e-16 1.3293261613360563e-24
3.715437065384467 2.140283748257987e-24 2.1108175489373447e-16 2.1108175333810942e-16 1.5556250111511618e-24
3.8285932144167436 1.985219216888345e-24 2.0175166561635667e-16 2.0175166348261337e-16 2.133743309888528e-24
3.94519561050918 1.955191795611364e-24 2.0475161711488518e-16 2.047516141969233e-16 2.9179619191822553e-24
4.06534921144712 1.9765501323926938e-24 2.1329227394184037e-16 2.1329226996697542e-16 3.974864967492205e-24
4.189162171576248 2.0277095678356295e-24 2.254770564774907e-16 2.254770510866316e-16 5.390859050536821e-24
4.316745939156006 2.1006398425597882e-24 2.4070079274147555e-16 2.4070078546499263e-16 7.276483063547743e-24
4.448215356677963 2.1926606448554723e-24 2.588967864785126e-16 2.5889677670733685e-16 9.771175779035711e-24
4.58368876423945 2.3041234433627104e-24 2.8034337459372245e-16 2.803433615399171e-16 1.3053805344686282e-23
4.723288106065518 2.4376234538408447e-24 3.0561909820302183e-16 3.05619080851667e-16 1.7351354900854465e-23
4.867139040275056 2.5983316361780813e-24 3.356895076962641e-16 3.3568948475027043e-16 2.294599357116835e-23
4.940699165968905 2.695349524935546e-24 3.534865837440791e-16 3.534865574003925e-16 2.6343686511959176e-23
5.015371051989984 2.7958731566686187e-24 3.7221165363998737e-16 3.722116234377694e-16 3.020221809406613e-23
5.091171501069577 2.9185602235168965e-24 3.944171759789197e-16 3.9441714137463463e-16 3.460428491213137e-23
5.129500256944802 2.9815507595415177e-24 4.059632272918796e-16 4.0596319027166285e-16 3.7020216698945665e-23
5.168117569889187 3.04723320557804e-24 4.180300577509996e-16 4.1803001815727423e-16 3.959372524317e-23
5.20702561229733 3.1278326440523753e-24 4.323173396614157e-16 4.32317297301394e-16 4.2360021887967937e-23
5.246226572918644 3.2105043119978416e-24 4.470846234618743e-16 4.470845781589631e-16 4.530291127931257e-23
5.265937586045735 3.2526380250714705e-24 4.546538523177147e-16 4.546538054740019e-16 4.684371285342289e-23
5.285722656980489 3.2953151076647642e-24 4.623498854238413e-16 4.623498369913549e-16 4.843248648094274e-23
5.305582063971359 3.338544380017039e-24 4.701750973959846e-16 4.701750473254118e-16 5.007057289447514e-23
5.3255160863122235 3.384986168029114e-24 4.785067101220332e-16 4.785066583559851e-16 5.1766047932563086e-23
5.365609099470188 3.500628825614253e-24 4.985796260456623e-16 4.985795706758971e-16 5.536976517668268e-23
5.406003951863644 3.620689050897271e-24 5.195615701258487e-16 5.195615109234248e-16 5.920242389161835e-23
5.446702915881641 3.7453804555787805e-24 5.415007478700588e-16 5.41500684593027e-16 6.327703198049258e-23
5.487708281020852 3.880120604924189e-24 5.652045830700811e-16 5.652045154451032e-16 6.762497816692806e-23
5.529022354014368 4.067333204336598e-24 5.969356700116987e-16 5.969355976047418e-16 7.240695700381782e-23
5.570647458961463 4.265595727721285e-24 6.307464292755605e-16 6.307463517778894e-16 7.749767133769738e-23
5.612585937458331 4.475703380439882e-24 6.667971478711578e-16 6.667970649562119e-16 8.291494575493211e-23
5.654840148729818 4.706663051118112e-24 7.064848841983811e-16 7.064847954857205e-16 8.871266048160957e-23
5.67608639626678 4.8639152264238816e-24 7.328320037644387e-16 7.32831911859552e-16 9.190488666777604e-23
5.686739436050992 4.944972200543548e-24 7.46442943882201e-16 7.464428503418511e-16 9.354034995881875e-23
5.6974124697621304 5.027701464622036e-24 7.603552991412169e-16 7.603552039386534e-16 9.520256367662587e-23
5.718818669136295 5.198337922510276e-24 7.891149423723685e-16 7.891148437635452e-16 9.860882350568162e-23
5.740305295436557 5.386424755830976e-24 8.207389064406877e-16 8.207388042607756e-16 1.0217991209272884e-22
5.7835210386641895 5.8742957617025535e-24 9.018152219542635e-16 9.018151118394584e-16 1.1011480522237523e-22
5.827062130521658 6.4363136611241675e-24 9.955344248851296e-16 9.955343061516602e-16 1.187334693478193e-22
5.8489554468988025 6.830520473539866e-24 1.0604777078263684e-15 1.0604775840294797e-15 1.2379688842488846e-22
5.870931020387893 7.253553700864406e-24 1.1303872268504258e-15 1.1303870977882888e-15 1.2906213682021993e-22
5.892989160043636 7.707733477727798e-24 1.2056791877291969e-15 1.2056790531925912e-15 1.3453660577818813e-22
5.915130176081913 8.224258132833312e-24 1.2913098765636232e-15 1.2913097361426614e-15 1.4042096193270926e-22
5.95966208400165 9.66834272429234e-24 1.5294775464078862e-15 1.529477391657247e-15 1.5475063932940537e-22
6.004529249263818 1.1749671569478214e-23 1.872725503819452e-15 1.8727253309272654e-15 1.728921863360669e-22
6.027089341400364 1.319640401117021e-23 2.111215984444746e-15 2.1112157999893113e-15 1.844554345994337e-22
6.049734195844842 1.4906056961537472e-23 2.3936932947280653e-15 2.393693097318828e-15 1.9740923806222589e-22
6.095279466722835 1.98444209236673e-23 3.2107129971453344e-15 3.2107127645931757e-15 2.3255215772220983e-22
6.141167624020661 2.744434530932048e-23 4.47376595016544e-15 4.473765666520372e-15 2.8364506781309396e-22
6.164241091010745 3.2297660490894136e-23 5.284697270895005e-15 5.28469695362986e-15 3.172651459084482e-22
6.187401249150058 3.782637433528419e-23 6.21258623077873e-15 6.21258587637305e-15 3.544056797768495e-22
6.1990139391386085 4.0525980580738256e-23 6.668460422225886e-15 6.66846004869057e-15 3.7353531656389567e-22
6.204828454712694 4.194803807416621e-23 6.908931162726047e-15 6.9089307792396555e-15 3.834863921499538e-22
6.210648424152782 4.2986182180275834e-23 7.08655648559499e-15 7.08655609383468e-15 3.917603089565019e-22
6.233982942956859 4.651337815205731e-23 7.696848266728397e-15 7.696847845563883e-15 4.211645143002627e-22
6.239830258556775 4.696437314677276e-23 7.77876656493483e-15 7.778766139699552e-15 4.252352774458311e-22
6.245683058788269 4.7003668437915e-23 7.792577479788526e-15 7.792577050446147e-15 4.293423759491422e-22
6.257405133728602 4.6907202380685807e-23 7.791180016511603e-15 7.791179579983158e-15 4.365284431011277e-22
6.269149208991335 4.621404780715928e-23 7.690455238185667e-15 7.690454799333424e-15 4.388522450370153e-22
6.280915325867298 4.4475173082246544e-23 7.414980590916263e-15 7.414980155787146e-15 4.351291157591382e-22
6.304513850009849 4.01868086472532e-23 6.725189947583375e-15 6.725189525533839e-15 4.2204953570447954e-22
6.32820103803542 3.4871090164725814e-23 5.857539494236573e-15 5.857539092314684e-15 4.01921887180228e-22
6.3519772230701035 2.999622341607125e-23 5.057605430425275e-15 5.057605047551149e-15 3.8287412519563594e-22
6.375842739491607 2.5895182755341013e-23 4.382541225348022e-15 4.382540859206762e-15 3.6614126081501092e-22
6.399797922933955 2.260848319128202e-23 3.8406711272767424e-15 3.840670772426877e-15 3.548498650877476e-22
6.42384311029221 1.987603422986844e-23 3.389175783977072e-15 3.3891754386769513e-15 3.4530012155738246e-22
6.447978639727206 1.7885056116116328e-23 3.061140972366777e-15 3.0611406315280324e-15 3.408387432514228e-22
6.472204850670314 1.622663594033666e-23 2.787726606814864e-15 2.787726269165319e-15 3.3764954496277533e-22
6.496522083828205 1.514910294046373e-23 2.61238552583044e-15 2.6123851869311993e-15 3.388992411144347e-22
