Dust emission spectrum from A.P. Jones, M. Kohler, N. Ysard, M. Bocchio, and L. Verstraete (2017), A&A, 602A, 46J 
inside the DustPedia framework.

lambda    nu*dP/dnu     j_nu    j_nu(carb.) j_nu(sil)
 (um)   (erg s-1 H-1) (Jy cm2 sr-1 H-1)
0.9927057738263894 2.2902953489736894e-26 6.03505833072449e-19 6.035058330724432e-19 5.8351285560783467e-33
1.0001793341362166 2.3279663357517107e-26 6.180505620023463e-19 6.180505620023392e-19 7.032519436240663e-33
1.0077091589558085 2.3655788843798112e-26 6.327644532018527e-19 6.327644532018444e-19 8.465011270800345e-33
1.0114953028030835 2.384358605847358e-26 6.401840902716339e-19 6.401840902716247e-19 9.282843442139302e-33
1.0152956718711033 2.4031181666859054e-26 6.476451154702767e-19 6.476451154702666e-19 1.0176479929793234e-32
1.0229392996569957 2.4405509852275662e-26 6.626850631331575e-19 6.626850631331453e-19 1.2218682545406815e-32
1.0267826658714554 2.4591786637059716e-26 6.702518841586272e-19 6.702518841586139e-19 1.3382785605833172e-32
1.0306404723013447 2.477777937248469e-26 6.778584393800725e-19 6.778584393800577e-19 1.46531513131556e-32
1.03451277320114 2.4963470094510165e-26 6.855043980636847e-19 6.855043980636686e-19 1.6039018085837783e-32
1.0383996230291617 2.5148840941130023e-26 6.931894254254053e-19 6.9318942542538785e-19 1.7550384199597285e-32
1.0403485208654093 2.524140085802699e-26 6.970464841524893e-19 6.970464841524709e-19 1.8356476093909536e-32
1.0423010764483396 2.5333874155783813e-26 7.0091318270993805e-19 7.00913182709919e-19 1.9198066443821e-32
1.0462171883269815 2.5518552090691745e-26 7.086753272698442e-19 7.08675327269823e-19 2.099376298473591e-32
1.0471985131304309 2.5564664004481255e-26 7.10621820903416e-19 7.106218209033944e-19 2.1467274555807746e-32
1.048180758391296 2.5610752343858083e-26 7.125706866559583e-19 7.125706866559363e-19 2.1951029771798976e-32
1.0501480137395462 2.570285721011346e-26 7.1647551264469365e-19 7.164755126446706e-19 2.2950120711810467e-32
1.0521189612883777 2.5794864515518514e-26 7.203897613457051e-19 7.203897613456814e-19 2.3992776735617607e-32
1.0531058218030118 2.5840759900313353e-26 7.223484205657185e-19 7.22348420565694e-19 2.453103841269005e-32
1.0540936079674168 2.5886397450386647e-26 7.243029061032955e-19 7.243029061032703e-19 2.5080990836230747e-32
1.058054026499678 2.6068680677638397e-26 7.321436999071909e-19 7.321436999071634e-19 2.7401442003167206e-32
1.0590464539527713 2.6114183407665423e-26 7.341095831027893e-19 7.341095831027614e-19 2.8012961616789675e-32
1.06003981227728 2.615965837530084e-26 7.360777288819276e-19 7.360777288818989e-19 2.863755953392857e-32
1.0620293250338977 2.6250523964045155e-26 7.400207854563867e-19 7.400207854563566e-19 2.992706154990188e-32
1.0660195594769086 2.643191036834582e-26 7.479337987983927e-19 7.479337987983601e-19 3.267508244541176e-32
1.070024785945596 2.6612823079727807e-26 7.558823726613508e-19 7.558823726613151e-19 3.566410325391382e-32
1.0740450607676866 2.679324542057557e-26 7.638661365333914e-19 7.638661365333523e-19 3.891418936929467e-32
1.07808044048254 2.697316084914264e-26 7.718847167418333e-19 7.718847167417911e-19 4.244698119359652e-32
1.0861967418109137 2.7331085912980955e-26 7.880156018251133e-19 7.880156018250628e-19 5.045582708285815e-32
1.0902777775684922 2.7508336471522175e-26 7.961060440606396e-19 7.961060440605845e-19 5.498413557757098e-32
1.0943741465085532 2.768500272218979e-26 8.042291831198219e-19 8.04229183119762e-19 5.989989727165323e-32
1.1026131145906286 2.803651952562577e-26 8.205719850990487e-19 8.205719850989776e-19 7.10218298633555e-32
1.1109141095355224 2.8385512316171497e-26 8.370408488943965e-19 8.370408488943126e-19 8.410271761101598e-32
1.1192775983109025 2.8731533795529505e-26 8.53622896627142e-19 8.536228966270429e-19 9.946771944438453e-32
1.1277040513999907 2.9072968622256804e-26 8.702698808672e-19 8.702698808670825e-19 1.1749247454131653e-31
1.1361939428280308 2.9411476540054527e-26 8.87030862671202e-19 8.870308626710633e-19 1.3861028417887298e-31
1.1447477501889525 2.9746944807274753e-26 9.039025245994246e-19 9.039025245992615e-19 1.633203833467994e-31
1.1533659546722406 3.007944740756452e-26 9.208871528401601e-19 9.20887152839968e-19 1.9219747908574412e-31
1.1707974979042381 3.0736640391465146e-26 9.55229254944506e-19 9.552292549442407e-19 2.6519411509468404e-31
1.1884924949847024 3.1380555292329045e-26 9.899801826584412e-19 9.89980182658077e-19 3.641295908760418e-31
1.2064549276569216 3.2016267014467525e-26 1.0253006388004337e-18 1.025300638799936e-18 4.975682956526216e-31
1.2246888378427687 3.263679119844063e-26 1.06096888027014e-18 1.0609688802694635e-18 6.76654918874641e-31
1.2431983285522175 3.32406748935257e-26 1.0969319428491466e-18 1.096931942848231e-18 9.158436089187108e-31
1.2619875648066055 3.3827696552623796e-26 1.133174869927067e-18 1.133174869925833e-18 1.2337849112668431e-30
1.3004222497298317 3.494135835812217e-26 1.2061285811367666e-18 1.2061285811345585e-18 2.2082780051335044e-30
1.3400274889804893 3.5973448527733364e-26 1.2795734290035872e-18 1.2795734289997057e-18 3.881564205004697e-30
1.3808389325824078 3.6920171604034566e-26 1.353244178309208e-18 1.3532441783025044e-18 6.703427910950252e-30
1.4228933163050095 3.778624128279817e-26 1.427169204291757e-18 1.4271692042803772e-18 1.1379848894659258e-29
1.466228494730424 3.8592764870879577e-26 1.5020243798315173e-18 1.5020243798125176e-18 1.8999495440968324e-29
1.5108834753276823 3.9323934281806863e-26 1.5770932247341666e-18 1.5770932247029555e-18 3.121088331394969e-29
1.5568984535646726 3.9966979452273567e-26 1.6516995388853964e-18 1.6516995388348987e-18 5.049829065915735e-29
1.6043148490894465 4.052314318530077e-26 1.7256875282098321e-18 1.7256875281292133e-18 8.061923080643824e-29
1.6531753430134553 4.099418937848564e-26 1.7989150505196517e-18 1.7989150503927945e-18 1.2685663886606976e-28
1.7035239163302658 4.1385860603554416e-26 1.8714130723441176e-18 1.8714130721473238e-18 1.9679411646060219e-28
1.755405889504358 4.173112300384559e-26 1.9444960089205835e-18 1.9444960086194497e-18 3.0113367401268514e-28
1.8088679632656115 4.2021861698639093e-26 2.0176767482545565e-18 2.017676747799865e-18 4.546914852863621e-28
1.8639582606462262 4.2252594365461545e-26 2.0905424779210985e-18 2.090542477243355e-18 6.777440768266505e-28
1.9207263702978936 4.242732937214306e-26 2.1631200738153238e-18 2.1631200728176678e-18 9.976558563570782e-28
1.979223391128241 4.2555371639404637e-26 2.2357262996149115e-18 2.2357262981639984e-18 1.4509129061898548e-27
2.039501978296691 4.2647847434638916e-26 2.3088232113253613e-18 2.308823209239829e-18 2.0855321156121574e-27
2.1016163906111602 4.2735884929525793e-26 2.3840512171654037e-18 2.384051214201235e-18 2.96416893084881e-27
2.1656225393682647 4.283752390461364e-26 2.4625017946152647e-18 2.462501790447838e-18 4.167426075691201e-27
2.231578038680979 4.2954048911129714e-26 2.544401360795532e-18 2.5444013549976668e-18 5.797865054357081e-27
2.299542257339062 4.3096252931738976e-26 2.630572884853948e-18 2.63057287686921e-18 7.984737246446766e-27
2.369576372248914 4.3288015050537504e-26 2.7227503070500307e-18 2.722750296160384e-18 1.0889646486982458e-26
2.4417434235010123 4.3557533364704915e-26 2.823142094934891e-18 2.823142080222278e-18 1.4712612694979995e-26
2.5161083711144245 4.3953103048666487e-26 2.935542125638559e-18 2.9355421059386326e-18 1.9699927178584407e-26
2.5927381535095444 4.455377706440025e-26 3.066285710229983e-18 3.0662856840773474e-18 2.615263610150172e-26
2.6717017477616296 4.545398234148622e-26 3.2235124099403864e-18 3.2235123755055298e-18 3.443485741318915e-26
2.753070231689431 4.679589545666695e-26 3.4197510033944732e-18 3.4197509584093608e-18 4.498511310235299e-26
2.836916847834745 4.8901651901926936e-26 3.682472984261309e-18 3.682472925929877e-18 5.833143227168791e-26
2.9233170693905177 5.248077125369347e-26 4.072354385580115e-18 4.072354310483207e-18 7.509690771185132e-26
2.967498994190263 5.552330564837045e-26 4.373562407326102e-18 4.373562322447695e-18 8.487840597741942e-26
3.0123486681368425 5.907744938136924e-26 4.723853366765197e-18 4.7238532709333594e-18 9.583183782122836e-26
3.0578761833420214 6.703517216022564e-26 5.441167038335165e-18 5.441166930219454e-18 1.0811571065580101e-25
3.1040917844459814 7.729228905082877e-26 6.368544045183352e-18 6.368543923384566e-18 1.2179878430704655e-25
3.127460860933648 8.814463665024619e-26 7.31740694534889e-18 7.317406816090178e-18 1.2925871308888242e-25
3.1510058709225794 1.0260567587439877e-25 8.582030049541484e-18 8.582029912405978e-18 1.371355030337928e-25
3.162844764501044 1.1606614971691274e-25 9.744350291184727e-18 9.744350149924502e-18 1.4126022351778876e-25
3.1747281389236908 1.3172112119738829e-25 1.1100215061360115e-17 1.110021491586297e-17 1.4549714053707532e-25
3.1986289994194426 1.7539152955849064e-25 1.489161908802038e-17 1.489161893367027e-17 1.543501030736245e-25
3.2227097969389145 2.783334019221923e-25 2.3809811664677975e-17 2.3809811500741832e-17 1.6393614846857017e-25
3.2348180950136065 3.7595607832141407e-25 3.228170077181415e-17 3.228170060265677e-17 1.6915738366040416e-25
3.240889293275058 4.489408476878364e-25 3.8620932125574306e-17 3.862093195361897e-17 1.7195533389883792e-25
3.2469718861334385 5.333717759541686e-25 4.597036924016973e-17 4.597036906528836e-17 1.7488137350610268e-25
3.2714166318528037 9.837484928990017e-25 8.542586211492909e-17 8.542586192773178e-17 1.8719732368113578e-25
3.2744851364798273 1.0118995532694799e-24 8.795283863260786e-17 8.795283844396174e-17 1.8864614813679286e-25
3.2775565192852394 1.0408592012088133e-24 9.055482764930614e-17 9.05548274592001e-17 1.9010604433778904e-25
3.283707930232385 1.0129959769314441e-24 8.829613131412732e-17 8.829613112148581e-17 1.926414597094083e-25
3.2898708863219004 9.24654425900227e-25 8.074724987551444e-17 8.074724968063222e-17 1.9488222855488367e-25
3.29141343181113 9.038215444922996e-25 7.89649854339134e-17 7.896498523846764e-17 1.9544578749814462e-25
3.292184975758714 8.935850428326509e-25 7.808894446384627e-17 7.80889442681182e-17 1.9572807371861312e-25
3.295272960557952 8.28971435967986e-25 7.251041555214283e-17 7.25104153553349e-17 1.9680790022180105e-25
3.3076538914384823 6.0513910596930825e-25 5.3130598924423996e-17 5.313059872327541e-17 2.011485896588586e-25
3.310756385682612 5.595856144533445e-25 4.917713229295363e-17 4.91771320907073e-17 2.0224632069413464e-25
3.313861789986515 5.17556197131034e-25 4.5526193262313775e-17 4.552619305896468e-17 2.0334911164466828e-25
3.3200813396944477 4.5861348656581515e-25 4.041708417058095e-17 4.041708396480539e-17 2.0577555585864918e-25
3.345076488085796 3.534567397285154e-25 3.138424988307445e-17 3.138424966612793e-17 2.169465179816953e-25
3.3482140837626964 3.5739730324250836e-25 3.176390753426337e-17 3.1763907315761575e-17 2.185017875778008e-25
3.3513546224236106 3.6138143430275334e-25 3.2148125516623905e-17 3.214812529655653e-17 2.2006736832314563e-25
3.3576445397418455 3.9050810261606985e-25 3.480440388312022e-17 3.4804403659726784e-17 2.2339343667054658e-25
3.3702598118196083 4.9794740918309025e-25 4.4546777405523613e-17 4.4546777175027633e-17 2.304959649408903e-25
3.382922481734668 5.224061825018249e-25 4.691047033468791e-17 4.691047009736309e-17 2.373248251430951e-25
3.389271646505754 5.350774592404942e-25 4.8138490492673765e-17 4.81384902518634e-17 2.4081037521390304e-25
3.395632727569191 5.487303162143877e-25 4.9459429033603536e-17 4.945942878918054e-17 2.4442298845890207e-25
3.421196662673239 6.142827827794809e-25 5.578479170076268e-17 5.578479144120102e-17 2.595616695051733e-25
3.4276182099114902 6.010580186311152e-25 5.468626591107572e-17 5.4686265648150006e-17 2.629257125972374e-25
3.4340518103208963 5.431336798882894e-25 4.9508869608282775e-17 4.950886934220489e-17 2.660778914888091e-25
3.4469541582030403 4.6064047668208685e-25 4.2147035951145336e-17 4.214703567904505e-17 2.7210029703293266e-25
3.472904465399547 4.3750995278546545e-25 4.0332041632736165e-17 4.03320413461722e-17 2.8656396831831963e-25
3.4990501388274233 4.021404383237137e-25 3.7350579612635824e-17 3.735057931105691e-17 3.01578917956384e-25
3.5253949054701885 2.763052556311904e-25 2.5856298411613847e-17 2.585629809551277e-17 3.161010815868049e-25
3.5519380250092896 1.5805030605025888e-25 1.490150571547351e-17 1.4901505384625398e-17 3.3084810837315326e-25
3.578680990867387 1.1116078714292905e-25 1.055951649398196e-17 1.0559516146399535e-17 3.475824260019889e-25
3.605625307711299 9.219163170823595e-26 8.82351296321013e-18 8.823512597543671e-18 3.6566646138693453e-25
3.660119384959845 7.834530849247952e-26 7.611630179132962e-18 7.611629774199891e-18 4.049330687476747e-25
3.715437065384467 6.853906024546367e-26 6.759545376707678e-18 6.759544928698287e-18 4.480093919274167e-25
3.8285932144167436 6.354291726295374e-26 6.457669403390775e-18 6.457668856271425e-18 5.471193497623694e-25
3.94519561050918 6.256317400647061e-26 6.551741408908332e-18 6.551740743043007e-18 6.658653242186862e-25
4.06534921144712 6.323338491265654e-26 6.823602516336574e-18 6.82360170820783e-18 8.08128744746546e-25
4.189162171576248 6.485994256585702e-26 7.212289750478718e-18 7.212288771496805e-18 9.789819134092252e-25
4.316745939156006 6.718472023473709e-26 7.698328429736619e-18 7.698327245595727e-18 1.1841408927242625e-24
4.448215356677963 7.012143543845865e-26 8.279536708460446e-18 8.27953527906131e-18 1.4293991365344735e-24
4.58368876423945 7.368115171161397e-26 8.964807321538224e-18 8.964805597592879e-18 1.7239453454744704e-24
4.723288106065518 7.794690022975968e-26 9.772658413835335e-18 9.772656333949912e-18 2.0798854174375705e-24
4.867139040275056 8.308431033234667e-26 1.0734015182824624e-17 1.0734012675742415e-17 2.5070822073030437e-24
4.940699165968905 8.618690636909412e-26 1.1303140766728733e-17 1.1303138013600889e-17 2.7531278476006715e-24
5.015371051989984 8.940176133577977e-26 1.1901962485582875e-17 1.1901959462190945e-17 3.023391934543288e-24
5.091171501069577 9.332673919184366e-26 1.261226978246558e-17 1.2612266459132303e-17 3.323333272776578e-24
5.129500256944802 9.534199358364393e-26 1.2981614781433266e-17 1.2981611297177236e-17 3.484256027557137e-24
5.168117569889187 9.744349233313544e-26 1.3367637453186871e-17 1.336763379974175e-17 3.6534451212472265e-24
5.20702561229733 1.0002291215137317e-25 1.3824793141888141e-17 1.3824789306717386e-17 3.835170759776723e-24
5.246226572918644 1.0266874814535688e-25 1.4297323456109953e-17 1.429731943024593e-17 4.0258640233818206e-24
5.265937586045735 1.0401723954196597e-25 1.4539533234464418e-17 1.453952910975449e-17 4.1247099258491336e-24
5.285722656980489 1.053831473533911e-25 1.4785804850988134e-17 1.4785800625024153e-17 4.225963979955854e-24
5.305582063971359 1.0676675465805607e-25 1.5036214456357928e-17 1.5036210126673615e-17 4.329684307039435e-24
5.3255160863122235 1.0825328249520247e-25 1.5302846007447815e-17 1.530284157111025e-17 4.436337561205439e-24
5.365609099470188 1.1195546276711654e-25 1.594533883506017e-17 1.5945334174303026e-17 4.660757144602811e-24
5.406003951863644 1.1579926026421177e-25 1.6616960096967107e-17 1.6616955200506017e-17 4.896461092179765e-24
5.446702915881641 1.1979152854979846e-25 1.7319255831965758e-17 1.731925068795679e-17 5.144008970551979e-24
5.487708281020852 1.241058079877038e-25 1.8078090503487377e-17 1.80780850986772e-17 5.4048101855450854e-24
5.529022354014368 1.3010104887794844e-25 1.9094072916961808e-17 1.9094067230758982e-17 5.6862028229007835e-24
5.570647458961463 1.3645055143916248e-25 2.0176712371875402e-17 2.0176706389631696e-17 5.982243706872101e-24
5.612585937458331 1.4317982372027163e-25 2.133114953654258e-17 2.13311432428603e-17 6.293682280503107e-24
5.654840148729818 1.505773984720486e-25 2.2602139725542284e-17 2.260213310275834e-17 6.622783948384531e-24
5.67608639626678 1.5561437141521315e-25 2.344596612194654e-17 2.3445959321674418e-17 6.800272112905897e-24
5.686739436050992 1.5821079260827197e-25 2.388189963443554e-17 2.388189274362723e-17 6.890808308116018e-24
5.6974124697621304 1.6086082842449178e-25 2.4327495213760342e-17 2.4327488231200016e-17 6.982560330750185e-24
5.718818669136295 1.6632690962438508e-25 2.5248656716768368e-17 2.5248649546992062e-17 7.169776296640681e-24
5.740305295436557 1.7235213272898444e-25 2.626159416514196e-17 2.626158680104043e-17 7.364101538874304e-24
5.7835210386641895 1.8798108220599524e-25 2.8858642507926585e-17 2.88586347224064e-17 7.785520176224996e-24
5.827062130521658 2.059865277356489e-25 3.186088966763888e-17 3.186088143140447e-17 8.236234412913527e-24
5.8489554468988025 2.186155691503419e-25 3.3941328272977676e-17 3.394131978095534e-17 8.492022343559883e-24
5.870931020387893 2.3216869859395836e-25 3.6180959318440254e-17 3.618095056225485e-17 8.756185406536695e-24
5.892989160043636 2.4672031495371587e-25 3.8593128549299456e-17 3.859311952029915e-17 9.029000318456612e-24
5.915130176081913 2.632697164481047e-25 4.133658982471926e-17 4.1336580506109364e-17 9.318609896682293e-24
5.95966208400165 3.0953751184521774e-25 4.896709680643615e-17 4.896708680542226e-17 1.0001013891928e-23
6.004529249263818 3.7622351986990547e-25 5.996451701912423e-17 5.996450618794271e-17 1.0831181519883604e-23
6.027089341400364 4.2257672148775225e-25 6.760559378934059e-17 6.760558244740997e-17 1.1341930611344313e-23
6.049734195844842 4.773551375478938e-25 7.665620726532702e-17 7.66561953600006e-17 1.1905326373415606e-23
6.095279466722835 6.355816441498727e-25 1.0283344893098931e-16 1.0283343554872252e-16 1.3382266790324997e-23
6.141167624020661 8.790844482004098e-25 1.4330158097607551e-16 1.433015655178969e-16 1.5458178663154522e-23
6.164241091010745 1.0345794277212403e-24 1.6928282095676933e-16 1.6928280415456327e-16 1.6802206031282483e-23
6.187401249150058 1.2117157956132592e-24 1.9901164200191562e-16 1.9901162373210312e-16 1.8269812471565265e-23
6.1990139391386085 1.2982066005815173e-24 2.136170232476718e-16 2.136170042228238e-16 1.9024847983878256e-23
6.204828454712694 1.343767153142604e-24 2.2132131050753883e-16 2.2132129109169372e-16 1.9415845159850283e-23
6.210648424152782 1.377025522485632e-24 2.2701176639217807e-16 2.2701174664731793e-16 1.9744860095188262e-23
6.233982942956859 1.490019111541421e-24 2.465624186350893e-16 2.465623977144642e-16 2.0920625185167872e-23
6.239830258556775 1.504463781375286e-24 2.491861761711107e-16 2.491861550797764e-16 2.1091334269220034e-23
6.245683058788269 1.5057170771583908e-24 2.496276860155205e-16 2.496276647520973e-16 2.1263423187411098e-23
6.257405133728602 1.502614697171877e-24 2.495808960447108e-16 2.4958087447543367e-16 2.156927724004791e-23
6.269149208991335 1.480394192474595e-24 2.463516141153122e-16 2.463515924214143e-16 2.169389790169538e-23
6.280915325867298 1.4246691298741896e-24 2.3752339146514854e-16 2.3752336987224097e-16 2.1592907516992317e-23
6.304513850009849 1.2872502743935055e-24 2.1541901177979848e-16 2.1541899059832202e-16 2.1181476490402502e-23
6.32820103803542 1.1169194181242877e-24 1.8761672126215245e-16 1.8761670074872076e-16 2.0513431642914943e-23
6.3519772230701035 9.607184671991015e-25 1.619848895448859e-16 1.6198486965465684e-16 1.9890229059347007e-23
6.375842739491607 8.293168617859762e-25 1.4035488260470572e-16 1.4035486325323645e-16 1.9351469288283077e-23
6.399797922933955 7.240061778670427e-25 1.229923122120897e-16 1.229922931857818e-16 1.902630792467097e-23
6.42384311029221 6.364576574598591e-25 1.0852601958937195e-16 1.085260008240849e-16 1.8765287049004595e-23
6.447978639727206 5.726646775106235e-25 9.801519751315353e-17 9.801517881399239e-17 1.869916112608828e-23
6.472204850670314 5.195287577747913e-25 8.92547380972554e-17 8.92547194160244e-17 1.8681231022769695e-23
6.496522083828205 4.8500261054669825e-25 8.363622616874159e-17 8.363620733623947e-17 1.8832502117675485e-23
6.520930681187647 4.559235261329735e-25 7.891708215663564e-17 7.891706314077063e-17 1.901586501036803e-23
6.57002334288761 4.262070979298541e-25 7.432878327662583e-17 7.432876362870335e-17 1.96479225056371e-23
