Dust emission spectrum from A.P. Jones, M. Kohler, N. Ysard, M. Bocchio, and L. Verstraete (2017), A&A, 602A, 46J 
inside the DustPedia framework.

lambda    nu*dP/dnu     j_nu    j_nu(carb.) j_nu(sil)
 (um)   (erg s-1 H-1) (Jy cm2 sr-1 H-1)
0.9927057738263894 6.328561158112867e-22 1.6676118106725124e-14 1.6676117121076438e-14 9.856486848551873e-22
1.0001793341362166 6.43496624209783e-22 1.7084158139728664e-14 1.7084156953592604e-14 1.1861360564010907e-21
1.0077091589558085 6.541794346282137e-22 1.749852837213428e-14 1.7498526946632113e-14 1.4255021702411694e-21
1.0114953028030835 6.595362152029057e-22 1.7708099398111208e-14 1.7708097836161128e-14 1.5619500772102673e-21
1.0152956718711033 6.649029942352423e-22 1.7919267660144977e-14 1.7919265949257854e-14 1.710887121737492e-21
1.0229392996569957 6.756605867582005e-22 1.8346274316850398e-14 1.8346272266159648e-14 2.050690753695777e-21
1.0267826658714554 6.810391827483553e-22 1.8561798789155147e-14 1.8561796545078403e-14 2.244076748729552e-21
1.0306404723013447 6.864267987526078e-22 1.8778930571470413e-14 1.8778928116590515e-14 2.4548798976446797e-21
1.03451277320114 6.918232701334848e-22 1.8997675105417275e-14 1.899767242082809e-14 2.6845891804357595e-21
1.0383996230291617 6.972284373849539e-22 1.9218037961769083e-14 1.9218035026955538e-14 2.934813542105468e-21
1.0403485208654093 6.999342335519499e-22 1.9328828038488278e-14 1.9328824970331596e-14 3.0681566850030706e-21
1.0423010764483396 7.026421462636015e-22 1.944002484639032e-14 1.9440021639099395e-14 3.207290921473703e-21
1.0462171883269815 7.080642479190708e-22 1.9663641606263296e-14 1.9663638102365396e-14 3.503897907380316e-21
1.0471985131304309 7.094210677849147e-22 1.971980116336332e-14 1.971979758130947e-14 3.582053847594743e-21
1.048180758391296 7.107784010289623e-22 1.97760630566909e-14 1.9776059394814027e-14 3.661876875039253e-21
1.0501480137395462 7.134945990236994e-22 1.9888894235601925e-14 1.9888890408941867e-14 3.8266600618703534e-21
1.0521189612883777 7.162128248713724e-22 2.0002135916295197e-14 2.000213191776945e-14 3.9985257499926005e-21
1.0531058218030118 7.175708926559927e-22 2.005886061221069e-14 2.0058856525000317e-14 4.087210371006415e-21
1.0540936079674168 7.189235629846505e-22 2.0115523101811154e-14 2.0115518924016122e-14 4.177795031504032e-21
1.058054026499678 7.243389731350404e-22 2.0343193517766717e-14 2.034318895805377e-14 4.559712945309082e-21
1.0590464539527713 7.256939981719655e-22 2.0400366733345394e-14 2.040036207305946e-14 4.660285932993041e-21
1.06003981227728 7.2704948840758245e-22 2.045764239479163e-14 2.0457637631813184e-14 4.762978451457755e-21
1.0620293250338977 7.297618570638683e-22 2.057250146321637e-14 2.0572496488323776e-14 4.97489258774324e-21
1.0660195594769086 7.351920965928938e-22 2.0803453476816956e-14 2.0803448050740497e-14 5.426076455866216e-21
1.070024785945596 7.4062957976215385e-22 2.1036056277706328e-14 2.10360503614868e-14 5.916219524440874e-21
1.0740450607676866 7.460742009528195e-22 2.127031677213013e-14 2.1270310323625562e-14 6.4485045677134e-21
1.07808044048254 7.515258610088313e-22 2.1506242060147835e-14 2.1506235033789343e-14 7.026358496359797e-21
1.0861967418109137 7.624415890069738e-22 2.1982875818793113e-14 2.1982867484985228e-14 8.333807887214413e-21
1.0902777775684922 7.678865183721263e-22 2.222304860425112e-14 2.2223039532608384e-14 9.071642734870192e-21
1.0943741465085532 7.733378295877757e-22 2.2464901203225868e-14 2.2464891331664147e-14 9.871561719992708e-21
1.1026131145906286 7.842593508633171e-22 2.2953678390151024e-14 2.2953666712401208e-14 1.167774982164819e-20
1.1109141095355224 7.952057322622631e-22 2.344927488940494e-14 2.3449261093012675e-14 1.3796392261891066e-20
1.1192775983109025 8.061680995676098e-22 2.3951507539370437e-14 2.3951491261138015e-14 1.627823241421048e-20
1.1277040513999907 8.17106869711894e-22 2.445926686742116e-14 2.4459247685739102e-14 1.918168205027851e-20
1.1361939428280308 8.280686916343514e-22 2.4974009206613965e-14 2.4973986632726458e-14 2.25738875171019e-20
1.1447477501889525 8.39053652854559e-22 2.5495818814446095e-14 2.5495792282515026e-14 2.6531931063814185e-20
1.1533659546722406 8.5006588236605e-22 2.6024904631119127e-14 2.6024873486893583e-14 3.114422554439545e-20
1.1707974979042381 8.722056882402786e-22 2.710629330743218e-14 2.7106250556102384e-14 4.275132979152062e-20
1.1884924949847024 8.944586328852134e-22 2.821799399389793e-14 2.8217935603879878e-14 5.839001805818101e-20
1.2064549276569216 9.16975527032751e-22 2.9365559489062134e-14 2.93654801337607e-14 7.935530143118669e-20
1.2246888378427687 9.396112388280625e-22 3.054522970371792e-14 3.054512238440276e-14 1.0731931515372543e-19
1.2431983285522175 9.623481185518553e-22 3.175718888866222e-14 3.175704445516072e-14 1.4443350149637616e-19
1.2619875648066055 9.852201835780061e-22 3.3003333574273e-14 3.3003140122356246e-14 1.934519167539649e-19
1.3004222497298317 1.0312336898243054e-21 3.5596796620790187e-14 3.559645446858972e-14 3.4215220047067214e-19
1.3400274889804893 1.0777998153885202e-21 3.833727546284312e-14 3.833668141233791e-14 5.940505051991624e-19
1.3808389325824078 1.125102108533275e-21 4.123864576538665e-14 4.1237632812116234e-14 1.012953270427866e-18
1.4228933163050095 1.173553590005104e-21 4.432458710847704e-14 4.4322889909210255e-14 1.6971992667798435e-18
1.466228494730424 1.2240157916973435e-21 4.763850339770396e-14 4.763570782328931e-14 2.795574414639677e-18
1.5108834753276823 1.2764158911289847e-21 5.119088134510152e-14 5.118635241557999e-14 4.5289295215364105e-18
1.5568984535646726 1.3307449266650022e-21 5.499516880857581e-14 5.498794501938138e-14 7.223789194428989e-18
1.6043148490894465 1.3873627156317417e-21 5.908116565689971e-14 5.906980006177314e-14 1.1365595126580311e-17
1.6531753430134553 1.4466573263250147e-21 6.348250024517801e-14 6.346488207157977e-14 1.7618173598256873e-17
1.7035239163302658 1.5090862091726964e-21 6.823885302743867e-14 6.821193939166779e-14 2.6913635770862743e-17
1.755405889504358 1.575859863635627e-21 7.3428486819663e-14 7.338795062102876e-14 4.053619863423792e-17
1.8088679632656115 1.6470680238683144e-21 7.908385588400297e-14 7.902363800124418e-14 6.021788275878186e-17
1.8639582606462262 1.7227875104770843e-21 8.523880072150791e-14 8.515053518820716e-14 8.826553330077032e-17
1.9207263702978936 1.8033543021328027e-21 9.194243307017869e-14 9.181472980223187e-14 1.2770326794682503e-16
1.979223391128241 1.88923152163799e-21 9.925432292727225e-14 9.90718812506343e-14 1.824416766379639e-16
2.039501978296691 1.980858672472646e-21 1.0723759243345521e-13 1.0698013222326874e-13 2.5746021018643466e-16
2.1016163906111602 2.0792895641517064e-21 1.1599462195365386e-13 1.15635586434907e-13 3.590355187468797e-16
2.1656225393682647 2.1851445233241833e-21 1.25612356170754e-13 1.251174155764729e-13 4.949405942811295e-16
2.231578038680979 2.2984047695345437e-21 1.3614698431251634e-13 1.3547231660139773e-13 6.746677111185596e-16
2.299542257339062 2.4193887396066823e-21 1.4767823147898665e-13 1.4676857312031266e-13 9.096583586739798e-16
2.369576372248914 2.548655744227849e-21 1.6030656989145165e-13 1.5909302478623506e-13 1.2135451052165528e-15
2.4417434235010123 2.6868460609429817e-21 1.7414549519474422e-13 1.7254317029321439e-13 1.6023249015298343e-15
2.5161083711144245 2.835070003224368e-21 1.8934880239023023e-13 1.8725421062162696e-13 2.0945917686032824e-15
2.5927381535095444 2.995030846735079e-21 2.0612439375829616e-13 2.034127336677567e-13 2.7116600905394396e-15
2.6717017477616296 3.1682292669991374e-21 2.246849634203938e-13 2.2120746849984446e-13 3.47749492054933e-15
2.753070231689431 3.356750264454188e-21 2.453046356521091e-13 2.408859257296873e-13 4.418709922421758e-15
2.836916847834745 3.5658743793601335e-21 2.6852336386505236e-13 2.629587031358536e-13 5.564660729198762e-15
2.9233170693905177 3.806860264588809e-21 2.9540122455227555e-13 2.8845539397982775e-13 6.9458305724477796e-15
2.967498994190263 3.949394335407591e-21 3.1109319582725955e-13 3.0337371415732136e-13 7.71948166993817e-15
3.0123486681368425 4.101636814810518e-21 3.279683039769324e-13 3.194001634002659e-13 8.568140576666628e-15
3.0578761833420214 4.329991228114861e-21 3.514603571150086e-13 3.41959753379469e-13 9.50060373553959e-15
3.1040917844459814 4.59269046185499e-21 3.784174573091304e-13 3.679038465532412e-13 1.0513610755889229e-14
3.127460860933648 4.818650214875521e-21 4.0002461737345634e-13 3.889692967591991e-13 1.1055320614257194e-14
3.1510058709225794 5.100174419480794e-21 4.2658312761826476e-13 4.149636457427825e-13 1.1619481875482276e-14
3.162844764501044 5.345472461792949e-21 4.4877990927273735e-13 4.3686866252283337e-13 1.1911246749904003e-14
3.1747281389236908 5.621612167191768e-21 4.737365084668335e-13 4.615276977707524e-13 1.2208810696080941e-14
3.1986289994194426 6.361156783046348e-21 5.400940627563936e-13 5.272708960234131e-13 1.282316673298053e-14
3.2227097969389145 8.041160821501163e-21 6.878747696219795e-13 6.744011124230315e-13 1.3473657198947967e-14
3.2348180950136065 9.606301699453726e-21 8.248510261361334e-13 8.110303564604428e-13 1.3820669675690569e-14
3.240889293275058 1.0772312519722106e-20 9.267072773670755e-13 9.127035670892311e-13 1.4003710277844377e-14
3.2469718861334385 1.2122555426284053e-20 1.0448215938756136e-12 1.030628491004348e-12 1.419310287126563e-14
3.2714166318528037 1.9198148083577777e-20 1.6671114241982182e-12 1.6521360655391088e-12 1.4975358659109293e-14
3.2744851364798273 1.9642028419050265e-20 1.707256565511848e-12 1.6921891339051266e-12 1.5067431606721383e-14
3.2775565192852394 2.0097689036262024e-20 1.7485004357116187e-12 1.7333404814401587e-12 1.5159954271460367e-14
3.283707930232385 1.9670220940728943e-20 1.7145225160929148e-12 1.6991973316310125e-12 1.5325184461902368e-14
3.2898708863219004 1.829639860429335e-20 1.5977686674505819e-12 1.582293325949046e-12 1.5475341501536023e-14
3.29141343181113 1.7971801821605173e-20 1.5701584872723977e-12 1.5546454459703416e-12 1.5513041302056418e-14
3.292184975758714 1.7812214575477344e-20 1.5565804798537295e-12 1.5410485645463343e-12 1.55319153073954e-14
3.295272960557952 1.681538020911356e-20 1.470847068700676e-12 1.4552417770628362e-12 1.5605291637839813e-14
3.3076538914384823 1.3337412787924965e-20 1.1710112972944524e-12 1.1551113970950355e-12 1.5899900199417353e-14
3.310756385682612 1.262271594505799e-20 1.1093011612403536e-12 1.0933270243892271e-12 1.597413685112691e-14
3.313861789986515 1.196063690870317e-20 1.0521026904216983e-12 1.0360540828146488e-12 1.6048607607049554e-14
3.3200813396944477 1.1038304924514894e-20 9.72793239412579e-13 9.565843542297023e-13 1.6208885182876906e-14
3.345076488085796 9.445458588953139e-21 8.386843403909256e-13 8.217609328937914e-13 1.6923407497134047e-14
3.3482140837626964 9.515413355323427e-21 8.45688278077749e-13 8.28668066454969e-13 1.7020211622780106e-14
3.3513546224236106 9.585978873841462e-21 8.527589488113679e-13 8.356415084466826e-13 1.7117440364685184e-14
3.3576445397418455 1.0061274425448107e-20 8.967205964135458e-13 8.793998361567841e-13 1.7320760256761755e-14
3.3702598118196083 1.1769952684517811e-20 1.0529494734613134e-12 1.0352022613078263e-12 1.7747212153487032e-14
3.382922481734668 1.2190451837790897e-20 1.0946651254479246e-12 1.0765037372997613e-12 1.8161388148163594e-14
3.389271646505754 1.2407027518404875e-20 1.1162039550027733e-12 1.0978327001739938e-12 1.8371254828779813e-14
3.395632727569191 1.2644729356672959e-20 1.139723969654242e-12 1.1211364345510546e-12 1.8587535103187325e-14
3.421196662673239 1.3791786610355034e-20 1.2524719311825756e-12 1.2329894532727222e-12 1.9482477909853357e-14
3.4276182099114902 1.3598651570402475e-20 1.237250735802096e-12 1.2175688951375361e-12 1.9681840664560236e-14
3.4340518103208963 1.2694140146158121e-20 1.1571231034957602e-12 1.1372528748348598e-12 1.987022866089988e-14
3.4469541582030403 1.1400242731715433e-20 1.0430834123094304e-12 1.0228519508561959e-12 2.0231461453234572e-14
3.472904465399547 1.1069432161037402e-20 1.0204403258195795e-12 9.993762108408247e-13 2.106411497875493e-14
3.4990501388274233 1.0553093827163643e-20 9.801654685465831e-13 9.58250088549761e-13 2.1915379996822328e-14
3.5253949054701885 8.638546492435585e-21 8.083843191501016e-13 7.856432225681995e-13 2.2741096581901875e-14
3.5519380250092896 6.817651195271229e-21 6.427907088021271e-13 6.19220730188805e-13 2.356997861332215e-14
3.578680990867387 6.130611748041471e-21 5.82366296024932e-13 5.57887982060751e-13 2.447831396418102e-14
3.605625307711299 5.890004087247145e-21 5.637228287884077e-13 5.382885072770996e-13 2.5434321511308176e-14
3.660119384959845 5.791787488223022e-21 5.627005022351124e-13 5.352606275429936e-13 2.743987469211888e-14
3.715437065384467 5.752766837763215e-21 5.673566042810359e-13 5.378068012571431e-13 2.9549803023892794e-14
3.8285932144167436 5.910604546289257e-21 6.006763897251436e-13 5.666070595922477e-13 3.4069330132895927e-14
3.94519561050918 6.1312640431962536e-21 6.420783017914817e-13 6.031036122891721e-13 3.8974689502309483e-14
4.06534921144712 6.3759771438407166e-21 6.880405618473821e-13 6.437861304950789e-13 4.4254431352303404e-14
4.189162171576248 6.632515385700452e-21 7.375218176859898e-13 6.876093724794538e-13 4.991244520653605e-14
4.316745939156006 6.894835012603049e-21 7.900413101433404e-13 7.341206479713304e-13 5.5920662172009894e-14
4.448215356677963 7.159093829510393e-21 8.453047173109451e-13 7.831171042037072e-13 6.218761310723755e-14
4.58368876423945 7.423682638703435e-21 9.032416422141044e-13 8.345274303325765e-13 6.871421188152784e-14
4.723288106065518 7.68825814886872e-21 9.63921855324709e-13 8.883870245780685e-13 7.553483074664074e-14
4.867139040275056 7.951761108489683e-21 1.0273218147601593e-12 9.44866461867669e-13 8.245535289249024e-14
4.940699165968905 8.08599215580642e-21 1.060452352058415e-12 9.744796191583815e-13 8.597273290003358e-14
5.015371051989984 8.217121636241075e-21 1.0939367635799792e-12 1.0044207739115298e-12 8.951598966844985e-14
5.091171501069577 8.355400001954971e-21 1.1291571941504122e-12 1.0359934216262652e-12 9.316377252414745e-14
5.129500256944802 8.423157826962319e-21 1.1468838236208004e-12 1.0518909384950886e-12 9.499288512571199e-14
5.168117569889187 8.490952498481277e-21 1.1648184184931164e-12 1.0679741312928356e-12 9.684428720028103e-14
5.20702561229733 8.566321312604994e-21 1.1840049203375044e-12 1.0851324589579543e-12 9.887246137955e-14
5.246226572918644 8.640959011402735e-21 1.2033124800752737e-12 1.1024033354224003e-12 1.0090914465287312e-13
5.265937586045735 8.677999934105323e-21 1.213011122062119e-12 1.1110807493485777e-12 1.0193037271354141e-13
5.285722656980489 8.714853750586569e-21 1.2227394047073748e-12 1.1197860438964404e-12 1.0295336081093416e-13
5.305582063971359 8.75151921200153e-21 1.2324971393205347e-12 1.1285191546604602e-12 1.0397798466007446e-13
5.3255160863122235 8.78946410800308e-21 1.2424917991629652e-12 1.1374789397238073e-12 1.0501285943915771e-13
5.365609099470188 8.876150639425408e-21 1.2641922600157845e-12 1.1570378132838015e-12 1.0715444673198316e-13
5.406003951863644 8.962664043390761e-21 1.2861241983043506e-12 1.1768199207833844e-12 1.09304277520966e-13
5.446702915881641 9.049034657503643e-21 1.3082940685616112e-12 1.1968327131565863e-12 1.1146135540502511e-13
5.487708281020852 9.138062243068317e-21 1.3311118869880568e-12 1.2174773284661584e-12 1.1363455852189868e-13
5.529022354014368 9.251595261278487e-21 1.3577956214848877e-12 1.2418958456116974e-12 1.1589977587318987e-13
5.570647458961463 9.366861920010059e-21 1.385062037447165e-12 1.2668888571386765e-12 1.1817318030848833e-13
5.612585937458331 9.484064269918082e-21 1.412950427645766e-12 1.2924966708744604e-12 1.2045375677130577e-13
5.654840148729818 9.607564977289244e-21 1.4421256326807065e-12 1.3193730408573724e-12 1.2275259182333415e-13
5.67608639626678 9.688548363783392e-21 1.4597454890718313e-12 1.3357888007554607e-12 1.2395668831637084e-13
5.686739436050992 9.729638491726961e-21 1.4686877305146324e-12 1.3441281293982883e-12 1.245596011163442e-13
5.6974124697621304 9.771142514710722e-21 1.4777209907953156e-12 1.3525579219604643e-12 1.2516306883485111e-13
5.718818669136295 9.85543884362652e-21 1.4960693535265974e-12 1.369697749177948e-12 1.2637160434864982e-13
5.740305295436557 9.946686297087845e-21 1.515593887270598e-12 1.3880020849744582e-12 1.2759180229614048e-13
5.7835210386641895 1.0177772672373605e-20 1.5624801157230857e-12 1.4323672260999e-12 1.3011288962318597e-13
5.827062130521658 1.0434238929586914e-20 1.6139120308294654e-12 1.4812444730159936e-12 1.326675578134722e-13
5.8489554468988025 1.0613011869472727e-20 1.6477313177043638e-12 1.513679728054468e-12 1.3405158964989578e-13
5.870931020387893 1.0800866732170756e-20 1.6831972708087281e-12 1.547757346789178e-12 1.3543992401954996e-13
5.892989160043636 1.0998533631138031e-20 1.7204413116930904e-12 1.5836088788453849e-12 1.3683243284770536e-13
5.915130176081913 1.1220825914914e-20 1.7618079458478463e-12 1.6235306171725718e-12 1.3827732867527445e-13
5.95966208400165 1.1839987274390656e-20 1.8730195238565122e-12 1.7314231697682475e-12 1.4159635408826443e-13
6.004529249263818 1.2717275554903194e-20 2.0269474027370216e-12 1.8816012177896854e-12 1.4534618494733593e-13
6.027089341400364 1.3323564016612332e-20 2.1315595747019286e-12 1.984033429682316e-12 1.4752614501961304e-13
6.049734195844842 1.403042385170503e-20 2.2530795087311277e-12 2.1032413509848694e-12 1.4983815774625903e-13
6.095279466722835 1.6060927466963546e-20 2.5985655496194054e-12 2.4429990797125734e-12 1.5556646990683104e-13
6.141167624020661 1.9141821232270388e-20 3.120352374520004e-12 2.9572951584589504e-12 1.6305721606105305e-13
6.164241091010745 2.1102419802903474e-20 3.4528785876960383e-12 3.285092940344205e-12 1.6778564735183244e-13
6.187401249150058 2.3299026030472285e-20 3.826621262309248e-12 3.653985433166902e-12 1.7263582914234458e-13
6.1990139391386085 2.436511496058861e-20 4.009225747763737e-12 3.834122978318546e-12 1.751027694451893e-13
6.204828454712694 2.492359100563338e-20 4.10496849176615e-12 3.9286202496806005e-12 1.7634824208554898e-13
6.210648424152782 2.5327308865486052e-20 4.175374406376881e-12 3.997971054992499e-12 1.7740335138438258e-13
6.233982942956859 2.6676791696509163e-20 4.414369071623092e-12 4.233312669805819e-12 1.8105640181727375e-13
6.239830258556775 2.6836752914367115e-20 4.445004208387723e-12 4.263460160177487e-12 1.8154404821023517e-13
6.245683058788269 2.683214393872144e-20 4.448409401651371e-12 4.2663771249418245e-12 1.8203227670954595e-13
6.257405133728602 2.6752281533317915e-20 4.443493337907983e-12 4.260617760694404e-12 1.828755772135795e-13
6.269149208991335 2.643311224221956e-20 4.398720219293049e-12 4.2155892577060834e-12 1.8313096158696572e-13
6.280915325867298 2.5697087804900245e-20 4.284264548314189e-12 4.101604478882897e-12 1.826600694312935e-13
6.304513850009849 2.39087430933509e-20 4.001085035692356e-12 3.820022815530767e-12 1.810622201615871e-13
6.32820103803542 2.1735993941886694e-20 3.651146045611142e-12 3.4723796038009696e-12 1.7876644181017157e-13
6.3519772230701035 1.9756628111372924e-20 3.3311269967884338e-12 3.154433200700136e-12 1.7669379608829744e-13
6.375842739491607 1.808509359354142e-20 3.060749521901913e-12 2.8858989393267866e-12 1.7485058257512664e-13
6.399797922933955 1.6763843681045424e-20 2.847798760458149e-12 2.6739655407918206e-12 1.7383321966632757e-13
6.42384311029221 1.5659438200350505e-20 2.670179982863952e-12 2.497199056885944e-12 1.7298092597800866e-13
6.447978639727206 1.4859974339694305e-20 2.5433790089463152e-12 2.370607860138689e-12 1.7277114880762673e-13
6.472204850670314 1.4190616744380807e-20 2.4379396943937432e-12 2.2652512927148917e-12 1.7268840167885257e-13
6.496522083828205 1.3755897669610016e-20 2.3721343836741964e-12 2.1990094677696737e-12 1.7312491590452266e-13
6.520930681187647 1.3387650383494903e-20 2.317305961724908e-12 2.1436672123136326e-12 1.7363874941127517e-13
