Dust emission spectrum from A.P. Jones, M. Kohler, N. Ysard, M. Bocchio, and L. Verstraete (2017), A&A, 602A, 46J 
inside the DustPedia framework.

lambda    nu*dP/dnu     j_nu    j_nu(carb.) j_nu(sil)
 (um)   (erg s-1 H-1) (Jy cm2 sr-1 H-1)
0.9927057738263894 2.7912622090683925e-23 7.3551344614236305e-16 7.355134180766442e-16 2.8065718652019106e-23
1.0001793341362166 2.838029921027407e-23 7.534670758475871e-16 7.534670420580661e-16 3.378952099345448e-23
1.0077091589558085 2.884869142546781e-23 7.716684730304784e-16 7.716684324032749e-16 4.06272035798763e-23
1.0114953028030835 2.908311698970103e-23 7.808619369022534e-16 7.808618923756232e-16 4.452663027928677e-23
1.0152956718711033 2.931767514871138e-23 7.901171640341132e-16 7.90117115249876e-16 4.878423726048331e-23
1.0229392996569957 2.9786900510877204e-23 8.088064607161311e-16 8.088064022136103e-16 5.850252061508869e-23
1.0267826658714554 3.002101980431656e-23 8.182262389135814e-16 8.18226174877814e-16 6.403576741524753e-23
1.0306404723013447 3.025520014843803e-23 8.277070534628522e-16 8.277069833936237e-16 7.006922822563023e-23
1.03451277320114 3.0489427051881524e-23 8.372488383777637e-16 8.372487617319014e-16 7.664586213822942e-23
1.0383996230291617 3.0723686193602044e-23 8.468515280424887e-16 8.468514442303799e-16 8.381210860551443e-23
1.0403485208654093 3.084082342634237e-23 8.516756917975608e-16 8.516756041656959e-16 8.763186505927382e-23
1.0423010764483396 3.095796342807653e-23 8.565150573954779e-16 8.565149657773267e-16 9.161815114473253e-23
1.0462171883269815 3.11922447904675e-23 8.662393621160359e-16 8.662392619978367e-16 1.001181995192518e-22
1.0471985131304309 3.12508141571665e-23 8.686799269956038e-16 8.686798246371934e-16 1.0235841030994873e-22
1.048180758391296 3.130938270628692e-23 8.711242853880248e-16 8.711241807414335e-16 1.0464659122967222e-22
1.0501480137395462 3.142651650174218e-23 8.760243788135355e-16 8.760242694427438e-16 1.0937079157531603e-22
1.0521189612883777 3.15436444843186e-23 8.809396346455385e-16 8.809395203466915e-16 1.1429884699506267e-22
1.0531058218030118 3.1602122746842843e-23 8.834006252435743e-16 8.834005084014864e-16 1.1684208803526e-22
1.0540936079674168 3.1660326918660614e-23 8.858577884124916e-16 8.858576689724692e-16 1.1944002228180208e-22
1.058054026499678 3.1893107421043084e-23 8.957237981287559e-16 8.957236677331875e-16 1.3039556831248127e-22
1.0590464539527713 3.1951292477680744e-23 8.981996348199204e-16 8.981995015387639e-16 1.3328115637796267e-22
1.06003981227728 3.2009473100480684e-23 9.006792032404746e-16 9.006790670126725e-16 1.362278019266367e-22
1.0620293250338977 3.212582023861906e-23 9.056495313760613e-16 9.0564938906686e-16 1.42309201213856e-22
1.0660195594769086 3.2358452489961165e-23 9.156349259960278e-16 9.156347707357157e-16 1.5526031196326596e-22
1.070024785945596 3.2590991507661294e-23 9.256799218329646e-16 9.256797524984851e-16 1.6933447939178755e-22
1.0740450607676866 3.2823424843120285e-23 9.35784460939328e-16 9.357842763154084e-16 1.8462391964836324e-22
1.07808044048254 3.305574027128704e-23 9.45948487783738e-16 9.459482865557728e-16 2.0122796571451173e-22
1.0861967418109137 3.3519590137989155e-23 9.664438536989594e-16 9.66443614883037e-16 2.3881592243849617e-22
1.0902777775684922 3.375023824623969e-23 9.767500366346649e-16 9.767497765957333e-16 2.6003893120161405e-22
1.0943741465085532 3.398070673787799e-23 9.871148034865087e-16 9.871145204307007e-16 2.8305580813097286e-22
1.1026131145906286 3.444106132068183e-23 1.0080199159884547e-15 1.0080195809333706e-15 3.3505508399128107e-22
1.1109141095355224 3.4900569347523266e-23 1.0291588845802013e-15 1.0291584884867518e-15 3.9609344958281124e-22
1.1192775983109025 3.535876200220211e-23 1.0505199289487927e-15 1.050519461301391e-15 4.676474016136341e-22
1.1277040513999907 3.5813777900800315e-23 1.072049181908223e-15 1.0720486304900704e-15 5.514181528057913e-22
1.1361939428280308 3.6267662149779995e-23 1.0938089286328434e-15 1.0938082792697931e-15 6.493630503923783e-22
1.1447477501889525 3.6720348542655345e-23 1.1157991507000005e-15 1.1157983869687955e-15 7.637312052003207e-22
1.1533659546722406 3.717197366562832e-23 1.13802599265109e-15 1.138025095546328e-15 8.97104762130937e-22
1.1707974979042381 3.8073442648230494e-23 1.1832414275224557e-15 1.183240194380076e-15 1.2331423791871538e-21
1.1884924949847024 3.896990964479419e-23 1.2294058505002628e-15 1.2294041638977352e-15 1.686602527264554e-21
1.2064549276569216 3.986782410227942e-23 1.2767417732110715e-15 1.2767394777362723e-15 2.2954747991961762e-21
1.2246888378427687 4.075973433447402e-23 1.3250325203239186e-15 1.3250294114145314e-15 3.108909386993183e-21
1.2431983285522175 4.164437921859418e-23 1.3742515743534574e-15 1.3742473840797542e-15 4.190273703070641e-21
1.2619875648066055 4.2522418420331165e-23 1.4244344390249552e-15 1.424428818177028e-15 5.6208479271071034e-21
1.3004222497298317 4.4249841296202834e-23 1.5274448620773231e-15 1.5274348899999274e-15 9.972077395541271e-21
1.3400274889804893 4.594311270898723e-23 1.6341937922024734e-15 1.634176423665082e-15 1.7368537391275605e-20
1.3808389325824078 4.760470682396637e-23 1.744867089474994e-15 1.7448373771250075e-15 2.971234998622468e-20
1.4228933163050095 4.924772432817162e-23 1.8600642232868238e-15 1.8600142749633973e-15 4.994832342644252e-20
1.466228494730424 5.09057270654045e-23 1.981242944917412e-15 1.9811603921765697e-15 8.255274084296079e-20
1.5108834753276823 5.2569421831676977e-23 2.108305806962119e-15 2.108171604760109e-15 1.342022020096566e-19
1.5568984535646726 5.423332878792804e-23 2.2412793105420714e-15 2.241064497566681e-15 2.1481297539072083e-19
1.6043148490894465 5.590947982609129e-23 2.380918271897098e-15 2.3805790852361004e-15 3.391866609978591e-19
1.6531753430134553 5.761168474132249e-23 2.52812723798728e-15 2.52759953864801e-15 5.276993392704497e-19
1.7035239163302658 5.935869571580472e-23 2.68412055469769e-15 2.683311446896963e-15 8.091078007273177e-19
1.755405889504358 6.120398288410571e-23 2.8518499355318133e-15 2.850626685987946e-15 1.2232495438680868e-18
1.8088679632656115 6.315191560098803e-23 3.0322348074353476e-15 3.0304106352143163e-15 1.8241722210321867e-18
1.8639582606462262 6.520939630724685e-23 3.226382071613691e-15 3.223697774308604e-15 2.684297305086462e-18
1.9207263702978936 6.739638765257115e-23 3.4361455503168295e-15 3.432246378839414e-15 3.899171477415405e-18
1.979223391128241 6.974048874148581e-23 3.663947436496147e-15 3.658354269280671e-15 5.593167215476342e-18
2.039501978296691 7.227145560390491e-23 3.912554190930615e-15 3.904628428758664e-15 7.925762171951044e-18
2.1016163906111602 7.504713743717479e-23 4.186557026885489e-15 4.17545760289925e-15 1.1099423986239439e-17
2.1656225393682647 7.81093066958686e-23 4.4900893044851015e-15 4.474722466000536e-15 1.5366838484564988e-17
2.231578038680979 8.147633592339564e-23 4.826285420148288e-15 4.8052463040541215e-15 2.1039116094167768e-17
2.299542257339062 8.518182580807714e-23 5.199454384305754e-15 5.170959875641126e-15 2.849450866462994e-17
2.369576372248914 8.927456732739295e-23 5.61523450125024e-15 5.577046674110423e-15 3.818782713981676e-17
2.4417434235010123 9.380929696021656e-23 6.080164662382719e-15 6.0295066154278216e-15 5.0658046954897435e-17
2.5161083711144245 9.886565382629694e-23 6.603044414510315e-15 6.536506273031284e-15 6.653814147903041e-17
2.5927381535095444 1.0455706861116565e-22 7.19583987060265e-15 7.10927799004018e-15 8.656188056246971e-17
2.6717017477616296 1.1100189507422307e-22 7.872049221352323e-15 7.760484524541715e-15 1.1156469681060708e-16
2.753070231689431 1.1836097157407137e-22 8.649584484989459e-15 8.507097366923192e-15 1.4248711806626645e-16
2.836916847834745 1.2697907913550046e-22 9.561988405230826e-15 9.38160699404043e-15 1.803814111903949e-16
2.9233170693905177 1.3757241266609936e-22 1.0675216935120758e-14 1.0448850181771648e-14 2.2636675334910884e-16
2.967498994190263 1.4426314620571434e-22 1.1363586256979623e-14 1.1111274143564697e-14 2.523121134149263e-16
3.0123486681368425 1.5158619083171941e-22 1.212088445614835e-14 1.1840026196969395e-14 2.8085825917895417e-16
3.0578761833420214 1.6344951654954172e-22 1.3267007351834194e-14 1.2954697206433389e-14 3.1231014540080737e-16
3.1040917844459814 1.7758831771797108e-22 1.4632494873494588e-14 1.4285887110314227e-14 3.4660776318036505e-16
3.127460860933648 1.9035821185909984e-22 1.5802759583535957e-14 1.543775989773219e-14 3.6499968580376655e-16
3.1510058709225794 2.0661495248289973e-22 1.7281458513692788e-14 1.6897267258278613e-14 3.841912554141745e-16
3.162844764501044 2.209637132491511e-22 1.8551040323058763e-14 1.815690946870022e-14 3.9413085435854737e-16
3.1747281389236908 2.3734193321790625e-22 2.0000941973837116e-14 1.959666387051573e-14 4.0427810332138296e-16
3.1986289994194426 2.818871272063757e-22 2.3933628577962765e-14 2.3508369406321328e-14 4.252591716414375e-16
3.2227097969389145 3.8407063554406287e-22 3.2855020041014285e-14 3.240750712061725e-14 4.475129203970311e-16
3.2348180950136065 4.798417373333881e-22 4.120190701952423e-14 4.0742512756602806e-14 4.593942629214295e-16
3.240889293275058 5.5123119535125e-22 4.742064058283868e-14 4.6954979124144534e-14 4.656614586941554e-16
3.2469718861334385 6.338336560160504e-22 5.4629000853634034e-14 5.415685456575807e-14 4.721462878759522e-16
3.2714166318528037 1.0707228967777987e-21 9.297846675616548e-14 9.247950418566782e-14 4.989625704976448e-16
3.2744851364798273 1.098167755125866e-21 9.545114536916527e-14 9.494901749810603e-14 5.021278710592503e-16
3.2775565192852394 1.1263720745734619e-21 9.799445396988784e-14 9.748914450591763e-14 5.053094639701747e-16
3.283707930232385 1.1000146120627598e-21 9.588096778860699e-14 9.53699583320008e-14 5.110094566061901e-16
3.2898708863219004 1.0152167548729191e-21 8.865578175730049e-14 8.813957551173567e-14 5.162062455648408e-16
3.29141343181113 9.952036793432376e-22 8.694885015964046e-14 8.643133872473163e-14 5.17511434908832e-16
3.292184975758714 9.853676391514398e-22 8.610967637310651e-14 8.5591511443367e-14 5.181649297395288e-16
3.295272960557952 9.234929156372342e-22 8.077824176670649e-14 8.025753307885693e-14 5.207086878495677e-16
3.3076538914384823 7.084637567801766e-22 6.220239832903368e-14 6.167146783944693e-14 5.309304895867327e-16
3.310756385682612 6.645187501932917e-22 5.839879661904412e-14 5.78652886407099e-14 5.335079783342306e-16
3.313861789986515 6.239027916440282e-22 5.488084043188812e-14 5.4344746127703595e-14 5.360943041845285e-16
3.3200813396944477 5.671951734042519e-22 4.998626454771092e-14 4.944461170080629e-14 5.41652846904637e-16
3.345076488085796 4.681134787865108e-22 4.1564889675481504e-14 4.099847707028215e-14 5.664126051993567e-16
3.3482140837626964 4.723005640526043e-22 4.197600627883816e-14 4.140624003069677e-14 5.697662481413936e-16
3.3513546224236106 4.76528722263252e-22 4.239151135462387e-14 4.181837582307867e-14 5.731355315452146e-16
3.3576445397418455 5.055476675146325e-22 4.5057413878163624e-14 4.4477235656113326e-14 5.801782220502927e-16
3.3702598118196083 6.108715202419316e-22 5.4649059586903935e-14 5.405410798795694e-14 5.949515989470037e-16
3.382922481734668 6.362334401958185e-22 5.713180839343939e-14 5.652247753867999e-14 6.093308547593882e-16
3.389271646505754 6.493328326414441e-22 5.841752787542114e-14 5.780090479543213e-14 6.166230799890169e-16
3.395632727569191 6.635582422642117e-22 5.980936504355099e-14 5.918522675866e-14 6.241382848909925e-16
3.421196662673239 7.318570960905691e-22 6.646205429266216e-14 6.58067845279387e-14 6.552697647234366e-16
3.4276182099114902 7.197614491816944e-22 6.548630046086825e-14 6.482406155507713e-14 6.622389057911393e-16
3.4340518103208963 6.639995032166535e-22 6.052628669884598e-14 5.985744569516857e-14 6.688410036773895e-16
3.4469541582030403 5.845639233222166e-22 5.348560957878612e-14 5.2804075298410825e-14 6.81534280375279e-16
3.472904465399547 5.642658283254124e-22 5.201708609154852e-14 5.130634302329906e-14 7.107430682494738e-16
3.4990501388274233 5.322734063675982e-22 4.943725710125754e-14 4.869657538519259e-14 7.406817160649412e-16
3.5253949054701885 4.1296643955004026e-22 3.8644880172819196e-14 3.787503527218644e-14 7.698449006327535e-16
3.5519380250092896 3.001724916203829e-22 2.8301255538769223e-14 2.750203581147323e-14 7.99219727295982e-16
3.578680990867387 2.5716015225460384e-22 2.4428460243231852e-14 2.3597034846263593e-14 8.314253969682608e-16
3.605625307711299 2.415641604773721e-22 2.3119717721935625e-14 2.225433509921003e-14 8.653826227256004e-16
3.660119384959845 2.340324163636822e-22 2.273739471534802e-14 2.1800499257576538e-14 9.368954577714777e-16
3.715437065384467 2.304030463131417e-22 2.272309892939395e-14 2.171056529684876e-14 1.0125336325451838e-15
3.8285932144167436 2.379345702064254e-22 2.4180551668293758e-14 2.3004579469189733e-14 1.175972199104024e-15
3.94519561050918 2.4986391811907156e-22 2.6166252031322615e-14 2.4810735663496128e-14 1.3555163678264912e-15
4.06534921144712 2.6384958221694223e-22 2.847237540164514e-14 2.692109220269917e-14 1.5512831989459667e-15
4.189162171576248 2.791818849864673e-22 3.104444080508909e-14 2.928048266417754e-14 1.763958140911547e-15
4.316745939156006 2.955503256561938e-22 3.38654900469557e-14 3.187236560140095e-14 1.993124445554755e-15
4.448215356677963 3.12790104119108e-22 3.69324605650749e-14 3.46964187555128e-14 2.236041809562089e-15
4.58368876423945 3.3085573353197458e-22 4.02553140584639e-14 3.776196993611575e-14 2.493344122348161e-15
4.723288106065518 3.497762503177144e-22 4.385349264116239e-14 4.108653373168282e-14 2.7669589094795606e-15
4.867139040275056 3.69588536864962e-22 4.774871392970965e-14 4.469834029753809e-14 3.0503736321715483e-15
4.940699165968905 3.800284423390282e-22 4.98395308531346e-14 4.664284720675764e-14 3.1966836463769613e-15
5.015371051989984 3.9054034706089614e-22 5.199222577245839e-14 4.8646540127089074e-14 3.3456856453693133e-15
5.091171501069577 4.0177227604733895e-22 5.429591112369143e-14 5.0795438707358545e-14 3.5004724163328695e-15
5.129500256944802 4.0741181872556483e-22 5.547254771276061e-14 5.189377576729884e-14 3.5787719454617716e-15
5.168117569889187 4.131252733141964e-22 5.667396297264069e-14 5.3015592963924465e-14 3.658370008716224e-15
5.20702561229733 4.1937047121687297e-22 5.79638193858549e-14 5.42189069653048e-14 3.744912420550094e-15
5.246226572918644 4.256529492203801e-22 5.927507644716659e-14 5.5442772276271964e-14 3.832304170894616e-15
5.265937586045735 4.28808200411771e-22 5.993882464629753e-14 5.606251407868193e-14 3.876310567615574e-15
5.285722656980489 4.319728196329638e-22 6.060803812022955e-14 5.6687518490402344e-14 3.920519629827219e-15
5.305582063971359 4.351468329451391e-22 6.128275717589558e-14 5.731782913655776e-14 3.964928039337825e-15
5.3255160863122235 4.384242760565297e-22 6.197631173647966e-14 5.796645504710784e-14 4.00985668937183e-15
5.365609099470188 4.45743879041077e-22 6.348539865132572e-14 5.93825858123884e-14 4.102812838937307e-15
5.406003951863644 4.531562912789256e-22 6.50270130628694e-14 6.083034647089254e-14 4.196666591976861e-15
5.446702915881641 4.606652716189152e-22 6.660220291582055e-14 6.231081083173114e-14 4.2913920840894125e-15
5.487708281020852 4.68456405884094e-22 6.823852517321467e-14 6.385118705470009e-14 4.387338118514571e-15
5.529022354014368 4.779851921981922e-22 7.015073430823985e-14 6.56633262992376e-14 4.487408009002252e-15
5.570647458961463 4.877767897656681e-22 7.212672931678577e-14 6.753828865990898e-14 4.588440656876798e-15
5.612585937458331 4.97849789579986e-22 7.417042452164568e-14 6.948001429112573e-14 4.690410230519954e-15
5.654840148729818 5.085036538990355e-22 7.632799313177315e-14 7.153423494985204e-14 4.793758181921113e-15
5.67608639626678 5.15196864937831e-22 7.762321777617358e-14 7.277541304545557e-14 4.847804730717984e-15
5.686739436050992 5.186050943470182e-22 7.828337503983219e-14 7.340844635435878e-14 4.87492868547341e-15
5.6974124697621304 5.220557057146707e-22 7.895214643912807e-14 7.405002720082884e-14 4.902119238299235e-15
5.718818669136295 5.290881255924548e-22 8.031631493767498e-14 7.535961638297413e-14 4.956698554700873e-15
5.740305295436557 5.366537827402358e-22 8.177087005748582e-14 7.675894462641312e-14 5.011925431072709e-15
5.7835210386641895 5.553321263976281e-22 8.525395811539129e-14 8.01277849266473e-14 5.12617318874399e-15
5.827062130521658 5.761066950736109e-22 8.910908907637146e-14 8.386655741447376e-14 5.242531661897704e-15
5.8489554468988025 5.901389765780367e-22 9.162248054226884e-14 8.631721451535031e-14 5.30526602691852e-15
5.870931020387893 6.049464888741723e-22 9.427431189623453e-14 8.890592587861386e-14 5.368386017620661e-15
5.892989160043636 6.205902586937552e-22 9.707558793731339e-14 9.164369874406009e-14 5.431889193253312e-15
5.915130176081913 6.381108394363433e-22 1.0019126540019986e-13 9.469357507481591e-14 5.49769032538392e-15
5.95966208400165 6.86012205029721e-22 1.0852327995349573e-13 1.0287620429132252e-13 5.64707566217324e-15
6.004529249263818 7.53331885665947e-22 1.2007006551500308e-13 1.142551673902782e-13 5.814898124724886e-15
6.027089341400364 7.995068560141924e-22 1.2790845541418423e-13 1.219968658554279e-13 5.91158955875633e-15
6.049734195844842 8.534312007628774e-22 1.3704848626629113e-13 1.310345242433175e-13 6.013962022973638e-15
6.095279466722835 1.0076778619047033e-21 1.630364736062627e-13 1.5677182904371684e-13 6.264644562545934e-15
6.141167624020661 1.2419506979972171e-21 2.024532442607472e-13 1.9586441531975272e-13 6.5888289409944645e-15
6.164241091010745 1.3911712102096243e-21 2.2763006936726177e-13 2.2083833954314149e-13 6.7917298241202896e-15
6.187401249150058 1.5593604604225306e-21 2.5610864100726693e-13 2.4910838304739946e-13 7.000257959867508e-15
6.1990139391386085 1.6413478204762369e-21 2.700801516238874e-13 2.6297375129111563e-13 7.10640033277178e-15
6.204828454712694 1.6843800928538432e-21 2.7742098671737754e-13 2.7026095595679764e-13 7.160030760579872e-15
6.210648424152782 1.715808446318082e-21 2.828623724316995e-13 2.756565159177698e-13 7.205856513929668e-15
6.233982942956859 1.8220798217589294e-21 3.015105003145359e-13 2.9414430612223766e-13 7.366194192298233e-15
6.239830258556775 1.8354304264211416e-21 3.040045863848594e-13 2.966157171426438e-13 7.388869242215695e-15
6.245683058788269 1.836344078955099e-21 3.044412061945704e-13 2.970296187118194e-13 7.41158748275099e-15
6.257405133728602 1.8328517357394933e-21 3.044325197829749e-13 2.969809168993918e-13 7.451602883583105e-15
6.269149208991335 1.8112919536805435e-21 3.014161354398428e-13 2.9394861925374904e-13 7.46751618609373e-15
6.280915325867298 1.7581331508487928e-21 2.9311911087298573e-13 2.8566550775477347e-13 7.453603118212221e-15
6.304513850009849 1.6274448011876497e-21 2.723499522757475e-13 2.6495119115498496e-13 7.398761120762549e-15
6.32820103803542 1.4666290424036593e-21 2.4635987858974217e-13 2.3904470527532744e-13 7.315173314414649e-15
6.3519772230701035 1.3196654997350177e-21 2.2250625704530373e-13 2.1526554786288612e-13 7.240709182417576e-15
6.375842739491607 1.1957295408633905e-21 2.023671374213192e-13 1.9519155967228486e-13 7.175577749034275e-15
6.399797922933955 1.0975930748150223e-21 1.8645629590783336e-13 1.7931165778495582e-13 7.144638122877597e-15
6.42384311029221 1.0158206307254069e-21 1.7321336050756308e-13 1.6609286130438627e-13 7.120499203176781e-15
6.447978639727206 9.569389707829637e-22 1.6378618397951747e-13 1.566630961954004e-13 7.123087784117098e-15
6.472204850670314 9.079039952312075e-22 1.5597737776614229e-13 1.488463717922876e-13 7.131005973854667e-15
6.496522083828205 8.766687828131941e-22 1.511770596694138e-13 1.4401642056036985e-13 7.160639109044008e-15
6.520930681187647 8.504775618367626e-22 1.4721154705289701e-13 1.4001792605403624e-13 7.193620998860789e-15
