Dust emission spectrum from A.P. Jones, M. Kohler, N. Ysard, M. Bocchio, and L. Verstraete (2017), A&A, 602A, 46J 
inside the DustPedia framework.

lambda    nu*dP/dnu     j_nu    j_nu(carb.) j_nu(sil)
 (um)   (erg s-1 H-1) (Jy cm2 sr-1 H-1)
0.9927057738263894 1.4211805788847578e-22 3.7448915468067176e-15 3.7448912766776766e-15 2.701290397244018e-22
1.0001793341362166 1.445105037482917e-22 3.8366017878017844e-15 3.836601462641119e-15 3.251606666989626e-22
1.0077091589558085 1.4691038725310844e-22 3.929679600782243e-15 3.929679209896049e-15 3.9088619318310036e-22
1.0114953028030835 1.4811297482602236e-22 3.976732770560969e-15 3.9767323421991894e-15 4.28361779146704e-22
1.0152956718711033 1.4931725152779059e-22 4.0241295641647015e-15 4.024129094890051e-15 4.692746505648704e-22
1.0229392996569957 1.5172948228942697e-22 4.119924646473004e-15 4.1199240838295475e-15 5.626434563815708e-22
1.0267826658714554 1.5293467329191903e-22 4.168251556502145e-15 4.168250940707588e-15 6.157945579048431e-22
1.0306404723013447 1.5414127763264978e-22 4.2169221191850786e-15 4.216921445441898e-15 6.737431794606091e-22
1.03451277320114 1.553492441187629e-22 4.265936974150892e-15 4.265936237250335e-15 7.369005572879421e-22
1.0383996230291617 1.5655852259997206e-22 4.3152967797031425e-15 4.315295973991974e-15 8.057111676168792e-22
1.0403485208654093 1.5716363845909439e-22 4.3401062500731504e-15 4.340105407688114e-15 8.423850373750011e-22
1.0423010764483396 1.5776906399798586e-22 4.3650022140316765e-15 4.365001333376438e-15 8.806552381989045e-22
1.0462171883269815 1.5898082033581318e-22 4.415053976444344e-15 4.4150530141929086e-15 9.622514352050339e-22
1.0471985131304309 1.5928394373953488e-22 4.4276211148726334e-15 4.4276201311180825e-15 9.837545508872383e-22
1.048180758391296 1.5958713942266674e-22 4.440209955297981e-15 4.440208949580603e-15 1.0057173779144563e-21
1.0501480137395462 1.601937447669381e-22 4.465452788618536e-15 4.4654517375587994e-15 1.0510597366260004e-21
1.0521189612883777 1.6080063069421388e-22 4.4907825703195055e-15 4.490781471964037e-15 1.0983554674679968e-21
1.0531058218030118 1.6110376542873386e-22 4.5034685881364006e-15 4.50346746537407e-15 1.122762331295348e-21
1.0540936079674168 1.614056194122105e-22 4.516138617809888e-15 4.516137470116632e-15 1.14769325624344e-21
1.058054026499678 1.6261364699954596e-22 4.567034237055797e-15 4.56703298423737e-15 1.2528184267365099e-21
1.0590464539527713 1.629158034614647e-22 4.579812077326746e-15 4.579810796821689e-15 1.2805050565376719e-21
1.06003981227728 1.6321801842723e-22 4.592611516286377e-15 4.592610207509834e-15 1.3087765447925117e-21
1.0620293250338977 1.6382262126546622e-22 4.618275240160686e-15 4.618273873039407e-15 1.367121279793795e-21
1.0660195594769086 1.6503250061535302e-22 4.6698624272825825e-15 4.6698609359218435e-15 1.4913607413086628e-21
1.070024785945596 1.6624324474369268e-22 4.7217966278634e-15 4.721795001508658e-15 1.6263547415989663e-21
1.0740450607676866 1.6745481466212734e-22 4.7740787020016966e-15 4.774076929017208e-15 1.7729844882962142e-21
1.07808044048254 1.686671727273225e-22 4.826709541844943e-15 4.826707609645919e-15 1.9321990238367353e-21
1.0861967418109137 1.7109221106646257e-22 4.932966516602736e-15 4.932964224055187e-15 2.2925475500376597e-21
1.0902777775684922 1.7230050587694956e-22 4.986469256886875e-15 4.986466760922032e-15 2.4959648435264833e-21
1.0943741465085532 1.7350937692660128e-22 5.040321139555682e-15 5.040318423012001e-15 2.7165436821397098e-21
1.1026131145906286 1.759287287598006e-22 5.1490765842897375e-15 5.149073369530345e-15 3.2147593943919856e-21
1.1109141095355224 1.7835004396477076e-22 5.2592417757975355e-15 5.259237976391289e-15 3.7994062473457104e-21
1.1192775983109025 1.8077117738363629e-22 5.3707684790892914e-15 5.370763994520914e-15 4.484568376220514e-21
1.1277040513999907 1.8318300454694632e-22 5.4833977780282054e-15 5.483392491561076e-15 5.286467130943911e-21
1.1361939428280308 1.8559599167856812e-22 5.597453510460591e-15 5.597447286701407e-15 6.223759183179061e-21
1.1447477501889525 1.880100248096851e-22 5.7129475708011035e-15 5.7129402529274084e-15 7.317873697264558e-21
1.1533659546722406 1.90425947410013e-22 5.8299212136854734e-15 5.829912620282232e-15 8.593403242957622e-21
1.1707974979042381 1.95270874045517e-22 6.0686024611413385e-15 6.068590655591932e-15 1.1805549407453606e-20
1.1884924949847024 2.0012252193779142e-22 6.313378746056551e-15 6.313362608743577e-15 1.6137312976037164e-20
1.2064549276569216 2.0501449926342992e-22 6.565459269913002e-15 6.56543732007459e-15 2.1949838413879767e-20
1.2246888378427687 2.0991221483663432e-22 6.8239039241360786e-15 6.823874214157804e-15 2.970997827600496e-20
1.2431983285522175 2.148108869610138e-22 7.08869252306269e-15 7.088652503948551e-15 4.001911413968349e-20
1.2619875648066055 2.1971669993586827e-22 7.360165433768511e-15 7.360111785794772e-15 5.364797373979736e-20
1.3004222497298317 2.2951447968901867e-22 7.92253039794348e-15 7.92243534242843e-15 9.505551504716093e-20
1.3400274889804893 2.393306891239607e-22 8.512978407172844e-15 8.512813066672196e-15 1.6534050064924934e-19
1.3808389325824078 2.4919922170721873e-22 9.13396068770243e-15 9.133678224268135e-15 2.8246343429412487e-19
1.4228933163050095 2.592081598139305e-22 9.790174693982771e-15 9.789700516610734e-15 4.741773720371507e-19
1.466228494730424 2.6954994935476257e-22 1.049084191992427e-14 1.049005933430646e-14 7.825856178123344e-19
1.5108834753276823 2.8020583154024956e-22 1.1237703615469114e-14 1.1236433256562466e-14 1.2703589066515486e-18
1.5568984535646726 2.9117626227921043e-22 1.2033326129017404e-14 1.2031295731157009e-14 2.0303978603958412e-18
1.6043148490894465 3.025508880472237e-22 1.2884200313989736e-14 1.2880999179316961e-14 3.2011346727741503e-18
1.6531753430134553 3.144309941843373e-22 1.3797922494960099e-14 1.3792949895500219e-14 4.972599459883101e-18
1.7035239163302658 3.2694233235158114e-22 1.478389347817201e-14 1.4776281077452454e-14 7.612400719556294e-18
1.755405889504358 3.4038951156637767e-22 1.5860729332835214e-14 1.5849238937297247e-14 1.1490395537968786e-17
1.8088679632656115 3.5483156408699464e-22 1.7037212714169478e-14 1.702010561316863e-14 1.7107101000850193e-17
1.8639582606462262 3.703379832162725e-22 1.832330763892944e-14 1.8298176187465873e-14 2.5131451463571297e-17
1.9207263702978936 3.8704808001151705e-22 1.9733305956191098e-14 1.969686238806102e-14 3.644356813008085e-17
1.979223391128241 4.051428472635774e-22 2.128493968759802e-14 2.1232753838653554e-14 5.218584894446387e-17
2.039501978296691 4.248135606198524e-22 2.299809880787229e-14 2.2924280075660853e-14 7.381873221143447e-17
2.1016163906111602 4.464028668130712e-22 2.4902896002430748e-14 2.4799705391176258e-14 1.0319061125448596e-16
2.1656225393682647 4.701718491680053e-22 2.7027683134344158e-14 2.6885082522888974e-14 1.4260061145518423e-16
2.231578038680979 4.962553683370508e-22 2.939589786078845e-14 2.9201028437392066e-14 1.948694233963883e-16
2.299542257339062 5.248750460408907e-22 3.20381000695951e-14 3.1774686454317474e-14 2.634136152776213e-16
2.369576372248914 5.56325426523081e-22 3.499202317586169e-14 3.463969815840639e-14 3.523250174552999e-16
2.4417434235010123 5.909315874139483e-22 3.830069590228085e-14 3.7834264018239686e-14 4.664318840411577e-16
2.5161083711144245 6.291420037232267e-22 4.2019168769341664e-14 4.140778975187459e-14 6.113790174670825e-16
2.5927381535095444 6.715597602683242e-22 4.6218171211382915e-14 4.542449313950533e-14 7.936780718775734e-16
2.6717017477616296 7.187704404393578e-22 5.097387105155525e-14 4.9953168716732085e-14 1.0207023348231715e-15
2.753070231689431 7.715223737022675e-22 5.638132117917883e-14 5.508061801540158e-14 1.3007031637772536e-15
2.836916847834745 8.313743440180834e-22 6.260552440630176e-14 6.096266949922914e-14 1.6428549070726241e-15
2.9233170693905177 9.01435777709794e-22 6.994878038148015e-14 6.789196466029017e-14 2.0568157211899885e-15
2.967498994190263 9.429092069884018e-22 7.427281594728269e-14 7.198317358376605e-14 2.2896423635166372e-15
3.0123486681368425 9.875177144959153e-22 7.896225935970976e-14 7.641679389062765e-14 2.5454654690820924e-15
3.0578761833420214 1.0523346211751915e-21 8.541677852861206e-14 8.258979984915112e-14 2.8269786794609483e-15
3.1040917844459814 1.1269492694282215e-21 9.285565413027279e-14 8.972220288260334e-14 3.133451247669443e-15
3.127460860933648 1.1889503400346793e-21 9.870179067577323e-14 9.540419746584208e-14 3.2975932099311528e-15
3.1510058709225794 1.2657172139742795e-21 1.058657142695113e-13 1.0239699051590227e-13 3.4687237536090436e-15
3.162844764501044 1.3310794947686345e-21 1.1175097040846135e-13 1.0819367251442961e-13 3.557297894031723e-15
3.1747281389236908 1.4047537317373422e-21 1.1837940938238723e-13 1.1473172684463298e-13 3.647682537754254e-15
3.1986289994194426 1.6015537989248923e-21 1.359799369023002e-13 1.3214549176091335e-13 3.834445141386823e-15
3.2227097969389145 2.0436305233008435e-21 1.74820763645115e-13 1.707883805188488e-13 4.0323831262661956e-15
3.2348180950136065 2.454157340802968e-21 2.1072773520906254e-13 2.0658971163915958e-13 4.138023569902979e-15
3.240889293275058 2.759402634355069e-21 2.373825023885111e-13 2.331887559758473e-13 4.19374641266376e-15
3.2469718861334385 3.112559673195188e-21 2.6826600864448415e-13 2.6401460513326335e-13 4.251403511220791e-15
3.2714166318528037 4.9683331154021666e-21 4.314356186779499e-13 4.2694591526420393e-13 4.489703413745972e-15
3.2744851364798273 5.085251826773137e-21 4.4200269866829473e-13 4.374849023071766e-13 4.517796361118237e-15
3.2775565192852394 5.205310827363417e-21 4.5286242777652865e-13 4.483163971532389e-13 4.546030623289807e-15
3.283707930232385 5.095297081986664e-21 4.44123205304725e-13 4.395266622848558e-13 4.596543019869234e-15
3.2898708863219004 4.7378480015016385e-21 4.1374181070619765e-13 4.0909927975571063e-13 4.642530950486888e-15
3.29141343181113 4.6534458132132325e-21 4.065617633227584e-13 4.019076840804423e-13 4.654079242316203e-15
3.292184975758714 4.611957698818291e-21 4.0303148704345164e-13 3.983716259490282e-13 4.659861094423349e-15
3.295272960557952 4.351651777265263e-21 3.806404720559165e-13 3.759581170991357e-13 4.682354956780685e-15
3.3076538914384823 3.445131601586201e-21 3.0247905574130674e-13 2.977063451818949e-13 4.7727105594118215e-15
3.310756385682612 3.2593571641561644e-21 2.864366672618559e-13 2.816411799118624e-13 4.7954873499935296e-15
3.313861789986515 3.0874603158160853e-21 2.715846429947792e-13 2.6676630355167295e-13 4.818339443106283e-15
3.3200813396944477 2.8482861565773553e-21 2.510162145346478e-13 2.461487313831298e-13 4.867483151518002e-15
3.345076488085796 2.4372066566486973e-21 2.1640527434193456e-13 2.1131881118104365e-13 5.086463160890914e-15
3.3482140837626964 2.4561555864611285e-21 2.1829235483956067e-13 2.1317622849493113e-13 5.116126344629505e-15
3.3513546224236106 2.4752737491448985e-21 2.201978397950814e-13 2.1505191559193277e-13 5.145924203148631e-15
3.3576445397418455 2.6008517270398482e-21 2.3180336935800265e-13 2.2659514839474085e-13 5.208220963261784e-15
3.3702598118196083 3.0512352408517363e-21 2.7296596905504556e-13 2.6762707633124084e-13 5.338892723804717e-15
3.382922481734668 3.1639212826478053e-21 2.8411041148124067e-13 2.786444548111292e-13 5.465956670111501e-15
3.389271646505754 3.221992151414136e-21 2.8986801045305723e-13 2.8433763934092274e-13 5.530371112134581e-15
3.395632727569191 3.285355979538782e-21 2.961232979455762e-13 2.905265435324298e-13 5.596754413146422e-15
3.421196662673239 3.58933950779345e-21 3.259582758930354e-13 3.2008666728245653e-13 5.871608610578892e-15
3.4276182099114902 3.540246903655998e-21 3.221034867900389e-13 3.161704815988357e-13 5.933005191203218e-15
3.4340518103208963 3.3051645285593364e-21 3.012793456521085e-13 2.9528824170049236e-13 5.991103951616112e-15
3.4469541582030403 2.970306714710049e-21 2.717729557604922e-13 2.656702811909197e-13 6.102674569572437e-15
3.472904465399547 2.8909945489837445e-21 2.665075657531402e-13 2.6014796713084146e-13 6.359598622298669e-15
3.4990501388274233 2.7627297495310416e-21 2.5660079818929174e-13 2.4997815767288667e-13 6.622640516405025e-15
3.5253949054701885 2.2661814838122904e-21 2.120664138887627e-13 2.051880236266167e-13 6.878390262146012e-15
3.5519380250092896 1.7951477096198407e-21 1.6925246475962403e-13 1.621168576773626e-13 7.135607082261482e-15
3.578680990867387 1.6213672343774357e-21 1.5401882709049797e-13 1.4660127998176865e-13 7.417547108729295e-15
3.605625307711299 1.5646245933658483e-21 1.4974770623229602e-13 1.4203312750330038e-13 7.71457872899565e-15
3.660119384959845 1.5520466206353314e-21 1.507889256468142e-13 1.424498876452268e-13 8.339038001587455e-15
3.715437065384467 1.5558939646969156e-21 1.5344733088035747e-13 1.4444939117743468e-13 8.997939702922767e-15
3.8285932144167436 1.6274777652436087e-21 1.6539551254502656e-13 1.5497937398517405e-13 1.0416138559852452e-14
3.94519561050918 1.7184521550731567e-21 1.7995976582735579e-13 1.6799408556019844e-13 1.1965680267157297e-14
4.06534921144712 1.8186118193500004e-21 1.9624893090725976e-13 1.82603500856e-13 1.3645430051259773e-14
4.189162171576248 1.9246806371532264e-21 2.1402045520145678e-13 1.9856136048337902e-13 1.5459094718077792e-14
4.316745939156006 2.0349832008976018e-21 2.331775584503591e-13 2.1577698921656526e-13 1.7400569233793822e-14
4.448215356677963 2.1483664360011625e-21 2.5366678047694795e-13 2.342231193537116e-13 1.9443661123236337e-14
4.58368876423945 2.2642988032335156e-21 2.75497898958309e-13 2.539066129307644e-13 2.159128602754456e-14
4.723288106065518 2.382583485842548e-21 2.9871841575419735e-13 2.748612154488136e-13 2.3857200305383705e-14
4.867139040275056 2.5027451161581453e-21 3.2334027890609727e-13 2.971577044232305e-13 2.6182574482866817e-14
4.940699165968905 2.5642978837403977e-21 3.3629957459681983e-13 3.0892493933052427e-13 2.7374635266295684e-14
5.015371051989984 2.625498314170626e-21 3.495298299980336e-13 3.2094714380118637e-13 2.858268619684724e-14
5.091171501069577 2.689204676327033e-21 3.6342183571188955e-13 3.335893217716138e-13 2.983251394027575e-14
5.129500256944802 2.720857347338119e-21 3.704676253427455e-13 3.4000537162813827e-13 3.0462253714607254e-14
5.168117569889187 2.7526438336120123e-21 3.776172623173042e-13 3.4651609554169384e-13 3.110116677561035e-14
5.20702561229733 2.786714073220322e-21 3.8516920552718163e-13 3.533712284202321e-13 3.1797977106949595e-14
5.246226572918644 2.8207069948804564e-21 3.928026883470051e-13 3.603028352383309e-13 3.2499853108674187e-14
5.265937586045735 2.837672246022212e-21 3.9664992179408346e-13 3.6379731510308366e-13 3.285260669099979e-14
5.285722656980489 2.8546155541121295e-21 4.0051744104926003e-13 3.6731091594840026e-13 3.320652510085978e-14
5.305582063971359 2.871536096022966e-21 4.0440521674802264e-13 3.7084364302510316e-13 3.3561573722919396e-14
5.3255160863122235 2.888849802720681e-21 4.083721310865541e-13 3.7445163397445563e-13 3.3920497112098474e-14
5.365609099470188 2.926642256607831e-21 4.168291682889077e-13 3.8216607455550274e-13 3.466309373340494e-14
5.406003951863644 2.9645255846629026e-21 4.2540343724463313e-13 3.899925313277688e-13 3.5410905916864276e-14
5.446702915881641 3.002505580970143e-21 4.340971596510643e-13 3.979335010715207e-13 3.6163658579543655e-14
5.487708281020852 3.0413800024159588e-21 4.430279600179544e-13 4.061037051886434e-13 3.692425482931106e-14
5.529022354014368 3.0874192206146013e-21 4.531201572321574e-13 4.1540293521431055e-13 3.771722201784678e-14
5.570647458961463 3.134131337533358e-21 4.634387026371687e-13 4.2492304647573764e-13 3.851565616143106e-14
5.612585937458331 3.18157460640443e-21 4.739958600833984e-13 4.3467658211409407e-13 3.9319277969304173e-14
5.654840148729818 3.231009750153371e-21 4.849846960339932e-13 4.448529560625318e-13 4.013173997146137e-14
5.67608639626678 3.26135880306201e-21 4.913794742265594e-13 4.508226099732151e-13 4.0556864253344424e-14
5.686739436050992 3.2767286060149592e-21 4.94621779007772e-13 4.5385178171998136e-13 4.076999728779072e-14
5.6974124697621304 3.292233065815066e-21 4.978948879950267e-13 4.569113829000595e-13 4.098350509496722e-14
5.718818669136295 3.3236599185479133e-21 5.045362083394076e-13 4.631245809162071e-13 4.1411627423200463e-14
5.740305295436557 3.3571648285838913e-21 5.115370426682971e-13 4.696926528053785e-13 4.1844389862918694e-14
5.7835210386641895 3.438511314964759e-21 5.278763566712979e-13 4.851372864799189e-13 4.273907019137892e-14
5.827062130521658 3.527581010132746e-21 5.456272824877884e-13 5.019791262545369e-13 4.364815623325154e-14
5.8489554468988025 3.5870286741465494e-21 5.569068947237948e-13 5.127676341750935e-13 4.413926054870123e-14
5.870931020387893 3.649245828140088e-21 5.686951585228044e-13 5.240624562504075e-13 4.463270227239682e-14
5.892989160043636 3.714452205461115e-21 5.810317301292446e-13 5.359032808853952e-13 4.5128449243849276e-14
5.915130176081913 3.787012623156129e-21 5.946076501939653e-13 5.489652453919449e-13 4.5642404802020397e-14
5.95966208400165 3.9839349741922665e-21 6.302361493729677e-13 5.83421087459412e-13 4.681506191355572e-14
6.004529249263818 4.257708399410958e-21 6.786163392103471e-13 6.304807818091954e-13 4.813555740115172e-14
6.027089341400364 4.4444979615722975e-21 7.110493988635808e-13 6.621500812049078e-13 4.889931765867317e-14
6.049734195844842 4.661310075537189e-21 7.485377723466643e-13 6.988292481163524e-13 4.970852423031176e-14
6.095279466722835 5.278825312558541e-21 8.540835283572137e-13 8.023832444238518e-13 5.170028393336209e-14
6.141167624020661 6.210079136330415e-21 1.0123193056644899e-12 9.58030585590113e-13 5.428872007437711e-14
6.164241091010745 6.802068857864898e-21 1.1129869527154527e-12 1.0570720082736596e-12 5.5914944441793237e-14
6.187401249150058 7.464784722247873e-21 1.2260127912366603e-12 1.168428043359314e-12 5.758474787734649e-14
6.1990139391386085 7.787105409292936e-21 1.2813509625539355e-12 1.2229165823380915e-12 5.843438021584398e-14
6.204828454712694 7.955894675146939e-21 1.3103527881638952e-12 1.2514892762148478e-12 5.88635119490474e-14
6.210648424152782 8.07879940806061e-21 1.331843523598204e-12 1.2726147618775297e-12 5.922876172067398e-14
6.233982942956859 8.491964760107905e-21 1.405216452593095e-12 1.3447158194206516e-12 6.050063317244348e-14
6.239830258556775 8.542509466706406e-21 1.414906291042901e-12 1.3542303388145968e-12 6.067595222830434e-14
6.245683058788269 8.544119873231014e-21 1.4165004205298785e-12 1.3556488727212523e-12 6.085154780862621e-14
6.257405133728602 8.526278291651422e-21 1.4161955023880058e-12 1.355037287171979e-12 6.115821521602757e-14
6.269149208991335 8.437090649821053e-21 1.404011789958635e-12 1.3427441882473595e-12 6.12676017112756e-14
6.280915325867298 8.223492795513876e-21 1.3710354618634578e-12 1.3099024058094598e-12 6.113305605399815e-14
6.304513850009849 7.70100402678143e-21 1.2887491346180707e-12 1.2281058588519085e-12 6.064327576616239e-14
6.32820103803542 7.062933575767633e-21 1.1864100654667263e-12 1.126491375785572e-12 5.991868968115416e-14
6.3519772230701035 6.481425659035028e-21 1.0928206913031016e-12 1.033551864531696e-12 5.926882677140568e-14
6.375842739491607 5.990193705510455e-21 1.0137897504046433e-12 9.550941634750332e-13 5.869558692960999e-14
6.399797922933955 5.603851232992067e-21 9.519678719714396e-13 8.93567013059359e-13 5.840085891208083e-14
6.42384311029221 5.2812609643973195e-21 9.00537882074138e-13 8.423762658844587e-13 5.816161618967926e-14
6.447978639727206 5.050013662685477e-21 8.643419195049946e-13 8.062023309961935e-13 5.813958850880099e-14
6.472204850670314 4.85714540196881e-21 8.344547520523222e-13 7.762940915993969e-13 5.816066045292532e-14
6.496522083828205 4.734823185583551e-21 8.164961058087713e-13 7.581383480909894e-13 5.835775771778204e-14
