Dust emission spectrum from A.P. Jones, M. Kohler, N. Ysard, M. Bocchio, and L. Verstraete (2017), A&A, 602A, 46J 
inside the DustPedia framework.

lambda    nu*dP/dnu     j_nu    j_nu(carb.) j_nu(sil)
 (um)   (erg s-1 H-1) (Jy cm2 sr-1 H-1)
0.9927057738263894 2.802685638436103e-20 7.385235846645382e-13 7.38523482181693e-13 1.0248284517352547e-19
1.0001793341362166 2.849684773034873e-20 7.565613163967924e-13 7.565611930991282e-13 1.2329766452910092e-19
1.0077091589558085 2.89688761909207e-20 7.748832737668711e-13 7.748831256257821e-13 1.481410889144691e-19
1.0114953028030835 2.9205636102261365e-20 7.841514918552281e-13 7.8415132955579e-13 1.6229943833641036e-19
1.0152956718711033 2.9442883816014505e-20 7.934915624685125e-13 7.934913847173207e-13 1.7775119156910914e-19
1.0229392996569957 2.9918584037387787e-20 8.12382075673879e-13 8.123818626779535e-13 2.1299592553002463e-19
1.0267826658714554 3.0156497853259227e-20 8.219187082288898e-13 8.219184751796856e-13 2.3304920431091747e-19
1.0306404723013447 3.0394861905530365e-20 8.315278519000528e-13 8.315275969951813e-13 2.549048715494828e-19
1.03451277320114 3.06336703746102e-20 8.412098034097672e-13 8.412095246931375e-13 2.7871662967197876e-19
1.0383996230291617 3.087291768762843e-20 8.509648664600194e-13 8.509645618094919e-13 3.0465052774454835e-19
1.0403485208654093 3.099270423806767e-20 8.558699116991746e-13 8.558695932304024e-13 3.184687721875223e-19
1.0423010764483396 3.1112598524579834e-20 8.607933520211755e-13 8.607930191352884e-13 3.328858873565707e-19
1.0462171883269815 3.135270782444624e-20 8.706955786253211e-13 8.706952150090284e-13 3.6361629255612063e-19
1.0471985131304309 3.1412801528808356e-20 8.731826953863525e-13 8.731823236734792e-13 3.717128732642539e-19
1.048180758391296 3.1472921638722137e-20 8.756744465006594e-13 8.756740665188685e-13 3.799817910624217e-19
1.0501480137395462 3.15932407912933e-20 8.806718726641204e-13 8.806714756134726e-13 3.970506478563539e-19
1.0521189612883777 3.171366472508304e-20 8.856878991923264e-13 8.856874843407712e-13 4.1485155525426204e-19
1.0531058218030118 3.1773836813480074e-20 8.88200692474678e-13 8.882002684382616e-13 4.2403641616117297e-19
1.0540936079674168 3.183377608193354e-20 8.907109060879251e-13 8.907104726702677e-13 4.3341765726511293e-19
1.058054026499678 3.207378145935383e-20 9.007980617833594e-13 9.007975888175197e-13 4.729658401004227e-19
1.0590464539527713 3.213384457563842e-20 9.033314531285452e-13 9.033309697493768e-13 4.833791684761766e-19
1.06003981227728 3.219393228307144e-20 9.05869496410397e-13 9.058690023989234e-13 4.940114734753035e-19
1.0620293250338977 3.231418124528481e-20 9.109595610079677e-13 9.109590450573848e-13 5.159505828258423e-19
1.0660195594769086 3.255497184121983e-20 9.211957599605797e-13 9.211951973061056e-13 5.626544742108798e-19
1.070024785945596 3.279614994639421e-20 9.31507024315717e-13 9.31506410933791e-13 6.133819264223591e-19
1.0740450607676866 3.30377125636522e-20 9.418937295486307e-13 9.41893061087888e-13 6.684607425872256e-19
1.07808044048254 3.327965700527225e-20 9.52356261264666e-13 9.52355533020878e-13 7.282437877154094e-19
1.0861967418109137 3.3764315224763214e-20 9.73499818732693e-13 9.734989552624672e-13 8.634702255241107e-19
1.0902777775684922 3.4006190971797016e-20 9.841574460947362e-13 9.84156506333231e-13 9.397615054027956e-19
1.0943741465085532 3.4248426744593415e-20 9.948918748657725e-13 9.948908524092432e-13 1.022456529497125e-18
1.1026131145906286 3.4733974771457515e-20 1.0165928977933298e-12 1.0165916886686618e-12 1.2091246682851387e-18
1.1109141095355224 3.5220955603449927e-20 1.0386065345168264e-12 1.0386051065165466e-12 1.4280002800140517e-18
1.1192775983109025 3.570899405912048e-20 1.0609254334041399e-12 1.0609237491064598e-12 1.6842976799764974e-18
1.1277040513999907 3.6196364477827047e-20 1.0835015237428836e-12 1.0834995397266912e-12 1.9840161923551015e-18
1.1361939428280308 3.6685135739365657e-20 1.1063996585748885e-12 1.1063973245259087e-12 2.3340489798309652e-18
1.1447477501889525 3.7175328478845574e-20 1.1296243524351336e-12 1.1296216101299061e-12 2.742305227460599e-18
1.1533659546722406 3.7667138045414015e-20 1.1531855303151376e-12 1.153182312462953e-12 3.2178521845816597e-18
1.1707974979042381 3.8657125078835687e-20 1.2013810330945082e-12 1.201376619254974e-12 4.4138395345321746e-18
1.1884924949847024 3.9653990035162245e-20 1.250986922712046e-12 1.2509808988113793e-12 6.0239006664980016e-18
1.2064549276569216 4.066448471039082e-20 1.3022543237540395e-12 1.3022461432194105e-12 8.180534628502554e-18
1.2246888378427687 4.1682440926593586e-20 1.3550282075195933e-12 1.3550171528732817e-12 1.1054646311162998e-17
1.2431983285522175 4.2707235662622466e-20 1.4093255067526086e-12 1.4093106408589165e-12 1.4865893692026336e-17
1.2619875648066055 4.374060130951514e-20 1.4652416584834542e-12 1.4652217633213961e-12 1.9895162058515994e-17
1.3004222497298317 4.582792979233568e-20 1.5819183493195988e-12 1.5818832189294907e-12 3.513039010793515e-17
1.3400274889804893 4.7952881685863035e-20 1.7056811554243628e-12 1.7056202635350993e-12 6.089188926363669e-17
1.3808389325824078 5.0125835554146694e-20 1.8372746441709687e-12 1.837170991068688e-12 1.0365310228051825e-16
1.4228933163050095 5.236763453919975e-20 1.9779018176643775e-12 1.9777284501383668e-12 1.7336752601021113e-16
1.466228494730424 5.47193322907948e-20 2.1296678645300334e-12 2.1293828061426577e-12 2.850583873760082e-16
1.5108834753276823 5.71817733016072e-20 2.2932849649779788e-12 2.2928239951705813e-12 4.609698073965596e-16
1.5568984535646726 5.975939201950831e-20 2.469652738220091e-12 2.468918825397409e-12 7.339128226815695e-16
1.6043148490894465 6.247385521595244e-20 2.660463732844462e-12 2.6593111642535088e-12 1.152568590952329e-15
1.6531753430134553 6.534936896480036e-20 2.8676738131681994e-12 2.8658905343371618e-12 1.7832788310368964e-15
1.7035239163302658 6.841459936032716e-20 3.093616363534211e-12 3.0908974048923583e-12 2.718958641852801e-15
1.755405889504358 7.173316354798519e-20 3.3424657710134216e-12 3.338378502185948e-12 4.087268827472222e-15
1.8088679632656115 7.53216129963596e-20 3.6165619760893367e-12 3.610502101775475e-12 6.0598743138609744e-15
1.8639582606462262 7.919811081105701e-20 3.9185052967293304e-12 3.9096405731398495e-12 8.864723589480271e-15
1.9207263702978936 8.339495467802464e-20 4.25181841960095e-12 4.2390187227040216e-12 1.2799696896928744e-14
1.979223391128241 8.79530545629596e-20 4.620778755831473e-12 4.602530015460222e-12 1.824874037125128e-14
2.039501978296691 9.291516820872548e-20 5.030141260312871e-12 5.004442195741573e-12 2.5699064571298326e-14
2.1016163906111602 9.835460574122672e-20 5.486780440322495e-12 5.451017779948278e-12 3.576266037421627e-14
2.1656225393682647 1.0432889032935852e-19 5.997313949291897e-12 5.9481193854560035e-12 4.9194563835892535e-14
2.231578038680979 1.1086996605041157e-19 6.567429605382976e-12 6.50051643281402e-12 6.691317256895585e-14
2.299542257339062 1.18027920829056e-19 7.2043629565749104e-12 7.114342080036871e-12 9.002087653803988e-14
2.369576372248914 1.2586563012344528e-19 7.916756697334425e-12 7.796931237311074e-12 1.1982546002334992e-13
2.4417434235010123 1.3445121631581572e-19 8.714333874652998e-12 8.55647955067481e-12 1.5785432397818862e-13
2.5161083711144245 1.4387478699115643e-19 9.609116734310481e-12 9.403242563777976e-12 2.0587417053250227e-13
2.5927381535095444 1.54251408254853e-19 1.0615910032297373e-11 1.0350010591183534e-11 2.658994411138363e-13
2.6717017477616296 1.6568426298210163e-19 1.1750021677796255e-11 1.1409839986746304e-11 3.4018169104995045e-13
2.753070231689431 1.7829655882633617e-19 1.3029558041319144e-11 1.2598352824604674e-11 4.312052167144707e-13
2.836916847834745 1.9234201071338907e-19 1.4484055868113625e-11 1.3942363812250813e-11 5.416920558628113e-13
2.9233170693905177 2.0830631844493085e-19 1.6163961184232045e-11 1.5489526180685666e-11 6.744350035463786e-13
2.967498994190263 2.17353475706184e-19 1.7120900482230795e-11 1.637236923799286e-11 7.485312442379323e-13
3.0123486681368425 2.2696987320051202e-19 1.8148589874813226e-11 1.7318886933851942e-11 8.297029409612807e-13
3.0578761833420214 2.3992117259766704e-19 1.947412282341715e-11 1.85553401554694e-11 9.187826679477537e-13
3.1040917844459814 2.5441751140964825e-19 2.096288190161848e-11 1.994749209083277e-11 1.0153898107857078e-12
3.127460860933648 2.65605356989127e-19 2.2049469574263443e-11 2.0982484579260725e-11 1.0669849950027148e-12
3.1510058709225794 2.790910994062993e-19 2.3343427946387612e-11 2.2222757198711777e-11 1.1206707476758367e-12
3.162844764501044 2.9014029579763117e-19 2.435877025933683e-11 2.3210353377561385e-11 1.1484168817754452e-12
3.1747281389236908 3.0243862887670375e-19 2.5486678164267344e-11 2.430997649519154e-11 1.1767016690758007e-12
3.1986289994194426 3.3466286905677356e-19 2.841455332217471e-11 2.7179493409057975e-11 1.2350599131167362e-12
3.2227097969389145 4.0528826298193867e-19 3.46700652701469e-11 3.337326298609598e-11 1.2968022840509254e-12
3.2348180950136065 4.701605168997782e-19 4.0370623050026665e-11 3.9040895384499044e-11 1.3297276655276177e-12
3.240889293275058 5.182368859256265e-19 4.458224663535087e-11 4.3235151477433996e-11 1.3470951579168715e-12
3.2469718861334385 5.738269975285614e-19 4.945713317727675e-11 4.80920678464536e-11 1.3650653308231533e-12
3.2714166318528037 8.638406715364934e-19 7.501341514484076e-11 7.357416654985871e-11 1.4392485949820592e-12
3.2744851364798273 8.821431793955457e-19 7.667460318323694e-11 7.522663460372532e-11 1.4479685795116017e-12
3.2775565192852394 9.009203058117485e-19 7.838013337807471e-11 7.692340325907161e-11 1.4567301190030782e-12
3.283707930232385 8.840019439735045e-19 7.705257819825558e-11 7.558022497754205e-11 1.4723532207135076e-12
3.2898708863219004 8.285740228502524e-19 7.235684142030897e-11 7.087031197220002e-11 1.486529448108925e-12
3.29141343181113 8.154822751242806e-19 7.124696945897158e-11 6.975688133475284e-11 1.4900881242187353e-12
3.292184975758714 8.090464172692847e-19 7.070125138458339e-11 6.92093817277469e-11 1.4918696568364898e-12
3.295272960557952 7.687798304472844e-19 6.724543519252369e-11 6.574664358659893e-11 1.4987916059247622e-12
3.3076538914384823 6.283217752184366e-19 5.5166013740163035e-11 5.363944084634938e-11 1.5265728938136457e-12
3.310756385682612 5.994741091413005e-19 5.268258656048812e-11 5.114901538218332e-11 1.5335711783048151e-12
3.313861789986515 5.727573377188812e-19 5.0381893587482953e-11 4.884130292440621e-11 1.540590663076759e-12
3.3200813396944477 5.357291429608644e-19 4.721319912726795e-11 4.565749072399644e-11 1.5557084032715087e-12
3.345076488085796 4.732744110158125e-19 4.202314090825874e-11 4.040000859097905e-11 1.6231323172796995e-12
3.3482140837626964 4.764330842142467e-19 4.234328657756167e-11 4.071101828925462e-11 1.632268288307058e-12
3.3513546224236106 4.796169060691335e-19 4.26662330508323e-11 4.1024789858806334e-11 1.6414431920259677e-12
3.3576445397418455 4.995988714718612e-19 4.452722180608137e-11 4.2866588519273045e-11 1.660633286808331e-12
3.3702598118196083 5.703481026427047e-19 5.102380191869887e-11 4.932292007135131e-11 1.7008818473475757e-12
3.382922481734668 5.887197982267185e-19 5.286522930853993e-11 5.112529653745013e-11 1.739932771089778e-12
3.389271646505754 5.981624911718727e-19 5.3813964496324084e-11 5.205425174945444e-11 1.7597127468696617e-12
3.395632727569191 6.085058511777537e-19 5.4847255698371235e-11 5.306715839941866e-11 1.7800972989525701e-12
3.421196662673239 6.580235956370035e-19 5.975702110793929e-11 5.789261619277733e-11 1.8644049151619516e-12
3.4276182099114902 6.507173941086502e-19 5.920444174130139e-11 5.7321298809641826e-11 1.8831429316595532e-12
3.4340518103208963 6.143882171283962e-19 5.600401384964994e-11 5.410318529240086e-11 1.9008285572490753e-12
3.4469541582030403 5.626680802430179e-19 5.148221445361882e-11 4.9547516041281334e-11 1.934698412337499e-12
3.472904465399547 5.514443757783868e-19 5.083513501906093e-11 4.8822299032064275e-11 2.012835986996627e-12
3.4990501388274233 5.327294786483288e-19 4.9479616840311754e-11 4.7386989119589673e-11 2.0926277207220893e-12
3.5253949054701885 4.572143684499952e-19 4.2785545724473514e-11 4.0615671052888726e-11 2.1698746715847827e-12
3.5519380250092896 3.8546630883403065e-19 3.634303879415598e-11 3.409574106386262e-11 2.2472977302933543e-12
3.578680990867387 3.6006133590155214e-19 3.4203370748076506e-11 3.1871241482104844e-11 2.3321292659716585e-12
3.605625307711299 3.5291022934713676e-19 3.377647109391318e-11 3.135512819563228e-11 2.421342898280898e-12
3.660119384959845 3.5428971506385948e-19 3.4420979880312206e-11 3.18128033900652e-11 2.6081764902470033e-12
3.715437065384467 3.5816368473756247e-19 3.532326925116566e-11 3.2519001617028347e-11 2.804267634137312e-12
3.8285932144167436 3.757681616300824e-19 3.818815164065045e-11 3.496547130500108e-11 3.222680335649384e-12
3.94519561050918 3.961892457736939e-19 4.1489734632568465e-11 3.7815330646279835e-11 3.674403986288633e-12
4.06534921144712 4.177555668506997e-19 4.5080584269109424e-11 4.092274181898039e-11 4.157842450129041e-12
4.189162171576248 4.398741313689724e-19 4.891308199898418e-11 4.424025007545856e-11 4.6728319235256135e-12
4.316745939156006 4.621833529051015e-19 5.295905427586631e-11 4.77428363193123e-11 5.216217956554018e-12
4.448215356677963 4.843820902483238e-19 5.7193057615763386e-11 5.1414014250846505e-11 5.779043364916872e-12
4.58368876423945 5.063037996689056e-19 6.160213168164936e-11 5.524123863236099e-11 6.3608930492883546e-12
4.723288106065518 5.278445060862656e-19 6.617895052138627e-11 5.921455545528788e-11 6.964395066098399e-12
4.867139040275056 5.487818891368151e-19 7.089946473035103e-11 6.332821737995575e-11 7.571247350395291e-12
4.940699165968905 5.591233012110247e-19 7.332725637559865e-11 6.544966158252928e-11 7.877594793069374e-12
5.015371051989984 5.691607025266609e-19 7.577176588610696e-11 6.758702851225482e-11 8.184737373852146e-12
5.091171501069577 5.793394959758837e-19 7.829252454503475e-11 6.979279104942399e-11 8.49973349561075e-12
5.129500256944802 5.842957948358664e-19 7.955678963557798e-11 7.089971068442418e-11 8.65707895115383e-12
5.168117569889187 5.892086383672107e-19 8.082969189006003e-11 7.201363405446106e-11 8.816057835598975e-12
5.20702561229733 5.944466109759468e-19 8.216218918123247e-11 7.31712570396441e-11 8.990932141588366e-12
5.246226572918644 5.995992109622823e-19 8.349827983700562e-11 7.433215899810217e-11 9.166120838903468e-12
5.265937586045735 6.02142860762158e-19 8.416754928796876e-11 7.491374582505423e-11 9.253803462914555e-12
5.285722656980489 6.046644175292654e-19 8.483756940702562e-11 7.549604039336787e-11 9.341529013657735e-12
5.305582063971359 6.071636447204209e-19 8.550829142797492e-11 7.60790059518932e-11 9.429285476081705e-12
5.3255160863122235 6.097044289913274e-19 8.618873046483999e-11 7.667086799746254e-11 9.51786246737746e-12
5.365609099470188 6.152119762761961e-19 8.762201660062506e-11 7.792078146243211e-11 9.701235138192945e-12
5.406003951863644 6.20649440385811e-19 8.906194186011877e-11 7.917708060349925e-11 9.884861256619484e-12
5.446702915881641 6.260165174314522e-19 9.050840532454175e-11 8.043976100993607e-11 1.006864431460567e-11
5.487708281020852 6.314308223546508e-19 9.197847980128235e-11 8.172509438465528e-11 1.025338541662709e-11
5.529022354014368 6.378163487495062e-19 9.360809905597632e-11 8.31621346034722e-11 1.0445964452504109e-11
5.570647458961463 6.441979797079384e-19 9.525646624378404e-11 8.461771601819242e-11 1.0638750225591642e-11
5.612585937458331 6.505819418167484e-19 9.692469459789176e-11 8.609304989660655e-11 1.0831644701285233e-11
5.654840148729818 6.571492807984559e-19 9.864016788617484e-11 8.76145257276514e-11 1.102564215852347e-11
5.67608639626678 6.612075291644229e-19 9.962222118290464e-11 8.849485621298241e-11 1.1127364969922216e-11
5.686739436050992 6.632522586557281e-19 1.0011784665504931e-10 8.89395963656658e-11 1.1178250289383523e-11
5.6974124697621304 6.653079232713104e-19 1.0061663537097236e-10 8.938748589813603e-11 1.1229149472836358e-11
5.718818669136295 6.694537201300474e-19 1.0162400783792944e-10 9.029302466221701e-11 1.1330983175712421e-11
5.740305295436557 6.738630322003196e-19 1.0267768198937248e-10 9.12439718542547e-11 1.1433710135117779e-11
5.7835210386641895 6.846109008030559e-19 1.0510068891748763e-10 9.34547979578492e-11 1.1645890959638413e-11
5.827062130521658 6.962764091043622e-19 1.0769629495926797e-10 9.583583973197003e-11 1.1860455227297943e-11
5.8489554468988025 7.041551648279988e-19 1.0932415151138579e-10 9.734714680477005e-11 1.1977004706615734e-11
5.870931020387893 7.123560309289883e-19 1.1101291746637714e-10 9.891914785686837e-11 1.2093769609508792e-11
5.892989160043636 7.209061668671661e-19 1.1276746454829473e-10 1.0055672739875786e-10 1.2210737149536846e-11
5.915130176081913 7.304237337302839e-19 1.1468552740056737e-10 1.023533176299439e-10 1.2332209770623451e-11
5.95966208400165 7.56494359395358e-19 1.1967316112742637e-10 1.0706028748517375e-10 1.2612873642252596e-11
6.004529249263818 7.928059404982375e-19 1.2636165152117098e-10 1.1343074870162289e-10 1.2930902819548096e-11
6.027089341400364 8.176641422810437e-19 1.308133341196458e-10 1.1769674695414372e-10 1.3116587165502072e-11
6.049734195844842 8.464448934469212e-19 1.35926588166729e-10 1.226128889902476e-10 1.3313699176481386e-11
6.095279466722835 9.28555450295001e-19 1.502349231706048e-10 1.3643021107759628e-10 1.3804712093008478e-11
6.141167624020661 1.0520729379652623e-18 1.7150083319207605e-10 1.5705079503197e-10 1.445003816010606e-11
6.164241091010745 1.1305049958645573e-18 1.84978619985896e-10 1.7011969587740745e-10 1.4858924108488576e-11
6.187401249150058 1.2177621795185436e-18 2.0000469729881026e-10 1.847266662836151e-10 1.5278031015195077e-11
6.1990139391386085 1.2600354286804083e-18 2.0733604138258374e-10 1.918448935224716e-10 1.5491147860112136e-11
6.204828454712694 1.2821282257443941e-18 2.111692479584976e-10 1.9557053776092422e-10 1.5598710197573406e-11
6.210648424152782 1.29807271315696e-18 2.1399587350228162e-10 1.983063690228803e-10 1.5689504479401288e-11
6.233982942956859 1.351094448140033e-18 2.235737195298298e-10 2.0757125390441765e-10 1.6002465625412185e-11
6.239830258556775 1.3572154913300461e-18 2.247972617962055e-10 2.0875408204647682e-10 1.6043179749728674e-11
6.245683058788269 1.3568637309905538e-18 2.2494979869975102e-10 2.0886586790784874e-10 1.6083930791902275e-11
6.257405133728602 1.3533416589159195e-18 2.2478698266601275e-10 2.086333075061932e-10 1.615367515981951e-11
6.269149208991335 1.3402913242941367e-18 2.2303716996665818e-10 2.068655409166906e-10 1.6171629049967652e-11
6.280915325867298 1.3107258001126234e-18 2.1852655525084167e-10 2.0240090993198827e-10 1.612564531885342e-11
6.304513850009849 1.2390894660119134e-18 2.0735938735830283e-10 1.9138339254561173e-10 1.597599481269109e-11
6.32820103803542 1.152619833658627e-18 1.9361356830551175e-10 1.7784857808332485e-10 1.576499022218682e-11
6.3519772230701035 1.074034306073783e-18 1.8109085478912147e-10 1.655171649532268e-10 1.5573689835894687e-11
6.375842739491607 1.0074706663480168e-18 1.7050591109222243e-10 1.5510322162568767e-10 1.5402689466534678e-11
6.399797922933955 9.553049829551936e-19 1.6228475987254234e-10 1.4698055832306257e-10 1.5304201549479773e-11
6.42384311029221 9.11566183491193e-19 1.5543634101505576e-10 1.4021608373878778e-10 1.522025727626798e-11
6.447978639727206 8.8010672086529e-19 1.5063585631517315e-10 1.3544322311616855e-10 1.5192633199004665e-11
6.472204850670314 8.537131838738606e-19 1.4666742792680251e-10 1.314912964478676e-10 1.5176131478934927e-11
6.496522083828205 8.3671811981591135e-19 1.4428777162565353e-10 1.2908270955514041e-10 1.5205062070513122e-11
