Dust emission spectrum from A.P. Jones, M. Kohler, N. Ysard, M. Bocchio, and L. Verstraete (2017), A&A, 602A, 46J 
inside the DustPedia framework.

lambda    nu*dP/dnu     j_nu    j_nu(carb.) j_nu(sil)
 (um)   (erg s-1 H-1) (Jy cm2 sr-1 H-1)
0.9927057738263894 4.186568503122313e-24 1.1031845798071053e-16 1.1031845711818627e-16 8.625242625418484e-25
1.0001793341362166 4.2560413429305835e-24 1.129934184831794e-16 1.1299341744445696e-16 1.0387224375975497e-24
1.0077091589558085 4.325479223437736e-24 1.1570146798854781e-16 1.1570146673925984e-16 1.2492879927095007e-24
1.0114953028030835 4.360177380131341e-24 1.1706780107140615e-16 1.17067799702002e-16 1.36940414437748e-24
1.0152956718711033 4.394857618685749e-24 1.1844228508556643e-16 1.184422835849875e-16 1.5005789466355728e-24
1.0229392996569957 4.464118293174248e-24 1.212146163244451e-16 1.2121461452436096e-16 1.8000841593642925e-24
1.0267826658714554 4.498615713996189e-24 1.2261027240158517e-16 1.2261027043092359e-16 1.9706615995392443e-24
1.0306404723013447 4.533081435295155e-24 1.2401383760500477e-16 1.240138354483075e-16 2.1566972827179848e-24
1.03451277320114 4.567512503632269e-24 1.2542526730445845e-16 1.2542526494493562e-16 2.3595228122375784e-24
1.0383996230291617 4.601905985717084e-24 1.2684451635637174e-16 1.2684451377579366e-16 2.580578071104526e-24
1.0403485208654093 4.619087720935825e-24 1.275570588962123e-16 1.275570561977888e-16 2.6984234365927474e-24
1.0423010764483396 4.636258969076643e-24 1.2827153912190367e-16 1.2827153630048415e-16 2.8214194633067448e-24
1.0462171883269815 4.670568562713412e-24 1.2970628948515116e-16 1.2970628640142246e-16 3.0837287358099364e-24
1.0471985131304309 4.679138844786879e-24 1.3006617906495854e-16 1.3006617591208836e-16 3.1528701819222994e-24
1.048180758391296 4.687706190980612e-24 1.3042654797876371e-16 1.3042654475526772e-16 3.2234959563897265e-24
1.0501480137395462 4.704831897752057e-24 1.3114872087149303e-16 1.311487175021706e-16 3.369322418538294e-24
1.0521189612883777 4.7219453279792044e-24 1.3187280227286855e-16 1.3187279875141066e-16 3.521457904813135e-24
1.0531058218030118 4.730484497522342e-24 1.3223519813186467e-16 1.3223519453188733e-16 3.599977376345742e-24
1.0540936079674168 4.7389784260326474e-24 1.3259689195898518e-16 1.3259688827879558e-16 3.680189616982398e-24
1.058054026499678 4.772919508290761e-24 1.3404832378635654e-16 1.3404831976786347e-16 4.018493046120124e-24
1.0590464539527713 4.78139590370444e-24 1.3441234208715576e-16 1.3441233797954467e-16 4.1076110810192085e-24
1.06003981227728 4.789868662517455e-24 1.34776823006123e-16 1.3477681880750318e-16 4.1986198164913724e-24
1.0620293250338977 4.806803098050397e-24 1.355071696483311e-16 1.355071652618684e-16 4.386462724135892e-24
1.0660195594769086 4.84062644030771e-24 1.3697338072086792e-16 1.369733759343028e-16 4.786565088750037e-24
1.070024785945596 4.874386805812317e-24 1.384469078311808e-16 1.384469026097212e-16 5.221459588720169e-24
1.0740450607676866 4.9080814916381385e-24 1.3992770147693932e-16 1.3992769578292656e-16 5.694012772324346e-24
1.07808044048254 4.941707821742881e-24 1.4141571184558258e-16 1.414157056382693e-16 6.207313323560931e-24
1.0861967418109137 5.0086868170978236e-24 1.4441150889852687e-16 1.444115015288067e-16 7.36972019863003e-24
1.0902777775684922 5.041902302607211e-24 1.45915362814622e-16 1.459153547883552e-16 8.026266760295323e-24
1.0943741465085532 5.075036695031602e-24 1.4742612296284986e-16 1.4742611422437536e-16 8.738474511835363e-24
1.1026131145906286 5.141052158840439e-24 1.5046815535079478e-16 1.5046814500273609e-16 1.0348058700488724e-23
1.1109141095355224 5.206713432369973e-24 1.5353719118530383e-16 1.5353717894696133e-16 1.2238342510466526e-23
1.1192775983109025 5.2719420005308954e-24 1.5663105330087506e-16 1.5663103884551965e-16 1.4455355396087587e-23
1.1277040513999907 5.3364469317128654e-24 1.5974113603110222e-16 1.5974111897893646e-16 1.7052165788066916e-23
1.1361939428280308 5.4005328696836205e-24 1.628765330348411e-16 1.6287651294497194e-16 2.0089869117134544e-23
1.1447477501889525 5.464182273399745e-24 1.6603682105160514e-16 1.6603679741289234e-16 2.363871283323431e-23
1.1533659546722406 5.52741065283148e-24 1.6922257213356466e-16 1.6922254435416685e-16 2.7779397801960335e-23
1.1707974979042381 5.652806006898468e-24 1.756771592973066e-16 1.7567712107708374e-16 3.822022282129985e-23
1.1884924949847024 5.776300322631607e-24 1.822282236632924e-16 1.822281713390957e-16 5.232419664344531e-23
1.2064549276569216 5.898833796578259e-24 1.8890640989083043e-16 1.889063386086099e-16 7.128222054803353e-23
1.2246888378427687 6.019174385778166e-24 1.9567354735948714e-16 1.9567345072233306e-16 9.663715410070424e-23
1.2431983285522175 6.137077685589201e-24 2.0252165669418135e-16 2.025215263132631e-16 1.303809182797288e-22
1.2619875648066055 6.252544028030965e-24 2.0945043522709777e-16 2.0945026015504216e-16 1.75072055564121e-22
1.3004222497298317 6.474506575324584e-24 2.234912377824508e-16 2.2349092653217613e-16 3.1125027466936017e-22
1.3400274889804893 6.684549025425854e-24 2.377690120871401e-16 2.3776846880576733e-16 5.432813727568677e-22
1.3808389325824078 6.882291515042309e-24 2.52258332546323e-16 2.5225740108845165e-16 9.314578714328787e-22
1.4228933163050095 7.068930607058612e-24 2.669903045969859e-16 2.669887351804654e-16 1.5694165204697282e-21
1.466228494730424 7.248699532805249e-24 2.8211825342843516e-16 2.8211565347276034e-16 2.599955674859411e-21
1.5108834753276823 7.41916760288863e-24 2.9754700727124865e-16 2.9754277047927204e-16 4.236791976456913e-21
1.5568984535646726 7.578472099025969e-24 3.1319251649638912e-16 3.131857181262505e-16 6.79837013869601e-21
1.6043148490894465 7.727350739912272e-24 3.290710381717556e-16 3.2906027678115757e-16 1.0761390598018143e-20
1.6531753430134553 7.866700377637903e-24 3.4520808733660146e-16 3.4519130215612035e-16 1.678518048105516e-20
1.7035239163302658 7.998165291027771e-24 3.6166630008686724e-16 3.6164049641831073e-16 2.580366855644322e-20
1.755405889504358 8.128476626167617e-24 3.7875305576441473e-16 3.787139399708076e-16 3.9115793607035994e-20
1.8088679632656115 8.256875504444868e-24 3.96453299428439e-16 3.96394808006089e-16 5.849142234995225e-20
1.8639582606462262 8.383063596418263e-24 4.147709935121035e-16 4.1468468090559596e-16 8.631260650759787e-20
1.9207263702978936 8.508565013961623e-24 4.338017040767958e-16 4.336759672948298e-16 1.2573678196582737e-19
1.979223391128241 8.635939837725664e-24 4.537053037792602e-16 4.535244097002705e-16 1.8089407898952676e-19
2.039501978296691 8.768089493273986e-24 4.746773813631376e-16 4.744202733562077e-16 2.5710800692993227e-19
2.1016163906111602 8.9117840915667e-24 4.971501057168031e-16 4.967889322343337e-16 3.611734824693325e-19
2.1656225393682647 9.071387171739773e-24 5.214658821037324e-16 5.20964261760871e-16 5.016203428616807e-19
2.231578038680979 9.248039131515851e-24 5.478115322633133e-16 5.471225164288657e-16 6.890158344474767e-19
2.299542257339062 9.444805175267099e-24 5.765060000956175e-16 5.755697075742118e-16 9.362925214055465e-19
2.369576372248914 9.667140891122557e-24 6.080484586523684e-16 6.067893493857596e-16 1.2591092666086943e-18
2.4417434235010123 9.921343056218995e-24 6.430428689747177e-16 6.413667054319502e-16 1.6761635427675059e-18
2.5161083711144245 1.0217465774735588e-23 6.824046339981113e-16 6.801950446209719e-16 2.2095893771393825e-18
2.5927381535095444 1.0571110753939306e-23 7.275263284459525e-16 7.246410590563195e-16 2.88526938963289e-18
2.6717017477616296 1.1000084616623591e-23 7.801056683149378e-16 7.763727087184844e-16 3.7329595964535875e-18
2.753070231689431 1.1530316384914109e-23 8.426125975787497e-16 8.3782608197145e-16 4.786515607299675e-18
2.836916847834745 1.2219377567773918e-23 9.201637578227296e-16 9.140795210466456e-16 6.084236776084047e-18
2.9233170693905177 1.3191810756934841e-23 1.0236459393870994e-15 1.0159783653981585e-15 7.667573988940726e-18
2.967498994190263 1.3905042850106241e-23 1.0952981269995421e-15 1.0867322659111547e-15 8.56586108838743e-18
3.0123486681368425 1.4713984040394973e-23 1.1765352731979816e-15 1.166978635611703e-15 9.556637586278609e-18
3.0578761833420214 1.629866311900825e-23 1.3229435485017813e-15 1.3122927381421312e-15 1.0650810359649706e-17
3.1040917844459814 1.828389096173662e-23 1.5065120510349395e-15 1.4946644459782918e-15 1.1847605056647999e-17
3.127460860933648 2.027507087560779e-23 1.6831533951555414e-15 1.6706625760557508e-15 1.24908190997907e-17
3.1510058709225794 2.289012254947354e-23 1.9145502223262864e-15 1.9013871649374043e-15 1.316305738888207e-17
3.162844764501044 2.5285711294728472e-23 2.1228655281368124e-15 2.109353899961262e-15 1.3511628175550511e-17
3.1747281389236908 2.8055584030653676e-23 2.3642602916022785e-15 2.3503925236411467e-15 1.3867767961130744e-17
3.1986289994194426 3.572347269844634e-23 3.0331017083076997e-15 3.0184966826881286e-15 1.4605025619571457e-17
3.2227097969389145 5.365831267035966e-23 4.59015809853399e-15 4.574769977903222e-15 1.5388120630768362e-17
3.2348180950136065 7.060931307258025e-23 6.062912259563669e-15 6.047105749926219e-15 1.5806509637449177e-17
3.240889293275058 8.327245618654409e-23 7.16366063563593e-15 7.147633424336293e-15 1.602721129963595e-17
3.2469718861334385 9.792396792232795e-23 8.439893458552194e-15 8.423637873020668e-15 1.6255585531522298e-17
3.2714166318528037 1.7588013628003386e-22 1.527292024238522e-14 1.525571936004411e-14 1.7200882341105904e-17
3.2744851364798273 1.8076211809203007e-22 1.5711580612984792e-14 1.569426790041887e-14 1.7312712565924517e-17
3.2775565192852394 1.857828132933483e-22 1.6163118525967958e-14 1.614569338357715e-14 1.742514239080309e-17
3.283707930232385 1.8100055036434766e-22 1.577661582754868e-14 1.5758988760120408e-14 1.7627067428265624e-17
3.2898708863219004 1.6576113074705418e-22 1.4475413807757473e-14 1.4457602178981822e-14 1.7811628775649692e-17
3.29141343181113 1.621662910394085e-22 1.4168127422755582e-14 1.4150269428191545e-14 1.785799456403922e-17
3.292184975758714 1.6039976454126164e-22 1.4017074710170974e-14 1.3999193498831284e-14 1.7881211339685856e-17
3.295272960557952 1.4926073243978538e-22 1.305588741087095e-14 1.3037915740357255e-14 1.7971670513698256e-17
3.3076538914384823 1.1063022146114526e-22 9.713221088161548e-15 9.694885673010942e-15 1.8335415150605638e-17
3.310756385682612 1.0275688644536754e-22 9.030412627158719e-15 9.011985440463577e-15 1.842718669514198e-17
3.313861789986515 9.548823732472363e-23 8.399505156775141e-15 8.380985863248053e-15 1.851929352708766e-17
3.3200813396944477 8.530814934881303e-23 7.518110028743476e-15 7.499392987688642e-15 1.8717041054836162e-17
3.345076488085796 6.725917087074287e-23 5.972098953770492e-15 5.9525015734212914e-15 1.9597380349200962e-17
3.3482140837626964 6.796128875400848e-23 6.040101792337595e-15 6.020385188629894e-15 1.9716603707701375e-17
3.3513546224236106 6.867090897216099e-23 6.108894346598331e-15 6.089057936392217e-15 1.9836410206112627e-17
3.3576445397418455 7.375678725621564e-23 6.573643403528873e-15 6.553556644231586e-15 2.0086759297287982e-17
3.3702598118196083 9.242373963574175e-23 8.268302396218739e-15 8.247690416547413e-15 2.061197967132703e-17
3.382922481734668 9.675181381867681e-23 8.688015655236684e-15 8.666891581534128e-15 2.1124073702556372e-17
3.389271646505754 9.899208642129547e-23 8.905868727502614e-15 8.884484773624839e-15 2.1383953877775975e-17
3.395632727569191 1.014125726434428e-22 9.14075237245295e-15 9.119100581564019e-15 2.1651790888930554e-17
3.421196662673239 1.130381047885685e-22 1.0265316409076335e-14 1.0242554086970388e-14 2.276232210594517e-17
3.4276182099114902 1.1079002830377652e-22 1.0080046784692018e-14 1.0057034893612927e-14 2.301189107909434e-17
3.4340518103208963 1.0077956855500478e-22 9.186472324446816e-15 9.16322354225179e-15 2.3248782195024722e-17
3.4469541582030403 8.652001008916466e-23 7.916286475706677e-15 7.892581289386698e-15 2.3705186319979153e-17
3.472904465399547 8.263185151446374e-23 7.617452481373903e-15 7.592698329986915e-15 2.4754151386990716e-17
3.4990501388274233 7.66318862291824e-23 7.11752685057126e-15 7.091695248569047e-15 2.583160200221237e-17
3.5253949054701885 5.497438488584348e-23 5.144433815984302e-15 5.1175491086700506e-15 2.6884707314250508e-17
3.5519380250092896 3.457302843819352e-23 3.2596594954339542e-15 3.2317111137010155e-15 2.7948381732939135e-17
3.578680990867387 2.657190307596648e-23 2.524149531672385e-15 2.4950343855097255e-15 2.911514616265995e-17
3.605625307711299 2.3430455325539777e-23 2.2424912377415595e-15 2.2121439802318665e-15 3.034725750969345e-17
3.660119384959845 2.134252080972947e-23 2.0735303570819948e-15 2.040580004748182e-15 3.2950352333812574e-17
3.715437065384467 1.995388326294266e-23 1.9679169640543175e-15 1.9322010777498827e-15 3.5715886304435124e-17
3.8285932144167436 1.9753426659287254e-23 2.007479424054907e-15 1.9657442563400383e-15 4.173516771486843e-17
3.94519561050918 2.0287732384628832e-23 2.124572137971709e-15 2.076157544698023e-15 4.8414593273685883e-17
4.06534921144712 2.114639701196751e-23 2.281937113782949e-15 2.2261601506023314e-15 5.577696318061682e-17
4.189162171576248 2.2209782042513377e-23 2.4696812400495063e-15 2.405813808073203e-15 6.386743197630348e-17
4.316745939156006 2.343283112472338e-23 2.685039535870607e-15 2.6123462292309354e-15 7.269330663967275e-17
4.448215356677963 2.47997285602984e-23 2.9282096364820077e-15 2.8460329708457134e-15 8.217666563629434e-17
4.58368876423945 2.6312572861408265e-23 3.2014584511343785e-15 3.1090923342456736e-15 9.236611688870607e-17
4.723288106065518 2.798641229400373e-23 3.50882006560716e-15 3.405457836310849e-15 1.0336222929631183e-16
4.867139040275056 2.9848162083180924e-23 3.856210922359173e-15 3.7412602973004015e-15 1.149506250587709e-16
4.940699165968905 3.088708087867562e-23 4.050743178434789e-15 3.92973166834009e-15 1.2101151009469966e-16
5.015371051989984 3.195293280751524e-23 4.253860347907873e-15 4.126619863892034e-15 1.2724048401583847e-16
5.091171501069577 3.3155549826254296e-23 4.480674486388193e-15 4.346913003317349e-15 1.3376148307084362e-16
5.129500256944802 3.3768364747578774e-23 4.59784703964069e-15 4.460762679593618e-15 1.370843600470702e-16
5.168117569889187 3.4398391399224626e-23 4.718891063813952e-15 4.578415810730083e-15 1.404752530838696e-16
5.20702561229733 3.5118976670187604e-23 4.854013719230369e-15 4.709868875289534e-15 1.441448439408331e-16
5.246226572918644 3.5852409736708146e-23 4.992692595812897e-15 4.844824603437947e-15 1.4786799237494853e-16
5.265937586045735 3.622404218636329e-23 5.0633978326523434e-15 4.913648290003458e-15 1.4974954264888485e-16
5.285722656980489 3.659900602672539e-23 5.135031306634123e-15 4.983386956943486e-15 1.5164434969063712e-16
5.305582063971359 3.697734303851282e-23 5.2076066349876615e-15 5.054054268771668e-15 1.5355236621599306e-16
5.3255160863122235 3.737487684456804e-23 5.283368519796144e-15 5.1278827233918805e-15 1.5548579640426481e-16
5.365609099470188 3.8304995056419064e-23 5.455616994057983e-15 5.2961293589234286e-15 1.5948763513455387e-16
5.406003951863644 3.926043144734518e-23 5.633792662075157e-15 5.4702447248389614e-15 1.6354793723619514e-16
5.446702915881641 4.024226768950927e-23 5.8181587447005935e-15 5.650492332343657e-15 1.6766641235693556e-16
5.487708281020852 4.128254505083564e-23 6.013494434662114e-15 5.841637201687233e-15 1.7185723297488406e-16
5.529022354014368 4.2631951094715006e-23 6.2568103010337114e-15 6.080576771646618e-15 1.7623352938709076e-16
5.570647458961463 4.4042260544057814e-23 6.512454613280568e-15 6.3317802123801484e-15 1.8067440090041815e-16
5.612585937458331 4.551762135970605e-23 6.7812849781721504e-15 6.596105334526491e-15 1.8517964364566032e-16
5.654840148729818 4.7110773764844125e-23 7.0714748827930934e-15 6.8817074989157525e-15 1.8976738387734077e-16
5.67608639626678 4.815157088773587e-23 7.25485756543687e-15 7.0626922132179064e-15 1.9216535221896413e-16
5.686739436050992 4.8685200358574356e-23 7.349024990505405e-15 7.155653840043939e-15 1.9337115046146454e-16
5.6974124697621304 4.9227923264848593e-23 7.444895561824837e-15 7.25031407186098e-15 1.9458148996385814e-16
5.718818669136295 5.0341499331632686e-23 7.641909767350531e-15 7.444893979402397e-15 1.9701578794813377e-16
5.740305295436557 5.155499178774603e-23 7.85552374710664e-15 7.656039890269792e-15 1.994838568368465e-16
5.7835210386641895 5.462795328088878e-23 8.386421421626464e-15 8.181824206777914e-15 2.045972148485476e-16
5.827062130521658 5.811306663644078e-23 8.988616996971457e-15 8.778788501777033e-15 2.0982849519442473e-16
5.8489554468988025 6.051302771656617e-23 9.394996644119646e-15 9.182355903618854e-15 2.1264074050079462e-16
5.870931020387893 6.306971999865712e-23 9.828727934973283e-15 9.613250245684828e-15 2.1547768928845626e-16
5.892989160043636 6.579552558778124e-23 1.0292039297430052e-14 1.0073699897058777e-14 2.1833940037127026e-16
5.915130176081913 6.887392051022504e-23 1.081405427164917e-14 1.0592751348856315e-14 2.21302922792854e-16
5.95966208400165 7.738844206322713e-23 1.2242417119719649e-14 1.2014440497740232e-14 2.279766219794245e-16
6.004529249263818 8.952121967484739e-23 1.426837084141199e-14 1.4032923615036912e-14 2.3544722637508254e-16
6.027089341400364 9.790377245958668e-23 1.5663055570226637e-14 1.5423331785452902e-14 2.397237847737345e-16
6.049734195844842 1.077591713094844e-22 1.7304536436063672e-14 1.706028946920585e-14 2.442469668578275e-16
6.095279466722835 1.3610562057044003e-22 2.2021105409473702e-14 2.1765880701187076e-14 2.552247082866229e-16
6.141167624020661 1.794946087049185e-22 2.925982965203465e-14 2.899053006405587e-14 2.692995879787843e-16
6.164241091010745 2.0718790359980401e-22 3.3901073083142975e-14 3.3623024275545244e-14 2.7804880759773984e-16
6.187401249150058 2.3860390102115e-22 3.91881943787397e-14 3.890113698295662e-14 2.8705739578307786e-16
6.1990139391386085 2.539446690887742e-22 4.1786033329409734e-14 4.1494386828703916e-14 2.9164650070582344e-16
6.204828454712694 2.6201396043212823e-22 4.3154257014314066e-14 4.286029002392711e-14 2.9396699038695414e-16
6.210648424152782 2.6791567906128177e-22 4.4167671952860297e-14 4.387170754002932e-14 2.9596441283098964e-16
6.233982942956859 2.879567298046231e-22 4.764993093909391e-14 4.734691523831524e-14 3.0301570077867565e-16
6.239830258556775 2.905189814438474e-22 4.811901422109398e-14 4.781495485342751e-14 3.040593676664462e-16
6.245683058788269 2.907516277174249e-22 4.820271824858368e-14 4.789761256747502e-14 3.0510568110868847e-16
6.257405133728602 2.902250354309238e-22 4.820572069059996e-14 4.789874509377171e-14 3.069755968282687e-16
6.269149208991335 2.8632101357596766e-22 4.7646528342336954e-14 4.733868054280461e-14 3.078477995323405e-16
6.280915325867298 2.764979493307199e-22 4.6098233815167324e-14 4.5790750644279605e-14 3.074831708877177e-16
6.304513850009849 2.5226265083079825e-22 4.22156996443652e-14 4.1910068118775595e-14 3.056315255896157e-16
6.32820103803542 2.2226021282210327e-22 3.7334593454145674e-14 3.703200777900278e-14 3.0258567514288844e-16
6.3519772230701035 1.9477278879398338e-22 3.2840264610635655e-14 3.254034636928091e-14 2.9991824135473906e-16
6.375842739491607 1.7162291754153252e-22 2.9045730954925843e-14 2.874809500409951e-14 2.976359508263384e-16
6.399797922933955 1.531636996672975e-22 2.6019056390563588e-14 2.5722271756512308e-14 2.967846340512789e-16
6.42384311029221 1.3780344157814332e-22 2.3497649568519282e-14 2.3201431590927742e-14 2.9621797759154517e-16
6.447978639727206 1.266769605741316e-22 2.168156654084734e-14 2.138479112297125e-14 2.9677541787609885e-16
6.472204850670314 1.1741357297516366e-22 2.0171583474699646e-14 1.9874023182555038e-14 2.9756029214461165e-16
6.496522083828205 1.1146156021851463e-22 1.9220977489272523e-14 1.892171391817293e-14 2.9926357109958967e-16
6.520930681187647 1.0646373092302068e-22 1.8428105851908862e-14 1.8126991127301848e-14 3.0111472460701396e-16
