Dust emission spectrum from A.P. Jones, M. Kohler, N. Ysard, M. Bocchio, and L. Verstraete (2017), A&A, 602A, 46J 
inside the DustPedia framework.

lambda    nu*dP/dnu     j_nu    j_nu(carb.) j_nu(sil)
 (um)   (erg s-1 H-1) (Jy cm2 sr-1 H-1)
0.9927057738263894 2.3839998274557235e-26 6.281974953832775e-19 6.28197495382657e-19 6.203225605033569e-31
1.0001793341362166 2.4232082716336888e-26 6.433362936274303e-19 6.433362936266829e-19 7.474029693036615e-31
1.0077091589558085 2.4623557686339485e-26 6.586511284051202e-19 6.586511284042208e-19 8.9937124848399e-31
1.0114953028030835 2.4819018338781216e-26 6.663737844501406e-19 6.6637378444915435e-19 9.861045869009103e-31
1.0152956718711033 2.5014268844478066e-26 6.741395100236858e-19 6.74139510022605e-19 1.0808561497078425e-30
1.0229392996569957 2.540387064644781e-26 6.897936459867933e-19 6.89793645985496e-19 1.2973146051660954e-30
1.0267826658714554 2.5597747511372133e-26 6.976694598455304e-19 6.976694598441097e-19 1.4206593120595626e-30
1.0306404723013447 2.5791328420440306e-26 7.055866213754817e-19 7.055866213739267e-19 1.5552313824611104e-30
1.03451277320114 2.5984594676388544e-26 7.135447862468366e-19 7.135447862451347e-19 1.7020033561463005e-30
1.0383996230291617 2.6177527688271607e-26 7.215436059167849e-19 7.215436059149232e-19 1.8620273989221048e-30
1.0403485208654093 2.627386344796559e-26 7.255581512498728e-19 7.255581512479257e-19 1.947361016040214e-30
1.0423010764483396 2.637010897501513e-26 7.295827277118603e-19 7.295827277098239e-19 2.0364414143879015e-30
1.0462171883269815 2.656232016888844e-26 7.376617949103682e-19 7.376617949081416e-19 2.226475590891727e-30
1.0471985131304309 2.6610312998944784e-26 7.396877609971818e-19 7.396877609949053e-19 2.2765782972179716e-30
1.048180758391296 2.665828127291213e-26 7.41716195473743e-19 7.41716195471415e-19 2.3277616227559576e-30
1.0501480137395462 2.6754143018898036e-26 7.457804468248764e-19 7.457804468224432e-19 2.433459412018639e-30
1.0521189612883777 2.684990314425577e-26 7.4985450327173e-19 7.498545032691862e-19 2.5437518900401254e-30
1.0531058218030118 2.6897670484023303e-26 7.518931279879183e-19 7.518931279853174e-19 2.600683908923674e-30
1.0540936079674168 2.694516942361991e-26 7.539274074879841e-19 7.53927407485325e-19 2.6588488450383862e-30
1.058054026499678 2.713488711866083e-26 7.620883042486242e-19 7.620883042457196e-19 2.9042274682756498e-30
1.0590464539527713 2.718224563870127e-26 7.641344438044804e-19 7.641344438015116e-19 2.968882735639065e-30
1.06003981227728 2.7229575243905934e-26 7.661829377281895e-19 7.661829377251548e-19 3.0349163802090193e-30
1.0620293250338977 2.732414660728253e-26 7.702869650122882e-19 7.702869650091167e-19 3.171231258146399e-30
1.0660195594769086 2.7512930257794045e-26 7.7852301089938055e-19 7.785230108959188e-19 3.461669199902107e-30
1.070024785945596 2.77012205744102e-26 7.867960595789137e-19 7.867960595751361e-19 3.777492906482823e-30
1.0740450607676866 2.7889000200114184e-26 7.951057253512277e-19 7.95105725347107e-19 4.120807125760034e-30
1.07808044048254 2.8076251919440055e-26 8.034516192305358e-19 8.03451619226042e-19 4.493880962819567e-30
1.0861967418109137 2.8448770845821456e-26 8.202409282467338e-19 8.202409282413944e-19 5.339279128600639e-30
1.0902777775684922 2.8633247937578435e-26 8.286615865627324e-19 8.286615865569154e-19 5.8170772727891515e-30
1.0943741465085532 2.8817116576119796e-26 8.371162667542764e-19 8.371162667479409e-19 6.33560746064673e-30
1.1026131145906286 2.9182963165979644e-26 8.541260620560514e-19 8.54126062048543e-19 7.508263460862197e-30
1.1109141095355224 2.954618156607042e-26 8.712670260864679e-19 8.712670260775815e-19 8.886646561973832e-30
1.1192775983109025 2.9906306217368185e-26 8.885257543981273e-19 8.885257543876227e-19 1.0504737931590844e-29
1.1277040513999907 3.0261655757642503e-26 9.058520267822388e-19 9.05852026769837e-19 1.2401762130839844e-29
1.1361939428280308 3.0613957842842236e-26 9.232969109229843e-19 9.232969109083611e-19 1.4622928872781238e-29
1.1447477501889525 3.096309515899173e-26 9.408569540486169e-19 9.408569540313965e-19 1.7220283649748545e-29
1.1533659546722406 3.1309144760722716e-26 9.585345364194258e-19 9.585345363991722e-19 2.0253689657620424e-29
1.1707974979042381 3.199311017626244e-26 9.94277657148069e-19 9.942776571201548e-19 2.7913902192245544e-29
1.1884924949847024 3.266325195524117e-26 1.0304461420659702e-18 1.0304461420276882e-18 3.828216569004265e-29
1.2064549276569216 3.3324852928069133e-26 1.067207272466835e-18 1.0672072724145878e-18 5.224700447052718e-29
1.2246888378427687 3.397064355829376e-26 1.1043302461616086e-18 1.1043302460906457e-18 7.096254270710202e-29
1.2431983285522175 3.4599112045823225e-26 1.1417599467775027e-18 1.1417599466815804e-18 9.592282313880539e-29
1.2619875648066055 3.521002826798396e-26 1.179480818051927e-18 1.1794808179228746e-18 1.2905202810941325e-28
1.3004222497298317 3.6369010598937913e-26 1.2554092116698828e-18 1.255409211439533e-18 2.3034980166915865e-28
1.3400274889804893 3.7443090894235743e-26 1.3318485207525651e-18 1.3318485203488297e-18 4.0373544030567434e-28
1.3808389325824078 3.842832465904928e-26 1.4085228851252638e-18 1.408522884430094e-18 6.951703262433074e-28
1.4228933163050095 3.932962508247215e-26 1.4854621107709267e-18 1.4854621095944503e-18 1.1764764246802e-27
1.466228494730424 4.016896937085966e-26 1.5633700127368362e-18 1.5633700107789433e-18 1.9578926065618e-27
1.5108834753276823 4.0929911695982747e-26 1.6415012282879884e-18 1.6415012250824629e-18 3.2055260801749713e-27
1.5568984535646726 4.1599169574031946e-26 1.7191524139444413e-18 1.719152408775946e-18 5.168495269719916e-27
1.6043148490894465 4.217804657554558e-26 1.7961619760550715e-18 1.7961619678331487e-18 8.22192281077031e-27
1.6531753430134553 4.2668389401428426e-26 1.8723826239614808e-18 1.8723826110719304e-18 1.2889550300427072e-26
1.7035239163302658 4.3076186564157246e-26 1.947847343688546e-18 1.9478473237696852e-18 1.991886101301577e-26
1.755405889504358 4.3435762671557945e-26 2.023925096659462e-18 2.023925066301446e-18 3.035801564859015e-26
1.8088679632656115 4.3738684137198736e-26 2.1001098574776934e-18 2.1001098118297402e-18 4.5647953190866493e-26
1.8639582606462262 4.3979258053806414e-26 2.1759730612918445e-18 2.1759729935458373e-18 6.774600787766029e-26
1.9207263702978936 4.4161670128128735e-26 2.2515439119316086e-18 2.2515438126592904e-18 9.9272318118475e-26
1.979223391128241 4.429561971917792e-26 2.3271534978725533e-18 2.3271533541827296e-18 1.4368982341381924e-25
2.039501978296691 4.439270203838027e-26 2.4032842697804216e-18 2.403284064268611e-18 2.055118115822215e-25
2.1016163906111602 4.448533178776982e-26 2.4816453331791654e-18 2.481645042613272e-18 2.9056589396250973e-25
2.1656225393682647 4.459230157779022e-26 2.563374645692512e-18 2.5633742394321836e-18 4.0626032829663224e-25
2.231578038680979 4.471496391830625e-26 2.6487099103754612e-18 2.648709348478189e-18 5.618972719953329e-25
2.299542257339062 4.4864568917407185e-26 2.7385099737493663e-18 2.738509204723182e-18 7.690261841789357e-25
2.369576372248914 4.506598707854097e-26 2.8345820433752267e-18 2.8345810015275305e-18 1.0418476959338045e-24
2.4417434235010123 4.5348585326209736e-26 2.9392275064847843e-18 2.939226108880453e-18 1.397604330995124e-24
2.5161083711144245 4.5762649641424574e-26 3.0563982173112086e-18 3.056396360237532e-18 1.8570736768395572e-24
2.5927381535095444 4.639048249616688e-26 3.1926916849958763e-18 3.192689239967301e-18 2.4450285757377676e-24
2.6717017477616296 4.733038738797811e-26 3.356583587466691e-18 3.3565803968932294e-18 3.1905734606330998e-24
2.753070231689431 4.873036810439346e-26 3.561118418496674e-18 3.561114290881536e-18 4.127615137887446e-24
2.836916847834745 5.0925743906986785e-26 3.8348945045248914e-18 3.834889209046441e-18 5.295478451138046e-24
2.9233170693905177 5.46550505972943e-26 4.241072104639284e-18 4.241065366338531e-18 6.738300753482777e-24
2.967498994190263 5.782402174552972e-26 4.554789467115924e-18 4.554781900120083e-18 7.566995840359864e-24
3.0123486681368425 6.152561733831507e-26 4.9196097267117775e-18 4.919601240212144e-18 8.486499634497048e-24
3.0578761833420214 6.981086224657117e-26 5.666466577662941e-18 5.666457069830388e-18 9.507832551740643e-24
3.1040917844459814 8.048962020441192e-26 6.631990043855231e-18 6.631979410868515e-18 1.0632986715886145e-23
3.127460860933648 9.178677337270646e-26 7.619762228230037e-18 7.619750987314856e-18 1.1240915182986799e-23
3.1510058709225794 1.0684017204768573e-25 8.936207078191458e-18 8.936195199527118e-18 1.1878664338030557e-23
3.162844764501044 1.2085149795490664e-25 1.0146104890695848e-17 1.0146092680405986e-17 1.2210289864292437e-23
3.1747281389236908 1.3714702552399563e-25 1.155745915691751e-17 1.155744660714793e-17 1.2549769583695928e-23
3.1986289994194426 1.826038488652646e-25 1.550398111102124e-17 1.5503967856450658e-17 1.325457058683209e-23
3.2227097969389145 2.8975506506734485e-25 2.4786868843246503e-17 2.478685483735444e-17 1.4005892068403922e-23
3.2348180950136065 3.913690484436462e-25 3.360514496697737e-17 3.360513055888006e-17 1.4408097322189046e-23
3.240889293275058 4.6733767401389255e-25 4.020355171682751e-17 4.020353709647766e-17 1.462034984847215e-23
3.2469718861334385 5.552204692307205e-25 4.785346943897855e-17 4.785345459893142e-17 1.4840047114067286e-23
3.2714166318528037 1.0240087556831896e-24 8.892194641100535e-17 8.892193065929814e-17 1.5751707183416234e-23
3.2744851364798273 1.0533107762832444e-24 9.155224195632749e-17 9.15522260962406e-17 1.5860086925975923e-23
3.2775565192852394 1.0834544302388015e-24 9.426061573189572e-17 9.426059976279052e-17 1.596910520686078e-23
3.283707930232385 1.0544527219510638e-24 9.19096404350588e-17 9.190962426919666e-17 1.6165862102489892e-23
3.2898708863219004 9.625004652900901e-25 8.405222902644061e-17 8.405221267984839e-17 1.6346592192920386e-23
3.29141343181113 9.40816089760736e-25 8.219712096559883e-17 8.219710457357397e-17 1.6392024850645284e-23
3.292184975758714 9.301611940516834e-25 8.128527486815808e-17 8.128525845337928e-17 1.6414778803097742e-23
3.295272960557952 8.629067012419001e-25 7.547874483361006e-17 7.547872833001545e-17 1.6503594630074175e-23
3.3076538914384823 6.299255252655376e-25 5.530682136552889e-17 5.530680450425066e-17 1.6861278211930175e-23
3.310756385682612 5.825099918102666e-25 5.119175723844342e-17 5.1191740286803387e-17 1.6951640042375145e-23
3.313861789986515 5.387625391236757e-25 4.7391583009930496e-17 4.7391565967550214e-17 1.7042380287903007e-23
3.3200813396944477 4.774105760812662e-25 4.207365025806539e-17 4.2073633021230677e-17 1.723683469434284e-23
3.345076488085796 3.679569047884587e-25 3.2671753422932316e-17 3.267173532087976e-17 1.810205257085893e-23
3.3482140837626964 3.7205880042080816e-25 3.3066957211639846e-17 3.306693899237879e-17 1.8219261059474195e-23
3.3513546224236106 3.762060452282626e-25 3.34669078544269e-17 3.346688951731916e-17 1.833710773744871e-23
3.3576445397418455 4.0652394756522153e-25 3.623183120768905e-17 3.6231812624418926e-17 1.8583270127743536e-23
3.3702598118196083 5.183563417975113e-25 4.6372577001007914e-17 4.637255790096804e-17 1.9100039855967572e-23
3.382922481734668 5.438161058828247e-25 4.8833015682107936e-17 4.883299607636421e-17 1.9605743703360213e-23
3.389271646505754 5.570059453998045e-25 5.011129686728175e-17 5.0111277004466564e-17 1.9862815178164923e-23
3.395632727569191 5.712175841351317e-25 5.1486303436240195e-17 5.14862833084179e-17 2.0127822311663985e-23
3.421196662673239 6.394529183504228e-25 5.807056432742117e-17 5.807054309821471e-17 2.1229206482506103e-23
3.4276182099114902 6.256880611142782e-25 5.692718943407091e-17 5.69271679552733e-17 2.1478797587254604e-23
3.4340518103208963 5.653960318114096e-25 5.153817458300309e-17 5.1538152866319044e-17 2.1716684030323247e-23
3.4469541582030403 4.7953088103868955e-25 4.387544366139284e-17 4.387542148433578e-17 2.2177057054006393e-23
3.472904465399547 4.554564839500598e-25 4.198645026386631e-17 4.1986427030481146e-17 2.3233385158437572e-23
3.4990501388274233 4.186427509875652e-25 3.888330520848259e-17 3.8883280884582327e-17 2.4323900262820856e-23
3.5253949054701885 2.8766468910333506e-25 2.6919299913238164e-17 2.6919274515484913e-17 2.5397753245031813e-23
3.5519380250092896 1.6457612819380784e-25 1.551678181585218e-17 1.5516755326559368e-17 2.648929281307699e-23
3.578680990867387 1.1577110831486608e-25 1.099746555595673e-17 1.0997437866933243e-17 2.768902348763312e-23
3.605625307711299 9.602817147802023e-26 9.1907020211031e-18 9.190673060003253e-18 2.896109984943142e-23
3.660119384959845 8.161945872892762e-26 7.929729899847649e-18 7.929698229934576e-18 3.1669913072118474e-23
3.715437065384467 7.141603617400032e-26 7.043282114080386e-18 7.043247534666762e-18 3.4579413624571924e-23
3.8285932144167436 6.622361274516519e-26 6.730100162646731e-18 6.730059136179231e-18 4.1026467498688316e-23
3.94519561050918 6.521234011010016e-26 6.829167411278848e-18 6.829119049933524e-18 4.836134532445552e-23
4.06534921144712 6.591905078180135e-26 7.113416455730285e-18 7.11335978907292e-18 5.666665736500658e-23
4.189162171576248 6.762181815173783e-26 7.519404530297092e-18 7.519338472814838e-18 6.605748225479731e-23
4.316745939156006 7.005199480587123e-26 8.026873689279282e-18 8.026797067806306e-18 7.662147297547946e-23
4.448215356677963 7.311981273374066e-26 8.633567893459352e-18 8.633479529946523e-18 8.836351282562323e-23
4.58368876423945 7.683683703557188e-26 9.348760479700238e-18 9.348659042090668e-18 1.0143760957236872e-22
4.723288106065518 8.128956313353885e-26 1.0191747597047786e-17 1.0191631521561866e-17 1.1607548592181844e-22
4.867139040275056 8.66504777676642e-26 1.1194743510977938e-17 1.1194611337804494e-17 1.3217317343862115e-22
4.940699165968905 8.988705905330104e-26 1.1788404113679279e-17 1.178826324654191e-17 1.4086713737164943e-22
5.015371051989984 9.324070609199706e-26 1.2413037164538189e-17 1.2412887159197877e-17 1.500053403114862e-22
5.091171501069577 9.733390090461587e-26 1.3153801663050847e-17 1.3153641901889963e-17 1.597611608882002e-22
5.129500256944802 9.943550486500368e-26 1.3538980791526646e-17 1.3538815969510673e-17 1.6482201596915656e-22
5.168117569889187 1.0162695327808825e-25 1.3941539187132413e-17 1.394136914914078e-17 1.7003799163257418e-22
5.20702561229733 1.0431607091254387e-25 1.4418177502749858e-17 1.4418001856551127e-17 1.7564619873120977e-22
5.246226572918644 1.0707438163646386e-25 1.4910837969428545e-17 1.491065656589167e-17 1.8140353687566442e-22
5.265937586045735 1.084801791590794e-25 1.5163363083940946e-17 1.5163178744782326e-17 1.8433915861896315e-22
5.285722656980489 1.0990412070011615e-25 1.5420120975719472e-17 1.541993366241148e-17 1.8731330798924299e-22
5.305582063971359 1.1134650096550213e-25 1.5681190955409695e-17 1.568100062899849e-17 1.9032641121117939e-22
5.3255160863122235 1.1289605942180192e-25 1.5959155901402593e-17 1.5958962508156064e-17 1.933932465264859e-22
5.365609099470188 1.1675441956757446e-25 1.6628833774447738e-17 1.6628634014566594e-17 1.997598811479809e-22
5.406003951863644 1.2076025837919026e-25 1.7328853312257398e-17 1.732864701337498e-17 2.0629888242414685e-22
5.446702915881641 1.2492070997708576e-25 1.8060824175096364e-17 1.8060611160790098e-17 2.1301430626793544e-22
5.487708281020852 1.2941648593045825e-25 1.8851679733843958e-17 1.8851459805266444e-17 2.199285775170496e-22
5.529022354014368 1.3566268116043335e-25 1.9910317007651027e-17 1.9910089817166477e-17 2.271904845487039e-22
5.570647458961463 1.422777161318564e-25 2.1038365364171696e-17 2.1038130710238026e-17 2.346539336664316e-22
5.612585937458331 1.4928814178749312e-25 2.2241176122154443e-17 2.2240933798161474e-17 2.423239929753619e-22
5.654840148729818 1.5699441076779356e-25 2.3565353395061707e-17 2.356510316463301e-17 2.502304287078661e-22
5.67608639626678 1.6224101400906335e-25 2.4444383146959625e-17 2.444412877440016e-17 2.5437255947112463e-22
5.686739436050992 1.6494544976165356e-25 2.489849530125344e-17 2.4898238835535718e-17 2.5646571772311584e-22
5.6974124697621304 1.677057008550433e-25 2.536266706338939e-17 2.5362408489654138e-17 2.5857373524692833e-22
5.718818669136295 1.7339902590772744e-25 2.6322213826092544e-17 2.6321950991347752e-17 2.6283474478985297e-22
5.740305295436557 1.7967455598139313e-25 2.7377324528992664e-17 2.7377057349280073e-17 2.6717971259249064e-22
5.7835210386641895 1.95951854535996e-25 3.008230643455242e-17 3.008203019357913e-17 2.762409732947131e-22
5.827062130521658 2.1470336653566603e-25 3.320916347132355e-17 3.3208877844125397e-17 2.856271981596291e-22
5.8489554468988025 2.2785525441303026e-25 3.537584271245126e-17 3.537555204191073e-17 2.906705405265477e-22
5.870931020387893 2.419691280569346e-25 3.770824935301692e-17 3.770795355887272e-17 2.9579414418638118e-22
5.892989160043636 2.5712242840903984e-25 4.0220275068794726e-17 4.021997406950814e-17 3.009992865918882e-22
5.915130176081913 2.7435580320608053e-25 4.3077242062501544e-17 4.30769356644384e-17 3.063980631284464e-22
5.95966208400165 3.2253488246767002e-25 5.102320787906438e-17 5.102288944391391e-17 3.1843515048250245e-22
6.004529249263818 3.9197370641512414e-25 6.247486599855997e-17 6.247453407790429e-17 3.3192065573672368e-22
6.027089341400364 4.402398737371066e-25 7.043141886509251e-17 7.043107926741612e-17 3.3959767638480214e-22
6.049734195844842 4.972779740830401e-25 7.985552150041927e-17 7.985517376627218e-17 3.4773414708323464e-22
6.095279466722835 6.620305976382373e-25 1.0711273725351754e-16 1.0711236996352606e-16 3.6728999151293916e-22
6.141167624020661 9.15573826139682e-25 1.4924979853155112e-16 1.492494063572398e-16 3.9217431134002526e-22
6.164241091010745 1.0774818214056155e-24 1.7630271525786286e-16 1.7630230775444455e-16 4.075034183269393e-22
6.187401249150058 1.2619210303208373e-24 2.0725732653653861e-16 2.0725690309080885e-16 4.234457298173548e-22
6.1990139391386085 1.3519783227835285e-24 2.224650411413946e-16 2.2246460954941106e-16 4.315919836554142e-22
6.204828454712694 1.3994173295768389e-24 2.3048701302497014e-16 2.304865772967599e-16 4.357282102183084e-22
6.210648424152782 1.4340476326088712e-24 2.3641223844669725e-16 2.3641179911257773e-16 4.393341194996299e-22
6.233982942956859 1.5517032752479648e-24 2.5676966797649845e-16 2.567692156668095e-16 4.523096890333316e-22
6.239830258556775 1.5667446010700671e-24 2.59501824510852e-16 2.5950137011679325e-16 4.543940587325981e-22
6.245683058788269 1.5680509883963746e-24 2.5996181203340446e-16 2.5996135554585017e-16 4.564875542994131e-22
6.257405133728602 1.5648236599749534e-24 2.599136637912438e-16 2.5991320346998725e-16 4.603212566037291e-22
6.269149208991335 1.5416903507975706e-24 2.5655187538267855e-16 2.565514128549857e-16 4.625276929422043e-22
6.280915325867298 1.4836715420436182e-24 2.473603794009683e-16 2.4735991669399005e-16 4.627069781470266e-22
6.304513850009849 1.3405941155511312e-24 2.2434600738842516e-16 2.2434554617099213e-16 4.6121743300553425e-22
6.32820103803542 1.1632479076451028e-24 1.9539883979629015e-16 1.9539838206832733e-16 4.577279628428137e-22
6.3519772230701035 1.0006130375755152e-24 1.6871143618315794e-16 1.6871098133982205e-16 4.548433359247598e-22
6.375842739491607 8.637974284579653e-25 1.461904276302447e-16 1.4618997502249934e-16 4.526077453877775e-22
6.399797922933955 7.541495274549198e-25 1.2811298711372181e-16 1.2811253438237668e-16 4.527313451686349e-22
6.42384311029221 6.629941843301322e-25 1.1305091390276744e-16 1.1305046054729074e-16 4.533554766955271e-22
6.447978639727206 5.9657439077424465e-25 1.0210749682905333e-16 1.0210704094290875e-16 4.558861445450769e-22
6.472204850670314 5.4125005569496815e-25 9.298644443301564e-17 9.298598559947244e-17 4.588335431848182e-22
6.496522083828205 5.053033971726253e-25 8.713699326716096e-17 8.71365298945205e-17 4.633726404412876e-22
6.520930681187647 4.750279607497077e-25 8.222392233878748e-17 8.222345413109733e-17 4.682076901911614e-22
