Dust emission spectrum from A.P. Jones, M. Kohler, N. Ysard, M. Bocchio, and L. Verstraete (2017), A&A, 602A, 46J 
inside the DustPedia framework.

lambda    nu*dP/dnu     j_nu    j_nu(carb.) j_nu(sil)
 (um)   (erg s-1 H-1) (Jy cm2 sr-1 H-1)
0.9927057738263894 1.3596368815777853e-22 3.582720408790622e-15 3.5827204076584114e-15 1.1322110032415775e-24
1.0001793341362166 1.3820861301937602e-22 3.66929322122726e-15 3.669293219863758e-15 1.3635013230770752e-24
1.0077091589558085 1.404506617209867e-22 3.7568895610521285e-15 3.756889559412224e-15 1.6399047226740839e-24
1.0114953028030835 1.4157033698924353e-22 3.801067388632125e-15 3.801067386834547e-15 1.7975777696731e-24
1.0152956718711033 1.4268896949473182e-22 3.845496047836622e-15 3.845496045866855e-15 1.9697671919474513e-24
1.0229392996569957 1.4492157986535135e-22 3.935069043168233e-15 3.935069040805314e-15 2.362919143847844e-24
1.0267826658714554 1.460328528397176e-22 3.980141671259352e-15 3.980141668672521e-15 2.586831285289273e-24
1.0306404723013447 1.4714260114700046e-22 4.025455731137548e-15 4.025455728306513e-15 2.8310350215063755e-24
1.03451277320114 1.4825072009257122e-22 4.071009369082667e-15 4.071009365985389e-15 3.097278310227017e-24
1.0383996230291617 1.4935710559159086e-22 4.1168007086526335e-15 4.116800705265183e-15 3.387451244813371e-24
1.0403485208654093 1.4990961594395113e-22 4.1397849240665696e-15 4.139784920524427e-15 3.542143495549201e-24
1.0423010764483396 1.5046165418961688e-22 4.1628278511744895e-15 4.162827847470893e-15 3.7035968723971394e-24
1.0462171883269815 1.5156426308277549e-22 4.20908887623675e-15 4.209088872188827e-15 4.047922774262626e-24
1.0471985131304309 1.5183960024339584e-22 4.220690449571125e-15 4.220690445432442e-15 4.138682778900412e-24
1.048180758391296 1.5211480819657453e-22 4.232306488769236e-15 4.232306484537844e-15 4.2313912190420024e-24
1.0501480137395462 1.5266483013749638e-22 4.255581842182865e-15 4.2555818377600524e-15 4.422813457440195e-24
1.0521189612883777 1.5321431624674596e-22 4.278914690532154e-15 4.278914685909636e-15 4.622517371897495e-24
1.0531058218030118 1.5348843383772545e-22 4.290590841194353e-15 4.290590836468764e-15 4.72558764307573e-24
1.0540936079674168 1.5376103478707646e-22 4.302242695422494e-15 4.302242690591613e-15 4.8308799639849544e-24
1.058054026499678 1.5484996352312985e-22 4.3489897561854084e-15 4.348989750910446e-15 5.27496122817525e-24
1.0590464539527713 1.5512181917922103e-22 4.360711274409505e-15 4.360711269017562e-15 5.391943931250455e-24
1.06003981227728 1.5539352112948784e-22 4.372446630417581e-15 4.372446624906173e-15 5.511408503051731e-24
1.0620293250338977 1.5593645774721338e-22 4.3959587283452136e-15 4.39595872258723e-15 5.757984531289404e-24
1.0660195594769086 1.5702041886412167e-22 4.443147571754841e-15 4.4431475654716545e-15 6.283187495788671e-24
1.070024785945596 1.5810174906029502e-22 4.490554228072054e-15 4.490554221217994e-15 6.854061104218931e-24
1.0740450607676866 1.5918035132063191e-22 4.538176621259306e-15 4.538176613784937e-15 7.474368192760804e-24
1.07808044048254 1.6025612944486187e-22 4.586012658083478e-15 4.586012649935314e-15 8.148163188820417e-24
1.0861967418109137 1.6239693740277357e-22 4.6822625624699985e-15 4.682262552795978e-15 9.674021545917653e-24
1.0902777775684922 1.634574692900115e-22 4.730547024657425e-15 4.730547014121573e-15 1.0535851494988662e-23
1.0943741465085532 1.6451472544685033e-22 4.77903305934142e-15 4.779033047870673e-15 1.1470746300744604e-23
1.1026131145906286 1.666190460701431e-22 4.876601079678257e-15 4.876601066094656e-15 1.3583601565441345e-23
1.1109141095355224 1.6870917954417064e-22 4.9749489559671375e-15 4.974948939902215e-15 1.6064923218473473e-23
1.1192775983109025 1.70782488396447e-22 5.074001390794169e-15 5.074001371819037e-15 1.897513281192555e-23
1.1277040513999907 1.7282940490679993e-22 5.17347325527139e-15 5.173473232887496e-15 2.2383891761470393e-23
1.1361939428280308 1.7485979156448591e-22 5.273656749150921e-15 5.273656722779523e-15 2.63713982967986e-23
1.1447477501889525 1.7687299634590853e-22 5.374533383725281e-15 5.374533352695417e-15 3.102986424223914e-23
1.1533659546722406 1.7886946860278517e-22 5.476117743779661e-15 5.476117707314438e-15 3.6465223322750416e-23
1.1707974979042381 1.82818666540132e-22 5.681614399131603e-15 5.681614348961007e-15 5.017059658963107e-23
1.1884924949847024 1.8669277133945403e-22 5.889702784093912e-15 5.8897027154094296e-15 6.868448082972479e-23
1.2064549276569216 1.9052198429796297e-22 6.1013456727468015e-15 6.101345579176662e-15 9.357013819248129e-23
1.2246888378427687 1.9426509265209072e-22 6.3152414884619975e-15 6.31524136160916e-15 1.2685283643278606e-22
1.2431983285522175 1.9791357286221964e-22 6.531086408184057e-15 6.531086237036743e-15 1.7114731341626024e-22
1.2619875648066055 2.014663522225868e-22 6.7488073602458436e-15 6.748807130433747e-15 2.2981209489454913e-22
1.3004222497298317 2.0822733747625844e-22 7.187726948965233e-15 7.187726540395874e-15 4.0856935978915603e-22
1.3400274889804893 2.1452387272521093e-22 7.630601420225394e-15 7.630600707075428e-15 7.131499655416726e-22
1.3808389325824078 2.2033513226572764e-22 8.075998080761957e-15 8.075996858063771e-15 1.222698185946453e-21
1.4228933163050095 2.256909308548787e-22 8.524244149964071e-15 8.524242089835759e-15 2.0601283122732136e-21
1.466228494730424 2.307187276689199e-22 8.979536838105998e-15 8.979533425218325e-15 3.412887673101509e-21
1.5108834753276823 2.3532703865216413e-22 9.437831820067586e-15 9.437826258551578e-15 5.561516009964205e-21
1.5568984535646726 2.39442341485887e-22 9.895338863277083e-15 9.895329939250466e-15 8.924026617773418e-21
1.6043148490894465 2.4307448676357746e-22 1.0351383857757335e-14 1.035136973158677e-14 1.4126170566789187e-20
1.6531753430134553 2.4623663691471545e-22 1.0805404347565802e-14 1.0805382314138025e-14 2.2033427777020406e-20
1.7035239163302658 2.489654741667739e-22 1.1257884604145148e-14 1.1257850732405232e-14 3.387173991620549e-20
1.755405889504358 2.5145997502370164e-22 1.1716984414529145e-14 1.171693306834225e-14 5.1346186894953716e-20
1.8088679632656115 2.536746075854402e-22 1.218016852795262e-14 1.2180091747930318e-14 7.678002230589035e-20
1.8639582606462262 2.555788633452695e-22 1.2645341151378578e-14 1.2645227851281016e-14 1.1330009756376926e-19
1.9207263702978936 2.5719873745829365e-22 1.3113051426736318e-14 1.3112886375647509e-14 1.650510888069768e-19
1.979223391128241 2.5859156169421024e-22 1.3585592912620752e-14 1.3585355458120322e-14 2.3745450042765896e-19
2.039501978296691 2.5982489344042705e-22 1.4066120119538822e-14 1.4065782621187165e-14 3.374983516581463e-19
2.1016163906111602 2.6108594917404246e-22 1.456486219811776e-14 1.456438809598133e-14 4.741021364300239e-19
2.1656225393682647 2.6248316721133386e-22 1.508876357451169e-14 1.508810511178182e-14 6.584627298757585e-19
2.231578038680979 2.640234042627531e-22 1.563953867254536e-14 1.5638634221088682e-14 9.044514566778888e-19
2.299542257339062 2.657704113506602e-22 1.6222487806605602e-14 1.6221258762077582e-14 1.229044528022631e-18
2.369576372248914 2.678648236880508e-22 1.684828999650532e-14 1.6846637199613678e-14 1.6527968916408559e-18
2.4417434235010123 2.7047239480946513e-22 1.753042342666695e-14 1.7528223174472032e-14 2.2002521949189193e-18
2.5161083711144245 2.7387797297131334e-22 1.8291776260975075e-14 1.8288875795817703e-14 2.900465157370001e-18
2.5927381535095444 2.785480031398912e-22 1.9170266090041595e-14 1.9166478678864746e-14 3.787411176851006e-18
2.6717017477616296 2.8503546338629605e-22 2.021418820018821e-14 2.0209288050028585e-14 4.900150159630239e-18
2.753070231689431 2.9417275043090934e-22 2.149755974621682e-14 2.149127662276829e-14 6.2831234485329136e-18
2.836916847834745 3.0785359310591645e-22 2.31824998876089e-14 2.3174513282020868e-14 7.986605588032113e-18
2.9233170693905177 3.302508871088408e-22 2.5626503123556146e-14 2.5616438115470458e-14 1.0065008085689303e-17
2.967498994190263 3.488402540439652e-22 2.7478094170236962e-14 2.7466850005677335e-14 1.1244164559630424e-17
3.0123486681368425 3.7044510989710916e-22 2.962091962184513e-14 2.960837489246848e-14 1.2544729376649938e-17
3.0578761833420214 4.180054208837163e-22 3.392901434670141e-14 3.391503332697969e-14 1.3981019721727694e-17
3.1040917844459814 4.790656087824971e-22 3.94728952594165e-14 3.945734324025505e-14 1.5552019161452297e-17
3.127460860933648 5.433123192481496e-22 4.510356488432946e-14 4.508716853574222e-14 1.639634858722594e-17
3.1510058709225794 6.287748691399882e-22 5.259128966667909e-14 5.2574010889284244e-14 1.7278777394836797e-17
3.162844764501044 7.082282432849555e-22 5.945940401668533e-14 5.944166767992125e-14 1.7736336764057206e-17
3.1747281389236908 8.005524303670834e-22 6.746301628918521e-14 6.744481245741848e-14 1.820383176671804e-17
3.1986289994194426 1.057842510296325e-21 8.981612600165358e-14 8.979695439175965e-14 1.917160989394207e-17
3.2227097969389145 1.6639429489878446e-21 1.4234068912521194e-13 1.4232048956752287e-13 2.019955768908062e-17
3.2348180950136065 2.238524618342091e-21 1.9221229836821288e-13 1.9219154960236316e-13 2.0748765849694125e-17
3.240889293275058 2.668082662638383e-21 2.2952653996596975e-13 2.2950550149082354e-13 2.103847514624313e-17
3.2469718861334385 3.1650438876828552e-21 2.7278953018808687e-13 2.727681919320107e-13 2.1338256076130658e-17
3.2714166318528037 5.814794090526359e-21 5.049398314605675e-13 5.049172523376182e-13 2.2579122949260168e-17
3.2744851364798273 5.9804612383082814e-21 5.198129997606742e-13 5.197902738410923e-13 2.2725919581901772e-17
3.2775565192852394 6.1508783400915544e-21 5.351268714653938e-13 5.351039979620961e-13 2.287350329758007e-17
3.283707930232385 5.987103358011274e-21 5.218560352940004e-13 5.218328967291323e-13 2.31385648680243e-17
3.2898708863219004 5.4675234019636316e-21 4.774621371749297e-13 4.774387563415105e-13 2.33808334190813e-17
3.29141343181113 5.34498594752988e-21 4.66980168887493e-13 4.669567271909923e-13 2.3441696500772088e-17
3.292184975758714 5.284774253912846e-21 4.618278322000196e-13 4.618043600275026e-13 2.34721725168504e-17
3.295272960557952 4.904816553777233e-21 4.290259845999701e-13 4.2900239368425137e-13 2.359091571859704e-17
3.3076538914384823 3.588245011201865e-21 3.1504426775948734e-13 3.1502019936648584e-13 2.4068393001545717e-17
3.310756385682612 3.320211361605349e-21 2.9178461553151186e-13 2.917604266726031e-13 2.418885890875381e-17
3.313861789986515 3.0728781303313934e-21 2.703019390135632e-13 2.7027762924862503e-13 2.430976493818393e-17
3.3200813396944477 2.7260693410579634e-21 2.402453857984573e-13 2.4022081645582283e-13 2.456934263453883e-17
3.345076488085796 2.1078244726141813e-21 1.871586605166838e-13 1.8713293557640046e-13 2.5724940283347093e-17
3.3482140837626964 2.131085829592374e-21 1.8940157808862824e-13 1.8937569664698412e-13 2.5881441644091992e-17
3.3513546224236106 2.1546031027146128e-21 1.9167130463749155e-13 1.916452659290121e-13 2.603870847944185e-17
3.3576445397418455 2.3261742472474136e-21 2.073224792554676e-13 2.0729611192022905e-13 2.6367335238575028e-17
3.3702598118196083 2.9586315597181465e-21 2.6468156894709495e-13 2.6465451216848593e-13 2.7056778608989372e-17
3.382922481734668 3.1029519941883836e-21 2.786355566778278e-13 2.786078276867066e-13 2.772899112113457e-17
3.389271646505754 3.1777101762741747e-21 2.8588416212893313e-13 2.858560919998488e-13 2.8070129084214864e-17
3.395632727569191 3.2583123110821808e-21 2.9368573551952837e-13 2.9365731380771585e-13 2.842171181252821e-17
3.421196662673239 3.6454366299795476e-21 3.31052617398106e-13 3.3102273792046276e-13 2.9879477643174476e-17
3.4276182099114902 3.5677714066370116e-21 3.246077579958668e-13 3.2457755091558606e-13 3.0207080280785737e-17
3.4340518103208963 3.22689151272475e-21 2.9414443820980324e-13 2.9411392016888605e-13 3.051804091716996e-17
3.4469541582030403 2.741331033828535e-21 2.508224602166288e-13 2.5079134306638637e-13 3.111715024243693e-17
3.472904465399547 2.605470732059313e-21 2.401864308897678e-13 2.401539367903449e-13 3.2494099422930376e-17
3.4990501388274233 2.397615558701819e-21 2.2268919579209057e-13 2.2265528735119096e-13 3.3908440899616024e-17
3.5253949054701885 1.6573761643037996e-21 1.5509517756598727e-13 1.550598867416536e-13 3.5290824333595775e-17
3.5519380250092896 9.613302794118836e-22 9.063739900989875e-14 9.060071192848653e-14 3.668708141220586e-17
3.578680990867387 6.8554596324327225e-22 6.512219004838666e-14 6.508397138549958e-14 3.821866288707493e-17
3.605625307711299 5.742343213558728e-22 5.495904437876519e-14 5.491920835467992e-14 3.9836024085277476e-17
3.660119384959845 4.935148967202449e-22 4.794738771228516e-14 4.790413467089833e-14 4.325304138683447e-17
3.715437065384467 4.365022885973999e-22 4.304927753960796e-14 4.300239425004371e-14 4.6883289564248553e-17
3.8285932144167436 4.0862154453683947e-22 4.152693894745446e-14 4.147215429112996e-14 5.478465632449903e-17
3.94519561050918 4.0437250140066555e-22 4.234670161997494e-14 4.228314903371406e-14 6.355258626087648e-17
4.06534921144712 4.098113731463812e-22 4.422331527701089e-14 4.415009826484209e-14 7.321701216879511e-17
4.189162171576248 4.2084699604847296e-22 4.6797304407697067e-14 4.6713467195870526e-14 8.383721182653873e-17
4.316745939156006 4.359474880199769e-22 4.995283048244706e-14 4.985740769949154e-14 9.542278295551588e-17
4.448215356677963 4.545924303603229e-22 5.367566552256075e-14 5.35677940746556e-14 1.0787144790512775e-16
4.58368876423945 4.768342620872236e-22 5.801656440782829e-14 5.789531738510868e-14 1.2124702271961894e-16
4.723288106065518 5.031498938629713e-22 6.308284266836047e-14 6.294716113460865e-14 1.3568153375182448e-16
4.867139040275056 5.344979269261335e-22 6.905405894161627e-14 6.890316535248854e-14 1.508935891277339e-16
4.940699165968905 5.532811654128092e-22 7.256107870328747e-14 7.240222898100943e-14 1.5884972227804258e-16
5.015371051989984 5.726832776172874e-22 7.624072260412754e-14 7.607369607796195e-14 1.6702652616555748e-16
5.091171501069577 5.962539309744223e-22 8.057835837215503e-14 8.040277167931876e-14 1.7558669283626277e-16
5.129500256944802 6.083298664767253e-22 8.28292307493384e-14 8.264928208027167e-14 1.79948669066747e-16
5.168117569889187 6.209029795014939e-22 8.517763192644822e-14 8.499323198977093e-14 1.8439993667729468e-16
5.20702561229733 6.3630379999946e-22 8.794753343191008e-14 8.775831637851761e-14 1.8921705339251287e-16
5.246226572918644 6.520793213360015e-22 9.08064931597503e-14 9.06123886764408e-14 1.941044833094984e-16
5.265937586045735 6.601113260656027e-22 9.227038331376782e-14 9.207380888968935e-14 1.9657442407845096e-16
5.285722656980489 6.682415498569854e-22 9.375777244889147e-14 9.355871067962674e-14 1.9906176926474017e-16
5.305582063971359 6.764715778203614e-22 9.526909149120867e-14 9.506752503433462e-14 2.015664568740393e-16
5.3255160863122235 6.853087869489173e-22 9.687627564268004e-14 9.667217113525632e-14 2.0410450742370675e-16
5.365609099470188 7.0730381550103685e-22 1.007382642949294e-13 1.005289064925117e-13 2.093578024177284e-16
5.406003951863644 7.301109897875843e-22 1.0476945324155032e-13 1.0455476538834418e-13 2.1468785320612368e-16
5.446702915881641 7.5376966949525e-22 1.0897873916799997e-13 1.0875864488862696e-13 2.2009427937304864e-16
5.487708281020852 7.793118964777504e-22 1.1351983620593342e-13 1.1329424051947457e-13 2.2559568645889613e-16
5.529022354014368 8.148201552311641e-22 1.195857803789854e-13 1.1935443979275932e-13 2.3134058622607717e-16
5.570647458961463 8.523822495181307e-22 1.260403222854503e-13 1.2580315201654673e-13 2.3717026890360105e-16
5.612585937458331 8.921462643538419e-22 1.3291331752565413e-13 1.3267023305778668e-13 2.4308446786746904e-16
5.654840148729818 9.358250319749842e-22 1.4047027207263784e-13 1.4022116509272137e-13 2.4910697991647577e-16
5.67608639626678 9.655973231424678e-22 1.454837488334146e-13 1.452314939345032e-13 2.5225489891140786e-16
5.686739436050992 9.809376598516553e-22 1.480724187901607e-13 1.4781858098494146e-13 2.5383780521925846e-16
5.6974124697621304 9.965904533527018e-22 1.5071754709629334e-13 1.5046212042210664e-13 2.554266741867137e-16
5.718818669136295 1.0288635142880384e-21 1.561829155566662e-13 1.55924293262779e-13 2.58622293887195e-16
5.740305295436557 1.0644359475955399e-21 1.6218995627108592e-13 1.6192809401827984e-13 2.61862252806098e-16
5.7835210386641895 1.156759580074494e-21 1.775844185874382e-13 1.7731584374096073e-13 2.685748464774394e-16
5.827062130521658 1.263035952512497e-21 1.9535961682360792e-13 1.9508417455234393e-13 2.7544227126401863e-16
5.8489554468988025 1.3376592551344249e-21 2.0767931612721237e-13 2.0740018202383792e-13 2.791341033744465e-16
5.870931020387893 1.4176934227403644e-21 2.2093205658139585e-13 2.2064919820717616e-13 2.8285837421969116e-16
5.892989160043636 1.5035733131707004e-21 2.351958660938754e-13 2.349092509324612e-13 2.866151614141313e-16
5.915130176081913 1.6012339370301683e-21 2.514134605431673e-13 2.511229549270242e-13 2.905056161431228e-16
5.95966208400165 1.8744255267291287e-21 2.9652359637011265e-13 2.9622432959084255e-13 2.99266779269973e-16
6.004529249263818 2.2681588002042108e-21 3.6151128197395113e-13 3.6120220774542065e-13 3.090742285304302e-16
6.027089341400364 2.5418955560088383e-21 4.0666309731745194e-13 4.0634840873446254e-13 3.146885829893877e-16
6.049734195844842 2.865273381174663e-21 4.6012072124627e-13 4.598000944957751e-13 3.2062675049491697e-16
6.095279466722835 3.799467806630121e-21 6.147320053281857e-13 6.143969664664215e-13 3.350388617642338e-16
6.141167624020661 5.2368788543407714e-21 8.536756858154843e-13 8.533221684321812e-13 3.535173833031585e-16
6.164241091010745 6.154914747971162e-21 1.0070965102987908e-12 1.0067315062022939e-12 3.6500409649684145e-16
6.187401249150058 7.200239948210502e-21 1.1825640798682015e-12 1.1821872483970272e-12 3.768314711740985e-16
6.1990139391386085 7.710636499925486e-21 1.2687681727400848e-12 1.2683853162217755e-12 3.82856518309473e-16
6.204828454712694 7.97945480198469e-21 1.3142331912048983e-12 1.3138472880944902e-12 3.8590311040803194e-16
6.210648424152782 8.175682617713694e-21 1.3478153615910034e-12 1.3474268360627551e-12 3.885255282481334e-16
6.233982942956859 8.842186256658527e-21 1.4631697087484418e-12 1.4627719255668982e-12 3.9778318154344974e-16
6.239830258556775 8.927293957028213e-21 1.4786386167926044e-12 1.4782394633941466e-12 3.991533984574255e-16
6.245683058788269 8.934532999782963e-21 1.481225677916991e-12 1.4808251508255457e-12 4.0052709144563844e-16
6.257405133728602 8.915899126011719e-21 1.4809106400346387e-12 1.480507657960871e-12 4.029820737679734e-16
6.269149208991335 8.784414689737134e-21 1.461809799630202e-12 1.4614056725133962e-12 4.0412711680583317e-16
6.280915325867298 8.455158677614379e-21 1.4096592130555233e-12 1.4092555647845237e-12 4.0364827099951154e-16
6.304513850009849 7.643371441084315e-21 1.2791044253457918e-12 1.27870320840581e-12 4.0121693998153656e-16
6.32820103803542 6.637482869471702e-21 1.1149441519203764e-12 1.114546934301869e-12 3.972176185074311e-16
6.3519772230701035 5.715071316675511e-21 9.63607162326955e-13 9.63213447233404e-13 3.937150935510799e-16
6.375842739491607 4.938904063334098e-21 8.358678473175156e-13 8.354771290537867e-13 3.907182637287605e-16
6.399797922933955 4.317016935623172e-21 7.33363762634288e-13 7.329741625003227e-13 3.89600133965123e-16
6.42384311029221 3.7998311698037485e-21 6.479308515451967e-13 6.475419957788093e-13 3.8885576638735547e-16
6.447978639727206 3.422988202086981e-21 5.85866175946439e-13 5.854765886956285e-13 3.89587250810498e-16
6.472204850670314 3.108972773522693e-21 5.34119712334681e-13 5.337290949827412e-13 3.9061735193966323e-16
6.496522083828205 2.9048722666153493e-21 5.009304044942943e-13 5.005375512313037e-13 3.92853262990762e-16
