Dust emission spectrum from A.P. Jones, M. Kohler, N. Ysard, M. Bocchio, and L. Verstraete (2017), A&A, 602A, 46J 
inside the DustPedia framework.

lambda    nu*dP/dnu     j_nu    j_nu(carb.) j_nu(sil)
 (um)   (erg s-1 H-1) (Jy cm2 sr-1 H-1)
0.9927057738263894 9.420959240500423e-21 2.4824762698520885e-13 2.4824742712744553e-13 1.9985776340229056e-19
1.0001793341362166 9.578894706745638e-21 2.543095733793663e-13 2.543093329487408e-13 2.4043062542694137e-19
1.0077091589558085 9.737540796919097e-21 2.604677323837644e-13 2.6046744353246275e-13 2.8885130173370547e-19
1.0114953028030835 9.817125066684313e-21 2.6358313990544457e-13 2.635828234611246e-13 3.164443199924435e-19
1.0152956718711033 9.896880850942756e-21 2.6672290319971415e-13 2.667225566432389e-13 3.465564753064456e-19
1.0229392996569957 1.0056821626509397e-20 2.7307380648148435e-13 2.730733912460496e-13 4.1523543478738174e-19
1.0267826658714554 1.0136826387761167e-20 2.762803323751575e-13 2.7627987806632217e-13 4.543088353404339e-19
1.0306404723013447 1.0216991738351047e-20 2.7951149176058043e-13 2.795109948687144e-13 4.968918660805324e-19
1.03451277320114 1.0297316196584935e-20 2.8276740029679343e-13 2.8276685701321126e-13 5.432835822755898e-19
1.0383996230291617 1.0377798386226227e-20 2.8604817682725443e-13 2.8604758302021533e-13 5.938070390693171e-19
1.0403485208654093 1.0418098229871615e-20 2.876979286344931e-13 2.8769730790836585e-13 6.207261272825716e-19
1.0423010764483396 1.0458437039688854e-20 2.8935394352175104e-13 2.8935329471066194e-13 6.488110891974033e-19
1.0462171883269815 1.0539231001274771e-20 2.926848260221344e-13 2.9268411734982937e-13 7.086723048942755e-19
1.0471985131304309 1.055945363405078e-20 2.9352148605821747e-13 2.935207616147429e-13 7.244434746339917e-19
1.048180758391296 1.0579685892859692e-20 2.943597259487505e-13 2.9435898539863963e-13 7.405501108133238e-19
1.0501480137395462 1.0620179230456968e-20 2.960409535919681e-13 2.960401797949364e-13 7.73797031768568e-19
1.0521189612883777 1.0660710902542502e-20 2.9772852570083654e-13 2.9772771723196366e-13 8.084688729865816e-19
1.0531058218030118 1.0680964585997126e-20 2.9857395558711255e-13 2.985731292287375e-13 8.263583750116872e-19
1.0540936079674168 1.0701141015805619e-20 2.994185479545519e-13 2.994177033244305e-13 8.446301213555385e-19
1.058054026499678 1.0781938495118792e-20 3.0281272917502956e-13 3.0281180752008326e-13 9.216549463423766e-19
1.0590464539527713 1.0802160754176072e-20 3.0366523831374285e-13 3.036642963783064e-13 9.419354364497556e-19
1.06003981227728 1.0822392150367294e-20 3.045193374021019e-13 3.0451837476000304e-13 9.626420987710396e-19
1.0620293250338977 1.0862882321105606e-20 3.06232314394768e-13 3.0623130902666265e-13 1.005368105343878e-18
1.0660195594769086 1.0943971973628037e-20 3.0967744737744527e-13 3.0967635105833323e-13 1.0963191120466145e-18
1.070024785945596 1.1025207065762999e-20 3.131482763397554e-13 3.131470812398813e-13 1.195099874078631e-18
1.0740450607676866 1.1106587347379706e-20 3.1664495412707386e-13 3.166436517793394e-13 1.302347734400391e-18
1.07808044048254 1.1188112708773181e-20 3.201676383938367e-13 3.2016621964512385e-13 1.4187487129299039e-18
1.0861967418109137 1.1351475833523622e-20 3.272881322402501e-13 3.27286450221636e-13 1.6820186140037433e-18
1.0902777775684922 1.1433034219527673e-20 3.308781559197804e-13 3.308763253841442e-13 1.8305356361917008e-18
1.0943741465085532 1.1514733958470798e-20 3.3449464239498423e-13 3.34492650885745e-13 1.991509239335771e-18
1.1026131145906286 1.1678560350020295e-20 3.418077426035749e-13 3.418053877606988e-13 2.354842876095424e-18
1.1109141095355224 1.184296238560706e-20 3.4922897209874865e-13 3.492261912850547e-13 2.78081369378333e-18
1.1192775983109025 1.2007823645761348e-20 3.5675621342142086e-13 3.567529338688794e-13 3.279552541383443e-18
1.1277040513999907 1.2172575539526913e-20 3.6437372468806937e-13 3.643698619744385e-13 3.8627136308394804e-18
1.1361939428280308 1.233792367951978e-20 3.721036946278928e-13 3.7209915094235326e-13 4.5436855394731345e-18
1.1447477501889525 1.2503887505325863e-20 3.7994811085968134e-13 3.7994277303185165e-13 5.3378278296078175e-18
1.1533659546722406 1.2670546047147159e-20 3.879108188454663e-13 3.879045560992205e-13 6.262746246041825e-18
1.1707974979042381 1.3006516119165809e-20 4.042147919778629e-13 4.0420620354948985e-13 8.588428373029762e-18
1.1884924949847024 1.3345603551529834e-20 4.2102132733324464e-13 4.2100960884576053e-13 1.1718487484114744e-17
1.2064549276569216 1.3690237359530487e-20 4.3842116583152255e-13 4.384052558262632e-13 1.5910005259374848e-17
1.2246888378427687 1.4038547955314084e-20 4.563703096363191e-13 4.56348815165103e-13 2.1494471215974027e-17
1.2431983285522175 1.439055979470615e-20 4.748840017495667e-13 4.748551039557062e-13 2.8897793860400376e-17
1.2619875648066055 1.4747135716239406e-20 4.940059566589147e-13 4.939672922407814e-13 3.866441813328042e-17
1.3004222497298317 1.547364610272332e-20 5.341294012558572e-13 5.340611636767353e-13 6.823757912204226e-17
1.3400274889804893 1.6224328116178892e-20 5.770983881318317e-13 5.769801733520698e-13 1.1821477976186476e-16
1.3808389325824078 1.700734362551479e-20 6.23374370968987e-13 6.23173247970374e-13 2.011229986130848e-16
1.4228933163050095 1.783602221088043e-20 6.736584736206743e-13 6.733222641258178e-13 3.362094948564914e-16
1.466228494730424 1.8732604514099068e-20 7.290700412902931e-13 7.285175381633231e-13 5.525031269699525e-16
1.5108834753276823 1.9708532993916075e-20 7.904141440022428e-13 7.895211919038166e-13 8.9295209842603e-16
1.5568984535646726 2.0779783391490543e-20 8.587578825377287e-13 8.573370213441089e-13 1.4208611936197245e-15
1.6043148490894465 2.1972291155523838e-20 9.356951567132308e-13 9.33465060663641e-13 2.230096049589879e-15
1.6531753430134553 2.3317651061894613e-20 1.0232297326513764e-12 1.0197812940036244e-12 3.448438647752092e-15
1.7035239163302658 2.485483984501446e-20 1.1239024999998353e-12 1.1186477865917947e-12 5.254713408040574e-15
1.755405889504358 2.664149827618071e-20 1.2413825303700585e-12 1.2334881223874332e-12 7.89440798262522e-15
1.8088679632656115 2.872710408219815e-20 1.3793298918314437e-12 1.3676325641101991e-12 1.1697327721244805e-14
1.8639582606462262 3.117029976584404e-20 1.5422209378768222e-12 1.5251199311198192e-12 1.7101006757002786e-14
1.9207263702978936 3.404397421854913e-20 1.7357020843491109e-12 1.7110254277386932e-12 2.4676656610417682e-14
1.979223391128241 3.743438450026235e-20 1.9666856312831915e-12 1.9315258338143223e-12 3.5159797468868324e-14
2.039501978296691 4.143896668602652e-20 2.243378127926996e-12 2.193895330866208e-12 4.948279706078798e-14
2.1016163906111602 4.6177008843770863e-20 2.5760167203883173e-12 2.5072011470871218e-12 6.881557330119501e-14
2.1656225393682647 5.177378606064412e-20 2.9762000570399866e-12 2.8816002053308994e-12 9.459985170908734e-14
2.231578038680979 5.835527673667081e-20 3.456699643043732e-12 3.328112443978152e-12 1.2858719906558066e-13
2.299542257339062 6.60632803741952e-20 4.032468305588475e-12 3.859590847799216e-12 1.7287745778925853e-13
2.369576372248914 7.505233993239164e-20 4.7206780296387195e-12 4.490719585089976e-12 2.299584445487436e-13
2.4417434235010123 8.548421279174951e-20 5.540581868217428e-12 5.237850209614562e-12 3.027316586028658e-13
2.5161083711144245 9.75337967920182e-20 6.5140922778403685e-12 6.119544006001659e-12 3.9454827183871e-13
2.5927381535095444 1.1138458617699196e-19 7.665724152650763e-12 7.156500837132776e-12 5.092233155179898e-13
2.6717017477616296 1.2721220941681283e-19 9.021654751178033e-12 8.370641430728538e-12 6.510133204494958e-13
2.753070231689431 1.4518920819658985e-19 1.0610138679194776e-11 9.785532920786914e-12 8.246057584078652e-13
2.836916847834745 1.6552538169373047e-19 1.2464665764648441e-11 1.142953926839269e-11 1.035126496255749e-12
2.9233170693905177 1.8847420744560582e-19 1.4625047363529975e-11 1.3337232122124303e-11 1.287815241405671e-12
2.967498994190263 2.0086477154782877e-19 1.5822087743860984e-11 1.4393371506353803e-11 1.428716237507177e-12
3.0123486681368425 2.140072323679238e-19 1.7112092612653145e-11 1.5529080632779005e-11 1.5830119798741334e-12
3.0578761833420214 2.289275116947345e-19 1.8581780141090706e-11 1.6829499214939664e-11 1.7522809261510392e-12
3.1040917844459814 2.4489360578576407e-19 2.017815404334547e-11 1.8242394150221465e-11 1.935759893123997e-12
3.127460860933648 2.544104577120845e-19 2.11201148587025e-11 1.9086400854257454e-11 2.033714004445046e-12
3.1510058709225794 2.6483112272384894e-19 2.2150710805238847e-11 2.0015100431265832e-11 2.135610373973021e-12
3.162844764501044 2.7154814612741245e-19 2.2797863659999994e-11 2.060960091401175e-11 2.1882627459882518e-12
3.1747281389236908 2.787104488829733e-19 2.348709071351695e-11 2.1245160577788716e-11 2.2419301357282345e-12
3.1986289994194426 2.95683184214261e-19 2.510498289818112e-11 2.2752345930777845e-11 2.3526369674032692e-12
3.2227097969389145 3.256880140992448e-19 2.786072466902044e-11 2.5390987910255686e-11 2.4697367587647493e-12
3.2348180950136065 3.506657867821279e-19 3.0110134275141604e-11 2.7577958163980773e-11 2.5321761111608382e-12
3.240889293275058 3.684224368885062e-19 3.169419312564637e-11 2.9129081331998703e-11 2.565111793647663e-12
3.2469718861334385 3.886922926985868e-19 3.3500700677678074e-11 3.090151024925797e-11 2.599190428420102e-12
3.2714166318528037 4.920817746833648e-19 4.273095220658853e-11 3.999110266728496e-11 2.739849539303568e-12
3.2744851364798273 4.990071918755993e-19 4.3372979938313325e-11 4.061660288728422e-11 2.756377051029118e-12
3.2775565192852394 5.060909086283342e-19 4.402994656001078e-11 4.1256963811666026e-11 2.772982748344744e-12
3.283707930232385 5.020882380843855e-19 4.3763697004472877e-11 4.096111718742512e-11 2.8025798170477593e-12
3.2898708863219004 4.852258325011963e-19 4.237329151902671e-11 3.954386788776997e-11 2.8294236312567396e-12
3.29141343181113 4.812628040429871e-19 4.204691793719749e-11 3.9210755967768516e-11 2.836161969428973e-12
3.292184975758714 4.793176072833936e-19 4.1886786619711045e-11 3.904725137065199e-11 2.8395352490590408e-12
3.295272960557952 4.667480349098239e-19 4.0826610545317285e-11 3.797397111288271e-11 2.8526394324345636e-12
3.3076538914384823 4.232506003404619e-19 3.716097285629941e-11 3.425574559418414e-11 2.90522726211528e-12
3.310756385682612 4.1444010194659617e-19 3.642155050901905e-11 3.350307723099811e-11 2.9184732780209505e-12
3.313861789986515 4.063316227537425e-19 3.574246060354481e-11 3.2810701664289155e-11 2.931758939255655e-12
3.3200813396944477 3.9565676043704185e-19 3.486877961001351e-11 3.190840172425659e-11 2.9603778857569236e-12
3.345076488085796 3.8202568770013676e-19 3.392095353378597e-11 3.083292073162082e-11 3.088032802165144e-12
3.3482140837626964 3.8403156657197494e-19 3.4131044247285364e-11 3.102571334284926e-11 3.1053309044361084e-12
3.3513546224236106 3.860485520334926e-19 3.434248726758422e-11 3.1219785177443355e-11 3.1227020901408674e-12
3.3576445397418455 3.9468491721019437e-19 3.5176666433128683e-11 3.201762873183182e-11 3.159037701296851e-12
3.3702598118196083 4.2230328589109577e-19 3.777959303990427e-11 3.4544347173453635e-11 3.2352458664506255e-12
3.382922481734668 4.323343891930498e-19 3.8822299999933746e-11 3.551313544591554e-11 3.3091645540182086e-12
3.389271646505754 4.374501887751468e-19 3.935540806234187e-11 3.6008806537122773e-11 3.3466015252190962e-12
3.395632727569191 4.429393039503559e-19 3.992402902224041e-11 3.6538846149621706e-11 3.3851828726187057e-12
3.421196662673239 4.679477072271643e-19 4.249568131537222e-11 3.895095415661631e-11 3.544727158755918e-12
3.4276182099114902 4.672363309420672e-19 4.2510721835814704e-11 3.893055876126512e-11 3.580163074549582e-12
3.4340518103208963 4.565526942067683e-19 4.161665653185439e-11 3.800305948447459e-11 3.6135970473798026e-12
3.4469541582030403 4.42251797605439e-19 4.0464534396527414e-11 3.6786931439943546e-11 3.677602956583877e-12
3.472904465399547 4.457128954216192e-19 4.108823339890275e-11 3.7262930763973255e-11 3.8253026349294896e-12
3.4990501388274233 4.466999294681896e-19 4.1489240296519955e-11 3.7513162204685866e-11 3.976078091834098e-12
3.5253949054701885 4.2822748512976993e-19 4.007298962980843e-11 3.5951028258431613e-11 4.121961371376819e-12
3.5519380250092896 4.109836867690588e-19 3.874890160230394e-11 3.448079090881676e-11 4.268110693487186e-12
3.578680990867387 4.1005980023363755e-19 3.895288379452139e-11 3.4524644986811723e-11 4.428238807709664e-12
3.605625307711299 4.1559287296889366e-19 3.977572621410913e-11 3.517912573618799e-11 4.596600477921133e-12
3.660119384959845 4.323396501083535e-19 4.2003913083275666e-11 3.7054902222208723e-11 4.949010861066943e-12
3.715437065384467 4.502739762797324e-19 4.440748623796453e-11 3.90888580486921e-11 5.318628189272427e-12
3.8285932144167436 4.904628937870482e-19 4.984422118361984e-11 4.3737800535772255e-11 6.106420647847581e-12
3.94519561050918 5.326600047482084e-19 5.578122698214139e-11 4.8825605063152083e-11 6.95562191898931e-12
4.06534921144712 5.760253079029157e-19 6.215969216117606e-11 5.429674397387397e-11 7.862948187302094e-12
4.189162171576248 6.2007989477503e-19 6.895158541071672e-11 6.012376053407672e-11 8.827824876639978e-12
4.316745939156006 6.643692358937263e-19 7.61264251552045e-11 6.628239043151023e-11 9.844034723694273e-12
4.448215356677963 7.083772132633472e-19 8.364111635732537e-11 7.274663888366331e-11 1.0894477473662051e-11
4.58368876423945 7.517549143374247e-19 9.146624073456496e-11 7.948810603888528e-11 1.1978134695679697e-11
4.723288106065518 7.942070220324761e-19 9.957437580345857e-11 8.647468067629999e-11 1.3099695127158599e-11
4.867139040275056 8.351558994375661e-19 1.0789734028878701e-10 9.367277587997079e-11 1.4224564408816212e-11
4.940699165968905 8.550573661363874e-19 1.1213807503054339e-10 9.734676798728157e-11 1.4791307043261837e-11
5.015371051989984 8.744146841047242e-19 1.1640990749577223e-10 1.0105115880972866e-10 1.535874868604355e-11
5.091171501069577 8.934942972219455e-19 1.2074772164162916e-10 1.048076533460897e-10 1.5940068295539438e-11
5.129500256944802 9.027947905346358e-19 1.229231082432067e-10 1.0669298085821146e-10 1.6230127384995248e-11
5.168117569889187 9.11971417859656e-19 1.2510741343238144e-10 1.0858436190457678e-10 1.652305152780467e-11
5.20702561229733 9.213484942410397e-19 1.273453458863088e-10 1.104996682640487e-10 1.6845677622260065e-11
5.246226572918644 9.30557098062516e-19 1.295864229935145e-10 1.1241775930345946e-10 1.7168663690055045e-11
5.265937586045735 9.350965456013472e-19 1.3070782653022024e-10 1.1337759103368599e-10 1.7330235496534272e-11
5.285722656980489 9.395918813890206e-19 1.3182963829314592e-10 1.1433780866711894e-10 1.7491829626026965e-11
5.305582063971359 9.440424610066744e-19 1.3295173151105236e-10 1.1529830819592662e-10 1.7653423315125757e-11
5.3255160863122235 9.484882695777003e-19 1.3407972113789207e-10 1.1626322169355492e-10 1.7816499444337173e-11
5.365609099470188 9.575527230038128e-19 1.363801483496253e-10 1.1822599819021304e-10 1.8154150159412275e-11
5.406003951863644 9.664390393590806e-19 1.3868205130619696e-10 1.2019002012818382e-10 1.8492031178013166e-11
5.446702915881641 9.751428143505788e-19 1.4098449263396748e-10 1.2215453298870253e-10 1.8829959645265007e-11
5.487708281020852 9.837289020634071e-19 1.4329659836839024e-10 1.2412716398596164e-10 1.9169434382428632e-11
5.529022354014368 9.927285517416407e-19 1.4569622241468033e-10 1.2617288634505455e-10 1.9523336069625812e-11
5.570647458961463 1.0015591306515203e-18 1.4809885551537163e-10 1.2822149234503764e-10 1.9877363170333933e-11
5.612585937458331 1.0102187005133394e-18 1.5050392999059695e-10 1.3027259980639079e-10 2.0231330184206152e-11
5.654840148729818 1.0188047680448603e-18 1.5292579068347442e-10 1.3233869664736502e-10 2.0587094036109364e-11
5.67608639626678 1.0234656422113801e-18 1.5420260067264176e-10 1.3342889445594332e-10 2.0773706216698415e-11
5.686739436050992 1.0257846256858831e-18 1.5484206275252838e-10 1.339750320339775e-10 2.086703071855086e-11
5.6974124697621304 1.0280960660819237e-18 1.5548224121346004e-10 1.3452187765281185e-10 2.0960363560648173e-11
5.718818669136295 1.0326966208726563e-18 1.5676478647901039e-10 1.3561774404869166e-10 2.114704243031875e-11
5.740305295436557 1.0373871676052607e-18 1.580684866291413e-10 1.3673317280248203e-10 2.1335313826659214e-11
5.7835210386641895 1.047636522707824e-18 1.6083197060192353e-10 1.3910780910128826e-10 2.1724161500635286e-11
5.827062130521658 1.0581016749147265e-18 1.636614835552066e-10 1.4154433125487855e-10 2.2117152300328085e-11
5.8489554468988025 1.0643588293370628e-18 1.6524784839055904e-10 1.429170523727904e-10 2.233079601776859e-11
5.870931020387893 1.0706764425722106e-18 1.6685324527604323e-10 1.4430848611146443e-10 2.2544759164578835e-11
5.892989160043636 1.0770627580937494e-18 1.6847911971323885e-10 1.4572010231947239e-10 2.2759017393766466e-11
5.915130176081913 1.083872868566229e-18 1.7018139721700833e-10 1.4719980724126888e-10 2.298158997573946e-11
5.95966208400165 1.100985590676426e-18 1.7416974013832027e-10 1.5067298904761406e-10 2.3496751090706256e-11
6.004529249263818 1.1228268952155727e-18 1.78962156568432e-10 1.548811345517307e-10 2.4081022016701308e-11
6.027089341400364 1.1369736689145363e-18 1.818978095603409e-10 1.5747521879991033e-10 2.4422590760430537e-11
6.049734195844842 1.152777855643138e-18 1.851191519316026e-10 1.6033386969518873e-10 2.4785282236413844e-11
6.095279466722835 1.1959959053263008e-18 1.9350524827781733e-10 1.6781506455803394e-10 2.5690183719783362e-11
6.141167624020661 1.2579231154492565e-18 2.0505694482395557e-10 1.7817573210820212e-10 2.6881212715753397e-11
6.164241091010745 1.2968566503779856e-18 2.121978712026781e-10 1.8456119483837186e-10 2.7636676364306215e-11
6.187401249150058 1.338656187352197e-18 2.1986027324679164e-10 1.9144940194659282e-10 2.8410871300198796e-11
6.1990139391386085 1.3588440645105118e-18 2.2359478374896456e-10 1.9479025712087998e-10 2.8804526628084545e-11
6.204828454712694 1.3692630890254985e-18 2.2552054541890123e-10 1.9651735328108895e-10 2.9003192137812265e-11
6.210648424152782 1.3768494435972564e-18 2.2698273862266925e-10 1.9781202118207262e-10 2.9170717440596637e-11
6.233982942956859 1.401760968887811e-18 2.3195781326569705e-10 2.0221037053091736e-10 2.974744273477968e-11
6.239830258556775 1.4044649081653142e-18 2.3262324049589372e-10 2.028013256678525e-10 2.9821914828041203e-11
6.245683058788269 1.404315969124518e-18 2.3281674301574026e-10 2.029202944722983e-10 2.989644854344194e-11
6.257405133728602 1.4026684634633015e-18 2.3298005311922263e-10 2.02956386551746e-10 3.002366656747666e-11
6.269149208991335 1.3965021262349977e-18 2.3239117976974975e-10 2.0233647888103942e-10 3.0054700888710385e-11
6.280915325867298 1.3826801166236527e-18 2.3052290789853725e-10 2.0055589520434323e-10 2.996701269419399e-11
6.304513850009849 1.3491459880597602e-18 2.2577714782888353e-10 1.9609258037232892e-10 2.968456745655464e-11
6.32820103803542 1.3095143666497272e-18 2.1996823399229917e-10 1.906799888146812e-10 2.9288245177617997e-11
6.3519772230701035 1.2738540706713296e-18 2.1478208026497234e-10 1.8585353337907415e-10 2.8928546885898104e-11
6.375842739491607 1.2430760295302605e-18 2.1038013120547139e-10 1.8177353137247145e-10 2.860659983299984e-11
6.399797922933955 1.2202474662418566e-18 2.0729250927965264e-10 1.7887330130027293e-10 2.841920797937975e-11
6.42384311029221 1.2007638189448656e-18 2.0474907672116165e-10 1.7649024342227846e-10 2.8258833298883235e-11
6.447978639727206 1.1874894322720101e-18 2.0324636007738478e-10 1.7504343922806396e-10 2.820292084932081e-11
6.472204850670314 1.176270359483765e-18 2.0208256289211743e-10 1.7391492633408195e-10 2.8167636558035454e-11
