Dust emission spectrum from A.P. Jones, M. Kohler, N. Ysard, M. Bocchio, and L. Verstraete (2017), A&A, 602A, 46J 
inside the DustPedia framework.

lambda    nu*dP/dnu     j_nu    j_nu(carb.) j_nu(sil)
 (um)   (erg s-1 H-1) (Jy cm2 sr-1 H-1)
0.9927057738263894 7.089434528352771e-21 1.8681062654051933e-13 1.868106265405193e-13 5.835130173201422e-29
1.0001793341362166 7.206607633706222e-21 1.9132784824847126e-13 1.9132784824847118e-13 7.032521739614362e-29
1.0077091589558085 7.32361504095001e-21 1.958980652662756e-13 1.9589806526627548e-13 8.465014543064546e-29
1.0114953028030835 7.382042199687591e-21 1.9820281892011468e-13 1.9820281892011458e-13 9.282847338556805e-29
1.0152956718711033 7.440410689626695e-21 2.0052054480845618e-13 2.005205448084561e-13 1.017648456640015e-28
1.0229392996569957 7.556891616769586e-21 2.0519297603128885e-13 2.0519297603128875e-13 1.2218689098180072e-28
1.0267826658714554 7.614862843104048e-21 2.075439350351426e-13 2.0754393503514245e-13 1.3382793388267755e-28
1.0306404723013447 7.672749772586823e-21 2.0990735724990657e-13 2.0990735724990642e-13 1.4653160550057018e-28
1.03451277320114 7.73054681954062e-21 2.1228314109254082e-13 2.1228314109254072e-13 1.6039029041997578e-28
1.0383996230291617 7.788248429194983e-21 2.1467118370749858e-13 2.1467118370749835e-13 1.755039718670254e-28
1.0403485208654093 7.817061717882844e-21 2.1586976957027613e-13 2.1586976957027596e-13 1.8356490230195622e-28
1.0423010764483396 7.845849078751648e-21 2.170713809910575e-13 2.1707138099105727e-13 1.9198081828521942e-28
1.0462171883269815 7.903343278426493e-21 2.1948362761568387e-13 2.1948362761568365e-13 2.0993781198059416e-28
1.0471985131304309 7.917699555443179e-21 2.2008855952376013e-13 2.200885595237599e-13 2.1467293552199343e-28
1.048180758391296 7.932048753279104e-21 2.2069423618740797e-13 2.2069423618740772e-13 2.1951049584140267e-28
1.0501480137395462 7.96072557246787e-21 2.2190781705441612e-13 2.2190781705441597e-13 2.295014226013685e-28
1.0521189612883777 7.989373059504647e-21 2.2312435671743114e-13 2.231243567174309e-13 2.3992800168328257e-28
1.0531058218030118 8.003663608341998e-21 2.2373311731266285e-13 2.2373311731266262e-13 2.4531062847056083e-28
1.0540936079674168 8.0178745437407e-21 2.2434059601894448e-13 2.2434059601894422e-13 2.5081016314025783e-28
1.058054026499678 8.074637773201759e-21 2.2677768958800478e-13 2.267776895880045e-13 2.7401472107818455e-28
1.0590464539527713 8.088808037409047e-21 2.273887489967546e-13 2.273887489967543e-13 2.8012993000824504e-28
1.06003981227728 8.102969918831474e-21 2.2800051932954406e-13 2.2800051932954375e-13 2.863759225043128e-28
1.0620293250338977 8.131268203498728e-21 2.292261857687665e-13 2.292261857687662e-13 2.9927097099268655e-28
1.0660195594769086 8.187760560016214e-21 2.3168597252200174e-13 2.3168597252200144e-13 3.2675124397871196e-28
1.070024785945596 8.24410960792633e-21 2.3415693676130387e-13 2.3415693676130346e-13 3.5664152731790783e-28
1.0740450607676866 8.300310153049826e-21 2.366389643775692e-13 2.366389643775688e-13 3.891424768607649e-28
1.07808044048254 8.356357042693624e-21 2.3913194026343465e-13 2.391319402634342e-13 4.244704988552381e-28
1.0861967418109137 8.467870457412986e-21 2.4414741719084507e-13 2.4414741719084457e-13 5.045592221370343e-28
1.0902777775684922 8.523101763545796e-21 2.466631464656954e-13 2.466631464656948e-13 5.498424742464123e-28
1.0943741465085532 8.578155295855024e-21 2.4918916915009015e-13 2.4918916915008965e-13 5.990002869143818e-28
1.1026131145906286 8.687709465923517e-21 2.542716115636518e-13 2.542716115636511e-13 7.102201097023364e-28
1.1109141095355224 8.796494293654673e-21 2.5939376992187085e-13 2.5939376992187004e-13 8.410296658300852e-28
1.1192775983109025 8.904370923763498e-21 2.645516579337012e-13 2.645516579337003e-13 9.946806088324694e-28
1.1277040513999907 9.010838516887209e-21 2.697303280065343e-13 2.6973032800653313e-13 1.1749294165669925e-27
1.1361939428280308 9.116411034802682e-21 2.749449839301165e-13 2.749449839301151e-13 1.3861092170312327e-27
1.1447477501889525 9.221053260138223e-21 2.8019460066589253e-13 2.801946006658909e-13 1.633212513819106e-27
1.1533659546722406 9.324787784139415e-21 2.8547988787903507e-13 2.854798878790332e-13 1.921986581936217e-27
1.1707974979042381 9.52986840294298e-21 2.961679929336117e-13 2.96167992933609e-13 2.651962755593696e-27
1.1884924949847024 9.730876347471989e-21 3.069854772854161e-13 3.069854772854125e-13 3.6413351301931674e-27
1.2064549276569216 9.929382154270192e-21 3.179821639126896e-13 3.179821639126847e-13 4.9757535166376446e-27
1.2246888378427687 1.0123218958720644e-20 3.2908934637779154e-13 3.2908934637778477e-13 6.76667498990366e-27
1.2431983285522175 1.0311933181077896e-20 3.402905908223151e-13 3.4029059082230595e-13 9.158658396066674e-27
1.2619875648066055 1.0495453945190515e-20 3.515812742574783e-13 3.5158127425746604e-13 1.2338238533091593e-26
1.3004222497298317 1.0843865038257675e-20 3.7431560097296746e-13 3.7431560097294524e-13 2.2083944543894468e-26
1.3400274889804893 1.1167086404165797e-20 3.9721260059740254e-13 3.972126005973636e-13 3.881900918452949e-26
1.3808389325824078 1.1463916868337999e-20 4.201897794268064e-13 4.201897794267393e-13 6.704370285164151e-26
1.4228933163050095 1.1735795696077394e-20 4.4325568346291716e-13 4.432556834628033e-13 1.1382404289810012e-25
1.466228494730424 1.1989255023193623e-20 4.666199325470584e-13 4.666199325468683e-13 1.9006216403505922e-25
1.5108834753276823 1.2219369924555339e-20 4.900599563724832e-13 4.900599563721709e-13 3.122804261203184e-25
1.5568984535646726 1.2422154213098008e-20 5.133654498518801e-13 5.133654498513746e-13 5.054085200901246e-25
1.6043148490894465 1.2597973798113921e-20 5.364876600195565e-13 5.364876600187492e-13 8.07218822138473e-25
1.6531753430134553 1.2747358469234405e-20 5.593820820057408e-13 5.593820820044698e-13 1.2709757608116362e-24
1.7035239163302658 1.2872075979000168e-20 5.820580000996462e-13 5.820580000976725e-13 1.9734492107516834e-24
1.755405889504358 1.2982358747058228e-20 6.049236865181811e-13 6.049236865151575e-13 3.0236133826250043e-24
1.8088679632656115 1.3075676535556746e-20 6.278276936584405e-13 6.278276936538669e-13 4.573610978687316e-24
1.8639582606462262 1.3150314306154805e-20 6.506414829168998e-13 6.506414829100657e-13 6.834117242419967e-24
1.9207263702978936 1.3207510676987837e-20 6.733733160513452e-13 6.73373316041251e-13 1.0094114389405885e-23
1.979223391128241 1.3250152685899721e-20 6.961216338279783e-13 6.961216338132307e-13 1.4747522842531408e-23
2.039501978296691 1.328169634223457e-20 7.19030165537028e-13 7.190301655156994e-13 2.132832338815646e-23
2.1016163906111602 1.3311826995662424e-20 7.426095751623983e-13 7.426095751318376e-13 3.0560643420168855e-23
2.1656225393682647 1.3346160200606984e-20 7.671998857449818e-13 7.671998857015578e-13 4.342369062009846e-23
2.231578038680979 1.3385096561418818e-20 7.928718891137923e-13 7.928718890525482e-13 6.124380245663339e-23
2.299542257339062 1.3431998151616039e-20 8.198821875074728e-13 8.198821874216474e-13 8.582549905032645e-23
2.369576372248914 1.3494301145051733e-20 8.487710176412668e-13 8.487710175216264e-13 1.1964015659575296e-22
2.4417434235010123 1.3580786733714567e-20 8.80226398250333e-13 8.802263980842434e-13 1.660900108590033e-22
2.5161083711144245 1.3706494579749108e-20 9.154300707538058e-13 9.154300705239083e-13 2.298974874052583e-22
2.5927381535095444 1.389603674100714e-20 9.563548074990712e-13 9.563548071814153e-13 3.1765573941199618e-22
2.6717017477616296 1.4178797133270023e-20 1.0055340844229459e-12 1.0055340839843634e-12 4.385826655612223e-22
2.753070231689431 1.4599016816754513e-20 1.0668671241455277e-12 1.066867123539936e-12 6.055917910570867e-22
2.836916847834745 1.5256927772730763e-20 1.1489023818373964e-12 1.1489023810005261e-12 8.368705230937683e-22
2.9233170693905177 1.6373282132606052e-20 1.2705188149148278e-12 1.2705188137569412e-12 1.1578866285981215e-21
2.967498994190263 1.732131950696042e-20 1.364397723735848e-12 1.3643977223741675e-12 1.361680337170724e-21
3.0123486681368425 1.8428510775502875e-20 1.473550120780626e-12 1.4735501191780118e-12 1.6026143545775199e-21
3.0578761833420214 2.090588977868951e-20 1.696906783486517e-12 1.6969067815975861e-12 1.88893092284405e-21
3.1040917844459814 2.4098215781373747e-20 1.9855867965443007e-12 1.985586794316725e-12 2.2275751892716876e-21
3.127460860933648 2.7475301527769746e-20 2.2808870722629017e-12 2.280887069841014e-12 2.4218890487753832e-21
3.1510058709225794 3.1974767686083194e-20 2.6743980269179415e-12 2.674398024283428e-12 2.6345140078487898e-21
3.162844764501044 3.616313144721973e-20 3.0360809013424053e-12 3.0360808985911004e-12 2.751306551774358e-21
3.1747281389236908 4.103381232315676e-20 3.4579430954886222e-12 3.457943092615183e-12 2.8734397164253624e-21
3.1986289994194426 5.461943876968746e-20 4.6374638445033324e-12 4.637463841364726e-12 3.1386083061892904e-21
3.2227097969389145 8.66441848453861e-20 7.411908555570677e-12 7.411908552110832e-12 3.459845093603346e-21
3.2348180950136065 1.1701365796610766e-19 1.0047449982835235e-11 1.0047449979177662e-11 3.6575758089299456e-21
3.240889293275058 1.3971881810104484e-19 1.2019558964921776e-11 1.2019558961146705e-11 3.775069619459014e-21
3.2469718861334385 1.659852201124146e-19 1.4305972308580141e-11 1.4305972304674218e-11 3.905921435066147e-21
3.2714166318528037 3.060946893445749e-19 2.658037386060452e-11 2.6580373856107644e-11 4.496872132504889e-21
3.2744851364798273 3.1485347103617663e-19 2.7366606143353596e-11 2.7366606138792907e-11 4.56069286657445e-21
3.2775565192852394 3.23863829926794e-19 2.8176177207066336e-11 2.8176177202440826e-11 4.625512715692202e-21
3.283707930232385 3.1519904466040645e-19 2.7473807271898203e-11 2.7473807267189982e-11 4.7082205902065574e-21
3.2898708863219004 2.8771975102882764e-19 2.512568801887984e-11 2.5125688014126174e-11 4.7536689470779945e-21
3.29141343181113 2.8123944160558667e-19 2.4571297890782137e-11 2.4571297886017047e-11 4.765084367669923e-21
3.292184975758714 2.780552461825654e-19 2.4298796014088866e-11 2.4298796009318072e-11 4.7708001042240675e-21
3.295272960557952 2.5795627107111166e-19 2.256352341960532e-11 2.256352341481965e-11 4.785669663373584e-21
3.3076538914384823 1.8832702770605763e-19 1.65349217675364e-11 1.653492176269512e-11 4.841280621938203e-21
3.310756385682612 1.7415564806099392e-19 1.5305031300040026e-11 1.530503129518472e-11 4.85530771249124e-21
3.313861789986515 1.6108032568906248e-19 1.416923240167493e-11 1.4169232396805546e-11 4.869385257214949e-21
3.3200813396944477 1.4274366117747526e-19 1.2579836262183195e-11 1.2579836257262648e-11 4.920544401434599e-21
3.345076488085796 1.1003288341448976e-19 9.770076844730615e-12 9.770076839463202e-12 5.267414501272616e-21
3.3482140837626964 1.1125953109650476e-19 9.888260000822925e-12 9.888259995495404e-12 5.32752221114131e-21
3.3513546224236106 1.1249974079184824e-19 1.0007862729699821e-11 1.000786272431149e-11 5.388333652345907e-21
3.3576445397418455 1.2156336881065026e-19 1.0834450187166138e-11 1.0834450181632881e-11 5.53325875626559e-21
3.3702598118196083 1.549937870299753e-19 1.3865869372411449e-11 1.3865869366537088e-11 5.874361843332602e-21
3.382922481734668 1.6260811015504243e-19 1.4601708752903468e-11 1.460170874673954e-11 6.163924895047959e-21
3.389271646505754 1.6655286139879007e-19 1.49840050192989e-11 1.498400501298469e-11 6.3142092140564734e-21
3.395632727569191 1.708035473301159e-19 1.53952600726384e-11 1.539526006616337e-11 6.475030620033253e-21
3.421196662673239 1.9121383089534358e-19 1.7364679632622626e-11 1.7364679625448246e-11 7.17437529203805e-21
3.4276182099114902 1.8710095936851247e-19 1.7023070151441404e-11 1.7023070144136026e-11 7.305384609343942e-21
3.4340518103208963 1.6907794640528476e-19 1.5412150474515162e-11 1.5412150467105016e-11 7.410143521238674e-21
3.4469541582030403 1.4340980586978252e-19 1.312150918060116e-11 1.3121509173019271e-11 7.581893914707844e-21
3.472904465399547 1.3621621764594294e-19 1.2557150131494185e-11 1.255715012330966e-11 8.184521938607057e-21
3.4990501388274233 1.2521382576925674e-19 1.162979029786756e-11 1.162979028905252e-11 8.815038969658351e-21
3.5253949054701885 8.605814179118898e-20 8.05321270425656e-12 8.053212694929643e-12 9.32691632092235e-21
3.5519380250092896 4.925589452826282e-20 4.644008684173417e-12 4.6440086743532095e-12 9.820210104630706e-21
3.578680990867387 3.466320034566922e-20 3.2927675774161543e-12 3.292767566896264e-12 1.0519888533957764e-20
3.605625307711299 2.876040048033419e-20 2.7526117258500938e-12 2.7526117144979608e-12 1.1352133097830649e-20
3.660119384959845 2.4453439251331524e-20 2.3757713099935846e-12 2.3757712967003224e-12 1.3293261613480189e-20
3.715437065384467 2.1402837482772482e-20 2.1108175489563403e-12 2.11081753340009e-12 1.5556250111651614e-20
3.8285932144167436 1.9852192169062102e-20 2.017516656181723e-12 2.01751663484429e-12 2.1337433099077302e-20
3.94519561050918 1.9551917956289593e-20 2.0475161711672784e-12 2.0475161419876595e-12 2.917961919208515e-20
4.06534921144712 1.976550132410481e-20 2.132922739437598e-12 2.132922699688949e-12 3.974864967527976e-20
4.189162171576248 2.027709567853877e-20 2.2547705647951976e-12 2.254770510886607e-12 5.390859050585334e-20
4.316745939156006 2.100639842578693e-20 2.407007927436418e-12 2.407007854671587e-12 7.276483063613225e-20
4.448215356677963 2.1926606448752048e-20 2.5889678648084252e-12 2.5889677670966672e-12 9.77117577912364e-20
4.58368876423945 2.3041234433834458e-20 2.8034337459624535e-12 2.8034336154244e-12 1.3053805344803757e-19
4.723288106065518 2.437623453862782e-20 3.056190982057722e-12 3.0561908085441737e-12 1.7351354901010617e-19
4.867139040275056 2.5983316362014637e-20 3.3568950769928485e-12 3.356894847532914e-12 2.294599357137485e-19
4.940699165968905 2.6953495249598024e-20 3.534865837472602e-12 3.5348655740357374e-12 2.634368651219625e-19
5.015371051989984 2.7958731566937794e-20 3.72211653643337e-12 3.722116234411191e-12 3.020221809433793e-19
5.091171501069577 2.918560223543161e-20 3.9441717598246915e-12 3.944171413781841e-12 3.460428491244278e-19
5.129500256944802 2.98155075956835e-20 4.0596322729553285e-12 4.059631902753161e-12 3.7020216699278814e-19
5.168117569889187 3.0472332056054627e-20 4.1803005775476155e-12 4.180300181610363e-12 3.959372524352632e-19
5.20702561229733 3.127832644080524e-20 4.323173396653063e-12 4.323172973052844e-12 4.2360021888349154e-19
5.246226572918644 3.210504312026733e-20 4.4708462346589774e-12 4.470845781629865e-12 4.530291127972025e-19
5.265937586045735 3.2526380251007416e-20 4.546538523218062e-12 4.546538054780934e-12 4.684371285384444e-19
5.285722656980489 3.29531510769442e-20 4.623498854280021e-12 4.6234983699551564e-12 4.84324864813786e-19
5.305582063971359 3.3385443800470834e-20 4.701750974002158e-12 4.7017504732964285e-12 5.007057289492573e-19
5.3255160863122235 3.384986168059577e-20 4.785067101263393e-12 4.785066583602913e-12 5.176604793302894e-19
5.365609099470188 3.5006288256457566e-20 4.985796260501491e-12 4.985795706803839e-12 5.536976517718095e-19
5.406003951863644 3.620689050929854e-20 5.195615701305242e-12 5.195615109281004e-12 5.920242389215111e-19
5.446702915881641 3.745380455612486e-20 5.415007478749318e-12 5.415006845978999e-12 6.327703198106202e-19
5.487708281020852 3.880120604959107e-20 5.652045830751677e-12 5.652045154501894e-12 6.762497816753663e-19
5.529022354014368 4.067333204373201e-20 5.969356700170708e-12 5.9693559761011386e-12 7.240695700446942e-19
5.570647458961463 4.265595727759673e-20 6.3074642928123695e-12 6.3074635178356545e-12 7.749767133839481e-19
5.612585937458331 4.4757033804801583e-20 6.667971478771583e-12 6.667970649622126e-12 8.291494575567828e-19
5.654840148729818 4.706663051160468e-20 7.064848842047389e-12 7.064847954920784e-12 8.87126604824079e-19
5.67608639626678 4.8639152264676524e-20 7.328320037710334e-12 7.328319118661467e-12 9.19048866686031e-19
5.686739436050992 4.944972200588049e-20 7.464429438889184e-12 7.464428503485684e-12 9.354034995966054e-19
5.6974124697621304 5.027701464667281e-20 7.603552991480596e-12 7.603552039454958e-12 9.52025636774826e-19
5.718818669136295 5.1983379225570563e-20 7.8911494237947e-12 7.891148437706465e-12 9.860882350656904e-19
5.740305295436557 5.3864247558794493e-20 8.207389064480739e-12 8.207388042681616e-12 1.021799120936484e-18
5.7835210386641895 5.874295761755416e-20 9.01815221962379e-12 9.018151118475739e-12 1.1011480522336621e-18
5.827062130521658 6.436313661182089e-20 9.955344248940888e-12 9.955343061606197e-12 1.1873346934888783e-18
5.8489554468988025 6.830520473601333e-20 1.0604777078359116e-11 1.0604775840390231e-11 1.2379688842600253e-18
5.870931020387893 7.253553700929682e-20 1.1303872268605982e-11 1.1303870977984613e-11 1.2906213682138135e-18
5.892989160043636 7.70773347779716e-20 1.205679187740047e-11 1.205679053203441e-11 1.3453660577939885e-18
5.915130176081913 8.224258132907324e-20 1.2913098765752439e-11 1.2913097361542821e-11 1.4042096193397296e-18
5.95966208400165 9.668342724379348e-20 1.5294775464216503e-11 1.529477391671011e-11 1.5475063933079798e-18
6.004529249263818 1.174967156958395e-19 1.872725503836305e-11 1.872725330944119e-11 1.7289218633762278e-18
6.027089341400364 1.3196404011288967e-19 2.111215984463745e-11 2.111215800008311e-11 1.844554346010937e-18
6.049734195844842 1.490605696167161e-19 2.3936932947496068e-11 2.393693097340369e-11 1.9740923806400237e-18
6.095279466722835 1.984442092384588e-19 3.2107129971742267e-11 3.210712764622069e-11 2.3255215772430257e-18
6.141167624020661 2.744434530956746e-19 4.473765950205699e-11 4.473765666560633e-11 2.836450678156465e-18
6.164241091010745 3.229766049118479e-19 5.2846972709425624e-11 5.2846969536774165e-11 3.1726514591130325e-18
6.187401249150058 3.7826374335624597e-19 6.212586230834637e-11 6.212585876428959e-11 3.544056797800388e-18
6.1990139391386085 4.0525980581102955e-19 6.668460422285898e-11 6.668460048750581e-11 3.735353165672573e-18
6.204828454712694 4.19480380745437e-19 6.908931162788222e-11 6.90893077930183e-11 3.8348639215340474e-18
6.210648424152782 4.2986182180662695e-19 7.086556485658768e-11 7.086556093898456e-11 3.9176030896002745e-18
6.233982942956859 4.65133781524759e-19 7.696848266797663e-11 7.696847845633149e-11 4.211645143040528e-18
6.239830258556775 4.696437314719541e-19 7.778766565004832e-11 7.778766139769556e-11 4.2523527744965795e-18
6.245683058788269 4.7003668438338e-19 7.79257747985865e-11 7.792577050516274e-11 4.2934237595300585e-18
6.257405133728602 4.690720238110794e-19 7.791180016581714e-11 7.791179580053269e-11 4.365284431050561e-18
6.269149208991335 4.621404780757517e-19 7.690455238254876e-11 7.690454799402631e-11 4.388522450409646e-18
6.280915325867298 4.447517308264677e-19 7.414980590982991e-11 7.414980155853876e-11 4.3512911576305396e-18
6.304513850009849 4.0186808647614854e-19 6.725189947643896e-11 6.72518952559436e-11 4.220495357082777e-18
6.32820103803542 3.487109016503961e-19 5.857539494289285e-11 5.857539092367398e-11 4.0192188718384504e-18
6.3519772230701035 2.9996223416341196e-19 5.057605430470788e-11 5.057605047596663e-11 3.828741251990815e-18
6.375842739491607 2.5895182755574054e-19 4.382541225387463e-11 4.382540859246202e-11 3.661412608183059e-18
6.399797922933955 2.2608483191485483e-19 3.840671127311305e-11 3.8406707724614396e-11 3.548498650909409e-18
6.42384311029221 1.987603423004731e-19 3.3891757840075723e-11 3.389175438707451e-11 3.453001215604899e-18
6.447978639727206 1.7885056116277277e-19 3.061140972394324e-11 3.061140631555581e-11 3.4083874325449002e-18
6.472204850670314 1.6226635940482685e-19 2.7877266068399513e-11 2.787726269190406e-11 3.3764954496581395e-18
6.496522083828205 1.5149102940600058e-19 2.612385525853949e-11 2.612385186954708e-11 3.3889924111748453e-18
