Dust emission spectrum from A.P. Jones, M. Kohler, N. Ysard, M. Bocchio, and L. Verstraete (2017), A&A, 602A, 46J 
inside the DustPedia framework.

lambda    nu*dP/dnu     j_nu    j_nu(carb.) j_nu(sil)
 (um)   (erg s-1 H-1) (Jy cm2 sr-1 H-1)
0.9927057738263894 1.2786883643462997e-25 3.3694164681016674e-18 3.369416468095001e-18 6.6668109953927e-30
1.0001793341362166 1.2998018406493215e-25 3.4508370923052634e-18 3.450837092297233e-18 8.031035640418083e-30
1.0077091589558085 1.3208849029523234e-25 3.533211337310085e-18 3.533211337300423e-18 9.661991680410022e-30
1.0114953028030835 1.3314124323259913e-25 3.5747519466017934e-18 3.5747519465912e-18 1.0592640045246712e-29
1.0152956718711033 1.3419292506196035e-25 3.6165259641352806e-18 3.616525964123671e-18 1.1609178596300515e-29
1.0229392996569957 1.3629163212728254e-25 3.700739275166902e-18 3.7007392751529705e-18 1.3930930533332832e-29
1.0267826658714554 1.3733611087886738e-25 3.743111000355719e-18 3.743111000340465e-18 1.5253649967238437e-29
1.0306404723013447 1.3837905673935574e-25 3.785706944682504e-18 3.785706944665807e-18 1.669655044226795e-29
1.03451277320114 1.3942036907010857e-25 3.828525273745476e-18 3.828525273727207e-18 1.8270018364617045e-29
1.0383996230291617 1.4045994779262682e-25 3.871564130274324e-18 3.871564130254339e-18 1.9985288098845355e-29
1.0403485208654093 1.4097905593416088e-25 3.893165669796555e-18 3.893165669775655e-18 2.089985711583405e-29
1.0423010764483396 1.4149769340773954e-25 3.914821634569901e-18 3.914821634548048e-18 2.1854506824816313e-29
1.0462171883269815 1.4253350701436981e-25 3.9582958849445056e-18 3.958295884920615e-18 2.389080399253063e-29
1.0471985131304309 1.4279214700816774e-25 3.9691980892009944e-18 3.969198089176566e-18 2.442762239058844e-29
1.048180758391296 1.4305065857598066e-25 3.980113689729974e-18 3.9801136897049975e-18 2.497599672641097e-29
1.0501480137395462 1.4356729032787341e-25 4.0019849581625e-18 4.001984958136392e-18 2.6108365672534724e-29
1.0521189612883777 1.4408339008372446e-25 4.023909446543102e-18 4.023909446515812e-18 2.728986223864001e-29
1.0531058218030118 1.4434084017057334e-25 4.034880488134488e-18 4.034880488106589e-18 2.789970342522436e-29
1.0540936079674168 1.4459685366446514e-25 4.045828374662491e-18 4.045828374633968e-18 2.852272676396728e-29
1.058054026499678 1.4561944827789684e-25 4.08974903482847e-18 4.089749034797319e-18 3.11507813720697e-29
1.0590464539527713 1.4587472461325209e-25 4.100761321896615e-18 4.100761321864772e-18 3.1843181080049766e-29
1.06003981227728 1.461298490399786e-25 4.11178639491577e-18 4.111786394883219e-18 3.255031238687453e-29
1.0620293250338977 1.4663963622677704e-25 4.133874772488778e-18 4.133874772454767e-18 3.4009968710993493e-29
1.0660195594769086 1.4765732250501163e-25 4.178203565408211e-18 4.178203565371092e-18 3.711957414870792e-29
1.070024785945596 1.4867241282657297e-25 4.222733372553846e-18 4.222733372513345e-18 4.050039883814909e-29
1.0740450607676866 1.496848136410034e-25 4.267462134537403e-18 4.2674621344932284e-18 4.417487095364806e-29
1.07808044048254 1.5069443214849236e-25 4.312387774056808e-18 4.312387774008641e-18 4.8167164460556966e-29
1.0861967418109137 1.5270316956691857e-25 4.402769814928044e-18 4.402769814870834e-18 5.721141719153452e-29
1.0902777775684922 1.5369804695101395e-25 4.448104096177917e-18 4.448104096115596e-18 6.232165689005961e-29
1.0943741465085532 1.5468970768462505e-25 4.4936234428663235e-18 4.4936234427984576e-18 6.786654170902002e-29
1.1026131145906286 1.5666302676979863e-25 4.585208615164217e-18 4.585208615083814e-18 8.040282087142032e-29
1.1109141095355224 1.5862243049966139e-25 4.6775077511455266e-18 4.677507751050393e-18 9.513297483593326e-29
1.1192775983109025 1.605654160486274e-25 4.7704489610957625e-18 4.770448960983344e-18 1.1241828247750314e-28
1.1277040513999907 1.6248295327109336e-25 4.8637627007905004e-18 4.863762700657825e-18 1.326755598732363e-28
1.1361939428280308 1.6438431161567629e-25 4.9577231372075384e-18 4.957723137051154e-18 1.5638499069005665e-28
1.1447477501889525 1.662688572416518e-25 5.052311785183264e-18 5.052311784999166e-18 1.8409908008059235e-28
1.1533659546722406 1.681369988975841e-25 5.1475414459557745e-18 5.147541445739321e-18 2.16452998955292e-28
1.1707974979042381 1.7183011114681112e-25 5.3401135243582815e-18 5.340113524060175e-18 2.9810489083283205e-28
1.1884924949847024 1.7544965411292188e-25 5.535009785774234e-18 5.535009785365704e-18 4.085310441046838e-28
1.2064549276569216 1.7902395733712e-25 5.733128654111564e-18 5.7331286535544275e-18 5.571360948636065e-28
1.2246888378427687 1.825139588685105e-25 5.933231284809826e-18 5.933231284053704e-18 7.561225047605679e-28
1.2431983285522175 1.859114935508121e-25 6.135021520227884e-18 6.135021519206616e-18 1.0212687833136506e-27
1.2619875648066055 1.892152942669834e-25 6.338416100417865e-18 6.338416099044992e-18 1.3728731279875824e-27
1.3004222497298317 1.9548675773395183e-25 6.747939313637769e-18 6.747939311191377e-18 2.4463923866207427e-27
1.3400274889804893 2.0130383302641097e-25 7.16036539278655e-18 7.1603653885062e-18 4.280350374033633e-27
1.3808389325824078 2.0664497860690985e-25 7.574209493817002e-18 7.574209486460183e-18 7.35681849417554e-27
1.4228933163050095 2.1153625694401074e-25 7.989628532835224e-18 7.98962852040809e-18 1.2427132369546017e-26
1.466228494730424 2.1609552513661397e-25 8.4104040799783e-18 8.41040405933696e-18 2.0641340889589705e-26
1.5108834753276823 2.2023411229877216e-25 8.832527383264105e-18 8.832527349536784e-18 3.372732236622899e-26
1.5568984535646726 2.238802886237322e-25 9.252212064885293e-18 9.252212010616063e-18 5.4269232189717e-26
1.6043148490894465 2.270407717684695e-25 9.668584355472789e-18 9.668584269324376e-18 8.614841355219462e-26
1.6531753430134553 2.2972523127673446e-25 1.0080847610191028e-17 1.0080847475428904e-17 1.3476212175980102e-25
1.7035239163302658 2.3196564425534784e-25 1.0489175111098216e-17 1.0489174903309978e-17 2.077882360343518e-25
1.755405889504358 2.339465299662926e-25 1.090093103361621e-17 1.0900930717661213e-17 3.1595499254610725e-25
1.8088679632656115 2.3562238525672424e-25 1.1313392336355389e-17 1.1313391862401451e-17 4.739539372541225e-25
1.8639582606462262 2.369624077511706e-25 1.1724249990178577e-17 1.172424928851696e-17 7.0166161695023565e-25
1.9207263702978936 2.3798901398996394e-25 1.2133660570377867e-17 1.2133659544806687e-17 1.02557117546787e-24
1.979223391128241 2.387543222079966e-25 1.2543406313784419e-17 1.2543404833245001e-17 1.4805394166963849e-24
2.039501978296691 2.3932069101346528e-25 1.2956085701843153e-17 1.2956083590068002e-17 2.1117751544899403e-24
2.1016163906111602 2.3986270560682905e-25 1.3380908718692888e-17 1.338090574133617e-17 2.9773567199103955e-24
2.1656225393682647 2.404816086551032e-25 1.382401079492315e-17 1.382400664421681e-17 4.150706338640928e-24
2.231578038680979 2.4118466975020454e-25 1.428667651762242e-17 1.4286670794153144e-17 5.723469269231576e-24
2.299542257339062 2.4203251042296237e-25 1.47735386689008e-17 1.4773530860193603e-17 7.808707195724058e-24
2.369576372248914 2.4315913944992994e-25 1.5294340034450187e-17 1.5294329489960584e-17 1.0544489603162589e-23
2.4417434235010123 2.447227885797674e-25 1.586148600850813e-17 1.5861471911290717e-17 1.409721740670474e-23
2.5161083711144245 2.469944268631325e-25 1.649627658943355e-17 1.649625792360974e-17 1.866582381940412e-23
2.5927381535095444 2.504174726148734e-25 1.7234263141394358e-17 1.7234238655947738e-17 2.4485446623198666e-23
2.6717017477616296 2.555213028603466e-25 1.8121098490036754e-17 1.8121066660360307e-17 3.182967644537546e-23
2.753070231689431 2.6310292310003122e-25 1.9227038535901437e-17 1.9226997522002568e-17 4.101389887023449e-23
2.836916847834745 2.749680840363856e-25 2.070610095194318e-17 2.070604855210455e-17 5.2399838633428166e-23
2.9233170693905177 2.95093854040864e-25 2.2898420163298874e-17 2.2898353776202025e-17 6.638709684770014e-23
2.967498994190263 3.1218096557057447e-25 2.4590447549159922e-17 2.459037317237388e-17 7.43767860496549e-23
3.0123486681368425 3.321357658599546e-25 2.6557691169982597e-17 2.655760795233366e-17 8.32176489370521e-23
3.0578761833420214 3.767765874097352e-25 3.058251783601236e-17 3.0582424824604947e-17 9.301140741364703e-23
3.1040917844459814 4.342998261605491e-25 3.578439202259946e-17 3.578428825706635e-17 1.0376553311906134e-22
3.127460860933648 4.951474353404517e-25 4.110511336848074e-17 4.1105003806489606e-17 1.0956199113451838e-22
3.1510058709225794 5.762177317776612e-25 4.819536392165985e-17 4.819524828931075e-17 1.1563234909372563e-22
3.162844764501044 6.516797228823861e-25 5.4711864853933667e-17 5.471174606916013e-17 1.1878477354817268e-22
3.1747281389236908 7.394359292741896e-25 6.231269339668295e-17 6.231257138766969e-17 1.2200901325860206e-22
3.1986289994194426 9.842130706476249e-25 8.356461789477451e-17 8.356448920074718e-17 1.286940273311116e-22
3.2227097969389145 1.561206684861517e-24 1.3355219632094452e-16 1.3355206051276205e-16 1.358081824848622e-22
3.2348180950136065 2.1083758281613173e-24 1.8103699214843297e-16 1.8103685253555784e-16 1.3961287511737897e-22
3.240889293275058 2.5174550061045824e-24 2.1656852884003356e-16 2.165683872198834e-16 1.4162015017853839e-22
3.2469718861334385 2.990696208640285e-24 2.5776281234682965e-16 2.5776266864939843e-16 1.4369743122053624e-22
3.2714166318528037 5.515038580528519e-24 4.789099335241499e-16 4.789097812171134e-16 1.5230703656393944e-22
3.2744851364798273 5.672841435739302e-24 4.930751335681996e-16 4.930749802398101e-16 1.5332838959993171e-22
3.2775565192852394 5.835176729365168e-24 5.076608079337125e-16 5.076606535782051e-16 1.5435550754350115e-22
3.283707930232385 5.679054654488139e-24 4.950054757687613e-16 4.950053195631558e-16 1.56205605589315e-22
3.2898708863219004 5.1839535526385366e-24 4.526988474104074e-16 4.526986895088075e-16 1.5790160001336838e-22
3.29141343181113 5.067196438191472e-24 4.4271028431539746e-16 4.427101259875768e-16 1.5832782063585194e-22
3.292184975758714 5.009826139316381e-24 4.378005633649216e-16 4.3780040482365666e-16 1.5854126503865822e-22
3.295272960557952 4.64770036527569e-24 4.0653594349058017e-16 4.0653578411675876e-16 1.5937382135330595e-22
3.3076538914384823 3.39318803220838e-24 2.979184631038578e-16 2.979183003794014e-16 1.627244563951922e-22
3.310756385682612 3.1378631607145773e-24 2.757596117305336e-16 2.7575944816011345e-16 1.6357042020824982e-22
3.313861789986515 2.9022863365685096e-24 2.552960420407026e-16 2.5529587762098156e-16 1.6441972106988428e-22
3.3200813396944477 2.5719158880981063e-24 2.2666001758323337e-16 2.2665985134224195e-16 1.6624099131786349e-22
3.345076488085796 1.9825653316277887e-24 1.7603660868121541e-16 1.7603643433620517e-16 1.7434501029016618e-22
3.3482140837626964 2.004664191649473e-24 1.7816577641492716e-16 1.781656009723986e-16 1.7544252860310556e-22
3.3513546224236106 2.0270073615436385e-24 1.8032051703971292e-16 1.8032034049397067e-16 1.7654574220912816e-22
3.3576445397418455 2.190300124652593e-24 1.9521256960602785e-16 1.952123907556849e-16 1.788503429914255e-22
3.3702598118196083 2.7925945213995857e-24 2.498277613950413e-16 2.498275777085003e-16 1.836865410054478e-22
3.382922481734668 2.929767965551283e-24 2.6308416293490613e-16 2.6308397452305963e-16 1.884118465150583e-22
3.389271646505754 3.0008331615199888e-24 2.699713398896955e-16 2.699711490776487e-16 1.9081204682010292e-22
3.395632727569191 3.0774091954666188e-24 2.773801578170382e-16 2.7737996453106158e-16 1.932859766853165e-22
3.421196662673239 3.4450972789652165e-24 3.1285922295649025e-16 3.1285901940011324e-16 2.0355637708291394e-22
3.4276182099114902 3.3709936062064735e-24 3.0670425652649314e-16 3.067040506510763e-16 2.058754168756693e-22
3.4340518103208963 3.046284745049775e-24 2.7768138824200735e-16 2.776811801601297e-16 2.0808187765723175e-22
3.4469541582030403 2.5838394096257445e-24 2.3641251258221718e-16 2.3641230023843425e-16 2.1234378294549287e-22
3.472904465399547 2.4542293017271433e-24 2.262441751172626e-16 2.262439529899823e-16 2.2212728032668905e-22
3.4990501388274233 2.2560008496194148e-24 2.095361005998961e-16 2.09535868395781e-16 2.3220411514996793e-22
3.5253949054701885 1.5505698218891965e-24 1.4510037433498697e-16 1.451001322401631e-16 2.420948238900116e-22
3.5519380250092896 8.875516018417838e-25 8.368130121442019e-17 8.368104909453543e-17 2.521198847647853e-22
3.578680990867387 6.246569607827599e-25 5.933815016967314e-17 5.933788704321483e-17 2.6312645831717003e-22
3.605625307711299 5.1831544811995055e-25 4.960713885607352e-17 4.960686408199277e-17 2.74774080754187e-22
3.660119384959845 4.4072227585352995e-25 4.281832620296473e-17 4.281802671658592e-17 2.9948637881760487e-22
3.715437065384467 3.8576415240348975e-25 3.804531727659852e-17 3.8044991380933135e-17 3.258956653767464e-22
3.8285932144167436 3.578179988195813e-25 3.6363932323058057e-17 3.636354839130312e-17 3.8393175492153323e-22
3.94519561050918 3.5238568904144883e-25 3.690253807392786e-17 3.690208887293833e-17 4.492009895299018e-22
4.06534921144712 3.561947583640516e-25 3.8437471801266084e-17 3.843694961157269e-17 5.2218969339801335e-22
4.189162171576248 3.6535189854282997e-25 4.062636581126882e-17 4.0625762178274314e-17 6.0363299450125005e-22
4.316745939156006 3.7840458299920477e-25 4.335930475065417e-17 4.335861079632774e-17 6.93954326421461e-22
4.448215356677963 3.94862916032704e-25 4.662314722538388e-17 4.6622354442555837e-17 7.9278282804776405e-22
4.58368876423945 4.147818105513205e-25 5.046662444454219e-17 5.046572342501287e-17 9.010195293263143e-22
4.723288106065518 4.386188866672011e-25 5.499221316845589e-17 5.499119301472142e-17 1.0201537344822238e-21
4.867139040275056 4.672939798505422e-25 6.037169538380871e-17 6.037054676324463e-17 1.1486205640848294e-21
4.940699165968905 4.846052241502285e-25 6.35544457461391e-17 6.355322876179711e-17 1.2169843419816494e-21
5.015371051989984 5.025272657423808e-25 6.690092650842051e-17 6.689963840653719e-17 1.2881018833284467e-21
5.091171501069577 5.244180995533704e-25 7.087039156890464e-17 7.086902822983294e-17 1.3633390717106382e-21
5.129500256944802 5.356510361118892e-25 7.293339636305919e-17 7.29319943128761e-17 1.4020501830635724e-21
5.168117569889187 5.473623314559918e-25 7.50890698520941e-17 7.50876280889524e-17 1.4417631417072445e-21
5.20702561229733 5.617531552415177e-25 7.764342190181214e-17 7.764193734401403e-17 1.4845577981214938e-21
5.246226572918644 5.765101386125991e-25 8.028296902774574e-17 8.028144077451098e-17 1.5282532347689832e-21
5.265937586045735 5.840295940743518e-25 8.163567626238421e-17 8.163412582039869e-17 1.5504419855247592e-21
5.285722656980489 5.916450381249292e-25 8.301088261707851e-17 8.30093097572481e-17 1.572859830396864e-21
5.305582063971359 5.993580216240099e-25 8.440900707472254e-17 8.44074115666412e-17 1.595508081376681e-21
5.3255160863122235 6.076475498300166e-25 8.589796694861255e-17 8.589634843727994e-17 1.6185113326155616e-21
5.365609099470188 6.283188118500715e-25 8.948876726303442e-17 8.948710107749477e-17 1.6661855396489137e-21
5.406003951863644 6.497772365375766e-25 9.324172181088989e-17 9.324000693487263e-17 1.7148760172462122e-21
5.446702915881641 6.720609597113342e-25 9.716543262137557e-17 9.716366802540501e-17 1.76459597052523e-21
5.487708281020852 6.961451288503959e-25 1.0140520292302711e-16 1.0140338741338567e-16 1.8155096414179493e-21
5.529022354014368 7.296680557054734e-25 1.0708856831652746e-16 1.0708669949804546e-16 1.8688184819816628e-21
5.570647458961463 7.6517077556207345e-25 1.131445090624219e-16 1.131425857758216e-16 1.9232866003071767e-21
5.612585937458331 8.027960975117985e-25 1.196017927556121e-16 1.1959981382461887e-16 1.978930993211675e-21
5.654840148729818 8.441653101607506e-25 1.2671186038089774e-16 1.267098244154624e-16 2.035965435332573e-21
5.67608639626678 8.723668168772187e-25 1.3143697878545705e-16 1.314349129894098e-16 2.0657960472475976e-21
5.686739436050992 8.869041905433633e-25 1.338780781938227e-16 1.3387599735774244e-16 2.0808360802389945e-21
5.6974124697621304 9.017419444398181e-25 1.3637330512508157e-16 1.3637120916536454e-16 2.095959717057739e-21
5.718818669136295 9.323475665022005e-25 1.4153166015342815e-16 1.4152953369425846e-16 2.126459169718887e-21
5.740305295436557 9.660920591096946e-25 1.4720512697339242e-16 1.4720296949992841e-16 2.1574734639854774e-21
5.7835210386641895 1.0536819338046804e-24 1.6176005525602954e-16 1.6175783333106557e-16 2.221924964022553e-21
5.827062130521658 1.154608751902197e-24 1.7858867984248107e-16 1.7858639154839597e-16 2.2882940850964086e-21
5.8489554468988025 1.2254463908982999e-24 1.902576216143656e-16 1.9025529769363354e-16 2.3239207320658686e-21
5.870931020387893 1.3014707304694987e-24 2.0282001767865797e-16 2.0281765768418185e-16 2.3599944760865662e-21
5.892989160043636 1.3830994662816975e-24 2.163507918214623e-16 2.1634839530143706e-16 2.3965200252871915e-21
5.915130176081913 1.4759488379894868e-24 2.3174215607235927e-16 2.3173972171491157e-16 2.4343574475709028e-21
5.95966208400165 1.735634435233415e-24 2.7456762478971194e-16 2.7456510583658057e-16 2.5189531314341267e-21
6.004529249263818 2.1100263710768164e-24 3.363072895681493e-16 3.3630467604793827e-16 2.6135202111647622e-21
6.027089341400364 2.3703176926588954e-24 3.79213352116058e-16 3.792106847326402e-16 2.667383417784334e-21
6.049734195844842 2.6779388396988165e-24 4.300375519038499e-16 4.3003482753815545e-16 2.7243656946094632e-21
6.095279466722835 3.5666291191900694e-24 5.770600469033147e-16 5.77057185315217e-16 2.8615880975033336e-21
6.141167624020661 4.9344378452774244e-24 8.04374080219458e-16 8.043710439171453e-16 3.036302312790386e-21
6.164241091010745 5.807938393979838e-24 9.503225841650378e-16 9.503194399743205e-16 3.1441907172376175e-21
6.187401249150058 6.803034531689266e-24 1.1173272459174327e-15 1.1173239901528324e-15 3.255764600805375e-21
6.1990139391386085 7.28891544536474e-24 1.199374906463529e-15 1.1993715937765634e-15 3.312686965522178e-21
6.204828454712694 7.544864255482498e-24 1.2426552031129051e-15 1.2426518615910414e-15 3.341521864224249e-21
6.210648424152782 7.731694397727847e-24 1.2746209665485845e-15 1.2746176000013009e-15 3.3665472835805908e-21
6.233982942956859 8.366424247254057e-24 1.384442509328762e-15 1.3844390534422903e-15 3.455886471330364e-21
6.239830258556775 8.447550716413595e-24 1.3991781570908673e-15 1.3991746872905927e-15 3.469800274797509e-21
6.245683058788269 8.454561066943099e-24 1.4016527722464734e-15 1.4016492884837113e-15 3.483762762047913e-21
6.257405133728602 8.43706679663711e-24 1.4013776752330703e-15 1.4013741661303954e-15 3.50910267473725e-21
6.269149208991335 8.312153653877387e-24 1.3832210905828213e-15 1.3832175678810453e-15 3.522701776381866e-21
6.280915325867298 7.998989304094493e-24 1.3336058372864115e-15 1.3336023155788452e-15 3.521707566328951e-21
6.304513850009849 7.226744360323726e-24 1.209382634794662e-15 1.209379128351184e-15 3.50644347789098e-21
6.32820103803542 6.2695568742557385e-24 1.0531410640973905e-15 1.0531375871199389e-15 3.476977451527738e-21
6.3519772230701035 5.391742362730821e-24 9.09091290425286e-16 9.090878384796707e-16 3.451945615515911e-21
6.375842739491607 4.653262049044341e-24 7.875253461216855e-16 7.8752191463103e-16 3.4314906555715925e-21
6.399797922933955 4.061354434097865e-24 6.89932472722976e-16 6.899290446720625e-16 3.4280509135354935e-21
6.42384311029221 3.569242338033461e-24 6.086118367129006e-16 6.08608408640491e-16 3.428072409434165e-21
6.447978639727206 3.2105929783478655e-24 5.495133841239442e-16 5.495099424997434e-16 3.441624200910315e-21
6.472204850670314 2.911818041939043e-24 5.00248644239233e-16 5.002451862267405e-16 3.4580124925136046e-21
6.496522083828205 2.717597142249951e-24 4.686357645962777e-16 4.686322790244171e-16 3.485571860829698e-21
