Dust emission spectrum from A.P. Jones, M. Kohler, N. Ysard, M. Bocchio, and L. Verstraete (2017), A&A, 602A, 46J 
inside the DustPedia framework.

lambda    nu*dP/dnu     j_nu    j_nu(carb.) j_nu(sil)
 (um)   (erg s-1 H-1) (Jy cm2 sr-1 H-1)
0.9927057738263894 2.0993215314952671e-22 5.5318314745725616e-15 5.531831346824836e-15 1.2774772617730092e-22
1.0001793341362166 2.134644150791288e-22 5.667255564696828e-15 5.6672554109511025e-15 1.5374572613236413e-22
1.0077091589558085 2.17010009032377e-22 5.8047618116401e-15 5.8047616268514074e-15 1.8478869432069262e-22
1.0114953028030835 2.1878763075383716e-22 5.874299277522269e-15 5.874299075036423e-15 2.0248584567362503e-22
1.0152956718711033 2.205683784311415e-22 5.944361575657768e-15 5.944361353853843e-15 2.2180392227815483e-22
1.0229392996569957 2.2413725400843187e-22 6.08601955960451e-15 6.0860192937220536e-15 2.6588245664173475e-22
1.0267826658714554 2.2592132070624617e-22 6.157510762018868e-15 6.157510471048697e-15 2.9097017161558476e-22
1.0306404723013447 2.277081668412658e-22 6.229529300778466e-15 6.229528982459458e-15 3.18319006370073e-22
1.03451277320114 2.2949773218134516e-22 6.302076760976876e-15 6.302076412854444e-15 3.481224307576461e-22
1.0383996230291617 2.312899581242966e-22 6.375154765746555e-15 6.375154385157037e-15 3.8058951858619733e-22
1.0403485208654093 2.3218705096470217e-22 6.4118932404344876e-15 6.41189284254266e-15 3.9789182628269056e-22
1.0423010764483396 2.3308478773990334e-22 6.448764978125053e-15 6.44876456217893e-15 4.1594612349727226e-22
1.0462171883269815 2.3488216581163533e-22 6.522909102947398e-15 6.522908648511262e-15 4.544361366818401e-22
1.0471985131304309 2.353319022216729e-22 6.5415287618924164e-15 6.541528297313772e-15 4.645786413732193e-22
1.048180758391296 2.3578179374216347e-22 6.5601819271864926e-15 6.5601814522488434e-15 4.749376485738079e-22
1.0501480137395462 2.366820388780456e-22 6.5975888887642646e-15 6.597588392441433e-15 4.963228316079897e-22
1.0521189612883777 2.3758289481756902e-22 6.6351302133989864e-15 6.635129694771127e-15 5.186278592226594e-22
1.0531058218030118 2.380329499441239e-22 6.653934562994473e-15 6.653934032856703e-15 5.301377697259339e-22
1.0540936079674168 2.384811899769483e-22 6.672717564594752e-15 6.672717022700295e-15 5.418944529971655e-22
1.058054026499678 2.4027555865607975e-22 6.7481833349023194e-15 6.748182743438037e-15 5.914642797045026e-22
1.0590464539527713 2.4072449926178035e-22 6.767133363389812e-15 6.767132758871469e-15 6.045183409089298e-22
1.06003981227728 2.4117357778776617e-22 6.78611688491923e-15 6.786116267071509e-15 6.178477213422104e-22
1.0620293250338977 2.4207214575318847e-22 6.824184526097459e-15 6.8241838807428495e-15 6.453546085632981e-22
1.0660195594769086 2.438709058363789e-22 6.900723045620067e-15 6.900722341698055e-15 7.039220108345748e-22
1.070024785945596 2.4567179545108446e-22 6.977800855069567e-15 6.9778000875188525e-15 7.675507148272776e-22
1.0740450607676866 2.474747731588641e-22 7.055419972272924e-15 7.0554191356183225e-15 8.366546029908283e-22
1.07808044048254 2.4927979957573133e-22 7.133582473375215e-15 7.133581561695872e-15 9.116793415537774e-22
1.0861967418109137 2.5289307395356014e-22 7.291466153354242e-15 7.291465071907396e-15 1.081446846633892e-21
1.0902777775684922 2.5469493839746485e-22 7.371008423565865e-15 7.3710072463045e-15 1.1772613652281386e-21
1.0943741465085532 2.56498605930503e-22 7.451097852106156e-15 7.451096570961168e-15 1.281144989843869e-21
1.1026131145906286 2.6011124046293597e-22 7.612927729426623e-15 7.612926213692229e-15 1.5157343958438383e-21
1.1109141095355224 2.637307810702375e-22 7.776975606702315e-15 7.776973815759338e-15 1.7909429779702585e-21
1.1192775983109025 2.673542166153321e-22 7.943177779397565e-15 7.943175666022943e-15 2.113374622775976e-21
1.1277040513999907 2.709683157840078e-22 8.111162191934047e-15 8.111159701301509e-15 2.490632539240247e-21
1.1361939428280308 2.7458853767000947e-22 8.281410391530135e-15 8.281407460071792e-15 2.9314583434438505e-21
1.1447477501889525 2.7821484700056277e-22 8.453947261278105e-15 8.453943815389138e-15 3.4458889686460855e-21
1.1533659546722406 2.8184856530848407e-22 8.628839463777542e-15 8.628835418338795e-15 4.045438750639708e-21
1.1707974979042381 2.8914923069952993e-22 8.98614164369065e-15 8.986136089115149e-15 5.554575500125242e-21
1.1884924949847024 2.9647998933900705e-22 9.353222441928903e-15 9.353214853440888e-15 7.588488017074362e-21
1.2064549276569216 3.038905641193339e-22 9.731902516185931e-15 9.731892200215067e-15 1.0315970862956237e-20
1.2246888378427687 3.113318209838784e-22 1.0120889994771032e-14 1.0120876039716085e-14 1.3955054946878527e-20
1.2431983285522175 3.1879728778449367e-22 1.052021143928682e-14 1.0520192652911696e-14 1.8786375123275233e-20
1.2619875648066055 3.262973545534442e-22 1.0930450488357768e-14 1.0930425319050869e-14 2.5169306899728653e-20
1.3004222497298317 3.4135252097764123e-22 1.1783028798550331e-14 1.1782984256627394e-14 4.454192293519123e-20
1.3400274889804893 3.5653883958047196e-22 1.2682065362269289e-14 1.2681987981916351e-14 7.738035293529166e-20
1.3808389325824078 3.7190809210736666e-22 1.3631639254227647e-14 1.3631507227948193e-14 1.3202627944966156e-19
1.4228933163050095 3.8758677891948254e-22 1.4638976942020963e-14 1.463875559529949e-14 2.21346721471733e-19
1.466228494730424 4.038484735776122e-22 1.5717719502626896e-14 1.571735467640205e-14 3.648262248480801e-19
1.5108834753276823 4.2065222063104914e-22 1.68703304804762e-14 1.6869739067845658e-14 5.914126305432057e-19
1.5568984535646726 4.379749959262058e-22 1.8100019284131712e-14 1.8099075343355608e-14 9.439407761063284e-19
1.6043148490894465 4.559121367926694e-22 1.941512495279468e-14 1.9413638813204914e-14 1.486139589768808e-18
1.6531753430134553 4.745628700892893e-22 2.0824860848924562e-14 2.0822555585151363e-14 2.3052637731948344e-18
1.7035239163302658 4.940434688008818e-22 2.2339982601226807e-14 2.233645865547174e-14 3.5239457550631926e-18
1.755405889504358 5.147127863088434e-22 2.398346573672864e-14 2.397815442508506e-14 5.311311643579401e-18
1.8088679632656115 5.365475499358244e-22 2.576229305598622e-14 2.5754397348429873e-14 7.895707556346834e-18
1.8639582606462262 5.595108269001456e-22 2.7683061077254076e-14 2.7671479479855893e-14 1.1581597398178972e-17
1.9207263702978936 5.836400788359774e-22 2.975637611643268e-14 2.973960754257051e-14 1.676857386217659e-17
1.979223391128241 6.09001928862399e-22 3.199505905884561e-14 3.1971085078975606e-14 2.3973979870005133e-17
2.039501978296691 6.356422901926702e-22 3.4411717401353845e-14 3.437786001024805e-14 3.385739110580098e-17
2.1016163906111602 6.637954143686939e-22 3.703029124549963e-14 3.6983039966884634e-14 4.725127861499576e-17
2.1656225393682647 6.935364157164121e-22 3.9867726065015805e-14 3.980253806008953e-14 6.5188004926265e-17
2.231578038680979 7.247157718512009e-22 4.292884705475098e-14 4.28399169344852e-14 8.893012026578199e-17
2.299542257339062 7.572801030060892e-22 4.622398398214617e-14 4.610398220072868e-14 1.2000178141750125e-16
2.369576372248914 7.912441082275859e-22 4.9768050951586347e-14 4.960782898639408e-14 1.602219651922744e-16
2.4417434235010123 8.266390905533892e-22 5.357786434598713e-14 5.336613548953748e-14 2.1172885644965936e-16
2.5161083711144245 8.636429904277644e-22 5.768103282960539e-14 5.740402052491435e-14 2.770123046910332e-16
2.5927381535095444 9.026304656401019e-22 6.212094867759192e-14 6.176201658475038e-14 3.5893209284155056e-16
2.6717017477616296 9.439163075759188e-22 6.694079978640201e-14 6.648008901425166e-14 4.607107721503449e-16
2.753070231689431 9.880272915495012e-22 7.220307013435205e-14 7.161713444944141e-14 5.85935684910634e-16
2.836916847834745 1.0365854512835135e-21 7.8058670244623e-14 7.732009658303598e-14 7.385736615870242e-16
2.9233170693905177 1.0933137511687007e-21 8.483795003438634e-14 8.391518811816122e-14 9.227619162250973e-16
2.967498994190263 1.1284492895941879e-21 8.888778025571017e-14 8.786171382335763e-14 1.026066432352567e-15
3.0123486681368425 1.1661385716113132e-21 9.324484511949974e-14 9.210540052188139e-14 1.1394445976183502e-15
3.0578761833420214 1.229028554314394e-21 9.975881978678716e-14 9.849474282384917e-14 1.2640769629379552e-15
3.1040917844459814 1.3030632387693561e-21 1.0736666919392951e-13 1.0596710595106955e-13 1.399563242859975e-15
3.127460860933648 1.3723070771767776e-21 1.1392331648640065e-13 1.1245126640218838e-13 1.4720500842123034e-15
3.1510058709225794 1.4605420972005341e-21 1.2216104089737588e-13 1.2061347425906684e-13 1.5475666383090317e-15
3.162844764501044 1.5404860256813938e-21 1.2933172582640723e-13 1.2774509484839602e-13 1.5866309780112039e-15
3.1747281389236908 1.6310929551757176e-21 1.374531466399245e-13 1.3582666803671887e-13 1.6264786032056355e-15
3.1986289994194426 1.8768697407424083e-21 1.5935563893720816e-13 1.5764686929127155e-13 1.7087696459365826e-15
3.2227097969389145 2.4465022092691488e-21 2.0928410473781705e-13 2.074881779666789e-13 1.7959267711381395e-15
3.2348180950136065 2.9812506203681018e-21 2.5598692507434487e-13 2.541444967398249e-13 1.8424283345198513e-15
3.240889293275058 3.380739108355425e-21 2.9083407382180836e-13 2.88967117072466e-13 1.8669567493422833e-15
3.2469718861334385 3.843693950580259e-21 3.312811778206358e-13 3.2938884140715037e-13 1.8923364134854002e-15
3.2714166318528037 6.275330748948773e-21 5.449314973845758e-13 5.429343129973085e-13 1.99718438726717e-15
3.2744851364798273 6.427366731839265e-21 5.586573757953859e-13 5.566478444837108e-13 2.009531311675113e-15
3.2775565192852394 6.58348604725376e-21 5.727637740515831e-13 5.707418349503532e-13 2.021939101229889e-15
3.283707930232385 6.43382940519149e-21 5.607941778153054e-13 5.587500679755024e-13 2.044109839803089e-15
3.2898708863219004 5.9577054996012534e-21 5.202682442066607e-13 5.182039746727946e-13 2.0642695338663004e-15
3.29141343181113 5.845192527434278e-21 5.106821646374239e-13 5.086128333354394e-13 2.0693313019845577e-15
3.292184975758714 5.789873037534785e-21 5.059675939153426e-13 5.038957284490584e-13 2.0718654662841164e-15
3.295272960557952 5.444634569800956e-21 4.762440514308338e-13 4.741623317394132e-13 2.0817196914204978e-15
3.3076538914384823 4.2399990115107104e-21 3.722676070648048e-13 3.701463166016771e-13 2.1212904631277184e-15
3.310756385682612 3.992398017122223e-21 3.508572779268877e-13 3.4872601509165394e-13 2.1312628352338568e-15
3.313861789986515 3.76299898800523e-21 3.310075700445028e-13 3.288663029179628e-13 2.1412671265400406e-15
3.3200813396944477 3.442575174353027e-21 3.033902287245776e-13 3.0122743554095455e-13 2.1627931836230405e-15
3.345076488085796 2.882532684412146e-21 2.5594681299104884e-13 2.536880706198196e-13 2.2587423712291313e-15
3.3482140837626964 2.905265569852908e-21 2.582072838436314e-13 2.5593554283275583e-13 2.2717410108755787e-15
3.3513546224236106 2.928207220653215e-21 2.6049034159673974e-13 2.582055443108508e-13 2.284797285888907e-15
3.3576445397418455 3.0892778630017582e-21 2.7533481054759334e-13 2.730227127175062e-13 2.3120978300871177e-15
3.3702598118196083 3.673170209340267e-21 3.286047736577681e-13 3.262354135042022e-13 2.369360153565996e-15
3.382922481734668 3.812503804468248e-21 3.4235112946766817e-13 3.3992613437961506e-13 2.4249950880531416e-15
3.389271646505754 3.884349820912095e-21 3.4945732378562674e-13 3.470041339138773e-13 2.4531898717495708e-15
3.395632727569191 3.9632951214702725e-21 3.572288754736863e-13 3.547466291666769e-13 2.4822463070094716e-15
3.421196662673239 4.345996496218976e-21 3.9467247995595014e-13 3.920699788462241e-13 2.6025011097260237e-15
3.4276182099114902 4.276834768832839e-21 3.8912071077395853e-13 3.8649139799996503e-13 2.629312773993518e-15
3.4340518103208963 3.9626716529686776e-21 3.612138253102184e-13 3.585591656337777e-13 2.6546596764407457e-15
3.4469541582030403 3.512128092702467e-21 3.213477679042935e-13 3.1864448299137453e-13 2.7032849129190566e-15
3.472904465399547 3.3877917274317797e-21 3.1230502557462493e-13 3.0948969257557574e-13 2.8153329990491356e-15
3.4990501388274233 3.1991942152688833e-21 2.9713937432349523e-13 2.942094381467258e-13 2.92993617676942e-15
3.5253949054701885 2.52799324041685e-21 2.3656642888475744e-13 2.335252474516888e-13 3.0411814330686326e-15
3.5519380250092896 1.889366326963889e-21 1.7813570769627411e-13 1.7498278887103306e-13 3.1529188252410516e-15
3.578680990867387 1.6408171750971923e-21 1.558664387808791e-13 1.5259106350122516e-13 3.275375279653921e-15
3.605625307711299 1.545777685598531e-21 1.4794389896779684e-13 1.4453960111537127e-13 3.4042978524255754e-15
3.660119384959845 1.4872044419657729e-21 1.4448919062069813e-13 1.408142548630549e-13 3.674935757643254e-15
3.715437065384467 1.4485134106004661e-21 1.4285711085995672e-13 1.3889719286481207e-13 3.959917995144636e-15
3.8285932144167436 1.4507409604436799e-21 1.4743429977780996e-13 1.4286303476061628e-13 4.5712650171936896e-15
3.94519561050918 1.4726664091439097e-21 1.5422058818976466e-13 1.489844252517667e-13 5.236162937998005e-15
4.06534921144712 1.5012596878887603e-21 1.6200302100073097e-13 1.560496411911297e-13 5.953379809601271e-15
4.189162171576248 1.5326597578187766e-21 1.7042855458997116e-13 1.637047963861146e-13 6.72375820385655e-15
4.316745939156006 1.565232232441376e-21 1.7935137263418143e-13 1.7180753042950435e-13 7.543842204677025e-15
4.448215356677963 1.5982344643280825e-21 1.887103541647328e-13 1.803087847159041e-13 8.401569448828695e-15
4.58368876423945 1.631529572415731e-21 1.9850868120718038e-13 1.8921129552040264e-13 9.297385686777817e-15
4.723288106065518 1.6653855718871016e-21 2.0879912188180458e-13 1.9856282009034667e-13 1.0236301791457852e-14
4.867139040275056 1.700202571170772e-21 2.1965639649438583e-13 2.0846409648010923e-13 1.1192300014276623e-14
4.940699165968905 1.7190472201048757e-21 2.254476176495734e-13 2.1376814702873672e-13 1.1679470620836706e-14
5.015371051989984 1.7373382398321404e-21 2.3129001315296476e-13 2.1911888442054968e-13 1.2171128732415092e-14
5.091171501069577 1.758473645322379e-21 2.3764190426252276e-13 2.2496385296034785e-13 1.2678051302174968e-14
5.129500256944802 1.7688073124773253e-21 2.4083800107471286e-13 2.2790538530186663e-13 1.2932615772846195e-14
5.168117569889187 1.7792891896938385e-21 2.440890842755014e-13 2.3089861870284456e-13 1.3190465572656883e-14
5.20702561229733 1.7922494022838606e-21 2.47718014925912e-13 2.3424548874189063e-13 1.347252618402141e-14
5.246226572918644 1.8051407239934895e-21 2.5137815821219407e-13 2.3762212324339474e-13 1.3756034968799315e-14
5.265937586045735 1.8115617435284945e-21 2.53220161314608e-13 2.393218688514426e-13 1.3898292463165392e-14
5.285722656980489 1.8179670206421603e-21 2.550702485911503e-13 2.410293848198217e-13 1.4040863771328592e-14
5.305582063971359 1.8243571005127895e-21 2.569285232668613e-13 2.427447907279916e-13 1.4183732538869784e-14
5.3255160863122235 1.8312166326048256e-21 2.588635234804145e-13 2.445354542795947e-13 1.4328069200819874e-14
5.365609099470188 1.848648296019427e-21 2.6329508840674847e-13 2.4866835564090224e-13 1.4626732765846183e-14
5.406003951863644 1.8662396674542646e-21 2.678016251114933e-13 2.528747899787226e-13 1.4926835132770653e-14
5.446702915881641 1.88400941688647e-21 2.7238688307850554e-13 2.5715863766880594e-13 1.522824540969963e-14
5.487708281020852 1.9029000976563667e-21 2.7718928503277746e-13 2.616571065414369e-13 1.5532178491340497e-14
5.529022354014368 1.930229914118349e-21 2.8328711447401417e-13 2.674381250357609e-13 1.5848989438253186e-14
5.570647458961463 1.9584298052772225e-21 2.895897045839672e-13 2.73422442537594e-13 1.6167262046373134e-14
5.612585937458331 1.987579886417181e-21 2.9611269710612527e-13 2.7962583414134e-13 1.6486862964785225e-14
5.654840148729818 2.019157461899448e-21 3.0308186716477376e-13 2.862725543347454e-13 1.6809312830028354e-14
5.67608639626678 2.04153681179623e-21 3.0759243179644836e-13 2.9061428369960447e-13 1.6978148096843944e-14
5.686739436050992 2.052966111512038e-21 3.0989498137097673e-13 2.928322622912106e-13 1.7062719079766136e-14
5.6974124697621304 2.064560683306313e-21 3.1223008505907354e-13 2.950826955739477e-13 1.714738948512587e-14
5.718818669136295 2.088262847476535e-21 3.1700121098496116e-13 2.9968419090280363e-13 1.7317020082157527e-14
5.740305295436557 2.1144151502742744e-21 3.221771131805235e-13 3.0468876515574745e-13 1.748834802477614e-14
5.7835210386641895 2.18350157929543e-21 3.352086856449125e-13 3.1736629482343287e-13 1.7842390821479605e-14
5.827062130521658 2.2617491908861863e-21 3.4983521601556215e-13 3.316337698789513e-13 1.8201446136610816e-14
5.8489554468988025 2.3181670196433155e-21 3.599088029782302e-13 3.415130140757066e-13 1.8395788902523557e-14
5.870931020387893 2.3779042888488654e-21 3.7057044665806745e-13 3.519796135736259e-13 1.859083308444154e-14
5.892989160043636 2.4412239361035573e-21 3.818674972158081e-13 3.63080935027896e-13 1.878656218791195e-14
5.915130176081913 2.513114598799386e-21 3.9458996178757814e-13 3.7560036600654306e-13 1.8989595781035064e-14
5.95966208400165 2.7168559187189476e-21 4.2979135545798976e-13 4.1033637656626025e-13 1.9454978891729606e-14
6.004529249263818 3.0100230169027994e-21 4.797535690682944e-13 4.597733600825302e-13 1.9980208985764204e-14
6.027089341400364 3.2144442158520053e-21 5.142602487668851e-13 4.939751885824235e-13 2.0285060184461454e-14
6.049734195844842 3.45405856515733e-21 5.546709534486008e-13 5.340626813517002e-13 2.0608272096900782e-14
6.095279466722835 4.146655073988979e-21 6.709049053105177e-13 6.494974744623376e-13 2.1407430848179922e-14
6.141167624020661 5.204629880389424e-21 8.484187062823523e-13 8.259682515425127e-13 2.2450454739839667e-14
6.164241091010745 5.8791422263803095e-21 9.619732948680663e-13 9.388654018218503e-13 2.3107893046216113e-14
6.187401249150058 6.638155375327192e-21 1.090247569512868e-12 1.0664651059522115e-12 2.3782463560656375e-14
6.1990139391386085 7.006834889673883e-21 1.1529591752573108e-12 1.1288335686342708e-12 2.4125606623039982e-14
6.204828454712694 7.200254341161345e-21 1.1858972166767282e-12 1.1615983472142226e-12 2.4298869462505488e-14
6.210648424152782 7.340039151941326e-21 1.21005400848504e-12 1.1856081490955747e-12 2.4445859389465135e-14
6.233982942956859 7.808227236315653e-21 1.2920742947026609e-12 1.267118628649804e-12 2.4955666052856753e-14
6.239830258556775 7.864206972525704e-21 1.3025582193214891e-12 1.2775338205182095e-12 2.5024398803279608e-14
6.245683058788269 7.86289539322674e-21 1.3035625431688024e-12 1.2784693216326212e-12 2.509322153618137e-14
6.257405133728602 7.83585329999108e-21 1.3015174758822271e-12 1.2763049672606693e-12 2.521250862155781e-14
6.269149208991335 7.725969613450943e-21 1.2856745146358418e-12 1.260423858062133e-12 2.5250656573709366e-14
6.280915325867298 7.471449760332963e-21 1.2456534987828876e-12 1.2204649556556104e-12 2.5188543127277187e-14
6.304513850009849 6.852589671751627e-21 1.1467685224745418e-12 1.1217948186710432e-12 2.4973703803498647e-14
6.32820103803542 6.098414924972401e-21 1.0243931608253032e-12 9.997306958771267e-13 2.4662464948176335e-14
6.3519772230701035 5.410291194523877e-21 9.122187732121473e-13 8.878367756019973e-13 2.4381997610150115e-14
6.375842739491607 4.829952544900227e-21 8.174287219553968e-13 7.932955769255871e-13 2.4133145029809936e-14
6.399797922933955 4.368497237359266e-21 7.421091042314434e-13 7.181106718820986e-13 2.3998432349344875e-14
6.42384311029221 3.9831684129467495e-21 6.791927289184824e-13 6.553062214064561e-13 2.3886507512026384e-14
6.447978639727206 3.70260593798075e-21 6.337245277675189e-13 6.098610802767209e-13 2.3863447490798082e-14
6.472204850670314 3.46765674510044e-21 5.957414098129425e-13 5.718834385234877e-13 2.385797128945472e-14
6.496522083828205 3.31355351527011e-21 5.714054011234563e-13 5.47481031652815e-13 2.3924369470641203e-14
