Dust emission spectrum from A.P. Jones, M. Kohler, N. Ysard, M. Bocchio, and L. Verstraete (2017), A&A, 602A, 46J 
inside the DustPedia framework.

lambda    nu*dP/dnu     j_nu    j_nu(carb.) j_nu(sil)
 (um)   (erg s-1 H-1) (Jy cm2 sr-1 H-1)
0.9927057738263894 4.807392412228549e-23 1.2667752060660056e-15 1.2667751804375272e-15 2.56284787828603e-23
1.0001793341362166 4.8883211187498116e-23 1.2977978110304976e-15 1.2977977801836471e-15 3.0846850741119405e-23
1.0077091589558085 4.969533153606167e-23 1.3292915105786027e-15 1.329291473500045e-15 3.70785576977034e-23
1.0114953028030835 5.0102410496809103e-23 1.3452156905280986e-15 1.345215649896634e-15 4.063146488300518e-23
1.0152956718711033 5.0510145929372966e-23 1.361258457712992e-15 1.3612584132029751e-15 4.451001675766007e-23
1.0229392996569957 5.132712312472905e-23 1.3936901148239219e-15 1.3936900614633253e-15 5.336059642047139e-23
1.0267826658714554 5.1735432718079855e-23 1.4100549817229905e-15 1.4100549233245642e-15 5.839842625430618e-23
1.0306404723013447 5.214431330039034e-23 1.4265387670535082e-15 1.4265387031628677e-15 6.389064045121184e-23
1.03451277320114 5.2553749521136786e-23 1.4431417705585389e-15 1.4431417006823863e-15 6.98761525448443e-23
1.0383996230291617 5.296372638960717e-23 1.4598642995254673e-15 1.4598642231284492e-15 7.639701795094066e-23
1.0403485208654093 5.316891298287794e-23 1.4682704842484572e-15 1.4682704043761897e-15 7.98722675800826e-23
1.0423010764483396 5.337422928444754e-23 1.476706669197341e-15 1.4767065856986696e-15 8.349867104166996e-23
1.0462171883269815 5.378524396314199e-23 1.493669203190079e-15 1.4936691119599001e-15 9.123017874626418e-23
1.0471985131304309 5.38880759668312e-23 1.4979286511185362e-15 1.497928557850948e-15 9.326758812070056e-23
1.048180758391296 5.399093887655391e-23 1.5021956353301839e-15 1.5021955399816624e-15 9.53485211276643e-23
1.0501480137395462 5.41967565714218e-23 1.5107522339154635e-15 1.510752134270952e-15 9.964451172499732e-23
1.0521189612883777 5.440269537815707e-23 1.5193390419420806e-15 1.519338937816652e-15 1.0412542937931566e-22
1.0531058218030118 5.450557150216708e-23 1.5236399253934014e-15 1.5236398189556599e-15 1.0643774143808782e-22
1.0540936079674168 5.460802458150002e-23 1.5279357035580819e-15 1.5279355947584164e-15 1.0879966589647792e-22
1.058054026499678 5.50181110886267e-23 1.5451937868449558e-15 1.5451936680862778e-15 1.1875867739314667e-22
1.0590464539527713 5.512070028650359e-23 1.549527077908979e-15 1.5495269565275214e-15 1.21381457175266e-22
1.06003981227728 5.522331612811933e-23 1.5538678882478842e-15 1.5538677641882871e-15 1.240595966202833e-22
1.0620293250338977 5.542862698665141e-23 1.5625720894414487e-15 1.5625719598550323e-15 1.2958641627278044e-22
1.0660195594769086 5.583956020903525e-23 1.5800709751343267e-15 1.5800708337796788e-15 1.4135464827774107e-22
1.070024785945596 5.625089912819642e-23 1.5976908188197485e-15 1.5976906646790364e-15 1.5414071206670773e-22
1.0740450607676866 5.666263256434342e-23 1.6154320069601465e-15 1.6154318389322243e-15 1.6802792219923989e-22
1.07808044048254 5.707474979420643e-23 1.6332949380462533e-15 1.6332947549402543e-15 1.8310599891323716e-22
1.0861967418109137 5.789945635486603e-23 1.6693692702182984e-15 1.6693690529898323e-15 2.1722846576155023e-22
1.0902777775684922 5.831057426142931e-23 1.687539362848353e-15 1.6875391263596873e-15 2.364886652548393e-22
1.0943741465085532 5.872201255541978e-23 1.7058317336102377e-15 1.7058314762379291e-15 2.5737230809750006e-22
1.1026131145906286 5.954581805935685e-23 1.7427851586447109e-15 1.7427848541081367e-15 3.0453657418712706e-22
1.1109141095355224 6.037081352870839e-23 1.7802333965882428e-15 1.780233036713199e-15 3.598750437642502e-22
1.1192775983109025 6.11962923846835e-23 1.818161074866916e-15 1.818160650148736e-15 4.247181799652125e-22
1.1277040513999907 6.201919850221282e-23 1.856481916011859e-15 1.8564814154138063e-15 5.005980532107985e-22
1.1361939428280308 6.284307039158615e-23 1.8953058295607895e-15 1.895305240284359e-15 5.892764308345803e-22
1.1447477501889525 6.366788478254301e-23 1.9346377304862553e-15 1.934637037709748e-15 6.927765068065721e-22
1.1533659546722406 6.44939344024368e-23 1.9744922445744126e-15 1.9744914311547074e-15 8.134197055992738e-22
1.1707974979042381 6.615224191778982e-23 2.0558706467342357e-15 2.0558695295721003e-15 1.1171621352853526e-21
1.1884924949847024 6.781539378445972e-23 2.139410705144688e-15 2.1394091784955763e-15 1.526649111632476e-21
1.2064549276569216 6.94947384450895e-23 2.225524908597916e-15 2.225522832657101e-15 2.075940815105063e-21
1.2246888378427687 7.117879552452091e-23 2.31390661316718e-15 2.313903804117698e-15 2.809049482123529e-21
1.2431983285522175 7.286597907647127e-23 2.4045546683989464e-15 2.4045508857519586e-15 3.78264698901242e-21
1.2619875648066055 7.45584936343704e-23 2.497592799280699e-15 2.4975877299461926e-15 5.0693345063238056e-21
1.3004222497298317 7.794775040214235e-23 2.690651251498494e-15 2.6906422749830693e-15 8.976515424941998e-21
1.3400274889804893 8.135497232150544e-23 2.8937915368237787e-15 2.8937759328442094e-15 1.5603979569920855e-20
1.3808389325824078 8.479091304990503e-23 3.10786230055787e-15 3.1078356603728823e-15 2.664018498758537e-20
1.4228933163050095 8.828360695363707e-23 3.3344318146136105e-15 3.3343871227782453e-15 4.469183536475155e-20
1.466228494730424 9.18950109737932e-23 3.5765394713057364e-15 3.5764657615009864e-15 7.370980475063805e-20
1.5108834753276823 9.561470025237478e-23 3.8346441857109076e-15 3.834524616418432e-15 1.195692924754851e-19
1.5568984535646726 9.943662736022901e-23 4.1093781369026206e-15 4.109187165342597e-15 1.9097156002310748e-19
1.6043148490894465 1.0338221644750314e-22 4.4025558616306885e-15 4.402254989533176e-15 3.008720975139132e-19
1.6531753430134553 1.0747396833595083e-22 4.716193736473305e-15 4.715726704804654e-15 4.67031668651961e-19
1.7035239163302658 1.1173876405114233e-22 5.052676945297675e-15 5.051962508886798e-15 7.144364108773691e-19
1.755405889504358 1.16259515505047e-22 5.417207772668189e-15 5.416130191161277e-15 1.0775815069107647e-18
1.8088679632656115 1.210316066335866e-22 5.8113241212344545e-15 5.809721027969036e-15 1.6030932654201099e-18
1.8639582606462262 1.2604795338297367e-22 6.236507006479212e-15 6.23415379438901e-15 2.3532120902002428e-18
1.9207263702978936 1.313188774508152e-22 6.695177473773779e-15 6.691767749641469e-15 3.4097241323109695e-18
1.979223391128241 1.3686178186000755e-22 7.1902905163034e-15 7.185411867872803e-15 4.878648430599181e-18
2.039501978296691 1.4268992321311155e-22 7.724793314400363e-15 7.71789798360928e-15 6.895330791082982e-18
2.1016163906111602 1.488599217951196e-22 8.30425480431814e-15 8.2946239777222e-15 9.630826595940884e-18
2.1656225393682647 1.5539235760205965e-22 8.932681550797024e-15 8.919383975611095e-15 1.3297575185930097e-17
2.231578038680979 1.6225699960754482e-22 9.61136239925139e-15 9.593206614689816e-15 1.8155784561575523e-17
2.299542257339062 1.6944549132694067e-22 1.0342864741661401e-14 1.0318344651231606e-14 2.452009042979639e-17
2.369576372248914 1.7696576754345829e-22 1.11308776194466e-14 1.1098110987549586e-14 3.2766631897012797e-17
2.4417434235010123 1.8482971131468619e-22 1.1979570423286969e-14 1.1936232049133202e-14 4.3338374153763234e-17
2.5161083711144245 1.9308341200315995e-22 1.2895664933365795e-14 1.2838912799074072e-14 5.67521342917267e-17
2.5927381535095444 2.0181938547734592e-22 1.3889639409069318e-14 1.3816036643772549e-14 7.360276529677212e-17
2.6717017477616296 2.1111873164363875e-22 1.497215021362399e-14 1.4877588059702496e-14 9.456215392149206e-17
2.753070231689431 2.211142410810795e-22 1.6158589133143738e-14 1.6038208973624572e-14 1.203801595191643e-16
2.836916847834745 2.321989652677464e-22 1.7485430109534046e-14 1.7333541941021455e-14 1.5188816851259058e-16
2.9233170693905177 2.4527101033157414e-22 1.903231318288137e-14 1.8842355941576668e-14 1.8995724130470325e-16
2.967498994190263 2.5344788976167843e-22 1.9964052030651008e-14 1.9752714158688006e-14 2.113378719630005e-16
3.0123486681368425 2.622501807497988e-22 2.0969615517294123e-14 2.073479917976672e-14 2.3481633752740484e-16
3.0578761833420214 2.7708848179739745e-22 2.2490950127713633e-14 2.2230311742698492e-14 2.6063838501513994e-16
3.1040917844459814 2.946399101094234e-22 2.4277030322737038e-14 2.3988301500547284e-14 2.887288221897536e-16
3.127460860933648 3.111419924935522e-22 2.5829734665491443e-14 2.55259693546547e-14 3.0376531083674107e-16
3.1510058709225794 3.3222279266614594e-22 2.778741005803214e-14 2.7467974126843587e-14 3.194359311885556e-16
3.162844764501044 3.5133841233051024e-22 2.949666693387621e-14 2.916912249749171e-14 3.2754443638450235e-16
3.1747281389236908 3.730410400069388e-22 3.143638418158686e-14 3.110056713230026e-14 3.3581704928660694e-16
3.1986289994194426 4.320152822994211e-22 3.668026067394047e-14 3.6327354845858003e-14 3.529058280824634e-16
3.2227097969389145 5.688064735899053e-22 4.865810181708356e-14 4.828709090748633e-14 3.7101090959721893e-16
3.2348180950136065 6.972999224699038e-22 5.987408834001686e-14 5.949341624122209e-14 3.806720987947578e-16
3.240889293275058 7.932937245969859e-22 6.824449869308323e-14 6.785873055570301e-14 3.8576813738020846e-16
3.2469718861334385 9.045265966928815e-22 7.795954625296643e-14 7.756850520522655e-14 3.910410477399113e-16
3.2714166318528037 1.4894830777488442e-21 1.2934238470579936e-13 1.2892955555500944e-13 4.1282915078991576e-16
3.2744851364798273 1.526075577562249e-21 1.3264427144059762e-13 1.3222887516035378e-13 4.1539628024383807e-16
3.2775565192852394 1.5636563790610425e-21 1.3603822086999477e-13 1.356202446808805e-13 4.1797618911422624e-16
3.283707930232385 1.5277046851488981e-21 1.3315987087897737e-13 1.3273728204802196e-13 4.2258883095541754e-16
3.2898708863219004 1.413225213778909e-21 1.2341264614213412e-13 1.2298586053073865e-13 4.2678561139548703e-16
3.29141343181113 1.3861762580856595e-21 1.2110730120961756e-13 1.206794617905996e-13 4.2783941901798524e-16
3.292184975758714 1.3728775979977858e-21 1.1997354181966228e-13 1.1954517480414227e-13 4.283670155200116e-16
3.295272960557952 1.2897979410115959e-21 1.1281906785104333e-13 1.1238864877028053e-13 4.304190807627816e-16
3.3076538914384823 1.0000504408514126e-21 8.780341305485658e-14 8.736475239789874e-14 4.3866065695785016e-16
3.310756385682612 9.40536786757895e-22 8.265563087065177e-14 8.221489296301331e-14 4.407379076384915e-16
3.313861789986515 8.854141356977506e-22 7.788436363511423e-14 7.744154172258795e-14 4.4282191252627727e-16
3.3200813396944477 8.084029671442005e-22 7.124363265345367e-14 7.07963278101965e-14 4.473048432571624e-16
3.345076488085796 6.7364729254442965e-22 5.98147172932951e-14 5.934743362062874e-14 4.672836726663497e-16
3.3482140837626964 6.791047864920766e-22 6.035586012682693e-14 5.988586997298677e-14 4.699901538401573e-16
3.3513546224236106 6.8461319309413515e-22 6.09024946297836e-14 6.042978585596073e-14 4.727087738228704e-16
3.3576445397418455 7.233301909220206e-22 6.446748719694423e-14 6.398909427187878e-14 4.783929250654583e-16
3.3702598118196083 8.638240137508946e-22 7.727839395978893e-14 7.678807840857343e-14 4.903155512155086e-16
3.382922481734668 8.972972016132774e-22 8.057453216976636e-14 8.00726281669342e-14 5.019040028321735e-16
3.389271646505754 9.145639527392389e-22 8.227916796639404e-14 8.177139023495921e-14 5.077777314348586e-16
3.395632727569191 9.335094459455154e-22 8.414123081893279e-14 8.362739984417367e-14 5.138309747591176e-16
3.421196662673239 1.0252820316454134e-21 9.31088192169085e-14 9.2569930820926e-14 5.388883959824844e-16
3.4276182099114902 1.0086406857083703e-21 9.176949818089037e-14 9.122501794632007e-14 5.444802345702707e-16
3.4340518103208963 9.330856925054588e-22 8.505459998928532e-14 8.450483092161328e-14 5.497690676720612e-16
3.4469541582030403 8.247963657181874e-22 7.546606049187927e-14 7.490614033537333e-14 5.59920156505923e-16
3.472904465399547 7.949966224032764e-22 7.328710276992529e-14 7.270379883371477e-14 5.833039362105289e-16
3.4990501388274233 7.496849210279234e-22 6.963031731891076e-14 6.902308502024925e-14 6.072322986615178e-16
3.5253949054701885 5.880348545279717e-22 5.502756232548781e-14 5.439708455128473e-14 6.304777742030746e-16
3.5519380250092896 4.343182642255511e-22 4.094896276020836e-14 4.0295121966012626e-14 6.538407941957279e-16
3.578680990867387 3.744475551474501e-22 3.556996344067568e-14 3.489051636520386e-14 6.794470754718283e-16
3.605625307711299 3.5150231999834714e-22 3.364172235197329e-14 3.293530800677522e-14 7.064143451980795e-16
3.660119384959845 3.3726890535627433e-22 3.276732490930689e-14 3.20042598540533e-14 7.630650552535941e-16
3.715437065384467 3.2785620151548904e-22 3.233424653390465e-14 3.1511469557466226e-14 8.227769764384226e-16
3.8285932144167436 3.282282174718497e-22 3.335681471038162e-14 3.2405737853881334e-14 9.510768565002983e-16
3.94519561050918 3.334127992553307e-22 3.491565889728142e-14 3.382473491351534e-14 1.0909239837660784e-15
4.06534921144712 3.402761885661882e-22 3.671967679346731e-14 3.547754321060955e-14 1.2421335828577471e-15
4.189162171576248 3.478906868548073e-22 3.868471564775545e-14 3.727975862708696e-14 1.404957020668486e-15
4.316745939156006 3.5586749858075604e-22 4.0776903914634736e-14 3.9198153920148436e-14 1.5787499944862996e-15
4.448215356677963 3.640343995194092e-22 4.298309290328977e-14 4.122203678336639e-14 1.7610561199233868e-15
4.58368876423945 3.723623776204608e-22 4.5305439608527623e-14 4.335339210776581e-14 1.9520475007618143e-15
4.723288106065518 3.80920066924252e-22 4.775817493772179e-14 4.5605310495650596e-14 2.1528644420711863e-15
4.867139040275056 3.898173925957477e-22 5.036216577972624e-14 4.800405711940029e-14 2.358108660325948e-15
4.940699165968905 3.9465638471038908e-22 5.1757939329742556e-14 4.9294940865340785e-14 2.4629984644017838e-15
5.015371051989984 3.993906848360816e-22 5.317046193482399e-14 5.060139632344406e-14 2.569065611379942e-15
5.091171501069577 4.0484570565513353e-22 5.471125750465991e-14 5.203265259189686e-14 2.6786049127630414e-15
5.129500256944802 4.0752891791684213e-22 5.548849175310677e-14 5.2754790325785144e-14 2.733701427321627e-15
5.168117569889187 4.102561138094114e-22 5.628036168499175e-14 5.3490809114534614e-14 2.7895525704571363e-15
5.20702561229733 4.1359091778533885e-22 5.71649911081646e-14 5.4314433854063056e-14 2.8505572541015344e-15
5.246226572918644 4.169187660542495e-22 5.805878186768769e-14 5.5146844384383947e-14 2.911937483303762e-15
5.265937586045735 4.1858039423381557e-22 5.850918155545154e-14 5.556642117579941e-14 2.9427603796521258e-15
5.285722656980489 4.202406702541803e-22 5.896195641215887e-14 5.59882889693917e-14 2.9736674427671684e-15
5.305582063971359 4.2189973556103087e-22 5.941713713499757e-14 5.641248176557915e-14 3.0046553694184196e-15
5.3255160863122235 4.236757563463042e-22 5.989143892005129e-14 5.685546789713993e-14 3.0359710229113718e-15
5.365609099470188 4.281419075023843e-22 6.097842495471056e-14 5.787766004287248e-14 3.1007649118380824e-15
5.406003951863644 4.326598034292254e-22 6.208580843039301e-14 5.891986913679717e-14 3.1659392935958442e-15
5.446702915881641 4.3723421127846115e-22 6.321457998986504e-14 5.998311218692446e-14 3.231467802940584e-15
5.487708281020852 4.420960455210372e-22 6.439869698084594e-14 6.110108808817957e-14 3.2976088926663547e-15
5.529022354014368 4.490398805118499e-22 6.590262180868809e-14 6.2536064716937e-14 3.3665570917510824e-15
5.570647458961463 4.562160736766366e-22 6.745989958203948e-14 6.402400103025185e-14 3.435898551787639e-15
5.612585937458331 4.636449560866988e-22 6.907453601473349e-14 6.55689295783439e-14 3.5056064363895947e-15
5.654840148729818 4.716902393238164e-22 7.08021841561461e-14 6.72261791072125e-14 3.576005048933587e-15
5.67608639626678 4.773414460692596e-22 7.19196515807582e-14 6.830679823764976e-14 3.612853343108452e-15
5.686739436050992 4.802287835400766e-22 7.24904756559038e-14 6.88591570450735e-14 3.6313186108303e-15
5.6974124697621304 4.831586743329109e-22 7.306962454714722e-14 6.941981381810287e-14 3.649810729044364e-15
5.718818669136295 4.891504691649623e-22 7.425372302463343e-14 7.056684920882775e-14 3.686873815805673e-15
5.740305295436557 4.957532502555794e-22 7.553878480131296e-14 7.181446241968665e-14 3.724322381626305e-15
5.7835210386641895 5.131216721035422e-22 7.877385705269322e-14 7.497213328326664e-14 3.8017237694265895e-15
5.827062130521658 5.327954442407137e-22 8.240993744095335e-14 7.852964493811092e-14 3.8802925028424206e-15
5.8489554468988025 5.469185108976269e-22 8.491225391261408e-14 8.09894757968062e-14 3.922778115807882e-15
5.870931020387893 5.6188051887685025e-22 8.756295021001786e-14 8.359750984117709e-14 3.965440368840786e-15
5.892989160043636 5.777477575852458e-22 9.037396649619134e-14 8.636569046035386e-14 4.008276035837501e-15
5.915130176081913 5.95753347086345e-22 9.354061711866575e-14 8.948791959068954e-14 4.052697527976211e-15
5.95966208400165 6.4666725814156875e-22 1.0229913021593622e-13 9.81448406558531e-14 4.154289560083139e-15
6.004529249263818 7.19865324763664e-22 1.1473598602552716e-13 1.1046716634470541e-13 4.268819680821729e-15
6.027089341400364 7.708665064462346e-22 1.2332645233540795e-13 1.1899127065909156e-13 4.3351816763163786e-15
6.049734195844842 8.306635904157218e-22 1.3339234323895722e-13 1.2898682644880497e-13 4.405516790152229e-15
6.095279466722835 1.0034474271317333e-21 1.6235201362824688e-13 1.5777297023737718e-13 4.579043390869778e-15
6.141167624020661 1.2674680701753097e-21 2.066128898817808e-13 2.018078356556165e-13 4.805054226164254e-15
6.164241091010745 1.4358524584310065e-21 2.34941028332921e-13 2.29993738486431e-13 4.947289846489996e-15
6.187401249150058 1.6254825625535756e-21 2.669685044879255e-13 2.6187522301884913e-13 5.093281469076312e-15
6.1990139391386085 1.7176585877349597e-21 2.8263691950370894e-13 2.7746936513122655e-13 5.167554372482464e-15
6.204828454712694 1.766028871910872e-21 2.908687144282248e-13 2.856636522506374e-13 5.205062177587394e-15
6.210648424152782 1.8010411016337244e-21 2.969135394736681e-13 2.9167660741571204e-13 5.236932057956043e-15
6.233982942956859 1.9185073759851237e-21 3.1746694732177004e-13 3.121192693644641e-13 5.347677957305882e-15
6.239830258556775 1.932672971774247e-21 3.2011098810596645e-13 3.147482189623089e-13 5.362769143657566e-15
6.245683058788269 1.932550534227152e-21 3.20390945474038e-13 3.1501306346474e-13 5.377882009298014e-15
6.257405133728602 1.9262176653348673e-21 3.1994038910723947e-13 3.1453621621159513e-13 5.4041728956443896e-15
6.269149208991335 1.89922283130382e-21 3.1604866625034293e-13 3.1063561383609245e-13 5.413052414250564e-15
6.280915325867298 1.8361325604727114e-21 3.061233122820446e-13 3.007229016206977e-13 5.400410661346817e-15
6.304513850009849 1.682470352955607e-21 2.8155837912193816e-13 2.7620271202810313e-13 5.355667093835089e-15
6.32820103803542 1.4948671070108761e-21 2.51103222657743e-13 2.4581300306678626e-13 5.290219590956717e-15
6.3519772230701035 1.3235994846995921e-21 2.2316955866978028e-13 2.1793818796075744e-13 5.231370709022855e-15
6.375842739491607 1.1791566445166532e-21 1.9956231452629585e-13 1.9438301939390182e-13 5.179295132393979e-15
6.399797922933955 1.064264252864602e-21 1.807944811329047e-13 1.7564272816639541e-13 5.151752966509287e-15
6.42384311029221 9.683404586275953e-22 1.6511724597928616e-13 1.5998814255895821e-13 5.1291034203279624e-15
6.447978639727206 8.98529185678343e-22 1.5378897820000783e-13 1.4866340809303935e-13 5.1255701069684984e-15
6.472204850670314 8.400892496577377e-22 1.4432684396082044e-13 1.3920102018727333e-13 5.125823773547095e-15
6.496522083828205 8.018323570037552e-22 1.382718997825356e-13 1.331303470734948e-13 5.141552709040818e-15
