Dust emission spectrum from A.P. Jones, M. Kohler, N. Ysard, M. Bocchio, and L. Verstraete (2017), A&A, 602A, 46J 
inside the DustPedia framework.

lambda    nu*dP/dnu     j_nu    j_nu(carb.) j_nu(sil)
 (um)   (erg s-1 H-1) (Jy cm2 sr-1 H-1)
0.9927057738263894 7.11867300655066e-25 1.8758107704815778e-17 1.8758106645996715e-17 1.0588190587855745e-24
1.0001793341362166 7.238360737238471e-25 1.9217085972943784e-17 1.9217084698303095e-17 1.2746406935252505e-24
1.0077091589558085 7.358346318034942e-25 1.968270859680905e-17 1.9682707064377523e-17 1.5324315276190551e-24
1.0114953028030835 7.41844252623262e-25 1.9918014296347266e-17 1.991801261691478e-17 1.6794324831702483e-24
1.0152956718711033 7.478603342626494e-25 2.0154984438702352e-17 2.015498259877614e-17 1.839926202291328e-24
1.0229392996569957 7.599047525983014e-25 2.0633763932771777e-17 2.0633761726542552e-17 2.2062292295610093e-24
1.0267826658714554 7.659191923691058e-25 2.0875212906451373e-17 2.087521049168158e-17 2.414769791243884e-24
1.0306404723013447 7.719385300829077e-25 2.111831893540969e-17 2.111831629326167e-17 2.6421480156935013e-24
1.03451277320114 7.779624630166019e-25 2.136308325354243e-17 2.1363080363562277e-17 2.889980154039532e-24
1.0383996230291617 7.839906932900586e-25 2.1609507153540476e-17 2.1609503993527227e-17 3.1600132465077914e-24
1.0403485208654093 7.870063282007887e-25 2.173334186813434e-17 2.1733338564195052e-17 3.3039392845276017e-24
1.0423010764483396 7.900229280078004e-25 2.1857591992393773e-17 2.185758853825875e-17 3.4541350181615794e-24
1.0462171883269815 7.960588793999084e-25 2.210733919698274e-17 2.210733542259827e-17 3.7743844667935134e-24
1.0471985131304309 7.975684147546426e-25 2.217003591710204e-17 2.2170032058318503e-17 3.858783535633768e-24
1.048180758391296 7.990781603567623e-25 2.2232836652834614e-17 2.2232832707846228e-17 3.944988391370265e-24
1.0501480137395462 8.020982649621094e-25 2.235875026975686e-17 2.2358746146793672e-17 4.12296318701029e-24
1.0521189612883777 8.05119158748518e-25 2.24850802483093e-17 2.2485075939697858e-17 4.308611444917628e-24
1.0531058218030118 8.066278059693078e-25 2.2548343155313118e-17 2.2548338750895885e-17 4.404417229870815e-24
1.0540936079674168 8.081298069239501e-25 2.2611518995084018e-17 2.2611514492802294e-17 4.502281727210782e-24
1.058054026499678 8.141392915731784e-25 2.2865252006539395e-17 2.2865247091578983e-17 4.91496041043258e-24
1.0590464539527713 8.156420123503495e-25 2.29289428009407e-17 2.2928937777289277e-17 5.023651427060538e-24
1.06003981227728 8.171448648164115e-25 2.2992736664691888e-17 2.2992731530051538e-17 5.134640347922815e-24
1.0620293250338977 8.201509486860449e-25 2.312063370890221e-17 2.3120628345204742e-17 5.363697469415826e-24
1.0660195594769086 8.261645205831737e-25 2.337766584787707e-17 2.337765999639936e-17 5.8514777134495925e-24
1.070024785945596 8.32179755616806e-25 2.3636350276402466e-17 2.3636343894884165e-17 6.3815182983304014e-24
1.0740450607676866 8.381964083043481e-25 2.3896688960864722e-17 2.3896682003579145e-17 6.95728557724541e-24
1.07808044048254 8.442142394608826e-25 2.4158683987397734e-17 2.415867640488466e-17 7.58251307612465e-24
1.0861967418109137 8.56242931740968e-25 2.468737580762909e-17 2.4687366809893048e-17 8.997736046255514e-24
1.0902777775684922 8.62231559898262e-25 2.4953444819371742e-17 2.4953435022655637e-17 9.796716101102729e-24
1.0943741465085532 8.682200939234919e-25 2.5221161937782743e-17 2.52211512746172e-17 1.0663165543787155e-23
1.1026131145906286 8.801960718201892e-25 2.576155136766238e-17 2.576153874725354e-17 1.2620408840014111e-23
1.1109141095355224 8.921693220214823e-25 2.630856749543149e-17 2.6308552577896534e-17 1.4917534958108283e-23
1.1192775983109025 9.041285988945178e-25 2.686194475395059e-17 2.6861927143956152e-17 1.7609994439457226e-23
1.1277040513999907 9.160274604935698e-25 2.7420354600614578e-17 2.7420333838950087e-17 2.0761664500609554e-23
1.1361939428280308 9.279182312930074e-25 2.7985405903414277e-17 2.7985381457388487e-17 2.4446025782186158e-23
1.1447477501889525 9.39799880168806e-25 2.855713384371071e-17 2.8557105096215675e-17 2.8747495035697166e-23
1.1533659546722406 9.516763252854147e-25 2.9135724793836265e-17 2.913569103086674e-17 3.376296952513689e-23
1.1707974979042381 9.754501642830459e-25 3.0314911512655864e-17 3.031486511623687e-17 4.639641897999177e-23
1.1884924949847024 9.99192785507133e-25 3.152210173123204e-17 3.1522038292434496e-17 6.34387975456385e-23
1.2064549276569216 1.0230709788669738e-24 3.276319902306195e-17 3.2763112708708814e-17 8.631435314163985e-23
1.2246888378427687 1.046904557664785e-24 3.403316059908436e-17 3.4033043734114445e-17 1.1686496991949382e-22
1.2431983285522175 1.0706661708149649e-24 3.5331650956451044e-17 3.533149349216348e-17 1.5746428757263815e-22
1.2619875648066055 1.0943810249331975e-24 3.6660050844731194e-17 3.66598396891133e-17 2.1115561789098896e-22
1.3004222497298317 1.141473749459784e-24 3.9402134849195526e-17 3.94017604782166e-17 3.7437097891351294e-22
1.3400274889804893 1.1882688427426352e-24 4.226665220917372e-17 4.226600059982181e-17 6.516093519128767e-22
1.3808389325824078 1.234892832335179e-24 4.5262832310636765e-17 4.526171837325942e-17 1.113937377357306e-21
1.4228933163050095 1.2817439512124655e-24 4.841088800728171e-17 4.840901673555785e-17 1.871271723852681e-21
1.466228494730424 1.3297435972831807e-24 5.175341307435795e-17 5.175032254968794e-17 3.0905246699946273e-21
1.5108834753276823 1.3787406880945213e-24 5.5294635126708963e-17 5.528961473226928e-17 5.0203944396760224e-21
1.5568984535646726 1.42868114002674e-24 5.904253993010201e-17 5.903451003980715e-17 8.029890294864835e-21
1.6043148490894465 1.4799583339511869e-24 6.302437171498028e-17 6.301170237892985e-17 1.2669336050442345e-20
1.6531753430134553 1.533019191117634e-24 6.727224851735435e-17 6.725255329330199e-17 1.9695224052369618e-20
1.7035239163302658 1.588435176715666e-24 7.182690684512752e-17 7.179673283644243e-17 3.0174008685073394e-20
1.755405889504358 1.6476708790308857e-24 7.677458016154953e-17 7.672899885601749e-17 4.558130553204645e-20
1.8088679632656115 1.7109508374420097e-24 8.215118470644066e-17 8.208326821346555e-17 6.791649297510618e-20
1.8639582606462262 1.7785571271376334e-24 8.799812838782414e-17 8.789827329406536e-17 9.985509375877184e-20
1.9207263702978936 1.851115394641932e-24 9.437749036656562e-17 9.42325683554497e-17 1.4492201111588973e-19
1.979223391128241 1.9294547302629404e-24 1.0136752466687191e-16 1.0115982576181917e-16 2.0769890505274075e-19
2.039501978296691 2.0144573846435252e-24 1.0905652331032194e-16 1.0876247175193281e-16 2.9405155838911693e-19
2.1016163906111602 2.1077485110028467e-24 1.1758222419920447e-16 1.1717080905973474e-16 4.114151394697027e-19
2.1656225393682647 2.2105436729844684e-24 1.2707241842270451e-16 1.2650336544696994e-16 5.690529757345527e-19
2.231578038680979 2.323439441568327e-24 1.3762992376070703e-16 1.3685157435112294e-16 7.783494095840975e-19
2.299542257339062 2.447449281491073e-24 1.4939103237451475e-16 1.4833791346022242e-16 1.0531189142922947e-18
2.369576372248914 2.583962315788875e-24 1.6252729954252104e-16 1.6111736139850388e-16 1.4099381440171232e-18
2.4417434235010123 2.7345213687479297e-24 1.7723552711244204e-16 1.7536711922984356e-16 1.8684078825984714e-18
2.5161083711144245 2.9012973476695298e-24 1.93771997705307e-16 1.9132050385523235e-16 2.4514938500746032e-18
2.5927381535095444 3.087275353533611e-24 2.124728569342623e-16 2.0928710537933545e-16 3.185751554926842e-18
2.6717017477616296 3.295440486761268e-24 2.33706547987091e-16 2.2960521767895785e-16 4.101330308133211e-18
2.753070231689431 3.529706378347327e-24 2.5794392459523807e-16 2.527118569945897e-16 5.23206760064834e-18
2.836916847834745 3.7983154060157425e-24 2.860270220811363e-16 2.7941132264794425e-16 6.615699433192082e-18
2.9233170693905177 4.1179937786761235e-24 3.1954427543217767e-16 3.1125212432240057e-16 8.292151109777117e-18
2.967498994190263 4.3116025825292695e-24 3.3962428479496667e-16 3.303877960197489e-16 9.23648877521779e-18
3.0123486681368425 4.521154685977921e-24 3.615130986301232e-16 3.5123833303530836e-16 1.0274765594814845e-17
3.0578761833420214 4.838105200496809e-24 3.927033778927282e-16 3.81285389700097e-16 1.1417988192631242e-17
3.1040917844459814 5.2078971989702316e-24 4.291077816652305e-16 4.164442107284607e-16 1.2663570936769869e-17
3.127460860933648 5.5255973318454875e-24 4.58712473382628e-16 4.453813915258619e-16 1.3331081856765961e-17
3.1510058709225794 5.923489169145426e-24 4.954459060331923e-16 4.81418603319036e-16 1.4027302714156315e-17
3.162844764501044 6.267462819837704e-24 5.26185742375632e-16 5.117979766664277e-16 1.43877657092043e-17
3.1747281389236908 6.657233090532899e-24 5.61008882605711e-16 5.462532076761945e-16 1.4755674929516465e-17
3.1986289994194426 7.706423987630257e-24 6.543139845091641e-16 6.387978562404443e-16 1.5516128268719846e-17
3.2227097969389145 1.0084857422600607e-23 8.627011858403359e-16 8.463788007703365e-16 1.6322385069999435e-17
3.2348180950136065 1.230247915238598e-23 1.0563599676908985e-15 1.0396072030778908e-15 1.675276461300771e-17
3.240889293275058 1.3953233006592002e-23 1.2003516001168575e-15 1.1833718194963277e-15 1.697978062053001e-17
3.2469718861334385 1.586322749239159e-23 1.3672234978341172e-15 1.350008819661117e-15 1.7214678173000133e-17
3.2714166318528037 2.5928167092232225e-23 2.2515267295471965e-15 2.2333409610987554e-15 1.8185768448440524e-17
3.2744851364798273 2.656155019786614e-23 2.3086913427687702e-15 2.29039102430357e-15 1.830031846520054e-17
3.2775565192852394 2.7212169290403766e-23 2.367460745117531e-15 2.3490452939806034e-15 1.8415451136927e-17
3.283707930232385 2.661108043606829e-23 2.319511139334866e-15 2.3008895709516265e-15 1.8621568383239995e-17
3.2898708863219004 2.4666076401944006e-23 2.15401319551053e-15 2.1352038434837606e-15 1.880935202676981e-17
3.29141343181113 2.420690427567521e-23 2.1149062612825503e-15 2.096049750463026e-15 1.885651081952428e-17
3.292184975758714 2.3981210267137854e-23 2.0956789862887817e-15 2.0767988640964947e-15 1.888012219228689e-17
3.295272960557952 2.2563556770266414e-23 1.9736420421240757e-15 1.9546700374129538e-15 1.8972004711121968e-17
3.3076538914384823 1.7630811874970242e-23 1.5479673767580399e-15 1.5286262234145143e-15 1.9341153343525628e-17
3.310756385682612 1.662108751461769e-23 1.4606834029455964e-15 1.4412491812335835e-15 1.9434221712012814e-17
3.313861789986515 1.5687229691187944e-23 1.3799078334492716e-15 1.3603802301965571e-15 1.9527603252715043e-17
3.3200813396944477 1.4385924596438238e-23 1.2678151478705663e-15 1.2480867858023257e-15 1.972836206824055e-17
3.345076488085796 1.2133190524469552e-23 1.0773343396744482e-15 1.0567115668992884e-15 2.062277277516011e-17
3.3482140837626964 1.2233238965549602e-23 1.0872367189704317e-15 1.0664927947220202e-15 2.0743924248411436e-17
3.3513546224236106 1.233421845461929e-23 1.0972395518701907e-15 1.0763739189105254e-15 2.086563295966523e-17
3.3576445397418455 1.3009969584921647e-23 1.159525840583902e-15 1.1384057804920645e-15 2.112006009183731e-17
3.3702598118196083 1.5445984850074316e-23 1.3818102800337185e-15 1.3601565272662515e-15 2.1653752767467037e-17
3.382922481734668 1.6045729685974534e-23 1.440857232637556e-15 1.4186842825646985e-15 2.2172950072857668e-17
3.389271646505754 1.635510035158751e-23 1.4713941489876123e-15 1.4489579470085875e-15 2.243620197902474e-17
3.395632727569191 1.6692015299427194e-23 1.5045232999433776e-15 1.481815798313375e-15 2.2707501630002353e-17
3.421196662673239 1.8309029071569462e-23 1.662695751261788e-15 1.6388646902818753e-15 2.3831060979912592e-17
3.4276182099114902 1.80374641130513e-23 1.6411087254010815e-15 1.617026423358797e-15 2.408230204228472e-17
3.4340518103208963 1.6758048630362513e-23 1.527565082505148e-15 1.5032449073622726e-15 2.432017514287547e-17
3.4469541582030403 1.493548378748695e-23 1.366545937675824e-15 1.3417687015534235e-15 2.4777236122400362e-17
3.472904465399547 1.4489128886124654e-23 1.335686527213269e-15 1.3098571473612448e-15 2.5829379852024235e-17
3.4990501388274233 1.3775492532694474e-23 1.279460062983013e-15 1.252552891755912e-15 2.690717122710081e-17
3.5253949054701885 1.1057581454648473e-23 1.0347545693584106e-15 1.006798540576969e-15 2.79560287814415e-17
3.5519380250092896 8.482730863053157e-24 7.997799282869727e-16 7.707682579371092e-16 2.901167034986356e-17
3.578680990867387 7.518698332809804e-24 7.142250527292171e-16 6.840561514983801e-16 3.0168901230837064e-17
3.605625307711299 7.188389881311946e-24 6.879892472572242e-16 6.566006960640725e-16 3.138855119315164e-17
3.660119384959845 7.074459822065628e-24 6.873183974745251e-16 6.533636093141643e-16 3.395478816036081e-17
3.715437065384467 7.05005061507503e-24 6.952989560991197e-16 6.586332756258262e-16 3.666568047329341e-17
3.8285932144167436 7.345902188217143e-24 7.465412329881769e-16 7.040297721642878e-16 4.251146082388914e-17
3.94519561050918 7.745941427696273e-24 8.11170564932774e-16 7.622553431861608e-16 4.8915221746613035e-17
4.06534921144712 8.195504947290919e-24 8.843883378729242e-16 8.285118726862434e-16 5.587646518668103e-17
4.189162171576248 8.677532763073573e-24 9.64923466329188e-16 9.015086692286374e-16 6.341479710055064e-17
4.316745939156006 9.183879299804537e-24 1.0523303343667122e-15 9.80820499827903e-16 7.150983453880935e-17
4.448215356677963 9.709474422200303e-24 1.14643902247293e-15 1.0663808152529848e-15 8.005820721994536e-17
4.58368876423945 1.0252318709521809e-23 1.2474026219025174e-15 1.1583257943023886e-15 8.907682760012902e-17
4.723288106065518 1.0812176795261531e-23 1.3555857926181644e-15 1.2569577926554772e-15 9.862799996268699e-17
4.867139040275056 1.138808512959348e-23 1.4712751203612614e-15 1.3628016131444058e-15 1.0847350721685625e-16
4.940699165968905 1.1686445125850466e-23 1.53264039614614e-15 1.4191027832794106e-15 1.135376128667295e-16
5.015371051989984 1.1984788809092527e-23 1.5955223328062702e-15 1.4768406093971251e-15 1.1868172340914506e-16
5.091171501069577 1.2298433211414333e-23 1.6620226840363895e-15 1.5380085515018951e-15 1.2401413253449407e-16
5.129500256944802 1.2455007468027581e-23 1.6958540824716523e-15 1.5691480680132808e-15 1.267060144583715e-16
5.168117569889187 1.2612822471436685e-23 1.730270888518234e-15 1.6008311981418218e-15 1.2943969037641237e-16
5.20702561229733 1.2783077437186817e-23 1.7668291942789558e-15 1.6344126985189623e-15 1.3241649575999311e-16
5.246226572918644 1.2953557286113267e-23 1.8038712049416066e-15 1.6684526438914613e-15 1.354185610501443e-16
5.265937586045735 1.3038875055814144e-23 1.8225743929452453e-15 1.685645646747729e-15 1.3692874619751668e-16
5.285722656980489 1.3124241485544466e-23 1.8413994865020385e-15 1.7029546273375954e-15 1.384448591644429e-16
5.305582063971359 1.3209654292775341e-23 1.8603468418296817e-15 1.7203800742109456e-15 1.399667676187362e-16
5.3255160863122235 1.329734224174475e-23 1.879732197892188e-15 1.7382263375450772e-15 1.4150586034711025e-16
5.365609099470188 1.349023729024292e-23 1.921356932852303e-15 1.7766668089874472e-15 1.4469012386485607e-16
5.406003951863644 1.368443151117354e-23 1.9636882986300654e-15 1.8157875424376e-15 1.479007561924648e-16
5.446702915881641 1.3879979881545042e-23 2.0067439277317816e-15 1.8556072145476667e-15 1.511367131841148e-16
5.487708281020852 1.408121305140222e-23 2.051164631774192e-15 1.8967544404946062e-15 1.544101912795857e-16
5.529022354014368 1.432213819050878e-23 2.1019657665706162e-15 1.9441422009873518e-15 1.5782356558326385e-16
5.570647458961463 1.456785632685412e-23 2.1541242881146765e-15 1.992859371631318e-15 1.612649164833583e-16
5.612585937458331 1.4818731451397732e-23 2.207717318811573e-15 2.042984129209147e-15 1.6473318960242585e-16
5.654840148729818 1.5081669681904143e-23 2.263805915787214e-15 2.0955621419945714e-15 1.6824377379264287e-16
5.67608639626678 1.5244309489567397e-23 2.2968159084175912e-15 2.1267357569740206e-15 1.7008015144357058e-16
5.686739436050992 1.5326856001863916e-23 2.3135870234482494e-15 2.1425857612578615e-15 1.710012621903871e-16
5.6974124697621304 1.541024696464328e-23 2.3305407099230447e-15 2.1586164107780435e-15 1.7192429914500073e-16
5.718818669136295 1.55796455792587e-23 2.3650119147163526e-15 2.191235828848633e-15 1.7377608586771948e-16
5.740305295436557 1.5760841722618726e-23 2.401506859629614e-15 2.2258580167356835e-15 1.7564884289393065e-16
5.7835210386641895 1.6203254930233024e-23 2.4875053170721693e-15 2.3079836618344122e-15 1.7952165523775738e-16
5.827062130521658 1.669060065157466e-23 2.5816124563684766e-15 2.3981512658652766e-15 1.8346119050320107e-16
5.8489554468988025 1.701704598955565e-23 2.6419945588169166e-15 2.4564072647563265e-15 1.855872940605902e-16
5.870931020387893 1.7359808895947824e-23 2.705336866011661e-15 2.5176119437829757e-15 1.8772492222868588e-16
5.892989160043636 1.7720175303274916e-23 2.771871475292595e-15 2.5819975135045893e-15 1.8987396178800587e-16
5.915130176081913 1.8122108733120884e-23 2.8453943946403105e-15 2.6532930619786126e-15 1.9210133266169724e-16
5.95966208400165 1.9215281579192664e-23 3.0397496821702035e-15 2.842578754732601e-15 1.9717092743760277e-16
6.004529249263818 2.0740900170936358e-23 3.3057956124649933e-15 3.1029226220757138e-15 2.0287299038927804e-16
6.027089341400364 2.1783622913877311e-23 3.4850352305041614e-15 3.2788704563350133e-15 2.0616477416914863e-16
6.049734195844842 2.2996799706141618e-23 3.692947464164107e-15 3.4832962627772593e-15 2.0965120138684865e-16
6.095279466722835 2.6457284031750592e-23 4.280636156462305e-15 4.062424940936864e-15 2.1821121552544115e-16
6.141167624020661 3.1690360079793775e-23 5.165918599097157e-15 4.936609398042481e-15 2.2930920105467786e-16
6.164241091010745 3.5019759138369506e-23 5.730100036134791e-15 5.493831101347187e-15 2.362689347876051e-16
6.187401249150058 3.8757580415099075e-23 6.3655270867591816e-15 6.122108851214336e-15 2.4341823554484586e-16
6.1990139391386085 4.0577519201953215e-23 6.67694098829395e-15 6.4298844187170915e-15 2.4705656957685865e-16
6.204828454712694 4.153147161384179e-23 6.840321779994169e-15 6.591427238597175e-15 2.4889454139699334e-16
6.210648424152782 4.2227271664556545e-23 6.961445066892996e-15 6.710983236359674e-15 2.5046183053332144e-16
6.233982942956859 4.457294439608983e-23 7.375753029515252e-15 7.119821130862961e-15 2.559318986522923e-16
6.239830258556775 4.4863742716932836e-23 7.430836577626006e-15 7.17414129289719e-15 2.566952847288159e-16
6.245683058788269 4.487848856721836e-23 7.440251175241365e-15 7.182791181639633e-15 2.574599936017316e-16
6.257405133728602 4.4789516278717504e-23 7.439437153976414e-15 7.180636102110114e-15 2.588010518662989e-16
6.269149208991335 4.429881104206804e-23 7.371741701688658e-15 7.112435507571518e-15 2.593061941171398e-16
6.280915325867298 4.310655023311425e-23 7.186801335855616e-15 6.928023987959542e-15 2.587773478960729e-16
6.304513850009849 4.0182880067091717e-23 6.724532506778801e-15 6.467748849666976e-15 2.5678365711182486e-16
6.32820103803542 3.659977645105008e-23 6.147918950326319e-15 5.8941248925509524e-15 2.537940577753677e-16
6.3519772230701035 3.333038868817122e-23 5.619772612347029e-15 5.368651668106664e-15 2.5112094424036467e-16
6.375842739491607 3.0570661554201254e-23 5.173826568951915e-15 4.9250545794074856e-15 2.487719895444309e-16
6.399797922933955 2.83943583351776e-23 4.8235607542888156e-15 4.575954969566773e-15 2.4760578472204236e-16
6.42384311029221 2.657897049743764e-23 4.532131617965771e-15 4.285456623580423e-15 2.4667499438534784e-16
6.447978639727206 2.527578569480732e-23 4.3261112907225226e-15 4.0794436658460786e-15 2.466676248764432e-16
6.472204850670314 2.418986684141867e-23 4.1558050391393915e-15 3.908961167416681e-15 2.468438717227112e-16
