Dust emission spectrum from A.P. Jones, M. Kohler, N. Ysard, M. Bocchio, and L. Verstraete (2017), A&A, 602A, 46J 
inside the DustPedia framework.

lambda    nu*dP/dnu     j_nu    j_nu(carb.) j_nu(sil)
 (um)   (erg s-1 H-1) (Jy cm2 sr-1 H-1)
0.9927057738263894 9.694385976818834e-27 2.554525767904849e-19 2.5545257675458786e-19 3.589698491916314e-29
1.0001793341362166 9.853937512142966e-27 2.6161167040026794e-19 2.6161167035702957e-19 4.3238384379932183e-29
1.0077091589558085 1.0013247599252579e-26 2.6784256419235634e-19 2.678425641403422e-19 5.201399773879472e-29
1.0114953028030835 1.0092792509886436e-26 2.7098462351244343e-19 2.7098462345542232e-19 5.702099093269308e-29
1.0152956718711033 1.0172253614860679e-26 2.7414425384144905e-19 2.7414425377895936e-19 6.248970167875158e-29
1.0229392996569957 1.0330815170793333e-26 2.8051357849571033e-19 2.8051357842073156e-19 7.497877018485758e-29
1.0267826658714554 1.04097227011248e-26 2.8371815179476294e-19 2.837181517126698e-19 8.209313597931206e-29
1.0306404723013447 1.0488511597317465e-26 2.8693960003020455e-19 2.869395999403512e-19 8.985333519168772e-29
1.03451277320114 1.0567174273346014e-26 2.9017778426073634e-19 2.9017778416242123e-19 9.831512066441785e-29
1.0383996230291617 1.0645703186421007e-26 2.9343256384335766e-19 2.934325637358189e-19 1.075387907386709e-28
1.0403485208654093 1.0684915136908607e-26 2.9506613248374314e-19 2.950661323712867e-19 1.1245650356075901e-28
1.0423010764483396 1.0724090838437279e-26 2.967037964670509e-19 2.967037963494615e-19 1.1758953633617601e-28
1.0462171883269815 1.0802329777390404e-26 2.9999133818651574e-19 2.9999133805797807e-19 1.2853781259496431e-28
1.0471985131304309 1.0821865406932603e-26 3.008157548911304e-19 3.0081575475970637e-19 1.3142391043447872e-28
1.048180758391296 1.0841391163663874e-26 3.0164117953569055e-19 3.016411794013184e-19 1.343720787142819e-28
1.0501480137395462 1.0880412598760852e-26 3.0329504345593147e-19 3.0329504331547176e-19 1.4045973664441208e-28
1.0521189612883777 1.0919393164757742e-26 3.0495291150947267e-19 3.0495291136266164e-19 1.4681125553090154e-28
1.0531058218030118 1.0938837788013841e-26 3.057825013458903e-19 3.0578250119580077e-19 1.500895586910345e-28
1.0540936079674168 1.0958173406119215e-26 3.06610329183424e-19 3.066103290299853e-19 1.534386608709168e-28
1.058054026499678 1.103540395306743e-26 3.099313532617625e-19 3.0993135309419733e-19 1.6756522436127468e-28
1.0590464539527713 1.1054683045392678e-26 3.107640256292508e-19 3.107640254579639e-19 1.7128689059570917e-28
1.06003981227728 1.1073950495470456e-26 3.115976597826288e-19 3.115976596075411e-19 1.7508766276424937e-28
1.0620293250338977 1.1112450021614936e-26 3.132678038961745e-19 3.1326780371324143e-19 1.8293295514647082e-28
1.0660195594769086 1.1189304459010446e-26 3.166195281882391e-19 3.166195279885938e-19 1.9964528727228313e-28
1.070024785945596 1.1265960167806276e-26 3.199863718493099e-19 3.199863716314961e-19 2.178137722873021e-28
1.0740450607676866 1.1342410107028069e-26 3.2336817923443256e-19 3.23368178996874e-19 2.3755867385309874e-28
1.07808044048254 1.1418647293312205e-26 3.2676479337620336e-19 3.267647931171938e-19 2.590096025298398e-28
1.0861967418109137 1.1570320506563652e-26 3.335979077567052e-19 3.3359790744910624e-19 3.0759886818178886e-28
1.0902777775684922 1.1645435293718452e-26 3.370251571789553e-19 3.370251568439058e-19 3.350495909488255e-28
1.0943741465085532 1.1720304639500632e-26 3.404663210882106e-19 3.4046632072337806e-19 3.648325179523726e-28
1.1026131145906286 1.1869280511614292e-26 3.473897343859199e-19 3.47389733953761e-19 4.321589530968918e-28
1.1109141095355224 1.2017195786174038e-26 3.5436682100885103e-19 3.543668204975973e-19 5.112536021511917e-28
1.1192775983109025 1.2163861290888554e-26 3.6139214088579775e-19 3.6139214028174624e-19 6.040516004453098e-28
1.1277040513999907 1.2308593452655916e-26 3.684452832066571e-19 3.6844528249387206e-19 7.127850266897974e-28
1.1361939428280308 1.2452094935460715e-26 3.7554702490448136e-19 3.7554702406445673e-19 8.400247049381584e-28
1.1447477501889525 1.2594318181665877e-26 3.8269597344437883e-19 3.8269597245565093e-19 9.887279363564293e-28
1.1533659546722406 1.273529461451588e-26 3.898931067195336e-19 3.8989310555723996e-19 1.1622936661441462e-27
1.1707974979042381 1.301396641072273e-26 4.044463311559382e-19 4.0444632955574555e-19 1.600192664809613e-27
1.1884924949847024 1.3287054134735275e-26 4.19174235661575e-19 4.191742334694009e-19 2.1921741793791146e-27
1.2064549276569216 1.3556706890478297e-26 4.34144937276936e-19 4.341449342884295e-19 2.988506495138577e-27
1.2246888378427687 1.3819970550268026e-26 4.492647145036963e-19 4.4926471044931775e-19 4.054378479746566e-27
1.2431983285522175 1.4076231205288667e-26 4.645112559678644e-19 4.645112504938264e-19 5.474038108946731e-27
1.2619875648066055 1.432539748696833e-26 4.798783863008775e-19 4.798783789450695e-19 7.355807945796293e-27
1.3004222497298317 1.4798307712577642e-26 5.108176305471993e-19 5.108176174499343e-19 1.309726501278233e-26
1.3400274889804893 1.5236885689836616e-26 5.419751196343919e-19 5.41975096737546e-19 2.2896845922794236e-26
1.3808389325824078 1.563954412201586e-26 5.732400775790321e-19 5.732400382588136e-19 3.932021858189816e-26
1.4228933163050095 1.6008300427453206e-26 6.046262503889866e-19 6.04626184027786e-19 6.636120078338237e-26
1.466228494730424 1.6352116823974395e-26 6.364218322692796e-19 6.364217221441155e-19 1.1012516401758654e-25
1.5108834753276823 1.666433195467167e-26 6.683259317873672e-19 6.683257520146767e-19 1.7977269041756193e-25
1.5568984535646726 1.693957214195288e-26 7.000549923766597e-19 7.000547033903564e-19 2.889863029602458e-25
1.6043148490894465 1.717840045999931e-26 7.315462004726233e-19 7.315457421798587e-19 4.582927645725353e-25
1.6531753430134553 1.7381605974027874e-26 7.62743039024232e-19 7.627423228418913e-19 7.161823405340271e-25
1.7035239163302658 1.7551665205070836e-26 7.936627444049323e-19 7.936616412817604e-19 1.103123171938975e-24
1.755405889504358 1.7702591348671156e-26 8.248668079665868e-19 8.248651323975355e-19 1.675569051150811e-24
1.8088679632656115 1.7831004759528626e-26 8.561544454962208e-19 8.561519348037306e-19 2.51069248989665e-24
1.8639582606462262 1.793464001385933e-26 8.873567963874973e-19 8.873530836771005e-19 3.712710396393309e-24
1.9207263702978936 1.80152573919216e-26 9.184920539684472e-19 9.18486633708447e-19 5.420260000438196e-24
1.979223391128241 1.8076865736443423e-26 9.497020607417647e-19 9.496942453715406e-19 7.815370224058997e-24
2.039501978296691 1.8124246939816594e-26 9.811909519366225e-19 9.811798183263926e-19 1.1133610230070685e-23
2.1016163906111602 1.8170669554280558e-26 1.0136635040793014e-18 1.013647827164664e-18 1.5676914637070736e-23
2.1656225393682647 1.8223859758634364e-26 1.0475929341849938e-18 1.0475711081524365e-18 2.1826032557218878e-23
2.231578038680979 1.8284437283471616e-26 1.0830864210659152e-18 1.0830563661230507e-18 3.005494286450269e-23
2.299542257339062 1.835706184124045e-26 1.120505515912046e-18 1.1204645691961874e-18 4.094671585870722e-23
2.369576372248914 1.8451937012886126e-26 1.1605987733290556e-18 1.160543562110255e-18 5.52112188003359e-23
2.4417434235010123 1.8581100898964366e-26 1.2043172343777694e-18 1.2042435332390664e-18 7.370113870290236e-23
2.5161083711144245 1.876511307227112e-26 1.2532853449511781e-18 1.253187912678724e-18 9.743227245437398e-23
2.5927381535095444 1.9037562028127477e-26 1.3102055145647173e-18 1.3100779139075203e-18 1.2760065719688477e-22
2.6717017477616296 1.9438511174188446e-26 1.3785432820826964e-18 1.3783776901529228e-18 1.655919297741976e-22
2.753070231689431 2.002821713384836e-26 1.4636222893331218e-18 1.4634092934353863e-18 2.1299589773586543e-22
2.836916847834745 2.0943097086189172e-26 1.5770916978699123e-18 1.5768200709418664e-18 2.7162692804503924e-22
2.9233170693905177 2.2483438191810714e-26 1.7446490578565193e-18 1.7443055829992995e-18 3.434748572197631e-22
2.967498994190263 2.3784468018934513e-26 1.873498956719895e-18 1.8731145416279133e-18 3.8441509198138625e-22
3.0123486681368425 2.530249722669727e-26 2.0231964643618253e-18 2.0227668011819286e-18 4.296631798975758e-22
3.0578761833420214 2.868425082724661e-26 2.3282673123819883e-18 2.327787581330668e-18 4.7973105132023465e-22
3.1040917844459814 3.30389174709816e-26 2.7222612204013636e-18 2.721726589942258e-18 5.346304591053869e-22
3.127460860933648 3.7638028058504793e-26 3.1245550312648568e-18 3.1239908412515907e-18 5.641900132655711e-22
3.1510058709225794 4.376358254602756e-26 3.6604249938897295e-18 3.659829870589788e-18 5.9512329994169315e-22
3.162844764501044 4.946241864489473e-26 4.152624470619865e-18 4.152013292257421e-18 6.111783624428542e-22
3.1747281389236908 5.608908970224518e-26 4.726660027117847e-18 4.726032434218886e-18 6.275928989599853e-22
3.1986289994194426 7.457005236499702e-26 6.331370836371791e-18 6.330709229717358e-18 6.6160665443414445e-22
3.2227097969389145 1.1812369050949444e-25 1.0104798075776772e-17 1.010410029784075e-17 6.977779360221965e-22
3.2348180950136065 1.5942255421196597e-25 1.3688916041275425e-17 1.3688198926370934e-17 7.171149044867789e-22
3.240889293275058 1.902977910620617e-25 1.637070476011785e-17 1.6369977444323337e-17 7.273157945121283e-22
3.2469718861334385 2.260155190511906e-25 1.947987751358752e-17 1.9479139641796834e-17 7.378717906877579e-22
3.2714166318528037 4.165280219009429e-25 3.617008373863628e-17 3.61693021378353e-17 7.81600800965375e-22
3.2744851364798273 4.284371560242489e-25 3.723913497763843e-17 3.7238348194298205e-17 7.867833402373076e-22
3.2775565192852394 4.406882449280784e-25 3.833990997071608e-17 3.8339117976131596e-17 7.91994584499027e-22
3.283707930232385 4.289059633379197e-25 3.7384884168064367e-17 3.738408279568409e-17 8.013723802710597e-22
3.2898708863219004 3.915417694091129e-25 3.41921481210648e-17 3.4191338160333154e-17 8.099607316408141e-22
3.29141343181113 3.827303671730354e-25 3.343834637833483e-17 3.343753425953959e-17 8.121187952469494e-22
3.292184975758714 3.784007570644772e-25 3.306782710889579e-17 3.306701390941876e-17 8.131994770275815e-22
3.295272960557952 3.510727165978861e-25 3.070845081629023e-17 3.0707633403008134e-17 8.174132821118188e-22
3.3076538914384823 2.5639978102305943e-25 2.25116403740353e-17 2.251080600735605e-17 8.343666792465154e-22
3.310756385682612 2.371312584676947e-25 2.0839412177978126e-17 2.0838573532049175e-17 8.386459289469281e-22
3.313861789986515 2.193529654174879e-25 1.9295113364722918e-17 1.9294270423116714e-17 8.429416062049143e-22
3.3200813396944477 1.9442153293530271e-25 1.7134148234630733e-17 1.7133296077929936e-17 8.52156700798138e-22
3.345076488085796 1.4995198596392567e-25 1.3314587243603898e-17 1.3313694079032039e-17 8.93164571860502e-22
3.3482140837626964 1.516206117024378e-25 1.3475376133817083e-17 1.3474477415954671e-17 8.987178624134354e-22
3.3513546224236106 1.5330766766024558e-25 1.363809447519503e-17 1.3637190175835796e-17 9.042993592327378e-22
3.3576445397418455 1.656325272268562e-25 1.4762155599759852e-17 1.476123963993019e-17 9.159598296659918e-22
3.3702598118196083 2.1108738332331096e-25 1.888404780224589e-17 1.8883107376230783e-17 9.404260151127444e-22
3.382922481734668 2.214422867766587e-25 1.988483707243571e-17 1.9883872758412946e-17 9.643140227602164e-22
3.389271646505754 2.268066831441441e-25 2.0404767892310008e-17 2.0403791448547438e-17 9.764437625667375e-22
3.395632727569191 2.325872167360389e-25 2.0964088551989238e-17 2.0963099606509493e-17 9.889454797464125e-22
3.421196662673239 2.603422976649651e-25 2.3642435134555348e-17 2.3641394313106293e-17 1.0408214490593555e-21
3.4276182099114902 2.547517455369082e-25 2.3178164612910908e-17 2.3177112097266023e-17 1.052515644886619e-21
3.4340518103208963 2.302498808103924e-25 2.0988223983290775e-17 2.0987160350128905e-17 1.063633161868137e-21
3.4469541582030403 1.9535508638438646e-25 1.7874325565975657e-17 1.7873240477591168e-17 1.0850883844879306e-21
3.472904465399547 1.855807543409103e-25 1.7107841004893434e-17 1.7106706649122444e-17 1.134355770986864e-21
3.4990501388274233 1.70629358736302e-25 1.5847959668763884e-17 1.5846774619323032e-17 1.1850494408556629e-21
3.5253949054701885 1.1740740255776454e-25 1.0986837110033423e-17 1.0985602376322032e-17 1.2347337113902128e-21
3.5519380250092896 6.738630697895588e-26 6.35340394894426e-18 6.3521189193281066e-18 1.2850296161533523e-21
3.578680990867387 4.755934085053287e-26 4.517812954206459e-18 4.516472726996439e-18 1.3402272100203789e-21
3.605625307711299 3.954614529339783e-26 3.784898034407117e-18 3.783499442160865e-18 1.3985922462525105e-21
3.660119384959845 3.37139849834268e-26 3.275478653368505e-18 3.2739564247888844e-18 1.5222285796193402e-21
3.715437065384467 2.95910278713648e-26 2.9183635568325536e-18 2.9167094890735215e-18 1.6540677590314288e-21
3.8285932144167436 2.753364653684348e-26 2.7981590154094462e-18 2.7962162543465215e-18 1.9427610629252418e-21
3.94519561050918 2.718051061432019e-26 2.8463977369290136e-18 2.844131913561237e-18 2.265823367776802e-21
4.06534921144712 2.753101181480273e-26 2.9709097774264245e-18 2.9682846186133765e-18 2.625158813048843e-21
4.189162171576248 2.8292440178876733e-26 3.1460600834013197e-18 3.1430362477506985e-18 3.0238356506209237e-21
4.316745939156006 2.935639095723803e-26 3.3637877527950212e-18 3.3603244950128334e-18 3.463257782188188e-21
4.448215356677963 3.068729646928396e-26 3.623379869680975e-18 3.6194390639028374e-18 3.940805778139033e-21
4.58368876423945 3.2290993428140256e-26 3.928854633507375e-18 3.9243945620671216e-18 4.460071440255662e-21
4.723288106065518 3.4204002947140346e-26 4.288355742215898e-18 4.283328358418451e-18 5.0273837974478394e-21
4.867139040275056 3.6497908871227123e-26 4.715319973145118e-18 4.709686102764687e-18 5.633870380432123e-21
4.940699165968905 3.7876051384991824e-26 4.967324603333631e-18 4.961370093969309e-18 5.954509364321906e-21
5.015371051989984 3.930519430000186e-26 5.232659189902837e-18 5.2263726534651605e-18 6.286536437676066e-21
5.091171501069577 4.1039337527510933e-26 5.546097517954079e-18 5.539461125085466e-18 6.636392868614309e-21
5.129500256944802 4.1930190745536977e-26 5.7091483354923105e-18 5.702332592386784e-18 6.815743105524278e-21
5.168117569889187 4.2858631546477525e-26 5.8794962550640195e-18 5.872496894685539e-18 6.99936037848265e-21
5.20702561229733 4.399106351115612e-26 6.080280408282911e-18 6.0730829172657014e-18 7.197491017207548e-21
5.246226572918644 4.5152679204190786e-26 6.287818553882701e-18 6.280419249738082e-18 7.399304144620527e-21
5.265937586045735 4.5744723271891546e-26 6.394198954344545e-18 6.386697356316161e-18 7.501598028385823e-21
5.285722656980489 4.6344419050133224e-26 6.502363548792192e-18 6.494758728649095e-18 7.604820143099397e-21
5.305582063971359 4.695189042998703e-26 6.6123457240763345e-18 6.604636751107197e-18 7.708972969137644e-21
5.3255160863122235 4.760334799429268e-26 6.72928050775638e-18 6.721465846622069e-18 7.814661134309631e-21
5.365609099470188 4.9216779185607687e-26 7.009735845738076e-18 7.001702282960277e-18 8.033562777800274e-21
5.406003951863644 5.089135957262403e-26 7.30280737000574e-18 7.2945508022918e-18 8.256567713943016e-21
5.446702915881641 5.2630022217512e-26 7.609159264114473e-18 7.600675559459806e-18 8.483704654669236e-21
5.487708281020852 5.450654223616805e-26 7.939791211667004e-18 7.931075484147942e-18 8.715727519063526e-21
5.529022354014368 5.709834184681057e-26 8.379947064711203e-18 8.370988700547046e-18 8.95836416415723e-21
5.570647458961463 5.984144069229615e-26 8.848652673312429e-18 8.839447051554945e-18 9.20562175748241e-21
5.612585937458331 6.274666052751265e-26 9.348093633960417e-18 9.338636093773842e-18 9.457540186578424e-21
5.654840148729818 6.593660914095812e-26 9.897291811088417e-18 9.887576719141818e-18 9.71509194659743e-21
5.67608639626678 6.810049493395434e-26 1.0260504107612198e-17 1.0250654386489004e-17 9.84972112319613e-21
5.686739436050992 6.921556300637413e-26 1.0448080700486614e-17 1.0438163172283382e-17 9.917528203235371e-21
5.6974124697621304 7.035341635477458e-26 1.0639771138850358e-17 1.0629785474107687e-17 9.985664742671919e-21
5.718818669136295 7.269966520093354e-26 1.1035910510377512e-17 1.1025787580773813e-17 1.0122929603694967e-20
5.740305295436557 7.528356789749286e-26 1.1471088150308593e-17 1.1460825811543795e-17 1.0262338764797044e-20
5.7835210386641895 8.197190892747465e-26 1.2584234475456492e-17 1.2573682865306332e-17 1.0551610150159893e-20
5.827062130521658 8.966890445757107e-26 1.3869504491124505e-17 1.3858655798651206e-17 1.0848692473299021e-20
5.8489554468988025 9.50582238912121e-26 1.4758337636598257e-17 1.474732950043115e-17 1.1008136167104006e-20
5.870931020387893 1.008391234549782e-25 1.5714677497557735e-17 1.570350816198468e-17 1.1169335573058478e-20
5.892989160043636 1.0704306652561881e-25 1.6744169719098366e-17 1.673283741548062e-17 1.1332303617746223e-20
5.915130176081913 1.140948195028254e-25 1.7914292682589417e-17 1.7902791633280386e-17 1.1501049309038107e-20
5.95966208400165 1.3378971155114904e-25 2.116478134807201e-17 2.115290237528295e-17 1.1878972789056267e-20
6.004529249263818 1.6214945227167409e-25 2.5844247041622138e-17 2.5831945894571613e-17 1.2301147050531836e-20
6.027089341400364 1.818516136317038e-25 2.9093382801204316e-17 2.9080841051007426e-17 1.254175019690466e-20
6.049734195844842 2.0512640355814597e-25 3.29402804534951e-17 3.292748435180551e-17 1.2796101689596506e-20
6.095279466722835 2.723305940692532e-25 4.4061521435258614e-17 4.4048112011915275e-17 1.340942334332641e-20
6.141167624020661 3.757141831281953e-25 6.124603449375416e-17 6.123184364201266e-17 1.4190851741503178e-20
6.164241091010745 4.417317565493637e-25 7.227825708807099e-17 7.226358301060749e-17 1.4674077463498135e-20
6.187401249150058 5.169187654790182e-25 8.489849903088684e-17 8.48833265103989e-17 1.5172520487949163e-20
6.1990139391386085 5.53633271510433e-25 9.10991296592954e-17 9.108370302533664e-17 1.5426633958716136e-20
6.204828454712694 5.729715261337962e-25 9.436962999941618e-17 9.43540747789612e-17 1.5555220454975e-20
6.210648424152782 5.870924427134002e-25 9.67860727920954e-17 9.677040622644207e-17 1.5666565653328666e-20
6.233982942956859 6.350735374546596e-25 1.0508943556031024e-16 1.0507337305614062e-16 1.6062504169610594e-20
6.239830258556775 6.412121037038287e-25 1.062047449826468e-16 1.0618862179332025e-16 1.6123189326544258e-20
6.245683058788269 6.41754452261619e-25 1.063942764138378e-16 1.0637809235257498e-16 1.6184061262825748e-20
6.257405133728602 6.404596090296282e-25 1.0637888968004396e-16 1.0636259566861396e-16 1.6294011429998042e-20
6.269149208991335 6.310541559115862e-25 1.0501338811869392e-16 1.0499703739791915e-16 1.6350720774820365e-20
6.280915325867298 6.074338764911032e-25 1.0127246488995666e-16 1.012561235688118e-16 1.6341321144858576e-20
6.304513850009849 5.4917312182995935e-25 9.190313146864581e-17 9.188686901248029e-17 1.6262456165541142e-20
6.32820103803542 4.7695175179932665e-25 8.011690227671557e-17 8.010078260610712e-17 1.611967060844351e-20
6.3519772230701035 4.107238491036323e-25 6.925135677309115e-17 6.923535961086825e-17 1.5997162222898432e-20
6.375842739491607 3.550071970924619e-25 6.008197320917017e-17 6.006607798069859e-17 1.589522847160377e-20
6.399797922933955 3.103713171860449e-25 5.272508317191975e-17 5.270921271150906e-17 1.5870460410709707e-20
6.42384311029221 2.7326344650544864e-25 4.65957064086074e-17 4.65798452924487e-17 1.5861116158687505e-20
6.447978639727206 2.4624045958375305e-25 4.214561894536182e-17 4.2129706249881496e-17 1.591269548033197e-20
6.472204850670314 2.2373523231577425e-25 3.8437582645096807e-17 3.842160582079761e-17 1.597682429920329e-20
6.496522083828205 2.0913072997066083e-25 3.606352759822126e-17 3.604743659343907e-17 1.609100478219905e-20
6.520930681187647 1.9683603186232305e-25 3.4070900946082267e-17 3.4054687332933454e-17 1.6213613148820753e-20
6.57002334288761 1.8431860328902904e-25 3.214441426307595e-17 3.212788345695282e-17 1.6530806123144498e-20
