Dust emission spectrum from A.P. Jones, M. Kohler, N. Ysard, M. Bocchio, and L. Verstraete (2017), A&A, 602A, 46J 
inside the DustPedia framework.

lambda    nu*dP/dnu     j_nu    j_nu(carb.) j_nu(sil)
 (um)   (erg s-1 H-1) (Jy cm2 sr-1 H-1)
0.9927057738263894 6.2865495340652246e-27 1.6565415091146975e-19 1.6565415091143612e-19 3.3629683672721956e-32
1.0001793341362166 6.390047650394593e-27 1.696490400610918e-19 1.6964904006105124e-19 4.052300436472275e-32
1.0077091589558085 6.493388008682256e-27 1.7369047127838663e-19 1.736904712783379e-19 4.8767477466682996e-32
1.0114953028030835 6.544986289405198e-27 1.757284362867109e-19 1.7572843628665738e-19 5.347336810868529e-32
1.0152956718711033 6.596529885003986e-27 1.7777778963604863e-19 1.7777778963599006e-19 5.861467926208704e-32
1.0229392996569957 6.699382127642457e-27 1.819089416726906e-19 1.8190894167262021e-19 7.036125596203394e-32
1.0267826658714554 6.750565646810508e-27 1.8398741867305903e-19 1.8398741867298202e-19 7.705556064669255e-32
1.0306404723013447 6.801671835464293e-27 1.8607683062523273e-19 1.8607683062514838e-19 8.435977756396674e-32
1.03451277320114 6.852695759120973e-27 1.8817708690679371e-19 1.8817708690670154e-19 9.232680169625476e-32
1.0383996230291617 6.903632511200091e-27 1.9028809578100218e-19 1.902880957809012e-19 1.0101386519949007e-31
1.0403485208654093 6.929066672452482e-27 1.9134760347325362e-19 1.9134760347314796e-19 1.056465643047464e-31
1.0423010764483396 6.954477213961584e-27 1.924097644184711e-19 1.924097644183606e-19 1.104828709197909e-31
1.0462171883269815 7.005225019422993e-27 1.9454199891887038e-19 1.945419989187496e-19 1.2080074971354619e-31
1.0471985131304309 7.017896265368355e-27 1.950766973558954e-19 1.9507669735577183e-19 1.2352120873293262e-31
1.048180758391296 7.030561079029462e-27 1.9561204873632346e-19 1.9561204873619719e-19 1.2630040088056906e-31
1.0501480137395462 7.055871110255605e-27 1.9668470433264148e-19 1.9668470433250943e-19 1.3203984312550182e-31
1.0521189612883777 7.081154515868581e-27 1.9775995367875219e-19 1.9775995367861414e-19 1.380290317696696e-31
1.0531058218030118 7.093766556945775e-27 1.98298002382258e-19 1.9829800238211686e-19 1.4112069592864757e-31
1.0540936079674168 7.106307860411678e-27 1.9883490720660286e-19 1.988349072064585e-19 1.4427937720327786e-31
1.058054026499678 7.156400171260753e-27 2.009888173549855e-19 2.0098881735482787e-19 1.5760552825014095e-31
1.0590464539527713 7.168904656843875e-27 2.0152885988364844e-19 2.015288598834873e-19 1.611170472079284e-31
1.06003981227728 7.181401559499584e-27 2.0206952530758323e-19 2.0206952530741851e-19 1.6470350534251693e-31
1.0620293250338977 7.206372324973066e-27 2.0315271860942895e-19 2.0315271860925684e-19 1.721073610915995e-31
1.0660195594769086 7.256219666948741e-27 2.0532651120503275e-19 2.053265112048448e-19 1.8788335429887228e-31
1.070024785945596 7.305937578304774e-27 2.0751009446312444e-19 2.0751009446291938e-19 2.0503976359011855e-31
1.0740450607676866 7.35552147663139e-27 2.0970336681304162e-19 2.09703366812818e-19 2.236911959249124e-31
1.07808044048254 7.40496681672734e-27 2.1190622581387007e-19 2.1190622581362603e-19 2.4396122276691303e-31
1.0861967418109137 7.503336097174732e-27 2.1633776020231133e-19 2.1633776020202146e-19 2.899001823097491e-31
1.0902777775684922 7.552051639271202e-27 2.185604338999558e-19 2.1856043389963993e-19 3.158673029649669e-31
1.0943741465085532 7.600607354891787e-27 2.207921128120316e-19 2.2079211281168754e-19 3.4405074817189315e-31
1.1026131145906286 7.697222055267249e-27 2.2528205670699605e-19 2.252820567065882e-19 4.077968017388494e-31
1.1109141095355224 7.793146117811219e-27 2.2980672567584613e-19 2.2980672567536334e-19 4.827406927629028e-31
1.1192775983109025 7.888256704181739e-27 2.3436258520280625e-19 2.3436258520223554e-19 5.707349645311827e-31
1.1277040513999907 7.982110290130193e-27 2.3893639007137696e-19 2.3893639007070307e-19 6.739185769600966e-31
1.1361939428280308 8.075162496878165e-27 2.435416102303138e-19 2.4354161022951906e-19 7.947574974387213e-31
1.1447477501889525 8.167382331773163e-27 2.4817733575291635e-19 2.4817733575198035e-19 9.360913165164292e-31
1.1533659546722406 8.258790058888059e-27 2.528441949143453e-19 2.5284419491324415e-19 1.1011870386680723e-30
1.1707974979042381 8.439466803363394e-27 2.6228063588056406e-19 2.622806358790459e-19 1.5182368516313712e-30
1.1884924949847024 8.61650606661567e-27 2.7182980575843857e-19 2.718298057563555e-19 2.0829678115495042e-30
1.2064549276569216 8.791300875715494e-27 2.8153583300903827e-19 2.815358330061943e-19 2.843933098966506e-30
1.2246888378427687 8.961933336681447e-27 2.9133784382972234e-19 2.9133784382585815e-19 3.8642362286144655e-30
1.2431983285522175 9.128004068584189e-27 3.0122129798384955e-19 3.0122129797862393e-19 5.225615309314812e-30
1.2619875648066055 9.289451949361977e-27 3.1118209565455974e-19 3.111820956475262e-19 7.033404346054405e-30
1.3004222497298317 9.595787756464795e-27 3.312336559149282e-19 3.31233655902363e-19 1.2565263997655883e-29
1.3400274889804893 9.879749102311207e-27 3.514220891776153e-19 3.514220891555718e-19 2.204345993024256e-29
1.3808389325824078 1.0140290601026267e-26 3.716745785846463e-19 3.7167457854665446e-19 3.799172193375232e-29
1.4228933163050095 1.0378703781614753e-26 3.919989370398181e-19 3.9199893697545854e-19 6.435932664533314e-29
1.466228494730424 1.0600783338087249e-26 4.1258083146909536e-19 4.125808313618783e-19 1.0721693621409878e-28
1.5108834753276823 1.0802186000075109e-26 4.3322354856335967e-19 4.332235483876337e-19 1.7572603727249596e-28
1.5568984535646726 1.0979402253717371e-26 4.537414107402769e-19 4.537414104566297e-19 2.836472746811129e-28
1.6043148490894465 1.1132771589517414e-26 4.7409168135328e-19 4.7409168090155e-19 4.5173015334945685e-28
1.6531753430134553 1.1262777125395386e-26 4.942353925933556e-19 4.942353918843473e-19 7.090081671028758e-28
1.7035239163302658 1.137099530115089e-26 5.141811464543931e-19 5.141811453574011e-19 1.0969919376879993e-27
1.755405889504358 1.1466482019624353e-26 5.342901632784847e-19 5.342901616044812e-19 1.6740033679879314e-27
1.8088679632656115 1.1547008791277637e-26 5.544288189118084e-19 5.544288163914177e-19 2.52039065851984e-27
1.8639582606462262 1.1611069816504535e-26 5.744838874403425e-19 5.744838836948018e-19 3.7455409810166786e-27
1.9207263702978936 1.1659767219921097e-26 5.944629771108133e-19 5.944629716145778e-19 5.496235689353924e-27
1.979223391128241 1.1695658656675733e-26 6.144533731632702e-19 6.14453365196303e-19 7.966967253898341e-27
2.039501978296691 1.1721802596690974e-26 6.345823187275981e-19 6.34582307315674e-19 1.1411924112843727e-26
2.1016163906111602 1.17467548164649e-26 6.553009295143538e-19 6.553009133540718e-19 1.616028195726579e-26
2.1656225393682647 1.1775475238201553e-26 6.769095471317826e-19 6.769095244999225e-19 2.2631860288729707e-26
2.231578038680979 1.1808319243685359e-26 6.994708139040228e-19 6.994707825483547e-19 3.1355668005428615e-26
2.299542257339062 1.1848255587857837e-26 7.232113643755815e-19 7.232113213845318e-19 4.299104996017558e-26
2.369576372248914 1.1901849338625576e-26 7.486082210832075e-19 7.48608162731097e-19 5.835211033200529e-26
2.4417434235010123 1.1976852865812356e-26 7.762688765501797e-19 7.762687981182144e-19 7.843196538061195e-26
2.5161083711144245 1.208654249147686e-26 8.072366266783341e-19 8.072365222448883e-19 1.044334459229566e-25
2.5927381535095444 1.2252647722568211e-26 8.432532795117938e-19 8.432531417129283e-19 1.377988654795629e-25
2.6717017477616296 1.2501120975794673e-26 8.86556392372695e-19 8.865562121389047e-19 1.8023379052805873e-25
2.753070231689431 1.2871036965681827e-26 9.405897920871374e-19 9.4058955834741e-19 2.3373972721074257e-25
2.836916847834745 1.3450922767825584e-26 1.0129036091713557e-18 1.0129033085147504e-18 3.0065660504807573e-25
2.9233170693905177 1.4435754246332533e-26 1.120172316638196e-18 1.1201719329983563e-18 3.836398399381244e-25
2.967498994190263 1.5272506142309442e-26 1.203013004172995e-18 1.203012572699535e-18 4.314734598551077e-25
3.0123486681368425 1.624986553111784e-26 1.299344890520282e-18 1.2993444058682645e-18 4.846520178419218e-25
3.0578761833420214 1.84373034323367e-26 1.4965344979204513e-18 1.4965339540848776e-18 5.4383557391989265e-25
3.1040917844459814 2.1256530143779333e-26 1.7514444213109344e-18 1.7514438121237693e-18 6.091871656220117e-25
3.127460860933648 2.4238976350507677e-26 2.012220602815963e-18 2.012219958255183e-18 6.445607801489437e-25
3.1510058709225794 2.821297242442526e-26 2.3597581232220652e-18 2.3597574415045917e-18 6.817174736301665e-25
3.162844764501044 3.191192974884192e-26 2.679170651381418e-18 2.6791699503199872e-18 7.010614312256742e-25
3.1747281389236908 3.6213810948767273e-26 3.0517587921254704e-18 3.051758071248587e-18 7.208768833008173e-25
3.1986289994194426 4.8213764532401433e-26 4.093590026972154e-18 4.093589264909347e-18 7.620628068598161e-25
3.2227097969389145 7.650021489257149e-26 6.5441506348875285e-18 6.54414982882578e-18 8.060617501240659e-25
3.2348180950136065 1.0332481988173976e-25 8.872049449543185e-18 8.87204861987939e-18 8.29663797315478e-25
3.240889293275058 1.233794866229262e-25 1.0613939014668409e-17 1.0613938172529498e-17 8.42138912823355e-25
3.2469718861334385 1.465794051200054e-25 1.2633419464906375e-17 1.2633418609840819e-17 8.550655523146081e-25
3.2714166318528037 2.7033294235020646e-25 2.347492761109901e-17 2.3474926702291822e-17 9.088071841245366e-25
3.2744851364798273 2.780684835755013e-25 2.4169308490856593e-17 2.4169307575661725e-17 9.151948642678592e-25
3.2775565192852394 2.8602620984504755e-25 2.4884301455587927e-17 2.4884300533966012e-17 9.21621907877362e-25
3.283707930232385 2.7837078399903666e-25 2.4263732391564014e-17 2.426373145837644e-17 9.331875774081217e-25
3.2898708863219004 2.5409728100877724e-25 2.2189540294828443e-17 2.2189539351046898e-17 9.43781551401088e-25
3.29141343181113 2.483730357299953e-25 2.1699829206453523e-17 2.1699828260008395e-17 9.464451386783808e-25
3.292184975758714 2.455603520613237e-25 2.1459120033895202e-17 2.1459119086115996e-17 9.47779203106653e-25
3.295272960557952 2.27806473171316e-25 1.9926310266447012e-17 1.99263093134686e-17 9.52978410946494e-25
3.3076538914384823 1.6630338855927007e-25 1.4601268617671118e-17 1.460126764375192e-17 9.739192026531926e-25
3.310756385682612 1.5378635586333274e-25 1.3514950655996367e-17 1.3514949676785097e-17 9.792112714362362e-25
3.313861789986515 1.4223759570477687e-25 1.2511754872453123e-17 1.2511753887926905e-17 9.845262237634632e-25
3.3200813396944477 1.2604154548693196e-25 1.110789783153132e-17 1.1107896835590997e-17 9.959403159898642e-25
3.345076488085796 9.714785684284517e-26 8.625985225526663e-18 8.625984178638306e-18 1.0468883547316108e-24
3.3482140837626964 9.823084662950637e-26 8.730327568350089e-18 8.730326514541e-18 1.0538090835711964e-24
3.3513546224236106 9.932580967652354e-26 8.835923192020068e-18 8.835922131251068e-18 1.0607690011201095e-24
3.3576445397418455 1.0732979091081286e-25 9.565869098555945e-18 9.565868023225098e-18 1.075330850199054e-24
3.3702598118196083 1.3685325322340824e-25 1.224300256640827e-17 1.2243001460451035e-17 1.1059572339972596e-24
3.382922481734668 1.4357530303675589e-25 1.2892621143273006e-17 1.2892620007379239e-17 1.1358937736007456e-24
3.389271646505754 1.4705777403627707e-25 1.3230120490157523e-17 1.3230119339034822e-17 1.1511227061222411e-24
3.395632727569191 1.5081009567625246e-25 1.359316408123578e-17 1.3593162914404663e-17 1.1668311188158426e-24
3.421196662673239 1.6882660550155708e-25 1.5331631107805464e-17 1.5331629875606558e-17 1.2321989113354046e-24
3.4276182099114902 1.6519313368734521e-25 1.5029823004581386e-17 1.502982175757675e-17 1.2470046393449836e-24
3.4340518103208963 1.4927631362132098e-25 1.360715017378994e-17 1.3607148912687627e-17 1.2611023162103375e-24
3.4469541582030403 1.266082066776115e-25 1.1584220034215765e-17 1.158421874584371e-17 1.2883720550051848e-24
3.472904465399547 1.2025339465286743e-25 1.108561048437576e-17 1.1085609133165137e-17 1.3512106259763257e-24
3.4990501388274233 1.1053534962186407e-25 1.0266461620401812e-17 1.0266460204223341e-17 1.416178471482667e-24
3.5253949054701885 7.595739857239406e-26 7.107997853935902e-18 7.107996373813787e-18 1.480122116499915e-24
3.5519380250092896 4.346127767342358e-26 4.0976730373831625e-18 4.0976714921971474e-18 1.5451860149258804e-24
3.578680990867387 3.057653809465893e-26 2.90456254078403e-18 2.9045609238261594e-18 1.6169578703271043e-24
3.605625307711299 2.536457420561722e-26 2.427602648555522e-18 2.427600955291967e-18 1.6932635551677595e-24
3.660119384959845 2.1561471266081156e-26 2.0948024655639136e-18 2.094800609250026e-18 1.8563138879933695e-24
3.715437065384467 1.8868543556394436e-26 1.8608772268696967e-18 1.860875194688324e-18 2.0321813735168983e-24
3.8285932144167436 1.7500249131486894e-26 1.7784959872153294e-18 1.778493562491677e-18 2.424723652667358e-24
3.94519561050918 1.7236736162192999e-26 1.805065677399738e-18 1.8050628014887084e-18 2.8759110298970585e-24
4.06534921144712 1.7427973349227902e-26 1.8806768444343607e-18 1.8806734518317646e-18 3.392602596549224e-24
4.189162171576248 1.788370507296733e-26 1.9886305429176294e-18 1.988626558856306e-18 3.984061322983268e-24
4.316745939156006 1.85334235118153e-26 2.1236433019719207e-18 2.1236386434441005e-18 4.6585278198494476e-24
4.448215356677963 1.9353934227716725e-26 2.285201492090733e-18 2.285196072153889e-18 5.4199368440385776e-24
4.58368876423945 2.0348895536934149e-26 2.475856083367509e-18 2.475849801377346e-18 6.281990163590651e-24
4.723288106065518 2.1541860396505807e-26 2.70082893140121e-18 2.7008216672083262e-18 7.26419288402169e-24
4.867139040275056 2.2979214509641134e-26 2.9687823904321634e-18 2.968774023443124e-18 8.366989038836051e-24
4.940699165968905 2.3846775591190723e-26 3.1274293589968724e-18 3.1274203868923003e-18 8.97210457303738e-24
5.015371051989984 2.474674305187805e-26 3.2945078826532526e-18 3.294498267359266e-18 9.615293986956012e-24
5.091171501069577 2.5843715920872752e-26 3.492545868397108e-18 3.492535559519978e-18 1.030887712931645e-23
5.129500256944802 2.640738609415679e-26 3.595587849316074e-18 3.595577177417657e-18 1.0671898416413914e-23
5.168117569889187 2.699525355346073e-26 3.703302845774617e-18 3.703291797745803e-18 1.104802881337328e-23
5.20702561229733 2.771509606235635e-26 3.830677009181392e-18 3.830665557049258e-18 1.1452132132988402e-23
5.246226572918644 2.8453719508561517e-26 3.9623745169988015e-18 3.962362647539492e-18 1.1869459309778368e-23
5.265937586045735 2.883026406212693e-26 4.0298952782779926e-18 4.0298831950635206e-18 1.2083214471680355e-23
5.285722656980489 2.9211735073493394e-26 4.098558688013412e-18 4.098546387576715e-18 1.2300436695078193e-23
5.305582063971359 2.9598213065984e-26 4.168386316606373e-18 4.168373795424634e-18 1.2521181739990682e-23
5.3255160863122235 3.0013150351858927e-26 4.242703846446687e-18 4.242691099970231e-18 1.2746476457059403e-23
5.365609099470188 3.1044079581021543e-26 4.421475786060122e-18 4.421462570331779e-18 1.3215728344171458e-23
5.406003951863644 3.2114562567158625e-26 4.608374902330477e-18 4.608361201588708e-18 1.370074177120624e-23
5.446702915881641 3.322650710311115e-26 4.8038319895232504e-18 4.803817787475112e-18 1.4202048139310256e-23
5.487708281020852 3.442769489626257e-26 5.014970646843138e-18 5.014955925261871e-18 1.4721581265185433e-23
5.529022354014368 3.6092131004052673e-26 5.297004036965354e-18 5.2969887660043485e-18 1.5270961005646342e-23
5.570647458961463 3.785470935728034e-26 5.597511879336924e-18 5.597496039846237e-18 1.5839490685977377e-23
5.612585937458331 3.97224696960733e-26 5.917914403241126e-18 5.917897975386407e-18 1.6427854718599937e-23
5.654840148729818 4.177484602163083e-26 6.270535394919741e-18 6.270518356118643e-18 1.7038801097139946e-23
5.67608639626678 4.316960328166969e-26 6.504238951936219e-18 6.504221590727473e-18 1.736120874662442e-23
5.686739436050992 4.38884923819273e-26 6.624962512937157e-18 6.624944988337532e-18 1.7524599623439688e-23
5.6974124697621304 4.4622178300060814e-26 6.748354087532544e-18 6.7483363980656445e-18 1.768946689693341e-23
5.718818669136295 4.6135362698696723e-26 7.003412363721419e-18 7.003394340034844e-18 1.8023686577088275e-23
5.740305295436557 4.780261757864637e-26 7.283767963903913e-18 7.283749597681924e-18 1.8366221988476866e-23
5.7835210386641895 5.212259137008925e-26 8.00180110298446e-18 8.001782014790735e-18 1.908819372371153e-23
5.827062130521658 5.709723986511304e-26 8.83149436842634e-18 8.831474525079696e-18 1.9843346642143122e-23
5.8489554468988025 6.05830120807799e-26 9.40586212039376e-18 9.405841865344444e-18 2.0255049318897327e-23
5.870931020387893 6.432318185847006e-26 1.0024066293812189e-17 1.0024045618295922e-17 2.0675516266332804e-23
5.892989160043636 6.833820927829972e-26 1.0689777596956769e-17 1.0689756492000556e-17 2.110495621096242e-23
5.915130176081913 7.290320383451954e-26 1.1446701407487805e-17 1.1446679854117054e-17 2.1553370744358148e-23
5.95966208400165 8.565825590410276e-26 1.3550655247316459e-17 1.3550632679106305e-17 2.256821015354187e-23
6.004529249263818 1.040332609781864e-25 1.6581377609349348e-17 1.65813538754154e-17 2.3733933958665576e-23
6.027089341400364 1.1680178246761832e-25 1.868643836218885e-17 1.8686413948374026e-17 2.4413814825841342e-23
6.049734195844842 1.3188876619234358e-25 2.1179394128117414e-17 2.117936898395831e-17 2.514415910443461e-23
6.095279466722835 1.7545820518184283e-25 2.838812691990751e-17 2.8388099968600366e-17 2.6951307149076966e-23
6.141167624020661 2.424968995772563e-25 3.95299782203578e-17 3.952994888568376e-17 2.933467401081138e-23
6.164241091010745 2.8530555554189384e-25 4.66830559188186e-17 4.6683025088826446e-17 3.082999215759192e-23
6.187401249150058 3.340680697947925e-25 5.4867185317679543e-17 5.486715290076944e-17 3.2416910118732114e-23
6.1990139391386085 3.578786433605844e-25 5.888813879420943e-17 5.888810556394417e-17 3.3230265272052577e-23
6.204828454712694 3.704208692135718e-25 6.100910564896747e-17 6.100907200225586e-17 3.3646711607776346e-23
6.210648424152782 3.79578170335627e-25 6.257597228572852e-17 6.257593828068876e-17 3.400503977722271e-23
6.233982942956859 4.1069300596581366e-25 6.795984030210958e-17 6.795980500897063e-17 3.5293138957818387e-23
6.239830258556775 4.146730540199889e-25 6.868280511078768e-17 6.868276961716348e-17 3.549362416399439e-23
6.245683058788269 4.150229609424207e-25 6.880523768707187e-17 6.88052019917759e-17 3.569529598936865e-23
6.257405133728602 4.141792690175613e-25 6.879423799002158e-17 6.879420192868354e-17 3.6061338066408874e-23
6.269149208991335 4.080744470670112e-25 6.790745277521542e-17 6.790741652218107e-17 3.625303434563271e-23
6.280915325867298 3.9274906595611126e-25 6.547982839278821e-17 6.547979216527947e-17 3.6227508751202546e-23
6.304513850009849 3.5495057409306687e-25 5.940033839792854e-17 5.940030242119073e-17 3.597673780392756e-23
6.32820103803542 3.08094500844395e-25 5.175277566970602e-17 5.175274017316902e-17 3.549653700308508e-23
6.3519772230701035 2.651259910815685e-25 4.470238248467639e-17 4.470234741334888e-17 3.5071327516148896e-23
6.375842739491607 2.2897927300614507e-25 3.87528102497238e-17 3.87527755285124e-17 3.472121142041555e-23
6.399797922933955 2.0001547506274445e-25 3.397811580647057e-17 3.397808120357522e-17 3.4602895348024113e-23
6.42384311029221 1.7593775918870263e-25 3.000014922662403e-17 3.0000114684336506e-17 3.4542287530441365e-23
6.447978639727206 1.5839933477874016e-25 2.7111052408156142e-17 2.711101772894915e-17 3.4679206989237304e-23
6.472204850670314 1.437928713157912e-25 2.4703531570636837e-17 2.4703496708546332e-17 3.486209049163367e-23
6.496522083828205 1.3430953617649997e-25 2.3160994394678523e-17 2.316095918163305e-17 3.521304546941554e-23
6.520930681187647 1.2632506798820574e-25 2.1865960402228116e-17 2.1865924806257307e-17 3.559597081327791e-23
6.57002334288761 1.181857164948874e-25 2.061110795763193e-17 2.0611071337714645e-17 3.661991728428951e-23
