Dust emission spectrum from A.P. Jones, M. Kohler, N. Ysard, M. Bocchio, and L. Verstraete (2017), A&A, 602A, 46J 
inside the DustPedia framework.

lambda    nu*dP/dnu     j_nu    j_nu(carb.) j_nu(sil)
 (um)   (erg s-1 H-1) (Jy cm2 sr-1 H-1)
0.9927057738263894 4.722238496545749e-21 1.2443366656190026e-13 1.2443366656189872e-13 1.5530664109401763e-27
1.0001793341362166 4.800268942373537e-21 1.2744208848872277e-13 1.274420884887209e-13 1.871409723019171e-27
1.0077091589558085 4.878188520440017e-21 1.3048578984763135e-13 1.3048578984762908e-13 2.2521511676515335e-27
1.0114953028030835 4.917097138280718e-21 1.3202071829832017e-13 1.3202071829831775e-13 2.4694758628757205e-27
1.0152956718711033 4.95596655455816e-21 1.3356428227248166e-13 1.3356428227247893e-13 2.7069088943248995e-27
1.0229392996569957 5.033534467403931e-21 1.366760262950815e-13 1.3667602629507828e-13 3.249382445803484e-27
1.0267826658714554 5.072138907903675e-21 1.3824171093829846e-13 1.3824171093829492e-13 3.558534919548708e-27
1.0306404723013447 5.110687079248156e-21 1.3981569193993742e-13 1.3981569193993353e-13 3.895854004769321e-27
1.03451277320114 5.149175261562521e-21 1.413979016073604e-13 1.4139790160735613e-13 4.263782466832713e-27
1.0383996230291617 5.1875997555810466e-21 1.4298827140089338e-13 1.4298827140088873e-13 4.664963367954063e-27
1.0403485208654093 5.206786969269038e-21 1.4378649469868098e-13 1.4378649469867605e-13 4.878907976943129e-27
1.0423010764483396 5.225956883356544e-21 1.4458673195003933e-13 1.4458673195003428e-13 5.102255469473028e-27
1.0462171883269815 5.264242988954123e-21 1.461932130697121e-13 1.4619321306970658e-13 5.5787497334077215e-27
1.0471985131304309 5.273802991859279e-21 1.4659607826271407e-13 1.465960782627084e-13 5.704384386206801e-27
1.048180758391296 5.2833582721427254e-21 1.469994391919157e-13 1.4699943919190988e-13 5.832731418179482e-27
1.0501480137395462 5.3024544391292604e-21 1.4780764377648337e-13 1.4780764377647728e-13 6.097786995078139e-27
1.0521189612883777 5.321531039412212e-21 1.48617817828413e-13 1.4861781782840663e-13 6.374376214992279e-27
1.0531058218030118 5.331047218165225e-21 1.4902323123849859e-13 1.49023231238492e-13 6.5171536477324e-27
1.0540936079674168 5.340510360205082e-21 1.4942779045963859e-13 1.4942779045963195e-13 6.663026025955617e-27
1.058054026499678 5.37830922909911e-21 1.5105080563648748e-13 1.5105080563648024e-13 7.278446570229221e-27
1.0590464539527713 5.3877452450626645e-21 1.514577482271952e-13 1.5145774822718782e-13 7.440613493336195e-27
1.06003981227728 5.397175670296875e-21 1.5186516401605076e-13 1.5186516401604318e-13 7.606241213980744e-27
1.0620293250338977 5.41601952894e-21 1.5268141052509823e-13 1.5268141052509035e-13 7.9481617682199e-27
1.0660195594769086 5.453637747233455e-21 1.5431953047341915e-13 1.5431953047341051e-13 8.67671950045049e-27
1.070024785945596 5.4911603980074404e-21 1.5596509013249577e-13 1.5596509013248628e-13 9.469026807213965e-27
1.0740450607676866 5.528584022385505e-21 1.5761801347278268e-13 1.5761801347277228e-13 1.0330376401087446e-26
1.07808044048254 5.565905189144402e-21 1.592782238004259e-13 1.5927822380041468e-13 1.1266474988291836e-26
1.0861967418109137 5.640160625603506e-21 1.6261829419899902e-13 1.6261829419898564e-13 1.33880013064013e-26
1.0902777775684922 5.676938225009661e-21 1.642936437602396e-13 1.6429364376022498e-13 1.458719978237149e-26
1.0943741465085532 5.71359730656099e-21 1.6597584405683258e-13 1.6597584405681672e-13 1.5888751277782898e-26
1.1026131145906286 5.786546882839319e-21 1.6936047493984333e-13 1.6936047493982457e-13 1.883263452130182e-26
1.1109141095355224 5.858983602619657e-21 1.7277153759881697e-13 1.7277153759879475e-13 2.2293649840289313e-26
1.1192775983109025 5.9308149872837836e-21 1.7620637675781097e-13 1.7620637675778462e-13 2.635735033772407e-26
1.1277040513999907 6.00170745594055e-21 1.7965503628283152e-13 1.796550362828004e-13 3.112251625264487e-26
1.1361939428280308 6.072003349320037e-21 1.831276427674309e-13 1.831276427673942e-13 3.670302950632012e-26
1.1447477501889525 6.1416792191251234e-21 1.8662351335285302e-13 1.8662351335280976e-13 4.32300264852344e-26
1.1533659546722406 6.2107501229163276e-21 1.9014312065639044e-13 1.9014312065633955e-13 5.08543821808292e-26
1.1707974979042381 6.3472999927548565e-21 1.972605517638837e-13 1.9726055176381362e-13 7.011433775367334e-26
1.1884924949847024 6.481135788003286e-21 2.0446406800233033e-13 2.044640680022341e-13 9.619442156836532e-26
1.2064549276569216 6.613303646628328e-21 2.117868535518282e-13 2.1178685355169686e-13 1.3133689112143473e-25
1.2246888378427687 6.7423603859642065e-21 2.1918314535210739e-13 2.1918314535192894e-13 1.7845596101581006e-25
1.2431983285522175 6.868004002088077e-21 2.2664199802313694e-13 2.266419980228956e-13 2.4132642128647176e-25
1.2619875648066055 6.990187358796298e-21 2.3416033186733293e-13 2.341603318670081e-13 3.2481275968990333e-25
1.3004222497298317 7.222142249210061e-21 2.492986132516163e-13 2.4929861325103604e-13 5.80282247279707e-25
1.3400274889804893 7.437316146362888e-21 2.645448938999714e-13 2.645448938989535e-13 1.0179998260894656e-24
1.3808389325824078 7.634909842626161e-21 2.7984423819201516e-13 2.7984423819026073e-13 1.7545160916835128e-24
1.4228933163050095 7.815882724822599e-21 2.9520234748251543e-13 2.9520234747954325e-13 2.972217257399713e-24
1.466228494730424 7.984585939803341e-21 3.107588374289814e-13 3.1075883742402986e-13 4.951462616122903e-24
1.5108834753276823 8.137740130317803e-21 3.2636548347882763e-13 3.263654834707122e-13 8.115360696814047e-24
1.5568984535646726 8.27269130544904e-21 3.418822388333907e-13 3.418822388202913e-13 1.3099439858118784e-23
1.6043148490894465 8.389683931995588e-21 3.57276652032237e-13 3.572766520113749e-13 2.0862037606065217e-23
1.6531753430134553 8.489071569546566e-21 3.7251910192448663e-13 3.7251910189174247e-13 3.274417352705913e-23
1.7035239163302658 8.572032184152515e-21 3.8761579080464426e-13 3.87615790753981e-13 5.0663321369764993e-23
1.755405889504358 8.645380801646748e-21 4.028386310824078e-13 4.0283863100509395e-13 7.731382013529416e-23
1.8088679632656115 8.707432813534582e-21 4.1808677708885167e-13 4.1808677697244337e-13 1.1640820075013505e-22
1.8639582606462262 8.75704661315014e-21 4.332746474117125e-13 4.3327464723871066e-13 1.7300196684645596e-22
1.9207263702978936 8.795047494109646e-21 4.484077613699392e-13 4.4840776111605815e-13 2.538811528667734e-22
1.979223391128241 8.823358469494915e-21 4.635516932699906e-13 4.635516929019489e-13 3.680418368497315e-22
2.039501978296691 8.844281364976427e-21 4.78802174816559e-13 4.788021742893103e-13 5.272489850027489e-22
2.1016163906111602 8.86426609546354e-21 4.944992810846746e-13 4.944992803379227e-13 7.467518735745849e-22
2.1656225393682647 8.887052296346679e-21 5.108694488813914e-13 5.108694478353689e-13 1.0460226253301246e-21
2.231578038680979 8.912906853465592e-21 5.279598292007728e-13 5.279598277511349e-13 1.4496379383745284e-21
2.299542257339062 8.944068653080657e-21 5.459413029790004e-13 5.45941300990704e-13 1.9882964057028144e-21
2.369576372248914 8.985489507081091e-21 5.651736233652063e-13 5.651736206651957e-13 2.7000106626199938e-21
2.4417434235010123 9.043016815292716e-21 5.861149487666788e-13 5.861149451353525e-13 3.631326349694283e-21
2.5161083711144245 9.126665398716875e-21 6.095522019202252e-13 6.09552197081334e-13 4.838891184045415e-21
2.5927381535095444 9.252824402208287e-21 6.367990575243158e-13 6.367990511332598e-13 6.391056245921392e-21
2.6717017477616296 9.441060853305711e-21 6.695425847397433e-13 6.695425763704434e-13 8.36930006425158e-21
2.753070231689431 9.720835255680689e-21 7.103793141479535e-13 7.103793032777495e-13 1.0870203939663489e-20
2.836916847834745 1.0158893694473222e-20 7.650017969721405e-13 7.650017829640324e-13 1.4008108169379642e-20
2.9233170693905177 1.0902239792442189e-20 8.459819276812436e-13 8.459819097662419e-13 1.7915001772806362e-20
2.967498994190263 1.1533529848638934e-20 9.084944057407933e-13 9.08494385565209e-13 2.0175584129684045e-20
3.0123486681368425 1.2270804602619368e-20 9.8117779697648e-13 9.8117777428111e-13 2.2695369946489233e-20
3.0578761833420214 1.3920521788758848e-20 1.1299125798078082e-12 1.1299125542997283e-12 2.5508080162723247e-20
3.1040917844459814 1.6046357143111648e-20 1.3221491236136868e-12 1.3221490949893981e-12 2.8624288032266493e-20
3.127460860933648 1.8295239544079422e-20 1.5187959017617045e-12 1.518795871445574e-12 3.031613039327777e-20
3.1510058709225794 2.1291561057505094e-20 1.7808451164127824e-12 1.7808450843155853e-12 3.209719764642704e-20
3.162844764501044 2.408070232755695e-20 2.0216988270032173e-12 2.0216987939759367e-12 3.302728004287337e-20
3.1747281389236908 2.732423406385868e-20 2.3026290069400588e-12 2.3026289729588697e-12 3.398118891939843e-20
3.1986289994194426 3.637135628804475e-20 3.0881102691770055e-12 3.088110233207863e-12 3.5969143468400556e-20
3.2227097969389145 5.769770140541304e-20 4.93570442663488e-12 4.935704388524164e-12 3.811071619124348e-20
3.2348180950136065 7.792176329578302e-20 6.6908003125197e-12 6.690800273248219e-12 3.9271482440248374e-20
3.240889293275058 9.304188963614713e-20 8.004093463492099e-12 8.004093423600955e-12 3.989114684635798e-20
3.2469718861334385 1.1053355374139174e-19 9.526691339881744e-12 9.526691299344204e-12 4.053753832858749e-20
3.2714166318528037 2.0383714108958548e-19 1.7700625347141463e-11 1.7700625303894496e-11 4.3246967390888707e-20
3.2744851364798273 2.0966986746679002e-19 1.8224200178607853e-11 1.8224200135041895e-11 4.356595797580395e-20
3.2775565192852394 2.1567012634534965e-19 1.8763316976614968e-11 1.8763316932727766e-11 4.388719857790336e-20
3.283707930232385 2.0989984206184204e-19 1.829557514497539e-11 1.8295575100526163e-11 4.444921801441621e-20
3.2898708863219004 1.9160034769324732e-19 1.6731873787723023e-11 1.6731873742773354e-11 4.494967111574836e-20
3.29141343181113 1.8728486886392805e-19 1.6362684682560656e-11 1.636268463748516e-11 4.50754910093502e-20
3.292184975758714 1.851643952231944e-19 1.61812155331405e-11 1.618121548800199e-11 4.513850726381648e-20
3.295272960557952 1.7177974885518688e-19 1.502563349289319e-11 1.502563344751259e-11 4.538059457781104e-20
3.3076538914384823 1.254111733961314e-19 1.1010973656508649e-11 1.101097361015504e-11 4.635360685655261e-20
3.310756385682612 1.15973972705742e-19 1.0191947846731461e-11 1.0191947800131976e-11 4.659948570864121e-20
3.313861789986515 1.0726668161249929e-19 9.435581497754418e-12 9.435581450907998e-12 4.684642128746254e-20
3.3200813396944477 9.505567508803907e-20 8.377148368865789e-12 8.377148321479163e-12 4.738662355176756e-20
3.345076488085796 7.327236397736955e-20 6.50602442142038e-12 6.506024371566506e-12 4.9853873012072154e-20
3.3482140837626964 7.408920281223495e-20 6.584723964238381e-12 6.5847239140432234e-12 5.019515637025784e-20
3.3513546224236106 7.491507271834741e-20 6.664368814305991e-12 6.664368763767451e-12 5.0538541685757385e-20
3.3576445397418455 8.095076011228249e-20 7.21481303644919e-12 7.214812985183842e-12 5.1265348826635345e-20
3.3702598118196083 1.0321296426500827e-19 9.23351514574709e-12 9.23351509293599e-12 5.281110046116292e-20
3.382922481734668 1.0828341002160635e-19 9.723517568706547e-12 9.723517514405295e-12 5.430125312578549e-20
3.389271646505754 1.1091025403647154e-19 9.978092175762995e-12 9.978092120702298e-12 5.50606980534583e-20
3.395632727569191 1.1374081138572796e-19 1.0251949678608616e-11 1.0251949622761824e-11 5.584679374769537e-20
3.421196662673239 1.2733210633365134e-19 1.1563395927364047e-11 1.1563395868231918e-11 5.91321284972384e-20
3.4276182099114902 1.2459315968290415e-19 1.1335901776400817e-11 1.1335901716537579e-11 5.986324350095786e-20
3.4340518103208963 1.1259112997036112e-19 1.026314474532003e-11 1.0263144684770109e-11 6.054992067013695e-20
3.4469541582030403 9.549800941506608e-20 8.737742859834372e-12 8.737742797970843e-12 6.186352821826128e-20
3.472904465399547 9.070745889772774e-20 8.36190579293353e-12 8.36190572794524e-12 6.49882935379582e-20
3.4990501388274233 8.338054005751122e-20 7.744338054000167e-12 7.744337985777895e-12 6.822227604221513e-20
3.5253949054701885 5.73057338662836e-20 5.362598522269631e-12 5.3625984509159875e-12 7.135364416587897e-20
3.5519380250092896 3.279831261447657e-20 3.092333416469894e-12 3.0923333419432814e-12 7.452661330981925e-20
3.578680990867387 2.308069895059643e-20 2.1925089550515853e-12 2.192508876951492e-12 7.810009311952283e-20
3.605625307711299 1.914983712637574e-20 1.8328001467929773e-12 1.832800064852106e-12 8.194087136567308e-20
3.660119384959845 1.628156517115662e-20 1.5818337460780056e-12 1.5818336558539978e-12 9.022400763732058e-20
3.715437065384467 1.4249937702186245e-20 1.4053752731393884e-12 1.4053751739023013e-12 9.923708719333302e-20
3.8285932144167436 1.3216846499124146e-20 1.3431870761222753e-12 1.343186956426959e-12 1.1969531587843923e-19
3.94519561050918 1.3016242672467134e-20 1.3630871109062105e-12 1.3630869671373652e-12 1.4376884558790614e-19
4.06534921144712 1.315762356543854e-20 1.4198574596971378e-12 1.4198572876177218e-12 1.7207941620746933e-19
4.189162171576248 1.3497196927595322e-20 1.5008600256197638e-12 1.5008598201693662e-12 2.0545039765127013e-19
4.316745939156006 1.3981419287159297e-20 1.6020541160303234e-12 1.6020538712581423e-12 2.447721812183293e-19
4.448215356677963 1.4592359205119406e-20 1.7229820374664394e-12 1.7229817465899578e-12 2.908764815163452e-19
4.58368876423945 1.5332258078199025e-20 1.8654803336018783e-12 1.865479988380568e-12 3.452213105501574e-19
4.723288106065518 1.6218280513634802e-20 2.0333806097782704e-12 2.0333802000257796e-12 4.097524906907296e-19
4.867139040275056 1.7284722164593083e-20 2.233086721229177e-12 2.2330862354143186e-12 4.858148581962398e-19
4.940699165968905 1.7928569147756077e-20 2.35127526164212e-12 2.351274732553173e-12 5.290889472889692e-19
5.015371051989984 1.8595513978166566e-20 2.475601223750097e-12 2.47560064750524e-12 5.762448564979527e-19
5.091171501069577 1.9409758556223592e-20 2.6230543726637147e-12 2.6230537444365463e-12 6.282271671519591e-19
5.129500256944802 1.9827739485927412e-20 2.699713592280916e-12 2.6997129363211995e-12 6.55959717015832e-19
5.168117569889187 2.0263567592812305e-20 2.7798267344811765e-12 2.7798260494573518e-12 6.850238250357666e-19
5.20702561229733 2.0798633573913332e-20 2.8747094101612204e-12 2.874708693904814e-12 7.162564057541743e-19
5.246226572918644 2.1347414293174916e-20 2.9727730454937824e-12 2.972772296578874e-12 7.489149084293843e-19
5.265937586045735 2.162708507271685e-20 3.023034677367028e-12 3.0230339115674424e-12 7.657995855638739e-19
5.285722656980489 2.1910351797825177e-20 3.0741365582180577e-12 3.074135775152087e-12 7.830659698288352e-19
5.305582063971359 2.2197272759922394e-20 3.1260943973937766e-12 3.1260935966709027e-12 8.007228735773515e-19
5.3255160863122235 2.2505559448229618e-20 3.181419561693043e-12 3.181418742838317e-12 8.188547257126406e-19
5.365609099470188 2.327358871766297e-20 3.314757929971865e-12 3.314757073010853e-12 8.569610124594114e-19
5.406003951863644 2.407093342082885e-20 3.4541303566019605e-12 3.4541294597482383e-12 8.968537215985787e-19
5.446702915881641 2.48990120463353e-20 3.5998568915030673e-12 3.599855952885139e-12 9.386179288316029e-19
5.487708281020852 2.5793889034373597e-20 3.75731215130977e-12 3.757311168821032e-12 9.824887382199132e-19
5.529022354014368 2.70380025005229e-20 3.968189309206137e-12 3.968188279457514e-12 1.0297486222868377e-18
5.570647458961463 2.8355572805760484e-20 4.192890615738454e-12 4.192889536415365e-12 1.0793230892999023e-18
5.612585937458331 2.975189037631085e-20 4.432482217968085e-12 4.432481086641306e-12 1.131326779453497e-18
5.654840148729818 3.1286914844206744e-20 4.696264034746032e-12 4.696262848608416e-12 1.186137616152955e-18
5.67608639626678 3.233248237945451e-20 4.871441368897973e-12 4.871440153209041e-12 1.215688931407914e-18
5.686739436050992 3.2871438834281264e-20 4.961939638489286e-12 4.961938407741042e-12 1.230748241276235e-18
5.6974124697621304 3.3421521209964897e-20 5.0544430563694545e-12 5.054441810369544e-12 1.2459999119510177e-18
5.718818669136295 3.4556135813704974e-20 5.2456695828030096e-12 5.245668305712715e-12 1.2770902944780828e-18
5.740305295436557 3.5806894806171144e-20 5.455958825831566e-12 5.455957516499826e-12 1.3093317403743893e-18
5.7835210386641895 3.905193860656326e-20 5.995209317144589e-12 5.99520793792994e-12 1.3792146494158976e-18
5.827062130521658 4.279049476695762e-20 6.618603884344082e-12 6.618602430531331e-12 1.4538127520269267e-18
5.8489554468988025 4.5413321389619685e-20 7.050680128784916e-12 7.050678632577707e-12 1.4962072125194545e-18
5.870931020387893 4.8228036559492234e-20 7.515813455193506e-12 7.515811915246292e-12 1.5399472137521989e-18
5.892989160043636 5.125008781623636e-20 8.016774896002969e-12 8.016773310925977e-12 1.5850769917909326e-18
5.915130176081913 5.468716758937858e-20 8.586559235966763e-12 8.586557602971996e-12 1.6329947641302841e-18
5.95966208400165 6.429765433105252e-20 1.0171527984723832e-11 1.017152623849057e-11 1.7462332606399047e-18
6.004529249263818 7.815043983535525e-20 1.2456035128212255e-11 1.245603324395267e-11 1.8842595830352433e-18
6.027089341400364 8.778013563218954e-20 1.404343374956831e-11 1.4043431780158552e-11 1.9694097585859312e-18
6.049734195844842 9.916022257579599e-20 1.592367186680489e-11 1.5923669803407836e-11 2.063397056894961e-18
6.095279466722835 1.3203326878775672e-19 2.1362222348692864e-11 2.136222003810954e-11 2.310583321622317e-18
6.141167624020661 1.8262538174249742e-19 2.977018417699611e-11 2.9770181517958837e-11 2.6590372760862032e-18
6.164241091010745 2.1493369155528482e-19 3.5168475856195276e-11 3.516847297113257e-11 2.8850627026629637e-18
6.187401249150058 2.517386723603407e-19 4.134544315027122e-11 4.1345440018433154e-11 3.1318380471701744e-18
6.1990139391386085 2.6970994831489345e-19 4.438017513815067e-11 4.4380171879389126e-11 3.258761547311179e-18
6.204828454712694 2.791766411284146e-19 4.5980987058013395e-11 4.598098373352607e-11 3.3244873265056434e-18
6.210648424152782 2.860873549922892e-19 4.7163392935546205e-11 4.716338955587231e-11 3.3796739096076253e-18
6.233982942956859 3.0956666453867374e-19 5.12258567331342e-11 5.122585315669105e-11 3.576443159744021e-18
6.239830258556775 3.1256840571567163e-19 5.1771087331187524e-11 5.177108372651891e-11 3.604668624540231e-18
6.245683058788269 3.1282924910460306e-19 5.1862891612632144e-11 5.1862887979513265e-11 3.6331188765739664e-18
6.257405133728602 3.1218548823113872e-19 5.185330213495891e-11 5.185329845147598e-11 3.683482918525426e-18
6.269149208991335 3.0756926106947205e-19 5.1182437962731045e-11 5.118243425970119e-11 3.703029863279689e-18
6.280915325867298 2.9599118951085067e-19 4.934818176528417e-11 4.934817808105011e-11 3.684234048420909e-18
6.304513850009849 2.674385503225735e-19 4.475535905358774e-11 4.475535544254678e-11 3.611040957344942e-18
6.32820103803542 2.320463431977578e-19 3.897843782208373e-11 3.89784343278602e-11 3.494223523726475e-18
6.3519772230701035 1.9958922168770202e-19 3.36523540800553e-11 3.365235069507562e-11 3.3849796631984445e-18
6.375842739491607 1.722842348363823e-19 2.91576533280984e-11 2.9157650038047154e-11 3.2900512480123935e-18
6.399797922933955 1.5040032023075945e-19 2.5549620580747096e-11 2.5549617349494275e-11 3.231252816342401e-18
6.42384311029221 1.32206589595806e-19 2.254329846478971e-11 2.2543295281511986e-11 3.1832777224357027e-18
6.447978639727206 1.189489319613462e-19 2.0358865350052478e-11 2.0358862181829156e-11 3.168223325929224e-18
6.472204850670314 1.0790538000952652e-19 1.85380814592174e-11 1.8538078297973198e-11 3.1612441972026988e-18
6.496522083828205 1.0072882586261053e-19 1.7370172197755465e-11 1.7370169014963782e-11 3.182791680483933e-18
