Dust emission spectrum from A.P. Jones, M. Kohler, N. Ysard, M. Bocchio, and L. Verstraete (2017), A&A, 602A, 46J 
inside the DustPedia framework.

lambda    nu*dP/dnu     j_nu    j_nu(carb.) j_nu(sil)
 (um)   (erg s-1 H-1) (Jy cm2 sr-1 H-1)
0.9927057738263894 1.7009182072225576e-22 4.482016086256909e-15 4.482015968895592e-15 1.1736131811619671e-22
1.0001793341362166 1.7295426712561135e-22 4.591753770493048e-15 4.5917536292096906e-15 1.4128335778942687e-22
1.0077091589558085 1.7582431826415574e-22 4.7030931557869005e-15 4.703092985929566e-15 1.698573354076837e-22
1.0114953028030835 1.7726200365737763e-22 4.759364395642008e-15 4.759364209490836e-15 1.8615117311742054e-22
1.0152956718711033 1.7870136172824876e-22 4.816037166028976e-15 4.816036962088403e-15 2.0394057185286103e-22
1.0229392996569957 1.8158340107436062e-22 4.9305508605744574e-15 4.93055061603223e-15 2.445422268321648e-22
1.0267826658714554 1.8302276399434291e-22 4.9883058202149046e-15 4.988305552557687e-15 2.67657219896103e-22
1.0306404723013447 1.8446343531147061e-22 5.0464609642047e-15 5.046460671344489e-15 2.92860211767948e-22
1.03451277320114 1.8590534499117296e-22 5.10501669569654e-15 5.105016375366191e-15 3.2033035049137286e-22
1.0383996230291617 1.873484241510674e-22 5.163973433035602e-15 5.163973082774322e-15 3.502612809974939e-22
1.0403485208654093 1.8807038108352443e-22 5.1936023141045516e-15 5.193601947890261e-15 3.6621428958105732e-22
1.0423010764483396 1.887926050939816e-22 5.223331611060061e-15 5.223331228197821e-15 3.8286224196579297e-22
1.0462171883269815 1.9023782134075015e-22 5.283091682420909e-15 5.28309126406167e-15 4.1835923940418175e-22
1.0471985131304309 1.9059927949675208e-22 5.298094550944187e-15 5.29809412323001e-15 4.277141767607427e-22
1.048180758391296 1.909607972694071e-22 5.313122574755732e-15 5.3131221374864614e-15 4.372692706299973e-22
1.0501480137395462 1.9168400766277308e-22 5.3432541189209095e-15 5.343253661924609e-15 4.569963018299562e-22
1.0521189612883777 1.9240744456797543e-22 5.3734863771070525e-15 5.3734858995331825e-15 4.775738727314192e-22
1.0531058218030118 1.927687486043576e-22 5.388626403633712e-15 5.388625915440562e-15 4.881931500403858e-22
1.0540936079674168 1.9312847836766494e-22 5.4037460562484665e-15 5.403745557207846e-15 4.990406185566504e-22
1.058054026499678 1.9456784804717917e-22 5.464473860943652e-15 5.46447331616102e-15 5.447826306780763e-22
1.0590464539527713 1.9492779837753385e-22 5.479718150408319e-15 5.479717593578189e-15 5.568301291368569e-22
1.06003981227728 1.9528778999261253e-22 5.494987391420011e-15 5.494986822287678e-15 5.69132331237026e-22
1.0620293250338977 1.9600789336181834e-22 5.5256007613385774e-15 5.525600166817162e-15 5.945214149329265e-22
1.0660195594769086 1.974485549612285e-22 5.58712729127066e-15 5.587126642682848e-15 6.485878126954509e-22
1.070024785945596 1.988897749230672e-22 5.6490540111638434e-15 5.649053303825422e-15 7.073384190247698e-22
1.0740450607676866 2.0033149678368348e-22 5.711381509482569e-15 5.711380738325117e-15 7.711574504456293e-22
1.07808044048254 2.017736655684868e-22 5.7741104042036435e-15 5.774109563744905e-15 8.404587373672317e-22
1.0861967418109137 2.0465684605140826e-22 5.900709112777447e-15 5.900708115452971e-15 9.973244754975768e-22
1.0902777775684922 2.060925580456162e-22 5.964429410912842e-15 5.964428325028048e-15 1.0858847933416564e-21
1.0943741465085532 2.0752842152317563e-22 6.028549629939438e-15 6.028548448015905e-15 1.1819235337012408e-21
1.1026131145906286 2.1040041816297455e-22 6.157992922047927e-15 6.157991523180193e-15 1.3988677331971841e-21
1.1109141095355224 2.1327248340612e-22 6.289045572532136e-15 6.2890439190470105e-15 1.6534851268507193e-21
1.1192775983109025 2.1614194917561904e-22 6.42164522266599e-15 6.421643270744042e-15 1.9519219476499127e-21
1.1277040513999907 2.18997748188103e-22 6.555475868396236e-15 6.555473567137782e-15 2.3012584556916462e-21
1.1361939428280308 2.2185237968250227e-22 6.690922418241306e-15 6.690919708601937e-15 2.7096393710465837e-21
1.1447477501889525 2.2470561110674236e-22 6.827994286034006e-15 6.827991099612414e-15 3.1864215910486994e-21
1.1533659546722406 2.2755838222337085e-22 6.966736717972181e-15 6.96673297562681e-15 3.742345374413468e-21
1.1707974979042381 2.3327124796355887e-22 7.249573068307084e-15 7.249567925648532e-15 5.142658551696723e-21
1.1884924949847024 2.389799406271326e-22 7.539235780559477e-15 7.53922874889449e-15 7.031664983629988e-21
1.2064549276569216 2.4472423971848228e-22 7.837138514615908e-15 7.83712894738516e-15 9.56723074919738e-21
1.2246888378427687 2.5046127752390893e-22 8.142087852627707e-15 8.142074899114265e-15 1.2953513442695558e-20
1.2431983285522175 2.5618446222914424e-22 8.454007651195818e-15 8.453990197584463e-15 1.7453611353528442e-20
1.2619875648066055 2.6189986268654894e-22 8.773235339038407e-15 8.773211934188033e-15 2.340485037334812e-20
1.3004222497298317 2.7325998227270397e-22 9.432566167635024e-15 9.432524671714465e-15 4.1495920559016304e-20
1.3400274889804893 2.845608899501279e-22 1.0121813966016788e-14 1.0121741740520084e-14 7.222549670105351e-20
1.3808389325824078 2.958303217732142e-22 1.08431419279534e-14 1.0843018457226443e-14 1.234707269582807e-19
1.4228933163050095 3.0715911918164004e-22 1.160126069255216e-14 1.1601053277589008e-14 2.074149631541099e-19
1.466228494730424 3.1876080966341394e-22 1.240612091544012e-14 1.2405778356391964e-14 3.425590481504063e-19
1.5108834753276823 3.305903207593561e-22 1.3258382319937075e-14 1.3257825850817999e-14 5.564691190760711e-19
1.5568984535646726 3.4262183909508405e-22 1.4159397117342695e-14 1.4158507070548091e-14 8.900467945997462e-19
1.6043148490894465 3.5493158847672014e-22 1.5114844690136405e-14 1.5113440399227403e-14 1.4042909090067156e-18
1.6531753430134553 3.676030913156043e-22 1.6131230879570546e-14 1.6129047827200837e-14 2.1830523697108655e-18
1.7035239163302658 3.807423340725679e-22 1.7216657350772108e-14 1.7213312811964704e-14 3.3445388073999085e-18
1.755405889504358 3.946604473543598e-22 1.8389528235045247e-14 1.8384475925064334e-14 5.05230998091301e-18
1.8088679632656115 4.0936280070046816e-22 1.9655526223400233e-14 1.9647998242985436e-14 7.52798041480149e-18
1.8639582606462262 4.248568419034389e-22 2.1020751231327278e-14 2.1009683121694344e-14 1.1068109632935297e-17
1.9207263702978936 4.412197333870194e-22 2.2495200060354358e-14 2.2479136656406956e-14 1.6063403947398162e-17
1.979223391128241 4.5856307386407575e-22 2.4091471529315783e-14 2.4068449826914653e-14 2.3021702401135352e-17
2.039501978296691 4.76995759884157e-22 2.5823082485280065e-14 2.5790489306870777e-14 3.2593178409277796e-17
2.1016163906111602 4.967881602447967e-22 2.7713674820541768e-14 2.7668072861775098e-14 4.560195876667646e-17
2.1656225393682647 5.180948932604707e-22 2.978252448194157e-14 2.9719449675387887e-14 6.307480655367355e-17
2.231578038680979 5.409052887233659e-22 3.2040754889875533e-14 3.195448130809377e-14 8.627358178175894e-17
2.299542257339062 5.6529167799660995e-22 3.4505110282483845e-14 3.438838077815306e-14 1.1672950433078431e-16
2.369576372248914 5.913983780669411e-22 3.719805848317963e-14 3.704177852423887e-14 1.56279958940764e-16
2.4417434235010123 6.19391764899091e-22 4.0145316542639016e-14 3.993821901257389e-14 2.070975300651269e-16
2.5161083711144245 6.4957189301653445e-22 4.3383641274871774e-14 4.31119134974233e-14 2.7172777744846853e-16
2.5927381535095444 6.824211001465091e-22 4.696567172552092e-14 4.661255756638688e-14 3.531141591340531e-16
2.6717017477616296 7.184100716495288e-22 5.094831436309082e-14 5.0493715886703053e-14 4.545984763877586e-16
2.753070231689431 7.582255727893711e-22 5.540961740430565e-14 5.482968606964694e-14 5.799313346586977e-16
2.836916847834745 8.03569863115026e-22 6.051174544823586e-14 5.977844999134396e-14 7.332954568919074e-16
2.9233170693905177 8.58159794932588e-22 6.659069066513206e-14 6.567157443297865e-14 9.19116232153423e-16
2.967498994190263 8.924894371404852e-22 7.030125828482291e-14 6.927747004838785e-14 1.0237882364350663e-15
3.0123486681368425 9.297529122772564e-22 7.434336571588242e-14 7.320449309843593e-14 1.1388726174464955e-15
3.0578761833420214 9.913429174390776e-22 8.04661528005595e-14 7.920056343231385e-14 1.2655893682456428e-15
3.1040917844459814 1.06447591314541e-21 8.770812484858889e-14 8.630447295563072e-14 1.4036518929581971e-15
3.127460860933648 1.1319181025935092e-21 9.396720776499733e-14 9.248956781840896e-14 1.4776399465883861e-15
3.1510058709225794 1.2179385323408263e-21 1.0186946281449724e-13 1.0031465255565441e-13 1.554810258842828e-15
3.162844764501044 1.294953914280536e-21 1.0871804210329224e-13 1.0712327750871727e-13 1.594764594574953e-15
3.1747281389236908 1.3826164503210908e-21 1.1651388787482273e-13 1.1487834359215677e-13 1.6355442826659057e-15
3.1986289994194426 1.620940525300491e-21 1.3762596704569326e-13 1.3590613281250642e-13 1.7198342331868724e-15
3.2227097969389145 2.170899627642149e-21 1.8570789894462116e-13 1.83898697826767e-13 1.8092011178541458e-15
3.2348180950136065 2.686985332770839e-21 2.307196544820992e-13 2.2886274935864434e-13 1.8569051234547845e-15
3.240889293275058 3.0721524237288294e-21 2.6428735733744283e-13 2.624052893709464e-13 1.8820679664964066e-15
3.2469718861334385 3.518183469422278e-21 3.0322600564057744e-13 3.0131790122710863e-13 1.9081044134687452e-15
3.2714166318528037 5.8702744449703246e-21 5.097575843140953e-13 5.077418425915726e-13 2.0157417225225117e-15
3.2744851364798273 6.0177592104510974e-21 5.230548852962506e-13 5.210264466537059e-13 2.0284386425446737e-15
3.2775565192852394 6.16927512916595e-21 5.367273934783595e-13 5.34686193333319e-13 2.0412001450404963e-15
3.283707930232385 6.026124747064658e-21 5.252572706102098e-13 5.231932240765865e-13 2.0640465336232503e-15
3.2898708863219004 5.567745728363713e-21 4.862142471592126e-13 4.841293863649098e-13 2.084860794302822e-15
3.29141343181113 5.4594954890570164e-21 4.769846264420136e-13 4.748945384863494e-13 2.090087955664033e-15
3.292184975758714 5.406282285361963e-21 4.724462215697244e-13 4.703535164890624e-13 2.092705080661962e-15
3.295272960557952 5.072738170746951e-21 4.4371414597484797e-13 4.4161125647841766e-13 2.1028894964303877e-15
3.3076538914384823 3.911312440711005e-21 3.434092599628921e-13 3.4126545339974687e-13 2.1438065631452762e-15
3.310756385682612 3.6732969374633055e-21 3.228142482208062e-13 3.2066012580028486e-13 2.154122420521337e-15
3.313861789986515 3.4530537875351205e-21 3.0374362233109877e-13 3.0157914934065675e-13 2.1644729904421416e-15
3.3200813396944477 3.1454532498357017e-21 2.772052119644603e-13 2.750184865230532e-13 2.1867254414070367e-15
3.345076488085796 2.6076285492683604e-21 2.3153743243186133e-13 2.292515689758968e-13 2.2858634559645787e-15
3.3482140837626964 2.629877639863038e-21 2.337320103457926e-13 2.3143271825305616e-13 2.2992920927363845e-15
3.3513546224236106 2.6523397549026967e-21 2.359494519076729e-13 2.3363666941295047e-13 2.3127824947223032e-15
3.3576445397418455 2.808368439689612e-21 2.502984925863691e-13 2.479575089526176e-13 2.3409836337514357e-15
3.3702598118196083 3.374571069200873e-21 3.0189185340963924e-13 2.994917143658216e-13 2.4001390438175888e-15
3.382922481734668 3.510271712330802e-21 3.152116160635465e-13 3.127539283012826e-13 2.4576877622640035e-15
3.389271646505754 3.580317624810419e-21 3.221049269900647e-13 3.196180599357096e-13 2.486867054355099e-15
3.395632727569191 3.6568048653575505e-21 3.29603587379023e-13 3.2708664900676587e-13 2.516938372257081e-15
3.421196662673239 4.0258059638586246e-21 3.655950539674529e-13 3.629535783528402e-13 2.6414756146127045e-15
3.4276182099114902 3.959790825333618e-21 3.602749939508455e-13 3.5760567034662373e-13 2.669323604221603e-15
3.4340518103208963 3.6575489585358475e-21 3.3340063630615965e-13 3.307049464400879e-13 2.6956898660717684e-15
3.4469541582030403 3.2255694448033464e-21 2.95128626846372e-13 2.923822755585407e-13 2.7463512878311953e-15
3.472904465399547 3.1108082518506836e-21 2.8677118572116983e-13 2.8390821302057673e-13 2.862972700593183e-15
3.4990501388274233 2.9333088707359803e-21 2.7244409182416323e-13 2.694616548818756e-13 2.982436942287589e-15
3.5253949054701885 2.286386742501782e-21 2.1395719659199407e-13 2.1085850248215487e-13 3.098694109839177e-15
3.5519380250092896 1.672629925712498e-21 1.5770108278025694e-13 1.544853795511055e-13 3.2157032291515036e-15
3.578680990867387 1.435815314792564e-21 1.3639266047450262e-13 1.3304868779280134e-13 3.3439726817012776e-15
3.605625307711299 1.347244827342354e-21 1.2894263805085782e-13 1.254634772788268e-13 3.479160772031016e-15
3.660119384959845 1.2975900399467931e-21 1.2606722340176175e-13 1.2230361653007507e-13 3.7636068716866495e-15
3.715437065384467 1.2680371088202081e-21 1.2505795010497995e-13 1.2099386328760747e-13 4.0640868173725015e-15
3.8285932144167436 1.2873226045286026e-21 1.3082659962173816e-13 1.261145565016709e-13 4.712043120067218e-15
3.94519561050918 1.3278846261410034e-21 1.3905874868882096e-13 1.3363690174544636e-13 5.42184694337452e-15
4.06534921144712 1.3770859354377139e-21 1.4860325866224005e-13 1.4240981558078183e-13 6.1934430814582584e-15
4.189162171576248 1.4311321623001693e-21 1.5913889863928796e-13 1.5210989394793925e-13 7.029004691348729e-15
4.316745939156006 1.4883926899002228e-21 1.705467510951507e-13 1.626204786041192e-13 7.926272491031517e-15
4.448215356677963 1.54807512161122e-21 1.8278782681343532e-13 1.739140380732532e-13 8.87378874018212e-15
4.58368876423945 1.6099892187733852e-21 1.9588786006696222e-13 1.86014432024151e-13 9.873428042811235e-15
4.723288106065518 1.6743444726628927e-21 2.0992235162907067e-13 1.9899025531869567e-13 1.0932096310374987e-14
4.867139040275056 1.7414787819962464e-21 2.249890456060872e-13 2.1296565645616582e-13 1.2023389149921408e-14
4.940699165968905 1.7771611849454698e-21 2.330690807322942e-13 2.2048437746763371e-13 1.2584703264660539e-14
5.015371051989984 1.81273964333385e-21 2.4132812272070637e-13 2.28173237466101e-13 1.3154885254605408e-14
5.091171501069577 1.8516483546782874e-21 2.502336285794293e-13 2.36487690002264e-13 1.3745938577165316e-14
5.129500256944802 1.8710430572122592e-21 2.5475825809008056e-13 2.4071394673086423e-13 1.4044311359216373e-14
5.168117569889187 1.890704409334169e-21 2.593734119125628e-13 2.450260952548048e-13 1.4347316657758048e-14
5.20702561229733 1.913013172302541e-21 2.6440953193569634e-13 2.497322610946834e-13 1.4677270841012913e-14
5.246226572918644 1.9353847732061717e-21 2.695155304258966e-13 2.5450550555190164e-13 1.5010024873994827e-14
5.265937586045735 1.946594812864043e-21 2.720950882786508e-13 2.569176719097559e-13 1.517741636889486e-14
5.285722656980489 1.9578214216562023e-21 2.746925500015563e-13 2.593470850885193e-13 1.534546491303705e-14
5.305582063971359 1.969064938895823e-21 2.7730807023737606e-13 2.6179391439889314e-13 1.5514155838482936e-14
5.3255160863122235 1.9808219868390813e-21 2.8001196022955376e-13 2.643272087317654e-13 1.5684751497788367e-14
5.365609099470188 2.0082590759905968e-21 2.860277707204521e-13 2.69990070031973e-13 1.6037700688479085e-14
5.406003951863644 2.0360258518214274e-21 2.921655998399e-13 2.7577202719873675e-13 1.6393572641163305e-14
5.446702915881641 2.0641417743210557e-21 2.9843011351218153e-13 2.8167786189137015e-13 1.6752251620811318e-14
5.487708281020852 2.0935831486187152e-21 3.0496546657232286e-13 2.8785037707090537e-13 1.7115089501417455e-14
5.529022354014368 2.1319724960144756e-21 3.1289554271039625e-13 2.954021089969196e-13 1.7493433713476638e-14
5.570647458961463 2.1715122489398255e-21 3.210978453128344e-13 3.0322296641621193e-13 1.7874878896622513e-14
5.612585937458331 2.2122928015120602e-21 3.295907715312346e-13 3.1133146334954345e-13 1.8259308181691035e-14
5.654840148729818 2.2558704282562417e-21 3.3861322575334036e-13 3.199647984584081e-13 1.8648427294932405e-14
5.67608639626678 2.2846859555675426e-21 3.4422700825360186e-13 3.2537503374278323e-13 1.8851974510818613e-14
5.686739436050992 2.299381699637031e-21 3.4709138401167624e-13 3.2813731202250153e-13 1.8954071989174584e-14
5.6974124697621304 2.314275718221575e-21 3.4999528480474454e-13 3.309389018332836e-13 1.9056382971460944e-14
5.718818669136295 2.3446781767575914e-21 3.559254153759104e-13 3.366637772225819e-13 1.926163815332845e-14
5.740305295436557 2.3777643174860826e-21 3.6230408372355505e-13 3.4283486600548394e-13 1.9469217718071216e-14
5.7835210386641895 2.4620372156389682e-21 3.779691605854045e-13 3.580706737843054e-13 1.9898486801099035e-14
5.827062130521658 2.5566225404711487e-21 3.954446418373833e-13 3.7510949027649434e-13 2.0335151560889012e-14
5.8489554468988025 2.6225494529808935e-21 4.0716593169322017e-13 3.865951192175269e-13 2.057081247569338e-14
5.870931020387893 2.6922556216239275e-21 4.1955867311456874e-13 3.9875092231829794e-13 2.0807750796270726e-14
5.892989160043636 2.766038582616787e-21 4.3267650096538564e-13 4.1163054699227264e-13 2.1045953973112937e-14
5.915130176081913 2.8492448685176737e-21 4.473665563555901e-13 4.260737168322565e-13 2.129283952333356e-14
5.95966208400165 3.0808758633631875e-21 4.873772672998518e-13 4.655225053361682e-13 2.1854761963683587e-14
6.004529249263818 3.410452381733121e-21 5.435761431344448e-13 5.210893549086582e-13 2.2486788225786757e-14
6.027089341400364 3.6384869309375055e-21 5.821003783520408e-13 5.59248723277213e-13 2.2851655074827622e-14
6.049734195844842 3.9053663994566665e-21 6.271443472916592e-13 6.039062507682095e-13 2.3238096523449748e-14
6.095279466722835 4.673162635424268e-21 7.560907959494052e-13 7.319038931113589e-13 2.4186902838046217e-14
6.141167624020661 5.84345998064797e-21 9.52555872546138e-13 9.27138850440225e-13 2.5417022105913232e-14
6.164241091010745 6.589697426709001e-21 1.078237726127909e-12 1.0520492755150334e-12 2.6188450612875732e-14
6.187401249150058 7.430456115013231e-21 1.2203746766572043e-12 1.1933937856352128e-12 2.6980891021990968e-14
6.1990139391386085 7.839794247620309e-21 1.2900207943024644e-12 1.2626366242757006e-12 2.738417002676341e-14
6.204828454712694 8.054619803793623e-21 1.326613027001412e-12 1.2990251331190216e-12 2.7587893882390548e-14
6.210648424152782 8.210845008103591e-21 1.3536121142456479e-12 1.3258504994249309e-12 2.776161482071675e-14
6.233982942956859 8.737113113971607e-21 1.445782624251468e-12 1.4174146979743128e-12 2.8367926277155567e-14
6.239830258556775 8.801938106998763e-21 1.4578757740334631e-12 1.4294232327724817e-12 2.8452541260981805e-14
6.245683058788269 8.803967184345462e-21 1.4595796177939948e-12 1.4310423149284955e-12 2.853730286549945e-14
6.257405133728602 8.781223113739867e-21 1.4585412595927993e-12 1.4298553115966007e-12 2.8685947996198453e-14
6.269149208991335 8.667472917722375e-21 1.4423495812371637e-12 1.4136076424295167e-12 2.8741938807646925e-14
6.280915325867298 8.39461843898541e-21 1.3995658359353692e-12 1.3708825153154566e-12 2.8683320619912237e-14
6.304513850009849 7.72691703445909e-21 1.2930856297171249e-12 1.2646232930817473e-12 2.84623366353775e-14
6.32820103803542 6.908404674930162e-21 1.1604527714624199e-12 1.1323218069583132e-12 2.8130964504107046e-14
6.3519772230701035 6.160606478732956e-21 1.0387279874992286e-12 1.0108933153077594e-12 2.7834672191468527e-14
6.375842739491607 5.52977374614222e-21 9.358675564595876e-13 9.0829324628052e-13 2.757431017906758e-14
6.399797922933955 5.028940501329344e-21 8.543035116878621e-13 8.268584655480999e-13 2.744504613976235e-14
6.42384311029221 4.611017349012092e-21 7.862508263990536e-13 7.589089505693675e-13 2.7341875829685824e-14
6.447978639727206 4.308259732553308e-21 7.373860222352282e-13 7.10044963214978e-13 2.734105902025047e-14
6.472204850670314 4.055303963258924e-21 6.966988597430822e-13 6.693382651923582e-13 2.7360594550723942e-14
6.496522083828205 3.891655696012986e-21 6.710961732674519e-13 6.436329997404401e-13 2.746317352701176e-14
6.520930681187647 3.753491334676018e-21 6.497023449201304e-13 6.221239112066607e-13 2.7578433713469556e-14
