Dust emission spectrum from A.P. Jones, M. Kohler, N. Ysard, M. Bocchio, and L. Verstraete (2017), A&A, 602A, 46J 
inside the DustPedia framework.

lambda    nu*dP/dnu     j_nu    j_nu(carb.) j_nu(sil)
 (um)   (erg s-1 H-1) (Jy cm2 sr-1 H-1)
0.9927057738263894 1.0937551671111282e-19 2.8821069893910876e-12 2.8821067999623737e-12 1.8942871451809873e-19
1.0001793341362166 1.1120790348735538e-19 2.9524527994202615e-12 2.9524525715358717e-12 2.2788438902787213e-19
1.0077091589558085 1.1304834437971567e-19 3.0239098889978243e-12 3.0239096152194645e-12 2.737783603840138e-19
1.0114953028030835 1.1397151591488825e-19 3.060057788871156e-12 3.060057488939646e-12 2.99931509951219e-19
1.0152956718711033 1.1489661950833855e-19 3.0964866996633322e-12 3.0964863711909914e-12 3.28472342068003e-19
1.0229392996569957 1.1675161649602309e-19 3.170167425998315e-12 3.1701670324308433e-12 3.9356747166137886e-19
1.0267826658714554 1.1767940881917562e-19 3.2073653960896774e-12 3.2073649654877463e-12 4.306019301313098e-19
1.0306404723013447 1.1860898964011353e-19 3.244847062573231e-12 3.2448465916103525e-12 4.70962878017756e-19
1.03451277320114 1.195403369513378e-19 3.282613611645998e-12 3.282613096712233e-12 5.149337651802883e-19
1.0383996230291617 1.2047342969032978e-19 3.3206662566102035e-12 3.3206656937894142e-12 5.628207889842221e-19
1.0403485208654093 1.2094062427709762e-19 3.3398002518845764e-12 3.3397996635494008e-12 5.88335175763243e-19
1.0423010764483396 1.214082477618993e-19 3.359006238949115e-12 3.3590056239945165e-12 6.149545982077321e-19
1.0462171883269815 1.2234477206036454e-19 3.397634829417276e-12 3.397634157725162e-12 6.716921146589902e-19
1.0471985131304309 1.225791675899843e-19 3.407337223847358e-12 3.4073365372070508e-12 6.866403076107329e-19
1.048180758391296 1.228136683501436e-19 3.417057758085979e-12 3.4170570561795185e-12 7.019064615730394e-19
1.0501480137395462 1.2328298449154915e-19 3.4365533291448633e-12 3.4365525957263833e-12 7.334184798755751e-19
1.0521189612883777 1.2375271838443388e-19 3.4561217101648544e-12 3.456120943883792e-12 7.66281062744991e-19
1.0531058218030118 1.2398743370874597e-19 3.465924657595821e-12 3.4659238743587727e-12 7.83237048413476e-19
1.0540936079674168 1.2422124487617902e-19 3.475717655808521e-12 3.47571685525319e-12 8.005553319917304e-19
1.058054026499678 1.2515748129426235e-19 3.5150709220374502e-12 3.51507004847663e-12 8.735608201691839e-19
1.0590464539527713 1.2539178719182132e-19 3.524954664785014e-12 3.5249537720019877e-12 8.92783026529539e-19
1.06003981227728 1.2562619136403406e-19 3.5348566216228795e-12 3.534855709213713e-12 9.124091664337755e-19
1.0620293250338977 1.2609529368201563e-19 3.5547152659020526e-12 3.5547143129964234e-12 9.529056293372115e-19
1.0660195594769086 1.2703466850508393e-19 3.594652103083996e-12 3.5946510639733985e-12 1.0391105982637723e-18
1.070024785945596 1.2797559335760264e-19 3.6348828855957014e-12 3.634881752858954e-12 1.1327367474425672e-18
1.0740450607676866 1.2891805698271991e-19 3.6754091029658624e-12 3.675407868577701e-12 1.234388161777041e-18
1.07808044048254 1.298620492928479e-19 3.716232283437039e-12 3.716230938721977e-12 1.3447150630498783e-18
1.0861967418109137 1.3175315594886977e-19 3.798734627960589e-12 3.798733033713669e-12 1.5942469205206336e-18
1.0902777775684922 1.3269700615151567e-19 3.840322686736712e-12 3.840320951722737e-12 1.735013974640476e-18
1.0943741465085532 1.3364230138604294e-19 3.882211605773291e-12 3.882209718185695e-12 1.887587595979111e-18
1.1026131145906286 1.355372135332947e-19 3.9668989676894264e-12 3.966896735727799e-12 2.2319616276950006e-18
1.1109141095355224 1.3743787859765874e-19 4.0528110710226375e-12 4.052808435318354e-12 2.6357042846886214e-18
1.1192775983109025 1.3934283441874814e-19 4.139919392652664e-12 4.1399162842349e-12 3.1084177643794708e-18
1.1277040513999907 1.4124535607670057e-19 4.228036730718062e-12 4.2280330695699275e-12 3.661148134479095e-18
1.1361939428280308 1.4315350206720503e-19 4.317415831202644e-12 4.3174115246173195e-12 4.306585324806078e-18
1.1447477501889525 1.4506734877699027e-19 4.408074296234924e-12 4.408069236947523e-12 5.0592873995404315e-18
1.1533659546722406 1.4698764853979437e-19 4.500050660253838e-12 4.500044724312445e-12 5.935941394244354e-18
1.1707974979042381 1.5085346118693155e-19 4.688203964393119e-12 4.688195824129169e-12 8.140263949412073e-18
1.1884924949847024 1.5474658150698702e-19 4.881878207665275e-12 4.881867100676073e-12 1.1106989202836455e-17
1.2064549276569216 1.5869315561980663e-19 5.082047627748722e-12 5.082032547965015e-12 1.5079783706941182e-17
1.2246888378427687 1.6266903177554028e-19 5.2881050544506e-12 5.288084681611525e-12 2.0372839075019736e-17
1.2431983285522175 1.666715413410229e-19 5.500109075597603e-12 5.5000816857586995e-12 2.7389838904411117e-17
1.2619875648066055 1.7070719232465119e-19 5.718423663792071e-12 5.718387016974356e-12 3.664681771623205e-17
1.3004222497298317 1.7885651774256742e-19 6.1738858507130835e-12 6.173821173931585e-12 6.467678150133531e-17
1.3400274889804893 1.8714608490410786e-19 6.656775132379399e-12 6.656663086325316e-12 1.1204605408424955e-16
1.3808389325824078 1.9561064915224126e-19 7.16976548807884e-12 7.169574860152068e-12 1.9062792677517454e-16
1.4228933163050095 2.0432325632626202e-19 7.717196769243146e-12 7.716878103951716e-12 3.1866529143152894e-16
1.466228494730424 2.1343249813415778e-19 8.306759485059498e-12 8.306235812847181e-12 5.236722123147131e-16
1.5108834753276823 2.229266236942476e-19 8.940511021139532e-12 8.939664665385064e-12 8.463557544702466e-16
1.5568984535646726 2.3280295776076028e-19 9.620955680270463e-12 9.619608962960943e-12 1.3467173095210928e-15
1.6043148490894465 2.4311981194548513e-19 1.0353314041227419e-11 1.0351200316842968e-11 2.113724384453205e-15
1.6531753430134553 2.5393845330450523e-19 1.1143376963441038e-11 1.1140108472445153e-11 3.26849099588554e-15
1.7035239163302658 2.6532885359127333e-19 1.1997814660356299e-11 1.1992834150272021e-11 4.980510084276943e-15
1.755405889504358 2.774870352943265e-19 1.2929736700526855e-11 1.2922254241349025e-11 7.482459177830333e-15
1.8088679632656115 2.904148932482088e-19 1.3944250772514367e-11 1.3933163838908128e-11 1.1086933606237532e-14
1.8639582606462262 3.0410799570603517e-19 1.5046429513890255e-11 1.5030220877949385e-11 1.6208635940870486e-14
1.9207263702978936 3.186033606811e-19 1.6243712137271867e-11 1.622032316673232e-11 2.3388970539547176e-14
1.979223391128241 3.3395652836562014e-19 1.7545032850888192e-11 1.7511707774474534e-11 3.3325076413659567e-14
2.039501978296691 3.5021487881840926e-19 1.895955575264752e-11 1.8912655084500258e-11 4.6900668147262926e-14
2.1016163906111602 3.6752815993555477e-19 2.0502815338487557e-11 2.0437590723904878e-11 6.522461458268255e-14
2.1656225393682647 3.8596829559372566e-19 2.2187267935478878e-11 2.209760452687371e-11 8.9663408605171e-14
2.231578038680979 4.054938689380237e-19 2.4019601832059693e-11 2.389772461594453e-11 1.2187721611517152e-13
2.299542257339062 4.261202060393131e-19 2.6010155951861393e-11 2.5846299647053965e-11 1.6385630480742565e-13
2.369576372248914 4.478994603470408e-19 2.8172194815671178e-11 2.795423614445476e-11 2.1795867121642502e-13
2.4417434235010123 4.708957400391864e-19 3.052068111614821e-11 3.023374670861337e-11 2.869344075348309e-13
2.5161083711144245 4.952491973141725e-19 3.307672907177242e-11 3.270276925816586e-11 3.739598136065575e-13
2.5927381535095444 5.211944667957019e-19 3.586971186475566e-11 3.538706102138037e-11 4.826508433752998e-13
2.6717017477616296 5.489224782858852e-19 3.8928567524759757e-11 3.83115256129143e-11 6.170419118454579e-13
2.753070231689431 5.787119458303452e-19 4.2291118443545834e-11 4.15095425560733e-11 7.815758874725436e-13
2.836916847834745 6.113491742690239e-19 4.603682555982182e-11 4.505571440251013e-11 9.811111573116975e-13
2.9233170693905177 6.48548555078313e-19 5.032547139537204e-11 4.910485738687217e-11 1.2206140084998724e-12
2.967498994190263 6.703995266905237e-19 5.280726955256378e-11 5.1453107093848834e-11 1.3541624587149493e-12
3.0123486681368425 6.936323395163585e-19 5.5463082726704344e-11 5.3962676040921995e-11 1.5004066857823511e-12
3.0578761833420214 7.286857009946249e-19 5.914657171434288e-11 5.7485728934634446e-11 1.6608427797084324e-12
3.1040917844459814 7.688632479761007e-19 6.335094379516274e-11 6.151619641318557e-11 1.8347473819771717e-12
3.127460860933648 8.036875730182682e-19 6.671885269695582e-11 6.479126267992946e-11 1.9275900170263718e-12
3.1510058709225794 8.4707482227464285e-19 7.08500920345757e-11 6.882592284061292e-11 2.0241691939627813e-12
3.162844764501044 8.851218685406483e-19 7.431053376444725e-11 7.223645972327022e-11 2.074074041177033e-12
3.1747281389236908 9.278778474251195e-19 7.819280282056187e-11 7.60678618804617e-11 2.1249409401001584e-12
3.1986289994194426 1.042307863294713e-18 8.849715668542038e-11 8.626728585690572e-11 2.2298708285146506e-12
3.2227097969389145 1.3029344346614035e-18 1.1145850008107908e-10 1.0911764000415934e-10 2.340860076919736e-12
3.2348180950136065 1.5458322191926458e-18 1.3273383786268747e-10 1.3033379666586336e-10 2.40004119682412e-12
3.240889293275058 1.7268768199270327e-18 1.4855763915250547e-10 1.4612638093469082e-10 2.4312582178146755e-12
3.2469718861334385 1.936576943556426e-18 1.6691013880145388e-10 1.6444658025230573e-10 2.463558549148218e-12
3.2714166318528037 3.033325353448154e-18 2.6340516429130034e-10 2.608082865550146e-10 2.5968777362857126e-12
3.2744851364798273 3.1019596392027007e-18 2.6961782393336133e-10 2.6700528112984456e-10 2.6125428035168094e-12
3.2775565192852394 3.1723989992236675e-18 2.759989480574312e-10 2.733706660810014e-10 2.6282819764297156e-12
3.283707930232385 3.1055427675023156e-18 2.706895370222978e-10 2.6803320242192956e-10 2.656334600368224e-12
3.2898708863219004 2.8918512940156277e-18 2.525365504127333e-10 2.498547727716155e-10 2.6817776411178297e-12
3.29141343181113 2.841349732133764e-18 2.482427439109447e-10 2.455545795540135e-10 2.688164356931241e-12
3.292184975758714 2.816518936582903e-18 2.4613101191017077e-10 2.4343965029928664e-10 2.6913616108840313e-12
3.295272960557952 2.661777012756164e-18 2.328265473667594e-10 2.301227653796569e-10 2.7037819871024827e-12
3.3076538914384823 2.121460092078554e-18 1.862620415282068e-10 1.8350841586825353e-10 2.7536256599532746e-12
3.310756385682612 2.010297442343173e-18 1.7666762818210195e-10 1.7390144771455558e-10 2.7661804675463467e-12
3.313861789986515 1.9072671912421096e-18 1.6777040876466412e-10 1.6499163591298236e-10 2.7787728516817942e-12
3.3200813396944477 1.7637023758713395e-18 1.554330813758476e-10 1.5262718298170843e-10 2.8058983941391316e-12
3.345076488085796 1.5155929171584107e-18 1.3457303677290697e-10 1.3164614479660487e-10 2.926891976302106e-12
3.3482140837626964 1.5263238060443818e-18 1.3565297724040658e-10 1.3270968981755783e-10 2.9432874228487357e-12
3.3513546224236106 1.5371461430648825e-18 1.3674296035707457e-10 1.3378320821791116e-10 2.959752139163427e-12
3.3576445397418455 1.6106183073111308e-18 1.4354787952842147e-10 1.4055368785588524e-10 2.9941916725362296e-12
3.3702598118196083 1.8747629304325517e-18 1.6771780595689081e-10 1.646513828407764e-10 3.0664231161144452e-12
3.382922481734668 1.9394006093170767e-18 1.7415221679564748e-10 1.7101573224320737e-10 3.1364845524400683e-12
3.389271646505754 1.972672411851099e-18 1.774723836766461e-10 1.7430041570234988e-10 3.171967974296242e-12
3.395632727569191 2.0092936118144642e-18 1.8110629550561128e-10 1.7789775944950587e-10 3.2085360561053653e-12
3.421196662673239 2.186404837339017e-18 1.9855373102371627e-10 1.9519397607815067e-10 3.3597549455654812e-12
3.4276182099114902 2.15613378725688e-18 1.9617225288553956e-10 1.927789111537403e-10 3.3933417317993147e-12
3.4340518103208963 2.0156174143664804e-18 1.8373182043982047e-10 1.8030678939865114e-10 3.4250310411693645e-12
3.4469541582030403 1.8142664806840002e-18 1.6599920861735255e-10 1.625135116460953e-10 3.485696971257273e-12
3.472904465399547 1.7613541681981853e-18 1.6237118536271747e-10 1.587454960302556e-10 3.625689332461809e-12
3.4990501388274233 1.6798876530631453e-18 1.5602702823810732e-10 1.522584312672526e-10 3.76859697085475e-12
3.5253949054701885 1.38280716927387e-18 1.294013562383651e-10 1.2549448852114044e-10 3.906867717224683e-12
3.5519380250092896 1.1001134546936983e-18 1.0372233589711927e-10 9.967694527368487e-11 4.045390623434386e-12
3.578680990867387 9.928532834801674e-19 9.43142891704493e-11 9.011712629499428e-11 4.197162875454997e-12
3.605625307711299 9.54642173930138e-19 9.136726881629948e-11 8.701052977918154e-11 4.3567390371179275e-12
3.660119384959845 9.373115330024399e-19 9.106440307827237e-11 8.637364326194778e-11 4.690759816324587e-12
3.715437065384467 9.289379970331136e-19 9.161489113806272e-11 8.657380149639811e-11 5.041089641664598e-12
3.8285932144167436 9.481398179504504e-19 9.63565060631041e-11 9.056873282909622e-11 5.7877732340078926e-12
3.94519561050918 9.763399949880936e-19 1.0224428788851509e-10 9.56516267060932e-11 6.5926611824218835e-12
4.06534921144712 1.007539044038662e-18 1.0872493961387599e-10 1.0127229858514217e-10 7.45264102873381e-12
4.189162171576248 1.0398483603947121e-18 1.1562895949394194e-10 1.0726179131440748e-10 8.367168179534474e-12
4.316745939156006 1.072332939845416e-18 1.2287274737637103e-10 1.1354239757341088e-10 9.330349802960148e-12
4.448215356677963 1.1043998469424638e-18 1.3040119638741981e-10 1.2007521841163455e-10 1.0325977975785263e-11
4.58368876423945 1.1358119341431463e-18 1.3819457088497144e-10 1.2684148347370375e-10 1.135308741126767e-11
4.723288106065518 1.1665302737374134e-18 1.462547177762057e-10 1.3383859559875003e-10 1.241612217745567e-11
4.867139040275056 1.196385992100819e-18 1.5456619128640937e-10 1.4108389815618404e-10 1.3482293130225325e-11
4.940699165968905 1.2114240087205728e-18 1.5887443552183932e-10 1.4485497372286742e-10 1.4019461798971887e-11
5.015371051989984 1.2258301221959238e-18 1.631934752747912e-10 1.4863618227463825e-10 1.455729300015285e-11
5.091171501069577 1.2411290050637303e-18 1.6772742712599666e-10 1.5261914914294325e-10 1.5108277983053426e-11
5.129500256944802 1.2485090770655272e-18 1.699950177291857e-10 1.546118166232351e-10 1.5383201105950533e-11
5.168117569889187 1.2558541180229438e-18 1.7228243920516606e-10 1.566215994281978e-10 1.5660839776968223e-11
5.20702561229733 1.2642903604936576e-18 1.7474548910009965e-10 1.587788586182713e-10 1.596663048182832e-11
5.246226572918644 1.2725734777572954e-18 1.7721453667092005e-10 1.6094177429514892e-10 1.627276237577113e-11
5.265937586045735 1.2766573135386117e-18 1.7845120213681334e-10 1.6202529915202793e-10 1.642590298478538e-11
5.285722656980489 1.2807025372128977e-18 1.7968924123982266e-10 1.6311017648787704e-10 1.6579064751945662e-11
5.305582063971359 1.28470907045307e-18 1.8092861545926019e-10 1.6419638935756742e-10 1.673222610169281e-11
5.3255160863122235 1.2888923335394811e-18 1.8219974901184965e-10 1.653129564775142e-10 1.6886792534335433e-11
5.365609099470188 1.2988059597180878e-18 1.8498339068795588e-10 1.6777656684823715e-10 1.7206823839718725e-11
5.406003951863644 1.3086437430279034e-18 1.8778773551251213e-10 1.7026066208166488e-10 1.7527073430847262e-11
5.446702915881641 1.3184107216008593e-18 1.906135839106486e-10 1.7276621591600426e-10 1.7847367994644313e-11
5.487708281020852 1.3285143549272634e-18 1.93520376950745e-10 1.7535124881039835e-10 1.816912814034665e-11
5.529022354014368 1.3421219198260253e-18 1.9697438277113298e-10 1.784698203672878e-10 1.850456240384522e-11
5.570647458961463 1.355918002143104e-18 2.0049730279974067e-10 1.8165718726325846e-10 1.8840115536482218e-11
5.612585937458331 1.3699316513412931e-18 2.0409451660378403e-10 1.849189048860281e-10 1.9175611717755867e-11
5.654840148729818 1.384791590571045e-18 2.0786156048945633e-10 1.8834874951563704e-10 1.9512810973819304e-11
5.67608639626678 1.3949676966363613e-18 2.101757380060881e-10 1.9048605271485181e-10 1.9689685291236197e-11
5.686739436050992 1.4001342110482354e-18 2.1135008650001086e-10 1.9157194659926675e-10 1.977813990074409e-11
5.6974124697621304 1.4053551385070343e-18 2.1253633181251217e-10 1.9266972939722897e-10 1.986660241528323e-11
5.718818669136295 1.4159667969498415e-18 2.1494573343102105e-10 1.949021934892328e-10 2.0043539941788238e-11
5.740305295436557 1.4275553554875009e-18 2.1751909187592573e-10 1.9729710498275567e-10 2.0221986893170056e-11
5.7835210386641895 1.4576271293530692e-18 2.237732634699871e-10 2.031827198904501e-10 2.0590543579536996e-11
5.827062130521658 1.4912230703855715e-18 2.30654374524756e-10 2.09691347331195e-10 2.0963027193560946e-11
5.8489554468988025 1.5151987377588437e-18 2.3524334500489036e-10 2.1407782252633052e-10 2.1165522478559782e-11
5.870931020387893 1.5404328012639261e-18 2.4005964995649685e-10 2.1869132943214558e-10 2.1368320524351344e-11
5.892989160043636 1.5670277221617159e-18 2.4512169714540224e-10 2.2355029889097565e-10 2.1571398254426693e-11
5.915130176081913 1.5970932767363565e-18 2.5076332585058667e-10 2.2898096937581326e-10 2.178235647477346e-11
5.95966208400165 1.6819415689532923e-18 2.6607371474539877e-10 2.43803079476167e-10 2.2270635269231627e-11
6.004529249263818 1.803220046040121e-18 2.8740685637460636e-10 2.6458243881262544e-10 2.2824417561980924e-11
6.027089341400364 1.8875273296224968e-18 3.019745277578803e-10 2.7882636531382844e-10 2.314816244405184e-11
6.049734195844842 1.9859906984340735e-18 3.18920867570844e-10 2.9542893974639373e-10 2.3491927824450253e-11
6.095279466722835 2.2698638770108344e-18 3.672509003766166e-10 3.429012909598157e-10 2.4349609416800907e-11
6.141167624020661 2.7015145880041686e-18 4.40380116248709e-10 4.149016285345772e-10 2.547848771413175e-11
6.164241091010745 2.976195786651844e-18 4.869793512072673e-10 4.6078482171736075e-10 2.6194529489906267e-11
6.187401249150058 3.2838459103210902e-18 5.393373339360671e-10 5.124090088257448e-10 2.692832511032242e-11
6.1990139391386085 3.4329190877720967e-18 5.64879238983611e-10 5.375778004077208e-10 2.7301438575890324e-11
6.204828454712694 3.5110079694664985e-18 5.7827048621293e-10 5.507807489615934e-10 2.748973725133672e-11
6.210648424152782 3.567198128776153e-18 5.88076208509633e-10 5.6042768782044e-10 2.7648520689193078e-11
6.233982942956859 3.754261437644106e-18 6.212402063060691e-10 5.93045055207099e-10 2.8195151098970305e-11
6.239830258556775 3.775937601847777e-18 6.254131632235369e-10 5.971474261605608e-10 2.8265737062976182e-11
6.245683058788269 3.7744114149821456e-18 6.257467633764819e-10 5.97410381942949e-10 2.833638143353285e-11
6.257405133728602 3.761396470819898e-18 6.247594299014511e-10 5.963024689800574e-10 2.8456960921393803e-11
6.269149208991335 3.714640079071046e-18 6.181512896959619e-10 5.896649138973221e-10 2.8486375798639768e-11
6.280915325867298 3.609189032972278e-18 6.017304660950287e-10 5.73327202714354e-10 2.8403263380674583e-11
6.304513850009849 3.354033112884289e-18 5.61291392223377e-10 5.331558354225036e-10 2.813555680087329e-11
6.32820103803542 3.0451999233848407e-18 5.115234062030119e-10 4.837634906509687e-10 2.775991555204286e-11
6.3519772230701035 2.7640583921426553e-18 4.660425594317768e-10 4.386235722672732e-10 2.741898716450357e-11
6.375842739491607 2.5266742687675468e-18 4.276183045518737e-10 4.0050446448465774e-10 2.711384006721589e-11
6.399797922933955 2.3387543139214186e-18 3.9730158327187504e-10 3.7036535650992993e-10 2.693622676194521e-11
6.42384311029221 2.1815989643525945e-18 3.719968628964377e-10 3.452126420863759e-10 2.678422081006179e-11
6.447978639727206 2.0673768475583146e-18 3.538446808495358e-10 3.271134548457086e-10 2.6731226003827288e-11
6.472204850670314 1.971580959028876e-18 3.3871646083534e-10 3.120186779053616e-10 2.669778292997846e-11
6.496522083828205 1.9087224561742877e-18 3.2914945108852753e-10 3.024052794263569e-10 2.674417166217066e-11
6.520930681187647 1.8552665241203923e-18 3.2113328730433303e-10 2.9433098288221327e-10 2.680230442211987e-11
