Dust emission spectrum from A.P. Jones, M. Kohler, N. Ysard, M. Bocchio, and L. Verstraete (2017), A&A, 602A, 46J 
inside the DustPedia framework.

lambda    nu*dP/dnu     j_nu    j_nu(carb.) j_nu(sil)
 (um)   (erg s-1 H-1) (Jy cm2 sr-1 H-1)
0.9927057738263894 1.3675272059344332e-25 3.603511861631866e-18 3.603511861630237e-18 1.6308547705333697e-30
1.0001793341362166 1.390114651617765e-25 3.690608100664945e-18 3.6906081006629804e-18 1.964765224945241e-30
1.0077091589558085 1.412669734012795e-25 3.7787249357857084e-18 3.778724935783344e-18 2.3640152730362086e-30
1.0114953028030835 1.4239323609976291e-25 3.8231616708076855e-18 3.823161670805095e-18 2.591856802708214e-30
1.0152956718711033 1.435183572390428e-25 3.867848212157143e-18 3.867848212154303e-18 2.8407436351634426e-30
1.0229392996569957 1.4576363108347587e-25 3.957933337666558e-18 3.9579333376631494e-18 3.409258191275844e-30
1.0267826658714554 1.468810602044745e-25 4.003259657470602e-18 4.0032596574668686e-18 3.733179951394836e-30
1.0306404723013447 1.4799685369341067e-25 4.0488259569047976e-18 4.0488259569007116e-18 4.086559450376419e-30
1.03451277320114 1.4911090387013735e-25 4.0946302743667555e-18 4.094630274362284e-18 4.471945413822111e-30
1.0383996230291617 1.5022310365256432e-25 4.140670623759693e-18 4.1406706237548005e-18 4.892094941186151e-30
1.0403485208654093 1.5077847635135483e-25 4.1637786831929555e-18 4.1637786831878394e-18 5.116128518172103e-30
1.0423010764483396 1.513333465771883e-25 4.186944994962275e-18 4.1869449949569255e-18 5.349989471128754e-30
1.0462171883269815 1.5244152681917111e-25 4.233451354299089e-18 4.2334513542932405e-18 5.848851881157906e-30
1.0471985131304309 1.527182372465588e-25 4.245113951753329e-18 4.245113951747349e-18 5.98037085332477e-30
1.048180758391296 1.5299481054338347e-25 4.256790887669562e-18 4.256790887663448e-18 6.114723688226497e-30
1.0501480137395462 1.5354753921196168e-25 4.280187645011463e-18 4.28018764500507e-18 6.39216479520305e-30
1.0521189612883777 1.540996997850892e-25 4.303641365700491e-18 4.30364136569381e-18 6.68165432975639e-30
1.0531058218030118 1.5437513891707764e-25 4.315377651491285e-18 4.315377651484454e-18 6.831081720737452e-30
1.0540936079674168 1.546490418151368e-25 4.327089183710287e-18 4.327089183703304e-18 6.983742065888774e-30
1.058054026499678 1.5574309474169318e-25 4.374073511015488e-18 4.374073511007861e-18 7.627731521896294e-30
1.0590464539527713 1.560162103055039e-25 4.385853975086624e-18 4.385853975078828e-18 7.797408665364752e-30
1.06003981227728 1.5628916361183117e-25 4.397648124826848e-18 4.397648124818877e-18 7.970699468079658e-30
1.0620293250338977 1.5683457709492403e-25 4.421277346214966e-18 4.421277346206638e-18 8.328416506172476e-30
1.0660195594769086 1.579233872103969e-25 4.468698526491474e-18 4.468698526482383e-18 9.09053357435391e-30
1.070024785945596 1.5900942419285413e-25 4.516334868883782e-18 4.516334868873863e-18 9.919192138864955e-30
1.0740450607676866 1.6009258793280168e-25 4.564184170759351e-18 4.564184170748529e-18 1.0819901883154284e-29
1.07808044048254 1.611727791226424e-25 4.612244210286141e-18 4.61224421027434e-18 1.1798602036928591e-29
1.0861967418109137 1.6332194125596448e-25 4.708932467587694e-18 4.708932467573677e-18 1.401606972910684e-29
1.0902777775684922 1.643863755827351e-25 4.757430072084475e-18 4.7574300720692066e-18 1.5269160250511663e-29
1.0943741465085532 1.6544737255478845e-25 4.806125779153759e-18 4.8061257791371294e-18 1.6628951872778343e-29
1.1026131145906286 1.6755867725731467e-25 4.904102176161136e-18 4.904102176141433e-18 1.970368851466018e-29
1.1109141095355224 1.696551101319205e-25 5.002842852450178e-18 5.002842852426861e-18 2.331716983890814e-29
1.1192775983109025 1.7173399377651434e-25 5.102270914602737e-18 5.1022709145751775e-18 2.7558246817322727e-29
1.1277040513999907 1.7378566937383474e-25 5.202098063924979e-18 5.202098063892449e-18 3.2529454237691086e-29
1.1361939428280308 1.758200505512696e-25 5.302617531050956e-18 5.302617531012608e-18 3.834894318234095e-29
1.1447477501889525 1.778364588468737e-25 5.4038095393984604e-18 5.403809539353308e-18 4.5152693949092565e-29
1.1533659546722406 1.7983533088115278e-25 5.505687773824097e-18 5.505687773770999e-18 5.309707155102894e-29
1.1707974979042381 1.837869249619964e-25 5.71170580662219e-18 5.7117058065490396e-18 7.315253135902614e-29
1.1884924949847024 1.8765986084095698e-25 5.920212105309747e-18 5.920212105209461e-18 1.002866205505762e-28
1.2064549276569216 1.9148443489433007e-25 6.132167542480182e-18 6.132167542343365e-18 1.3681732351892899e-28
1.2246888378427687 1.9521886255462042e-25 6.346246993242464e-18 6.3462469930567086e-18 1.8575383595543383e-28
1.2431983285522175 1.9885440504483787e-25 6.562133577872403e-18 6.5621335776214145e-18 2.509893897656645e-28
1.2619875648066055 2.0238970193229882e-25 6.7797381298172326e-18 6.7797381294796964e-18 3.3753519779547463e-28
1.3004222497298317 2.091007748023007e-25 7.217876827855856e-18 7.217876827253889e-18 6.019663053530407e-28
1.3400274889804893 2.153258106278044e-25 7.659126303823316e-18 7.659126302769183e-18 1.0541356298253816e-27
1.3808389325824078 2.2104171745989194e-25 8.101896722586735e-18 8.101896720773344e-18 1.813391833323382e-27
1.4228933163050095 2.2627632115144273e-25 8.546354076100803e-18 8.546354073034817e-18 3.0659858579857298e-27
1.466228494730424 2.3115564050684717e-25 8.996541417503816e-18 8.996541412406428e-18 5.097390556654162e-27
1.5108834753276823 2.355847738297696e-25 9.44816833419825e-18 9.448168325861132e-18 8.33711797844389e-27
1.5568984535646726 2.3948693384462836e-25 9.897181714034894e-18 9.897181700606486e-18 1.3428406112462235e-26
1.6043148490894465 2.4286924709893617e-25 1.0342643678646703e-17 1.0342643657308122e-17 2.1338579723204192e-26
1.6531753430134553 2.4574199669249586e-25 1.0783698448416827e-17 1.0783698415001414e-17 3.341541733468532e-26
1.7035239163302658 2.4813933009886324e-25 1.1220527478165872e-17 1.1220527426586625e-17 5.157924778931798e-26
1.755405889504358 2.5025857749461434e-25 1.1661004308261165e-17 1.1661004229743209e-17 7.851795914283981e-26
1.8088679632656115 2.5205100591078253e-25 1.2102211407183504e-17 1.210221128926416e-17 1.1791934269142852e-25
1.8639582606462262 2.534836070867781e-25 1.2541673618620239e-17 1.2541673443837787e-17 1.747824546682801e-25
1.9207263702978936 2.545803067211246e-25 1.2979553038473772e-17 1.2979552782689386e-17 2.557843861607496e-25
1.979223391128241 2.5539680562717653e-25 1.341775040802592e-17 1.3417750038296449e-17 3.6972946971876646e-25
2.039501978296691 2.5599976566387727e-25 1.3859039473550335e-17 1.3859038945486508e-17 5.280638232291357e-25
2.1016163906111602 2.5657591217585204e-25 1.4313266631236956e-17 1.43132658857087e-17 7.4552825796181265e-25
2.1656225393682647 2.57233513827852e-25 1.4786988875611794e-17 1.4786987834803374e-17 1.0408084174680183e-24
2.231578038680979 2.5798031592683697e-25 1.528157376411205e-17 1.528157232681671e-17 1.4372953375280814e-24
2.299542257339062 2.5888114157608484e-25 1.5801970359435737e-17 1.580196839549946e-17 1.9639362741434217e-24
2.369576372248914 2.6007933633248322e-25 1.6358594683307016e-17 1.6358592027107624e-17 2.6561993903899198e-24
2.4417434235010123 2.6174416634108205e-25 1.696471119964566e-17 1.6964707642658416e-17 3.5569872447862296e-24
2.5161083711144245 2.6416551808666867e-25 1.7643100320492108e-17 1.7643095602701545e-17 4.717790559859161e-24
2.5927381535095444 2.678177835038334e-25 1.8431789549879455e-17 1.8431783350146983e-17 6.19973247443018e-24
2.6717017477616296 2.7326734756084523e-25 1.9379615178181885e-17 1.9379607103907088e-17 8.074274792743792e-24
2.753070231689431 2.813669582784004e-25 2.0561737915360834e-17 2.0561727491128518e-17 1.0424232313796096e-23
2.836916847834745 2.940486231382429e-25 2.21429352312564e-17 2.2142921886133396e-17 1.334512299856753e-23
2.9233170693905177 3.1556747388492285e-25 2.4487113194459046e-17 2.4487096251137473e-17 1.694332156909582e-23
2.967498994190263 3.3384185627011985e-25 2.6296672640884298e-17 2.629665363665413e-17 1.9004230168631135e-23
3.0123486681368425 3.551841911317612e-25 2.8400651258120654e-17 2.8400629970330936e-17 2.128778971458407e-23
3.0578761833420214 4.0293796954485836e-25 3.27060068278909e-17 3.2705983007067835e-17 2.3820823057464855e-23
3.1040917844459814 4.644742631919584e-25 3.827063267652511e-17 3.827060606976936e-17 2.660675574368698e-23
3.127460860933648 5.295712159592044e-25 4.396283473369921e-17 4.396280662350737e-17 2.811019183510006e-23
3.1510058709225794 6.163041771075079e-25 5.1548229886123324e-17 5.1548200200098074e-17 2.9686025254083e-23
3.162844764501044 6.970389366121333e-25 5.852000416581235e-17 5.851997366087762e-17 3.050493472652212e-23
3.1747281389236908 7.909271598918371e-25 6.66518891796696e-17 6.66518578367981e-17 3.134287148368947e-23
3.1986289994194426 1.0528093151136392e-24 8.9388782528198e-17 8.938874944679249e-17 3.308140549407518e-23
3.2227097969389145 1.6701290361882426e-24 1.4286987308288843e-16 1.4286983814956056e-16 3.493332791426433e-23
3.2348180950136065 2.2555416804287154e-24 1.9367347891022858e-16 1.9367344298582982e-16 3.5924398757941296e-23
3.240889293275058 2.6932134131465585e-24 2.3168845732020416e-16 2.316884208727737e-16 3.6447430433754676e-23
3.2469718861334385 3.19953185391661e-24 2.7576198695011184e-16 2.757619499612912e-16 3.6988820616370424e-23
3.2714166318528037 5.90032286926969e-24 5.123669022134335e-16 5.123668629791007e-16 3.9234332863920894e-23
3.2744851364798273 6.069156804780853e-24 5.27522289502116e-16 5.275222500011747e-16 3.950094110043923e-23
3.2775565192852394 6.242840105186318e-24 5.431275518444605e-16 5.4312751207537e-16 3.9769090271654104e-23
3.283707930232385 6.0758071355825084e-24 5.295877544427912e-16 5.295877141904912e-16 4.0252299879511284e-23
3.2898708863219004 5.546100502779604e-24 4.8432403564895e-16 4.843239949534874e-16 4.0695462646479045e-23
3.29141343181113 5.421182536276684e-24 4.736373044217928e-16 4.736372636149432e-16 4.0806849472609235e-23
3.292184975758714 5.3598022834119045e-24 4.683844097477046e-16 4.6838436888507205e-16 4.086263253418736e-23
3.295272960557952 4.972364278529761e-24 4.349344072293798e-16 4.3493436614914266e-16 4.1080237159961846e-23
3.3076538914384823 3.630162622593126e-24 3.187245914680858e-16 3.187245495118434e-16 4.1956242419936984e-23
3.310756385682612 3.356990864481014e-24 2.950168474400332e-16 2.950168052625549e-16 4.2177478261305365e-23
3.313861789986515 3.1049475805121355e-24 2.73122888689826e-16 2.731228462902137e-16 4.239961234714254e-23
3.3200813396944477 2.751484531749745e-24 2.4248519760402147e-16 2.4248515472805885e-16 4.2875962591316e-23
3.345076488085796 2.1209364137347642e-24 1.8832290040894502e-16 1.8832285541256563e-16 4.499637946854278e-23
3.3482140837626964 2.144579912146307e-24 1.9060087306543454e-16 1.9060082778175492e-16 4.528367959817668e-23
3.3513546224236106 2.1684848111005506e-24 1.9290620732262066e-16 1.929061617501122e-16 4.557250842281134e-23
3.3576445397418455 2.3431920978138462e-24 2.0883921127810376e-16 2.0883916510212483e-16 4.617597883484152e-23
3.3702598118196083 2.9875900684271497e-24 2.6727222052528517e-16 2.67272173082422e-16 4.7442863160775585e-23
3.382922481734668 3.134353245415315e-24 2.814552925720291e-16 2.8145524389073866e-16 4.868129026427086e-23
3.389271646505754 3.210386713272415e-24 2.888239218561623e-16 2.8882387254555984e-16 4.931060236534188e-23
3.395632727569191 3.292316183703845e-24 2.9675065115313406e-16 2.9675060119380045e-16 4.995933367752146e-23
3.421196662673239 3.685709671829437e-24 3.3470992851561235e-16 3.34709875861451e-16 5.2654161501432805e-23
3.4276182099114902 3.6064259020544e-24 3.2812467308480955e-16 3.281246198213064e-16 5.326350309579603e-23
3.4340518103208963 3.2590170516423244e-24 2.9707281326047803e-16 2.970727594168799e-16 5.384359814954453e-23
3.4469541582030403 2.7642429795469594e-24 2.529188252752548e-16 2.529187703103672e-16 5.496488754775507e-23
3.472904465399547 2.6255721841822244e-24 2.420394918286975e-16 2.4203943428886535e-16 5.753983213669536e-23
3.4990501388274233 2.4134851341390846e-24 2.2416315310724915e-16 2.2416309291228185e-16 6.019496734760388e-23
3.5253949054701885 1.6587326225331508e-24 1.5522211322155731e-16 1.5522205041725283e-16 6.28043045169172e-23
3.5519380250092896 9.493564795500448e-25 8.950846954727317e-17 8.950840409479005e-17 6.545248313485877e-23
3.578680990867387 6.6807768028146505e-25 6.34628223271094e-17 6.346275396449611e-17 6.836261328640115e-23
3.605625307711299 5.542975942847106e-25 5.3050932259510156e-17 5.305086081375214e-17 7.144575802616534e-23
3.660119384959845 4.712730788066905e-25 4.5786486239980134e-17 4.578640824013628e-17 7.799984383100026e-23
3.715437065384467 4.124664272471481e-25 4.067878260017619e-17 4.067869757793234e-17 8.502224385015461e-23
3.8285932144167436 3.8255770472725103e-25 3.887815182651147e-17 3.887805130514528e-17 1.005213661933652e-22
3.94519561050918 3.7674153883951246e-25 3.945313164922538e-17 3.945301359102813e-17 1.1805819723595356e-22
4.06534921144712 3.8081901821241564e-25 4.109470993103433e-17 4.1094572131873235e-17 1.3779916108744791e-22
4.189162171576248 3.9062652431758943e-25 4.3436851254381774e-17 4.3436691270837145e-17 1.5998354462782867e-22
4.316745939156006 4.046123489072931e-25 4.6362308836482063e-17 4.6362124059326945e-17 1.8477715514028044e-22
4.448215356677963 4.222551898294893e-25 4.985746972620786e-17 4.98572575841807e-17 2.1214202715264226e-22
4.58368876423945 4.436171964173862e-25 5.3975034293281546e-17 5.397479190322192e-17 2.4239005962609156e-22
4.723288106065518 4.691919661570629e-25 5.882533881723418e-17 5.882506281074004e-17 2.7600649415208144e-22
4.867139040275056 4.999683505848057e-25 6.459303621395914e-17 6.459272354365354e-17 3.126703056053676e-22
4.940699165968905 5.185493599611994e-25 6.800611203096057e-17 6.800577968001711e-17 3.323509434724985e-22
5.015371051989984 5.377922654778935e-25 7.159571884399593e-17 7.159536589382562e-17 3.5295017032737506e-22
5.091171501069577 5.612907954090796e-25 7.585340492355581e-17 7.585303006224104e-17 3.748613147896907e-22
5.129500256944802 5.733514125926713e-25 7.806661989020473e-17 7.806623369951866e-17 3.861906860521863e-22
5.168117569889187 5.859264755633628e-25 8.037943337229081e-17 8.037903552620659e-17 3.9784608421381055e-22
5.20702561229733 6.013712723032243e-25 8.311928999311811e-17 8.311887960251654e-17 4.103906015641543e-22
5.246226572918644 6.172107369494653e-25 8.595080495436608e-17 8.595038171313382e-17 4.2324123225886644e-22
5.265937586045735 6.25282416975272e-25 8.740199723210589e-17 8.740156744897097e-17 4.297831348955701e-22
5.285722656980489 6.334575695078204e-25 8.887739870508328e-17 8.887696230134682e-17 4.364037364737002e-22
5.305582063971359 6.417378695186629e-25 9.037746124018548e-17 9.0377018136407e-17 4.43103778455574e-22
5.3255160863122235 6.506358527386946e-25 9.197485777695461e-17 9.197440785888437e-17 4.499180702186507e-22
5.365609099470188 6.728128566245166e-25 9.582586419904255e-17 9.582540014081292e-17 4.6405822961906e-22
5.406003951863644 6.958355855752025e-25 9.985100192497838e-17 9.985052337488544e-17 4.785500929380896e-22
5.446702915881641 7.197449853786392e-25 1.0405950810090133e-16 1.0405901470006603e-16 4.934008352952113e-22
5.487708281020852 7.455845907402533e-25 1.0860688897608524e-16 1.08606380315089e-16 5.086609962191076e-22
5.529022354014368 7.815275221633648e-25 1.1469964019121048e-16 1.1469911551175621e-16 5.24679454239592e-22
5.570647458961463 8.195930873996376e-25 1.2119184431301362e-16 1.2119130320542088e-16 5.411075927237097e-22
5.612585937458331 8.599342689933542e-25 1.281143250974515e-16 1.281137671428953e-16 5.579545561970667e-22
5.654840148729818 9.042860452297435e-25 1.357361712550422e-16 1.357355959672929e-16 5.752877492733948e-22
5.67608639626678 9.345069372801324e-25 1.4079945054516986e-16 1.4079886617262867e-16 5.84372541154603e-22
5.686739436050992 9.500850610796103e-25 1.4341522281011243e-16 1.4341463385022907e-16 5.88959883398011e-22
5.6974124697621304 9.659849261497456e-25 1.4608897577885776e-16 1.4608838220142573e-16 5.935774320428415e-22
5.718818669136295 9.98780897259043e-25 1.5161633236082377e-16 1.5161572945694026e-16 6.029038835184552e-22
5.740305295436557 1.034936893115389e-24 1.5769513404436418e-16 1.5769452163588344e-16 6.124084807076524e-22
5.7835210386641895 1.1287617996446653e-24 1.73286231094537e-16 1.732855988619223e-16 6.322326146441371e-22
5.827062130521658 1.2368639674216843e-24 1.9131147475078462e-16 1.9131082201252382e-16 6.527382608053731e-22
5.8489554468988025 1.3127189817348228e-24 2.038071948050043e-16 2.0380653102111697e-16 6.637838872397795e-22
5.870931020387893 1.3941258669565432e-24 2.1725931007330264e-16 2.1725863507695538e-16 6.749963472465183e-22
5.892989160043636 1.4815316428502788e-24 2.3174800645460373e-16 2.317473200763682e-16 6.863782355424884e-22
5.915130176081913 1.5809461610431401e-24 2.4822802970157303e-16 2.4822733150957644e-16 6.981919966755501e-22
5.95966208400165 1.858952902391871e-24 2.940759140544682e-16 2.9407518939556947e-16 7.246588986361658e-22
6.004529249263818 2.2597146477707193e-24 3.6016540779127026e-16 3.6016465335197916e-16 7.544392912062589e-22
6.027089341400364 2.5383185805671566e-24 4.0609083780478075e-16 4.0609006631278134e-16 7.714919993308124e-22
6.049734195844842 2.867572946513336e-24 4.604899975844844e-16 4.604892079811837e-16 7.896033005841442e-22
6.095279466722835 3.8187107700738844e-24 6.17845405969612e-16 6.178445724863049e-16 8.334833072009032e-22
6.141167624020661 5.282575431139443e-24 8.611247900669014e-16 8.611239002387342e-16 8.898281672581548e-22
6.164241091010745 6.217409533815464e-24 1.0173222052617327e-15 1.0173212805189037e-15 9.247428288659813e-22
6.187401249150058 7.282366328985263e-24 1.1960524786732929e-15 1.1960515175452476e-15 9.611280452834934e-22
6.1990139391386085 7.802363026926683e-24 1.2838615697710854e-15 1.2838605900528979e-15 9.797181879434434e-22
6.204828454712694 8.076281927450332e-24 1.3301808248783489e-15 1.3301798357127312e-15 9.891656180186603e-22
6.210648424152782 8.276236851762517e-24 1.3643923922392306e-15 1.364391394885823e-15 9.973534078709956e-22
6.233982942956859 8.955573789841492e-24 1.4819326254171661e-15 1.481931598737574e-15 1.0266795916814436e-21
6.239830258556775 9.042414076723638e-24 1.4977061030175239e-15 1.4977050717441834e-15 1.0312733406288014e-21
6.245683058788269 9.049941073614122e-24 1.5003587878850004e-15 1.500357751998252e-15 1.035886747972576e-21
6.257405133728602 9.031270402173212e-24 1.5000735475560431e-15 1.5000725032819184e-15 1.0442741247087607e-21
6.269149208991335 8.897648569322243e-24 1.4806529896063128e-15 1.480651940795593e-15 1.0488107202752763e-21
6.280915325867298 8.562573570081455e-24 1.4275676164999755e-15 1.4275665679439418e-15 1.0485560337080769e-21
6.304513850009849 7.736270439301276e-24 1.2946509051479882e-15 1.2946498614749102e-15 1.043673077894778e-21
6.32820103803542 6.712053569824027e-24 1.1274703109926407e-15 1.127469276985091e-15 1.0340075494861437e-21
6.3519772230701035 5.772772485904982e-24 9.73336045286285e-16 9.73335019560085e-16 1.0257261998707575e-21
6.375842739491607 4.982587695916802e-24 8.43260933609875e-16 8.432599146167252e-16 1.0189931497586641e-21
6.399797922933955 4.34926277366186e-24 7.388416028804567e-16 7.388405851654869e-16 1.0177149694589209e-21
6.42384311029221 3.8227264160431265e-24 6.518348503623292e-16 6.518338327455654e-16 1.017616764039406e-21
6.447978639727206 3.4390182578631934e-24 5.88609821826402e-16 5.886087998792431e-16 1.0219471589969759e-21
6.472204850670314 3.1193816757239194e-24 5.359079556724119e-16 5.359069284334931e-16 1.0272389188311935e-21
6.496522083828205 2.911637578529296e-24 5.020970480236954e-16 5.020960118000903e-16 1.0362236050106569e-21
