Dust emission spectrum from A.P. Jones, M. Kohler, N. Ysard, M. Bocchio, and L. Verstraete (2017), A&A, 602A, 46J 
inside the DustPedia framework.

lambda    nu*dP/dnu     j_nu    j_nu(carb.) j_nu(sil)
 (um)   (erg s-1 H-1) (Jy cm2 sr-1 H-1)
0.9927057738263894 1.7205471858919215e-22 4.533739559954415e-15 4.5337395599442625e-15 1.0151264579182468e-26
1.0001793341362166 1.7489654631422398e-22 4.643319238844199e-15 4.643319238831969e-15 1.2229692057664435e-26
1.0077091589558085 1.7773430227484144e-22 4.7541829755399506e-15 4.754182975525235e-15 1.4714826199987383e-26
1.0114953028030835 1.7915130383353804e-22 4.810090822093094e-15 4.8100908220769594e-15 1.6133027067174205e-26
1.0152956718711033 1.8056686914704718e-22 4.866312961219046e-15 4.866312961201363e-15 1.7682224538449572e-26
1.0229392996569957 1.8339174876948266e-22 4.9796530925606865e-15 4.9796530925394645e-15 2.1220946551278475e-26
1.0267826658714554 1.847976364153486e-22 5.036680165758693e-15 5.036680165735456e-15 2.3237199346643538e-26
1.0306404723013447 1.8620146620100627e-22 5.094009168128226e-15 5.094009168102788e-15 2.5436812001207373e-26
1.03451277320114 1.876031026492865e-22 5.151637631691295e-15 5.151637631663458e-15 2.7835649071635726e-26
1.0383996230291617 1.8900241103546372e-22 5.209563057652486e-15 5.209563057622035e-15 3.04508721387982e-26
1.0403485208654093 1.897011503159014e-22 5.238636342377627e-15 5.2386363423457806e-15 3.184537038333611e-26
1.0423010764483396 1.9039925741308605e-22 5.2677829169901e-15 5.267782916956799e-15 3.330103918419828e-26
1.0462171883269815 1.9179350863923645e-22 5.3262946510480545e-15 5.326294651011647e-15 3.6406211026788757e-26
1.0471985131304309 1.9214165042918293e-22 5.3409678873713885e-15 5.340967887334163e-15 3.722485159967761e-26
1.048180758391296 1.9248961968915197e-22 5.355659163559765e-15 5.355659163521703e-15 3.8061131566902776e-26
1.0501480137395462 1.9318503239922015e-22 5.385095672128274e-15 5.3850956720884855e-15 3.978806527856563e-26
1.0521189612883777 1.9387973036347082e-22 5.414603848850759e-15 5.414603848809169e-15 4.1589994494613607e-26
1.0531058218030118 1.9422627268051657e-22 5.429369795794449e-15 5.429369795751928e-15 4.252010611989931e-26
1.0540936079674168 1.9457088219302542e-22 5.44410459916605e-15 5.44410459912258e-15 4.3470341286378013e-26
1.058054026499678 1.9594735921728562e-22 5.50321768632686e-15 5.503217686279381e-15 4.747885723289489e-26
1.0590464539527713 1.9629097814998127e-22 5.5180392159696396e-15 5.518039215921105e-15 4.8535013555033177e-26
1.06003981227728 1.9663439293940619e-22 5.532877964169903e-15 5.532877964120288e-15 4.96136631192262e-26
1.0620293250338977 1.973206020902812e-22 5.562606946268187e-15 5.562606946216347e-15 5.184027481008456e-26
1.0660195594769086 1.9869048290349822e-22 5.62226965785526e-15 5.622269657798676e-15 5.658407673482023e-26
1.070024785945596 2.0005687471615815e-22 5.682203074609358e-15 5.682203074547617e-15 6.174206657312206e-26
1.0740450607676866 2.0141965157608937e-22 5.742404425302504e-15 5.742404425235154e-15 6.734853938022457e-26
1.07808044048254 2.0277868854002543e-22 5.8028709145510894e-15 5.802870914477649e-15 7.344046392443172e-26
1.0861967418109137 2.0548264578104745e-22 5.924518743796519e-15 5.924518743709277e-15 8.724310389324306e-26
1.0902777775684922 2.0682185833772884e-22 5.985535753387862e-15 5.9855357532928204e-15 9.50429728051057e-26
1.0943741465085532 2.0815674620722092e-22 6.046802004788536e-15 6.04680200468503e-15 1.0350700331204676e-25
1.1026131145906286 2.1081307334116229e-22 6.1700705010219295e-15 6.170070500899283e-15 1.2264571862073212e-25
1.1109141095355224 2.1345068957430877e-22 6.294300571654134e-15 6.294300571508995e-15 1.451378531977301e-25
1.1192775983109025 2.160662263480009e-22 6.4193954736650424e-15 6.419395473493506e-15 1.7153646041061264e-25
1.1277040513999907 2.186475314726966e-22 6.5449924855964114e-15 6.544992485393931e-15 2.0247976861557943e-25
1.1361939428280308 2.2120707772768987e-22 6.671460534072345e-15 6.6714605338336404e-15 2.38703209880952e-25
1.1447477501889525 2.2374401151062945e-22 6.798774737330379e-15 6.798774737049327e-15 2.810531943259329e-25
1.1533659546722406 2.2625888215438823e-22 6.926952312945511e-15 6.926952312615006e-15 3.3050301684312273e-25
1.1707974979042381 2.312305601298088e-22 7.186152841041494e-15 7.186152840586157e-15 4.5533833783344985e-25
1.1884924949847024 2.361032747809622e-22 7.448483970933749e-15 7.448483970309513e-15 6.242346267460889e-25
1.2064549276569216 2.409151433482245e-22 7.71515461999406e-15 7.715154619142441e-15 8.516201903140794e-25
1.2246888378427687 2.4561359481238557e-22 7.984497589936822e-15 7.984497588780598e-15 1.156225783835412e-24
1.2431983285522175 2.5018763454534266e-22 8.25611420098175e-15 8.256114199419465e-15 1.5622848509346644e-24
1.2619875648066055 2.5463555094830605e-22 8.529892269660701e-15 8.529892267559712e-15 2.1009897138099834e-24
1.3004222497298317 2.630790549711448e-22 9.081134283532794e-15 9.081134279785848e-15 3.7469426118140204e-24
1.3400274889804893 2.7091105501962733e-22 9.63629014769594e-15 9.636290141134471e-15 6.5614730839588535e-24
1.3808389325824078 2.7810249846717713e-22 1.0193359637115746e-14 1.0193359625828276e-14 1.1287467540579352e-23
1.4228933163050095 2.8468839480417837e-22 1.0752551619066181e-14 1.0752551599981935e-14 1.908424600571021e-23
1.466228494730424 2.9082729467278475e-22 1.131895287576507e-14 1.1318952844036336e-14 3.172873583777141e-23
1.5108834753276823 2.9639979900037195e-22 1.188716549738311e-14 1.1887165445488671e-14 5.1894437172577855e-23
1.5568984535646726 3.013092996148995e-22 1.2452090151824089e-14 1.24520900682389e-14 8.358518844675138e-23
1.6043148490894465 3.055647645254609e-22 1.3012546948560411e-14 1.3012546815738296e-14 1.3282210803073569e-22
1.6531753430134553 3.0917913368677227e-22 1.3567459323580557e-14 1.3567459115586108e-14 2.079944508346705e-22
1.7035239163302658 3.121953725934031e-22 1.4117055749867846e-14 1.4117055428812533e-14 3.2105531440628393e-22
1.755405889504358 3.148617551043414e-22 1.4671242518580258e-14 1.4671242029844778e-14 4.88735472880721e-22
1.8088679632656115 3.1711697309431135e-22 1.5226349267385726e-14 1.5226348533396123e-14 7.339896036680747e-22
1.8639582606462262 3.18919503776771e-22 1.5779262307922313e-14 1.5779261219987956e-14 1.0879343600634687e-21
1.9207263702978936 3.2029945730224986e-22 1.6330186131808708e-14 1.6330184539677375e-14 1.592131332633839e-21
1.979223391128241 3.213269238556811e-22 1.688151287987565e-14 1.688151057849251e-14 2.3013831382475238e-21
2.039501978296691 3.2208578730307376e-22 1.7436733305309814e-14 1.743673001837361e-14 3.2869362012783297e-21
2.1016163906111602 3.2281099315776535e-22 1.8008236928315855e-14 1.8008232287771075e-14 4.640544783366721e-21
2.1656225393682647 3.236387833107837e-22 1.8604275225722654e-14 1.8604268747204877e-14 6.478517776602883e-21
2.231578038680979 3.245789356716682e-22 1.9226571337133528e-14 1.922656239068072e-14 8.946452813147276e-21
2.299542257339062 3.257130539266049e-22 1.9881355561454964e-14 1.9881343336922714e-14 1.222453224879338e-20
2.369576372248914 3.272215549837707e-22 2.058173811539523e-14 2.058172158186737e-14 1.6533527861645688e-20
2.4417434235010123 3.293174986268266e-22 2.1344415561543495e-14 2.1344393421056627e-14 2.214048686554304e-20
2.5161083711144245 3.323657496976502e-22 2.2198060925905313e-14 2.2198031559991765e-14 2.936591354890346e-20
2.5927381535095444 3.369633777902313e-22 2.3190536431861595e-14 2.3190497841592368e-14 3.859026922888263e-20
2.6717017477616296 3.4382329633275254e-22 2.4383312648574416e-14 2.4383262390206117e-14 5.02583683029971e-20
2.753070231689431 3.540188550226424e-22 2.5870994087618492e-14 2.587092920192654e-14 6.48856919476647e-20
2.836916847834745 3.6998148548593264e-22 2.786095708405156e-14 2.7860874017259322e-14 8.30667922416455e-20
2.9233170693905177 3.9706575040394395e-22 3.081114113595197e-14 3.0811035672152733e-14 1.0546379923321407e-19
2.967498994190263 4.2006438500804313e-22 3.3088408218390263e-14 3.308828992645401e-14 1.1829193626012618e-19
3.0123486681368425 4.46924317380665e-22 3.5736223609099895e-14 3.5736091103134556e-14 1.3250596533992263e-19
3.0578761833420214 5.070153355692995e-22 4.115384570410611e-14 4.115369743126064e-14 1.4827284545461503e-19
3.1040917844459814 5.844487165606403e-22 4.81559989913044e-14 4.815583337740545e-14 1.6561389893688441e-19
3.127460860933648 6.663568960024447e-22 5.53182220063732e-14 5.5318047034327966e-14 1.7497204524002501e-19
3.1510058709225794 7.75486961335074e-22 6.486241963214606e-14 6.486223485131694e-14 1.8478082911081802e-19
3.162844764501044 8.770670017404551e-22 7.36342862638508e-14 7.363409638571512e-14 1.8987813567135842e-19
3.1747281389236908 9.951961910349195e-22 8.386575856866504e-14 8.386556347478737e-14 1.9509387767139313e-19
3.1986289994194426 1.3246909200444082e-21 1.124728921648521e-13 1.1247268624945979e-13 2.059153922772343e-19
3.2227097969389145 2.10137877704886e-21 1.7976079253208516e-13 1.7976057508939153e-13 2.1744269366981114e-19
3.2348180950136065 2.8379184123579426e-21 2.4367961654350204e-13 2.4367939293188236e-13 2.236116196420411e-19
3.240889293275058 3.3885759630794196e-21 2.9150825313948953e-13 2.9150802627225635e-13 2.268672332137746e-19
3.2469718861334385 4.025601182871311e-21 3.4695944017510195e-13 3.469592099379825e-13 2.3023711941308775e-19
3.2714166318528037 7.423601560821797e-21 6.446439998724788e-13 6.446437556581559e-13 2.442143228726113e-19
3.2744851364798273 7.636020798635074e-21 6.637118308112654e-13 6.63711584937438e-13 2.4587382732192647e-19
3.2775565192852394 7.854541260054432e-21 6.833456717705487e-13 6.833454242276251e-13 2.4754292332782053e-19
3.283707930232385 7.644392613938477e-21 6.663109325484874e-13 6.663106819978232e-13 2.505506642163346e-19
3.2898708863219004 6.977947665117887e-21 6.093628797428527e-13 6.093626264337195e-13 2.5330913332125738e-19
3.29141343181113 6.820783456673707e-21 5.959174901132329e-13 5.959172361107717e-13 2.5400246123929957e-19
3.292184975758714 6.743558552588504e-21 5.89308620959538e-13 5.893083666098548e-13 2.5434968321598794e-19
3.295272960557952 6.2561067670922485e-21 5.472238025797918e-13 5.472235468756273e-13 2.5570416441799486e-19
3.3076538914384823 4.567428119183888e-21 4.010155501812887e-13 4.010152890244248e-13 2.611568640252412e-19
3.310756385682612 4.223739866742332e-21 3.711879091114983e-13 3.7118764657755053e-13 2.625339477488852e-19
3.313861789986515 3.906634305592902e-21 3.43642273800421e-13 3.436420098837983e-13 2.6391662260021514e-19
3.3200813396944477 3.461929680663976e-21 3.0509591931930337e-13 3.05095652437636e-13 2.6688166734137335e-19
3.345076488085796 2.668623325724074e-21 2.3695330116679813e-13 2.3695302108658413e-13 2.800802139733664e-19
3.3482140837626964 2.6983723237487894e-21 2.3981951796209745e-13 2.398192360935822e-13 2.8186851522633044e-19
3.3513546224236106 2.7284502246209726e-21 2.427201620255106e-13 2.427198783591788e-13 2.8366633184981927e-19
3.3576445397418455 2.9482617247629186e-21 2.62766613891946e-13 2.627663264693093e-13 2.874226367820008e-19
3.3702598118196083 3.7590172571026174e-21 3.362847198871593e-13 3.36284424578794e-13 2.9530836530678543e-19
3.382922481734668 3.94367594958801e-21 3.541299851330229e-13 3.5412968211606123e-13 3.030169616924094e-19
3.389271646505754 4.0393419060052225e-21 3.634012582307176e-13 3.634009512965993e-13 3.0693411836158587e-19
3.395632727569191 4.142426098340749e-21 3.7337472267120835e-13 3.733744116990583e-13 3.109721500181885e-19
3.421196662673239 4.637393996579267e-21 4.211351276410593e-13 4.2113479989493846e-13 3.2774612077888355e-19
3.4276182099114902 4.537648586521344e-21 4.128504229569515e-13 4.1285009141798066e-13 3.3153897091811383e-19
3.4340518103208963 4.1005622863201204e-21 3.737831238818044e-13 3.737827887320285e-13 3.3514977580281247e-19
3.4469541582030403 3.4780741236440445e-21 3.182319456289204e-13 3.1823160349967254e-13 3.4212924789114866e-19
3.472904465399547 3.3036287281074835e-21 3.045464235792368e-13 3.04546065422232e-13 3.5815700478977087e-19
3.4990501388274233 3.036816748512584e-21 2.820578457792378e-13 2.820574710953291e-13 3.746839086603225e-19
3.5253949054701885 2.087253307583964e-21 1.9532254013132423e-13 1.9532214920558185e-13 3.909257423665402e-19
3.5519380250092896 1.1947814035664278e-21 1.1264794329676924e-13 1.1264753588742437e-13 4.0740934488552277e-19
3.578680990867387 8.409221414568508e-22 7.98818670782783e-14 7.988144155481212e-14 4.2552346618064057e-19
3.605625307711299 6.978038924364684e-22 6.678568951005586e-14 6.678524479553811e-14 4.447145177413047e-19
3.660119384959845 5.9342343984612175e-22 5.765399167674755e-14 5.765350616628631e-14 4.855104612438546e-19
3.715437065384467 5.195255351980895e-22 5.123730055464626e-14 5.12367713332171e-14 5.292214291750935e-19
3.8285932144167436 4.821224231927952e-22 4.899660505130561e-14 4.899597935550329e-14 6.256958023037276e-19
3.94519561050918 4.75110282455074e-22 4.975450431969932e-14 4.975376946579478e-14 7.348539045518589e-19
4.06534921144712 4.806481259305112e-22 5.186740779577391e-14 5.18665500641302e-14 8.577316437137935e-19
4.189162171576248 4.935262729047118e-22 5.487908775201955e-14 5.487809193355727e-14 9.958184623032957e-19
4.316745939156006 5.118274721221126e-22 5.864750148532497e-14 5.86463513388963e-14 1.1501464286756684e-18
4.448215356677963 5.349380028147257e-22 6.316240965919957e-14 6.316108917997303e-14 1.3204792265385342e-18
4.58368876423945 5.629863406307649e-22 6.849871305170101e-14 6.849720429342831e-14 1.5087582727084545e-18
4.723288106065518 5.966526855219109e-22 7.480583410136624e-14 7.480411609741007e-14 1.7180039561671248e-18
4.867139040275056 6.372505172250269e-22 8.232910280887547e-14 8.232715659082123e-14 1.9462180542390484e-18
4.940699165968905 6.617369458984489e-22 8.678471203042833e-14 8.678264331013436e-14 2.06872029397618e-18
5.015371051989984 6.871833980733558e-22 9.148400324984613e-14 9.148180630955018e-14 2.196940295970633e-18
5.091171501069577 7.181256522326862e-22 9.704822585786059e-14 9.704589253152419e-14 2.3333263364007765e-18
5.129500256944802 7.340445686548167e-22 9.99463454088599e-14 9.994394156278915e-14 2.4038460707630008e-18
5.168117569889187 7.506505344498783e-22 1.0297685313106077e-13 1.029743767358994e-13 2.4763951613700496e-18
5.20702561229733 7.709109270062551e-22 1.0655242751334343e-13 1.0654987303476416e-13 2.5544785793066692e-18
5.246226572918644 7.9171107954388745e-22 1.1025116788216014e-13 1.1024853341475867e-13 2.63446740145588e-18
5.265937586045735 8.023190825726028e-22 1.1214818829145095e-13 1.1214551310394017e-13 2.6751875107607143e-18
5.285722656980489 8.130687380959352e-22 1.1407778182607893e-13 1.1407506542859684e-13 2.71639748206366e-18
5.305582063971359 8.239623816223112e-22 1.1604057006063232e-13 1.160378119587017e-13 2.758101930601028e-18
5.3255160863122235 8.356457625219081e-22 1.181281354790862e-13 1.181253349615586e-13 2.800517527536193e-18
5.365609099470188 8.6456671642903e-22 1.2313654821518385e-13 1.231336596821556e-13 2.888533028277823e-18
5.406003951863644 8.946030647902649e-22 1.2837373396277713e-13 1.283707552250651e-13 2.9787377120147484e-18
5.446702915881641 9.258083323777744e-22 1.3385179698371284e-13 1.3384872580747252e-13 3.0711762403179826e-18
5.487708281020852 9.594992209110581e-22 1.3976713930563464e-13 1.397639731424379e-13 3.1661631967645773e-18
5.529022354014368 1.0059748900647385e-21 1.4764030012969753e-13 1.476370342595198e-13 3.2658701777015016e-18
5.570647458961463 1.0551827930756238e-21 1.5602809582731038e-13 1.5602472770009337e-13 3.3681272169602385e-18
5.612585937458331 1.1073177440921756e-21 1.6496989429072042e-13 1.6496642129948574e-13 3.472991234691221e-18
5.654840148729818 1.1645682954082878e-21 1.7480535325917974e-13 1.7480177237738844e-13 3.580881791287083e-18
5.67608639626678 1.2033557272793476e-21 1.813061181808281e-13 1.813024807506993e-13 3.637430128821021e-18
5.686739436050992 1.2233447347959507e-21 1.8466373686054415e-13 1.846600708764781e-13 3.6659840660994854e-18
5.6974124697621304 1.243743186816446e-21 1.880952418358759e-13 1.8809154710985262e-13 3.694726023291412e-18
5.718818669136295 1.2858076216908595e-21 1.9518738920354006e-13 1.951836364249677e-13 3.752778572313235e-18
5.740305295436557 1.3321234818609733e-21 2.0297797134601701e-13 2.0297415940602674e-13 3.811939990318922e-18
5.7835210386641895 1.4519206339237607e-21 2.2289720876472124e-13 2.2289327342929912e-13 3.935335422136921e-18
5.827062130521658 1.5897778005508057e-21 2.4589829080673827e-13 2.458942278338077e-13 4.062972930583933e-18
5.8489554468988025 1.6862207175710703e-21 2.617954939724208e-13 2.6179136224592713e-13 4.131726493687409e-18
5.870931020387893 1.789674587162642e-21 2.789012637083496e-13 2.788970621898362e-13 4.201518513288687e-18
5.892989160043636 1.9007023633078323e-21 2.9731662208220466e-13 2.973123497170644e-13 4.272365140217527e-18
5.915130176081913 2.026883408136671e-21 3.1824567289793117e-13 3.182413269979692e-13 4.3458999620200546e-18
5.95966208400165 2.379110908532126e-21 3.763619907547587e-13 3.7635748011141843e-13 4.5106433403072724e-18
6.004529249263818 2.886139036076074e-21 4.600082775478446e-13 4.600035815362855e-13 4.69601155930084e-18
6.027089341400364 3.2382921956881747e-21 5.180755484640008e-13 5.18070746307765e-13 4.802156235756184e-18
6.049734195844842 3.654287862335382e-21 5.868248307147309e-13 5.868199158245997e-13 4.914890131022479e-18
6.095279466722835 4.855229446604702e-21 7.855481572528356e-13 7.855429692313596e-13 5.188021475978056e-18
6.141167624020661 6.702528159044068e-21 1.0925945552715696e-12 1.0925890165311992e-12 5.538740370420821e-18
6.164241091010745 7.882115352529909e-21 1.2897093120456304e-12 1.2897035559787551e-12 5.756066875562512e-18
6.187401249150058 9.225593798467154e-21 1.515207259757164e-12 1.515201277210307e-12 5.9825468572865625e-18
6.1990139391386085 9.881660640458241e-21 1.6260053906772783e-12 1.625999292415975e-12 6.098261303548496e-18
6.204828454712694 1.0227227263764943e-20 1.6844461003391403e-12 1.6844399432722564e-12 6.157066884535628e-18
6.210648424152782 1.0479605816695198e-20 1.7276323413726297e-12 1.7276261333408018e-12 6.2080318279576674e-18
6.233982942956859 1.1337293592992588e-20 1.8760501173522345e-12 1.876043726779412e-12 6.3905728220035306e-18
6.239830258556775 1.1447113780211527e-20 1.8959994560181413e-12 1.8959930368515037e-12 6.4191666378463225e-18
6.245683058788269 1.1456972190340543e-20 1.899412246832098e-12 1.899405798949281e-12 6.447882817486823e-18
6.257405133728602 1.143418736639435e-20 1.8991926099345127e-12 1.8991861098444218e-12 6.5000900905761626e-18
6.269149208991335 1.1266528633890264e-20 1.8748570674920967e-12 1.8748505391639414e-12 6.528328154882393e-18
6.280915325867298 1.0844948814336785e-20 1.8080893090416655e-12 1.808082782298808e-12 6.526742856929985e-18
6.304513850009849 9.804905347316165e-21 1.6408332260860977e-12 1.640826729737226e-12 6.4963488713434915e-18
6.32820103803542 8.515421914515358e-21 1.4303946317347238e-12 1.4303881955489875e-12 6.4361857360683845e-18
6.3519772230701035 7.332951711496971e-21 1.2363948582021486e-12 1.2363884735637195e-12 6.3846384293814726e-18
6.375842739491607 6.33821660102144e-21 1.0726896894918584e-12 1.0726833467633365e-12 6.34272852155418e-18
6.399797922933955 5.54139586330295e-21 9.413581139846285e-13 9.41351779212147e-13 6.3347724811776686e-18
6.42384311029221 4.879044678621539e-21 8.319536926977695e-13 8.319473585365683e-13 6.3341612009983316e-18
6.447978639727206 4.3968464209184975e-21 7.525481967120873e-13 7.525418355963187e-13 6.3611157684686586e-18
6.472204850670314 3.995354739634128e-21 6.863996180289509e-13 6.863932239745938e-13 6.394054356954419e-18
6.496522083828205 3.735016369552263e-21 6.440845204435194e-13 6.440780704639333e-13 6.449979585991721e-18
