Dust emission spectrum from A.P. Jones, M. Kohler, N. Ysard, M. Bocchio, and L. Verstraete (2017), A&A, 602A, 46J 
inside the DustPedia framework.

lambda    nu*dP/dnu     j_nu    j_nu(carb.) j_nu(sil)
 (um)   (erg s-1 H-1) (Jy cm2 sr-1 H-1)
0.9927057738263894 1.8093333757180735e-27 4.7676962131012304e-20 4.7676962131012304e-20 5.139476638287509e-41
1.0001793341362166 1.8391012940680123e-27 4.882620383816442e-20 4.882620383816442e-20 7.238237741151786e-41
1.0077091589558085 1.868823347012941e-27 4.9988820542483195e-20 4.9988820542483195e-20 1.017338640643375e-40
1.0114953028030835 1.8836635106314623e-27 5.05750858102539e-20 5.05750858102539e-20 1.2051701218868945e-40
1.0152956718711033 1.8984878238697513e-27 5.116462365247247e-20 5.116462365247247e-20 1.4269452865032214e-40
1.0229392996569957 1.9280685019383544e-27 5.23530221112317e-20 5.23530221112317e-20 1.9973266700828446e-40
1.0267826658714554 1.9427888594174064e-27 5.295092677750224e-20 5.295092677750224e-20 2.3611789126939716e-40
1.0306404723013447 1.9574868549892192e-27 5.355197351153661e-20 5.355197351153661e-20 2.7898514458749754e-40
1.03451277320114 1.9721610699011382e-27 5.4156136225809416e-20 5.4156136225809416e-20 3.2946164803055603e-40
1.0383996230291617 1.9868100934559857e-27 5.476338851305593e-20 5.476338851305593e-20 3.888656103513428e-40
1.0403485208654093 1.9941247199007312e-27 5.50681649083807e-20 5.50681649083807e-20 4.223871960359699e-40
1.0423010764483396 2.0014325232815066e-27 5.53737036525127e-20 5.53737036525127e-20 4.5873769537396265e-40
1.0462171883269815 2.0160269655939508e-27 5.598705461616946e-20 5.598705461616946e-20 5.408775208431412e-40
1.0471985131304309 2.0196710406277495e-27 5.614086350852126e-20 5.614086350852126e-20 5.635682194577368e-40
1.048180758391296 2.02331325828722e-27 5.629486000334491e-20 5.629486000334491e-20 5.871913033656689e-40
1.0501480137395462 2.0305920354554646e-27 5.660341407502079e-20 5.660341407502079e-20 6.373859677719199e-40
1.0521189612883777 2.0378631254048557e-27 5.691271336906677e-20 5.691271336906677e-20 6.9177923499686756e-40
1.0531058218030118 2.041490124602659e-27 5.706748457847634e-20 5.706748457847634e-20 7.2065620084987495e-40
1.0540936079674168 2.0450967593583125e-27 5.72219262608723e-20 5.72219262608723e-20 7.507124632662208e-40
1.058054026499678 2.059502257764139e-27 5.784150036637943e-20 5.784150036637943e-20 8.837117470123793e-40
1.0590464539527713 2.0630982668911787e-27 5.799684351466262e-20 5.799684351466262e-20 9.204148138922509e-40
1.06003981227728 2.0666920878371923e-27 5.815236561918423e-20 5.815236561918423e-20 9.586102065748327e-40
1.0620293250338977 2.0738730815197105e-27 5.846394490354308e-20 5.846394490354308e-20 1.0397175029652141e-39
1.0660195594769086 2.088207892622512e-27 5.908923116205641e-20 5.908923116205641e-20 1.2226086391034362e-39
1.070024785945596 2.1025053633705835e-27 5.971733016961938e-20 5.971733016961938e-20 1.4369003252840149e-39
1.0740450607676866 2.116764176579701e-27 6.034821269820947e-20 6.034821269820947e-20 1.6878453368055045e-39
1.07808044048254 2.130983025794494e-27 6.098184927033948e-20 6.098184927033948e-20 1.9815510399361773e-39
1.0861967418109137 2.1592704130564475e-27 6.225653746306831e-20 6.225653746306831e-20 2.7267722006187472e-39
1.0902777775684922 2.1732789820439022e-27 6.289586194447789e-20 6.289586194447789e-20 3.196080927850772e-39
1.0943741465085532 2.1872414737218486e-27 6.353777318891963e-20 6.353777318891963e-20 3.7441465227462745e-39
1.1026131145906286 2.2150232672296834e-27 6.482923237921679e-20 6.482923237921679e-20 5.130047578193087e-39
1.1109141095355224 2.2426059994747308e-27 6.613066583499933e-20 6.613066583499933e-20 7.013821966813168e-39
1.1192775983109025 2.2699543346576663e-27 6.744105651134117e-20 6.744105651134117e-20 9.56869034455986e-39
1.1277040513999907 2.2969406548078338e-27 6.875659297098196e-20 6.875659297098196e-20 1.3025998628367908e-38
1.1361939428280308 2.3236960901906916e-27 7.008115164366132e-20 7.008115164366132e-20 1.769447448003745e-38
1.1447477501889525 2.350211736407505e-27 7.141447081861055e-20 7.141447081861055e-20 2.398469936090283e-38
1.1533659546722406 2.3764934411313604e-27 7.275673150153693e-20 7.275673150153693e-20 3.244172211388648e-38
1.1707974979042381 2.4284407403987213e-27 7.547076094146211e-20 7.547076094146211e-20 5.897653139492974e-38
1.1884924949847024 2.479340484212999e-27 7.821716099567088e-20 7.821716099567088e-20 1.0631080813086347e-37
1.2064549276569216 2.5295936532364326e-27 8.10086318744419e-20 8.10086318744419e-20 1.900405175172235e-37
1.2246888378427687 2.5786484598598934e-27 8.382765794691817e-20 8.382765794691817e-20 3.3689060535294545e-37
1.2431983285522175 2.626390125144908e-27 8.667005805036e-20 8.667005805036e-20 5.922896093559123e-37
1.2619875648066055 2.672801174929235e-27 8.953465451097723e-20 8.953465451097723e-20 1.0327934230721447e-36
1.3004222497298317 2.7608575823813298e-27 9.530108144133515e-20 9.530108144133515e-20 3.06467238822625e-36
1.3400274889804893 2.8424759026531933e-27 1.0110669914823386e-19 1.0110669914823385e-19 8.807818178560371e-36
1.3808389325824078 2.917356484448094e-27 1.0693058854040056e-19 1.0693058854040054e-19 2.4533954479443543e-35
1.4228933163050095 2.9858720793120292e-27 1.1277503490374044e-19 1.1277503490374039e-19 6.62830614944952e-35
1.466228494730424 3.0496909247148197e-27 1.1869349436865534e-19 1.1869349436865517e-19 1.738392054550056e-34
1.5108834753276823 3.1075644767352606e-27 1.2462941389745825e-19 1.246294138974578e-19 4.428771962484101e-34
1.5568984535646726 3.158484243990241e-27 1.305294280646146e-19 1.305294280646135e-19 1.0967344141366982e-33
1.6043148490894465 3.2025490788419196e-27 1.363813013853794e-19 1.3638130138537673e-19 2.642038967330547e-33
1.6531753430134553 3.2398991403978845e-27 1.4217388888987806e-19 1.4217388888987183e-19 6.196030677836878e-33
1.7035239163302658 3.27098907193015e-27 1.4790973582361853e-19 1.4790973582360437e-19 1.4156601411467345e-32
1.755405889504358 3.2984251183959986e-27 1.536928320345796e-19 1.536928320345481e-19 3.15416866586766e-32
1.8088679632656115 3.321567175539048e-27 1.5948481544947215e-19 1.594848154494036e-19 6.857570432168437e-32
1.8639582606462262 3.339983105414938e-27 1.6525320308180512e-19 1.6525320308165957e-19 1.455791744889668e-31
1.9207263702978936 3.353990860920337e-27 1.7100027425750405e-19 1.7100027425720214e-19 3.019677589037978e-31
1.979223391128241 3.364327044017741e-27 1.7675123405223274e-19 1.767512340516203e-19 6.1244528848074515e-31
2.039501978296691 3.3718721791939885e-27 1.825427828421236e-19 1.825427828409082e-19 1.2154017517234551e-30
2.1016163906111602 3.379087947193417e-27 1.8850478343200655e-19 1.8850478342964466e-19 2.361875244084754e-30
2.1656225393682647 3.3874016482143634e-27 1.9472373464872903e-19 1.947237346442314e-19 4.497626424813893e-30
2.231578038680979 3.396916102141166e-27 2.012177704290117e-19 2.0121777042061465e-19 8.397060320432794e-30
2.299542257339062 3.408485976525207e-27 2.0805221285604565e-19 2.0805221284066636e-19 1.5379283638747542e-29
2.369576372248914 3.424000693986517e-27 2.1536443586076483e-19 2.1536443583311587e-19 2.764898426488345e-29
2.4417434235010123 3.445691852910442e-27 2.233293982622097e-19 2.23329398213388e-19 4.882171062407139e-29
2.5161083711144245 3.4773811245604094e-27 2.3224751086959195e-19 2.3224751078486494e-19 8.472699688981349e-29
2.5927381535095444 3.525323603319685e-27 2.4262026927976996e-19 2.4262026913515746e-19 1.4461248373274148e-28
2.6717017477616296 3.5969919836063104e-27 2.550920227517277e-19 2.550920225088482e-19 2.4287952568885974e-28
2.753070231689431 3.703637753464069e-27 2.7065448368963653e-19 2.706544832880747e-19 4.0156185360929175e-28
2.836916847834745 3.8707433997752956e-27 2.914811145289477e-19 2.9148111387492655e-19 6.540211905934844e-28
2.9233170693905177 4.1544193483010435e-27 3.223707931198129e-19 3.2237079206981085e-19 1.0500020035836874e-27
2.967498994190263 4.395347408523555e-27 3.4622085210124734e-19 3.462208507775285e-19 1.323718925441045e-27
3.0123486681368425 4.676761172988466e-27 3.7395544736475014e-19 3.739554457015913e-19 1.6631589318028443e-27
3.0578761833420214 5.306280493336802e-27 4.3070462245543498e-19 4.307046203698891e-19 2.0855458307956764e-27
3.1040917844459814 6.117594336383059e-27 5.040628173943565e-19 5.040628147872728e-19 2.607083836267107e-27
3.127460860933648 6.975674601519748e-27 5.790919529249871e-19 5.790919500084902e-19 2.916496965433126e-27
3.1510058709225794 8.118986687127282e-27 6.79079272437587e-19 6.790792691750932e-19 3.262493876850038e-27
3.162844764501044 9.183064270078355e-27 7.709654814289659e-19 7.709654779711933e-19 3.4577725167174164e-27
3.1747281389236908 1.0420574911338301e-26 8.78147874292177e-19 8.781478706282112e-19 3.663965879667602e-27
3.1986289994194426 1.3872499919708145e-26 1.1778447062005589e-18 1.1778447020799476e-18 4.120611157639676e-27
3.2227097969389145 2.2009035392082781e-26 1.8827455992982652e-18 1.8827455945950122e-18 4.703253090618178e-27
3.2348180950136065 2.972494389053178e-26 2.552350658665906e-18 2.5523506535864703e-18 5.0794350466025656e-27
3.240889293275058 3.549348380778946e-26 3.0533898532529275e-18 3.053389847942099e-18 5.310829087842644e-27
3.2469718861334385 4.216671498467587e-26 3.634274524599352e-18 3.634274519025915e-18 5.573438018787985e-27
3.2714166318528037 7.776295511720608e-26 6.752709182725914e-18 6.7527091759431965e-18 6.782716636965335e-27
3.2744851364798273 7.99879901866027e-26 6.952439864903614e-18 6.952439857993342e-18 6.91027012880957e-27
3.2775565192852394 8.227693161042427e-26 7.158099148129656e-18 7.158099141089533e-18 7.04012216239578e-27
3.283707930232385 8.007498556089544e-26 6.979604658923702e-18 6.979604651735211e-18 7.188490059326126e-27
3.2898708863219004 7.309309630919254e-26 6.382997092245858e-18 6.382997084997664e-18 7.248193282359351e-27
3.29141343181113 7.144660967404484e-26 6.242139863331742e-18 6.242139856068574e-18 7.263170296386935e-27
3.292184975758714 7.063758697252769e-26 6.1729039114980526e-18 6.172903904227387e-18 7.270666508526554e-27
3.295272960557952 6.553097312366754e-26 5.7320166733910735e-18 5.732016666109804e-18 7.281269418259729e-27
3.3076538914384823 4.784065505066696e-26 4.200360926447251e-18 4.200360919134115e-18 7.313135975559016e-27
3.310756385682612 4.4240352531196056e-26 3.8879013557896344e-18 3.887901348468535e-18 7.321099767241274e-27
3.313861789986515 4.091855980101931e-26 3.5993507020941174e-18 3.5993506947650534e-18 7.329063323413271e-27
3.3200813396944477 3.626009038152832e-26 3.1955604619420333e-18 3.195560454543297e-18 7.398735870495198e-27
3.345076488085796 2.7949678471311666e-26 2.481717264661524e-18 2.4817172566543084e-18 8.007215124049688e-27
3.3482140837626964 2.8261236806101413e-26 2.511734992314167e-18 2.5117349841917e-18 8.122466827373383e-27
3.3513546224236106 2.857623947297897e-26 2.5421132525607197e-18 2.5421132443214462e-18 8.239273516376829e-27
3.3576445397418455 3.0878561697144797e-26 2.752081007891097e-18 2.752080999363008e-18 8.528088539250536e-27
3.3702598118196083 3.937069121983417e-26 3.522133835275539e-18 3.522133826048939e-18 9.226599657291451e-27
3.382922481734668 4.1304384141289473e-26 3.709006807065775e-18 3.7090067972667615e-18 9.799013101019465e-27
3.389271646505754 4.230616382409745e-26 3.806093547499766e-18 3.80609353740214e-18 1.0097625350930509e-26
3.395632727569191 4.338556488273067e-26 3.910528002542236e-18 3.910527992122031e-18 1.0420205864256051e-26
3.421196662673239 4.8568159370200504e-26 4.410614670814734e-18 4.410614658976925e-18 1.1837809396220746e-26
3.4276182099114902 4.752319079917283e-26 4.3238186138921525e-18 4.3238186018023414e-18 1.2089811858814775e-26
3.4340518103208963 4.294516759610769e-26 3.914628721346929e-18 3.914628709067497e-18 1.2279432268660265e-26
3.4469541582030403 3.64254158386252e-26 3.3328015851839617e-18 3.3328015726156264e-18 1.2568335159412816e-26
3.472904465399547 3.4598217807597827e-26 3.189451467676113e-18 3.1894514539223834e-18 1.3753728929834935e-26
3.4990501388274233 3.18037314996788e-26 2.953912842760231e-18 2.9539128277630392e-18 1.4997191211222067e-26
3.5253949054701885 2.1858941280395865e-26 2.045532240842613e-18 2.0455322248958422e-18 1.5946770667085584e-26
3.5519380250092896 1.251305311212713e-26 1.1797720430170634e-18 1.1797720261744374e-18 1.684262570994643e-26
3.578680990867387 8.808051724354502e-27 8.367048295868772e-19 8.367048113657896e-19 1.822108763766928e-26
3.605625307711299 7.310039243345993e-27 6.996321122655215e-19 6.99632092357714e-19 1.990780739551902e-26
3.660119384959845 6.2186116608109844e-27 6.0416855968192005e-19 6.041685357642236e-19 2.3917696274797446e-26
3.715437065384467 5.4469265195511685e-27 5.371936358718231e-19 5.371936072085769e-19 2.8663246176253954e-26
3.8285932144167436 5.0606081283310445e-27 5.142938927030773e-19 5.142938516301434e-19 4.1072933878253515e-26
3.94519561050918 4.994593643565152e-27 5.230438914725097e-19 5.230438331532891e-19 5.831922057806588e-26
4.06534921144712 5.062683363471581e-27 5.463212033661898e-19 5.46321121335332e-19 8.203085790723292e-26
4.189162171576248 5.2110992157400694e-27 5.794633170426887e-19 5.794632027213495e-19 1.1432133939933155e-25
4.316745939156006 5.42071216240386e-27 6.211296616767998e-19 6.211295037612914e-19 1.5791550850439068e-25
4.448215356677963 5.6862372567941786e-27 6.713982651134058e-19 6.713980488246302e-19 2.1628877558197186e-25
4.58368876423945 6.0103805305932235e-27 7.312847605420886e-19 7.312844666868071e-19 2.938552816792507e-25
4.723288106065518 6.4018643276748574e-27 8.026391441054083e-19 8.026387478983207e-19 3.962070876154154e-25
4.867139040275056 6.876314734429655e-27 8.883803267548149e-19 8.883797963213951e-19 5.304334200491401e-25
4.940699165968905 7.161948608339752e-27 9.392669570649543e-19 9.392663447469608e-19 6.123179933953206e-25
5.015371051989984 7.46107675942124e-27 9.932853040686832e-19 9.932845985067657e-19 7.055619178061364e-25
5.091171501069577 7.821511724557299e-27 1.0570069931839597e-18 1.0570061810082583e-18 8.12175701264604e-25
5.129500256944802 8.007935891969908e-27 1.0903478628519092e-18 1.0903469920615587e-18 8.707903505765767e-25
5.168117569889187 8.202625920199025e-27 1.1252647748960832e-18 1.125263841604924e-18 9.33291159646908e-25
5.20702561229733 8.43671424513527e-27 1.1660911158005597e-18 1.1660901153181172e-18 1.0004824420669891e-24
5.246226572918644 8.677622369618898e-27 1.2084181027781196e-18 1.208417030740649e-18 1.0720374704791578e-24
5.265937586045735 8.800706637908038e-27 1.2301630692382538e-18 1.2301619597086732e-18 1.1095295805080882e-24
5.285722656980489 8.925584318091977e-27 1.2523060016967813e-18 1.2523048534887613e-18 1.1482080198789424e-24
5.305582063971359 9.05228608754545e-27 1.2748548494198169e-18 1.2748536613135726e-18 1.1881062442124602e-24
5.3255160863122235 9.187587175336464e-27 1.2987710717262294e-18 1.2987698423042202e-18 1.2294220091480267e-24
5.365609099470188 9.51740288827621e-27 1.3555230815223668e-18 1.3555217642211753e-18 1.3173011917787702e-24
5.406003951863644 9.860279824600719e-27 1.4149302509919217e-18 1.4149288401434547e-18 1.4108484670998241e-24
5.446702915881641 1.0216832778745937e-26 1.4771323384020064e-18 1.4771308280133995e-18 1.5103886071195368e-24
5.487708281020852 1.060092961533762e-26 1.544203032191378e-18 1.5442014154895079e-18 1.6167018700661673e-24
5.529022354014368 1.1120675766949508e-26 1.6321082405663418e-18 1.6321065067926543e-18 1.7337736876543376e-24
5.570647458961463 1.1670669770511358e-26 1.7257222097173971e-18 1.7257203512114688e-18 1.8585059279847204e-24
5.612585937458331 1.225301289148293e-26 1.8254726362287113e-18 1.8254706448845417e-18 1.991344170146954e-24
5.654840148729818 1.2890739423887065e-26 1.934940413240943e-18 1.9349382796094028e-18 2.1336315406411293e-24
5.67608639626678 1.331693670519468e-26 2.0064242396032112e-18 2.0064220275322467e-18 2.2120709645493653e-24
5.686739436050992 1.3536447163560747e-26 2.0433250300908688e-18 2.0433227778217542e-18 2.2522691144714633e-24
5.6974124697621304 1.376036531243804e-26 2.0810238549471643e-18 2.081021561814669e-18 2.2931324954459048e-24
5.718818669136295 1.4221839289488925e-26 2.158895027342647e-18 2.1588926504481198e-18 2.376894527438394e-24
5.740305295436557 1.472841385286137e-26 2.2441940298372264e-18 2.244191565074984e-18 2.464762242948734e-24
5.7835210386641895 1.6028248950735342e-26 2.4606385976139915e-18 2.4606359373448493e-18 2.660269141812721e-24
5.827062130521658 1.7519547133127032e-26 2.7098294455058048e-18 2.709826572687225e-18 2.8728185797039197e-24
5.8489554468988025 1.855505337616288e-26 2.8807790781353965e-18 2.880776080221516e-18 2.9979138811316924e-24
5.870931020387893 1.966456608377642e-26 3.0645081348205886e-18 3.064505006773178e-18 3.1280474102040346e-24
5.892989160043636 2.0853986024231552e-26 3.2620765888266825e-18 3.262073325422041e-18 3.263404641914418e-24
5.915130176081913 2.220303564477763e-26 3.4861502101124085e-18 3.486146801122399e-18 3.408990009612623e-24
5.95966208400165 2.5951880944948706e-26 4.105441886396821e-18 4.1054381223165046e-18 3.764080317005985e-24
6.004529249263818 3.132874026130269e-26 4.993342200498824e-18 4.993337986027719e-18 4.214471107231585e-24
6.027089341400364 3.5054405102150275e-26 5.6081505472412714e-18 5.608146045245215e-18 4.501996056710435e-24
6.049734195844842 3.945067352091023e-26 6.335197357904682e-18 6.335192533583842e-18 4.824320840448235e-24
6.095279466722835 5.212137833936851e-26 8.432938784510204e-18 8.432933084486484e-18 5.700023721017635e-24
6.141167624020661 7.158355771246047e-26 1.166900064389394e-17 1.1668993668953994e-17 6.974939942645778e-24
6.164241091010745 8.400789878654031e-26 1.3745773121121901e-17 1.3745765306714654e-17 7.814407248969611e-24
6.187401249150058 9.815033511694872e-26 1.6120165657142734e-17 1.6120156914905315e-17 8.742237422131743e-24
6.1990139391386085 1.050584762774637e-25 1.7287139781353108e-17 1.7287130561188116e-17 9.22016499267664e-24
6.204828454712694 1.0869635055688322e-25 1.790252031118316e-17 1.7902510842357418e-17 9.468825744046908e-24
6.210648424152782 1.1135645206231476e-25 1.8357847744318583e-17 1.835783806882268e-17 9.675495904082438e-24
6.233982942956859 1.2040300811967877e-25 1.9923809475314265e-17 1.992379906544076e-17 1.0409873503355105e-23
6.239830258556775 1.2156614254394848e-25 2.013514887324646e-17 2.013513836185849e-17 1.0511387974747503e-23
6.245683058788269 1.2167953969384057e-25 2.017283485057525e-17 2.017282423676218e-17 1.0613813071881713e-23
6.257405133728602 1.2146009200117736e-25 2.0174246034184357e-17 2.017423524125232e-17 1.0792932037459459e-23
6.269149208991335 1.1971939251154483e-25 1.9922440749935473e-17 1.9922429899593108e-17 1.0850342362810823e-23
6.280915325867298 1.1531165007850475e-25 1.9224965030657755e-17 1.9224954274268653e-17 1.075638909328539e-23
6.304513850009849 1.0442667221871469e-25 1.7475615255477273e-17 1.74756048280342e-17 1.0427443073384673e-23
6.32820103803542 9.092243788927883e-26 1.5272874129626747e-17 1.5272864207736252e-17 9.921890496864768e-24
6.3519772230701035 7.854121892629918e-26 1.3242683581995343e-17 1.3242674138758693e-17 9.443236649099854e-24
6.375842739491607 6.81268194711155e-26 1.1529889466504137e-17 1.1529880443942025e-17 9.022562114243998e-24
6.399797922933955 5.979669803867042e-26 1.015810966709016e-17 1.015810092925076e-17 8.737839400984429e-24
6.42384311029221 5.28755060348818e-26 9.016103642529353e-18 9.016095145797176e-18 8.4967321780943e-24
6.447978639727206 4.784994357141296e-26 8.189821817774485e-18 8.189813434882768e-18 8.382891716643583e-24
6.472204850670314 4.3670712907950317e-26 7.50260305091559e-18 7.502594750029295e-18 8.300886295969232e-24
6.496522083828205 4.0977264707323413e-26 7.066320271915541e-18 7.066311941976748e-18 8.329938795499137e-24
