Dust emission spectrum from A.P. Jones, M. Kohler, N. Ysard, M. Bocchio, and L. Verstraete (2017), A&A, 602A, 46J 
inside the DustPedia framework.

lambda    nu*dP/dnu     j_nu    j_nu(carb.) j_nu(sil)
 (um)   (erg s-1 H-1) (Jy cm2 sr-1 H-1)
0.9927057738263894 1.6047136024532778e-24 4.228511488377395e-17 4.2285114422768077e-17 4.610058806847046e-25
1.0001793341362166 1.6315999050270853e-24 4.3317260339133923e-17 4.331725978410919e-17 5.5502472880312775e-25
1.0077091589558085 1.658527197816843e-24 4.4363646563497044e-17 4.436364589615694e-17 6.673401097730389e-25
1.0114953028030835 1.6720039853177782e-24 4.489217132214098e-17 4.489217059074912e-17 7.313918685046059e-25
1.0152956718711033 1.685488359140054e-24 4.5424245803296055e-17 4.5424245001968985e-17 8.0132707594796355e-25
1.0229392996569957 1.712463256093216e-24 4.649867295730887e-17 4.649867199634984e-17 9.60959039489757e-25
1.0267826658714554 1.7259222741457654e-24 4.704020383839235e-17 4.7040202786544525e-17 1.0518478332448935e-24
1.0306404723013447 1.739384754900572e-24 4.7585242313833597e-17 4.7585241162880464e-17 1.1509531135676202e-24
1.03451277320114 1.7528498622140392e-24 4.8133784491655846e-17 4.813378323267532e-17 1.2589805240326839e-24
1.0383996230291617 1.7663167695549064e-24 4.8685826494873335e-17 4.868582511818046e-17 1.3766928764158896e-24
1.0403485208654093 1.7730506426443138e-24 4.8963158726053976e-17 4.896315728661802e-17 1.439435976273757e-24
1.0423010764483396 1.7797846602939226e-24 4.9241364471692414e-17 4.924136296677793e-17 1.5049144822857835e-24
1.0462171883269815 1.7932527279905803e-24 4.9800394605845205e-17 4.980039296130941e-17 1.644535788098166e-24
1.0471985131304309 1.7966196790527366e-24 4.9940697345976075e-17 4.994069566464271e-17 1.68133336172489e-24
1.048180758391296 1.7999865790412263e-24 5.0081218051624726e-17 5.008121633270584e-17 1.718918889932527e-24
1.0501480137395462 1.8067201766767923e-24 5.0362913127053934e-17 5.036291133053561e-17 1.7965183331492732e-24
1.0521189612883777 1.813453423083618e-24 5.064547936977212e-17 5.0645477492305834e-17 1.877466288090732e-24
1.0531058218030118 1.8168151111114228e-24 5.0786955609434395e-17 5.078695369019299e-17 1.919241419170275e-24
1.0540936079674168 1.8201610369651375e-24 5.092821166701764e-17 5.0928209705102696e-17 1.9619149377121534e-24
1.058054026499678 1.8335426141185137e-24 5.149538214220985e-17 5.149538000033977e-17 2.1418701068234823e-24
1.0590464539527713 1.8368874176921185e-24 5.1637711023079334e-17 5.1637708833810726e-17 2.1892686104539897e-24
1.06003981227728 1.840231961479873e-24 5.1780254290360634e-17 5.178025205269059e-17 2.237670040792365e-24
1.0620293250338977 1.8469202230670113e-24 5.2065983750319005e-17 5.206598141275623e-17 2.337562755778951e-24
1.0660195594769086 1.8602931184896987e-24 5.264001275733689e-17 5.264001020703993e-17 2.550296956207036e-24
1.070024785945596 1.8736605670989594e-24 5.3217465534485445e-17 5.3217462753007025e-17 2.781478421065867e-24
1.0740450607676866 1.8870218479018973e-24 5.379833856946615e-17 5.379833553684426e-17 3.0326218875151676e-24
1.07808044048254 1.9003762524581954e-24 5.438262847782731e-17 5.438262517246833e-17 3.3053589933973107e-24
1.0861967418109137 1.927039844775544e-24 5.556081700729426e-17 5.556081308451765e-17 3.9227766090845665e-24
1.0902777775684922 1.9402980637050478e-24 5.615326893336016e-17 5.615326466197562e-17 4.271384530617924e-24
1.0943741465085532 1.9535458328854407e-24 5.674908487942244e-17 5.674908022996401e-17 4.6494584274952155e-24
1.1026131145906286 1.9800074884176986e-24 5.795079784410682e-17 5.79507923405113e-17 5.5035955426060615e-24
1.1109141095355224 2.006419887385799e-24 5.916593602642877e-17 5.916592952022053e-17 6.50620822585741e-24
1.1192775983109025 2.0327560061914806e-24 6.039381964395449e-17 6.039381196240517e-17 7.681549327271447e-24
1.1277040513999907 2.0589087530830417e-24 6.163134898753674e-17 6.163133992997386e-17 9.057562869193754e-24
1.1361939428280308 2.0849956161989793e-24 6.288210173956898e-17 6.288209107316883e-17 1.0666400124719693e-23
1.1447477501889525 2.1110126926540357e-24 6.414607330984677e-17 6.414606076484193e-17 1.2545004858959305e-23
1.1533659546722406 2.1369677277286273e-24 6.542361300176092e-17 6.54235982659697e-17 1.4735791235577782e-23
1.1707974979042381 2.1887718191130417e-24 6.802236182570695e-17 6.802234157018115e-17 2.025552580980881e-23
1.1884924949847024 2.2402826428921846e-24 7.067546763772815e-17 7.067543993369203e-17 2.770403612631905e-23
1.2064549276569216 2.2918696353475307e-24 7.339567102271124e-17 7.339563331737419e-17 3.770533705242738e-23
1.2246888378427687 2.3431027827962573e-24 7.617045195117011e-17 7.617040088440327e-17 5.1066766815772523e-23
1.2431983285522175 2.3939076285868205e-24 7.899820790156678e-17 7.899813907237188e-17 6.882919488879951e-23
1.2619875648066055 2.444319762659655e-24 8.188088493708495e-17 8.188079260936012e-17 9.232772482896627e-23
1.3004222497298317 2.5434460336687715e-24 8.779632790302657e-17 8.779616410225673e-17 1.6380076986401366e-22
1.3400274889804893 2.6405160916336623e-24 9.392300065716623e-17 9.39227153625698e-17 2.8529459642731037e-22
1.3808389325824078 2.7356313021655633e-24 1.0026977050267667e-16 1.0026928244932437e-16 4.880533522923434e-22
1.4228933163050095 2.8294885599121044e-24 1.0686850026654337e-16 1.0686767981825497e-16 8.204482883703038e-22
1.466228494730424 2.9239410028142753e-24 1.1379932705287832e-16 1.1379797104630437e-16 1.35600657396697e-21
1.5108834753276823 3.018352430804683e-24 1.2105154927705883e-16 1.210493448794058e-16 2.2043976530363113e-21
1.5568984535646726 3.112273542062331e-24 1.2861969667855765e-16 1.286161681729765e-16 3.5285055811452225e-21
1.6043148490894465 3.206220681997978e-24 1.3653765746432354e-16 1.3653208600373463e-16 5.5714605889335705e-21
1.6531753430134553 3.3007638716655827e-24 1.4484476695292273e-16 1.4483609899392071e-16 8.667959001990805e-21
1.7035239163302658 3.396696905151083e-24 1.5359407532882398e-16 1.5358078497061622e-16 1.3290358207746332e-20
1.755405889504358 3.49673699055527e-24 1.62933336870736e-16 1.6291324384407026e-16 2.009302666573622e-20
1.8088679632656115 3.6006964703695126e-24 1.7288718900386315e-16 1.7285722525585786e-16 2.996374800532737e-20
1.8639582606462262 3.708437890993217e-24 1.8348333526687972e-16 1.8343924315370442e-16 4.40921131753003e-20
1.9207263702978936 3.820466420440885e-24 1.9478312040114207e-16 1.947190728346724e-16 6.404756646975259e-20
1.979223391128241 3.9376032649608324e-24 2.0686937601012193e-16 2.0677750296707038e-16 9.187304305147327e-20
2.039501978296691 4.0606630634264925e-24 2.1983180155995162e-16 2.1970161344627887e-16 1.3018811367279714e-19
2.1016163906111602 4.1919278460562864e-24 2.3384962544101773e-16 2.3366730694088197e-16 1.8231850013579203e-19
2.1656225393682647 4.3326015874663e-24 2.49058260422462e-16 2.4880584561717046e-16 2.52414805291538e-19
2.231578038680979 4.482399855606935e-24 2.655168623528959e-16 2.651712750417681e-16 3.455873111277617e-19
2.299542257339062 4.641756145224371e-24 2.8333038310945115e-16 2.8286233394867644e-16 4.680491607746744e-19
2.369576372248914 4.811821197962571e-24 3.0265623473210644e-16 3.0202896367946365e-16 6.272710526427211e-19
2.4417434235010123 4.993950550772537e-24 3.2367838421570237e-16 3.2284627804946567e-16 8.32106166236705e-19
2.5161083711144245 5.1907790691685575e-24 3.4668202164373707e-16 3.4558906995801725e-16 1.09295168571987e-18
2.5927381535095444 5.406776217640667e-24 3.7210584033311447e-16 3.7068397986065676e-16 1.421860472457727e-18
2.6717017477616296 5.646618087106699e-24 4.0044771745707374e-16 3.9861516216268815e-16 1.832555294385659e-18
2.753070231689431 5.917400101372676e-24 4.3243183481539217e-16 4.3009134960762646e-16 2.3404852077657e-18
2.836916847834745 6.236720264004582e-24 4.696478133019256e-16 4.666848786143794e-16 2.9629346875461293e-18
2.9233170693905177 6.643702545033065e-24 5.155318900510836e-16 5.118136027775834e-16 3.718287273500319e-18
2.967498994190263 6.91875493467765e-24 5.449892821483372e-16 5.408448178823597e-16 4.144464265977348e-18
3.0123486681368425 7.222591160807273e-24 5.775208972123913e-16 5.729075355976138e-16 4.6133616147773904e-18
3.0578761833420214 7.778613070122045e-24 6.313809851930827e-16 6.262509967038373e-16 5.129988489245731e-18
3.1040917844459814 8.457708439077235e-24 6.968779082239478e-16 6.911845490373082e-16 5.6933591866397524e-18
3.127460860933648 9.12163551128945e-24 7.572408439108822e-16 7.512453800608411e-16 5.995463850041139e-18
3.1510058709225794 9.983855432925922e-24 8.350585540758255e-16 8.287478506069575e-16 6.3107034688681225e-18
3.162844764501044 1.0771378447897057e-23 9.043126266463216e-16 8.978386558967606e-16 6.473970749560887e-18
3.1747281389236908 1.1675042892399315e-23 9.838626165505628e-16 9.772219676730465e-16 6.640648877516197e-18
3.1986289994194426 1.4158094420009652e-23 1.2020931093180264e-15 1.1951078266187822e-15 6.98528269924436e-18
3.2227097969389145 1.9949640049190184e-23 1.7065762465768307e-15 1.6992254250802087e-15 7.35082149662237e-18
3.2348180950136065 2.5410914247023907e-23 2.1819238399421586e-15 2.1743778561964567e-15 7.545983745702449e-18
3.240889293275058 2.949132323808756e-23 2.5370433520086466e-15 2.529394423665571e-15 7.648928343075912e-18
3.2469718861334385 3.42157831059548e-23 2.948997780035254e-15 2.9412423322609424e-15 7.755447774311966e-18
3.2714166318528037 5.923358932192716e-23 5.1436728701619355e-15 5.135476939671324e-15 8.195930490610194e-18
3.2744851364798273 6.080008698802312e-23 5.284655203600046e-15 5.276407280064429e-15 8.247923535617428e-18
3.2775565192852394 6.241020671905006e-23 5.429692610141375e-15 5.421392425943558e-15 8.300184197817694e-18
3.283707930232385 6.087520863411551e-23 5.3060876229881844e-15 5.2976938110391e-15 8.393811949084045e-18
3.2898708863219004 5.598275753487865e-23 4.888803411056138e-15 4.880324236950456e-15 8.479174105682272e-18
3.29141343181113 5.482783703541843e-23 4.790192687104818e-15 4.781692074034026e-15 8.500613070792951e-18
3.292184975758714 5.426017670072494e-23 4.7417086476176785e-15 4.733197300278376e-15 8.51134733930336e-18
3.295272960557952 5.069441949957826e-23 4.434258244129693e-15 4.425705113165952e-15 8.553130963742387e-18
3.3076538914384823 3.8297981534544e-23 3.3625238832772695e-15 3.353802849585988e-15 8.721033691281741e-18
3.310756385682612 3.576293089086326e-23 3.1428942027429002e-15 3.1341308313696678e-15 8.76337137323202e-18
3.313861789986515 3.3419246941958826e-23 2.939682885442115e-15 2.9308770312291906e-15 8.80585421292472e-18
3.3200813396944477 3.014002020002422e-23 2.6562056481358414e-15 2.6473084896198352e-15 8.897158516006333e-18
3.345076488085796 2.435642347483672e-23 2.1626637567567274e-15 2.153359895874759e-15 9.303860881968252e-18
3.3482140837626964 2.4584973616221374e-23 2.185004815629732e-15 2.1756458680016454e-15 9.358947628085992e-18
3.3513546224236106 2.4815840861019782e-23 2.2075920096445027e-15 2.1981777183609732e-15 9.414291283529606e-18
3.3576445397418455 2.6458222294646222e-23 2.3581140790760857e-15 2.3485841049633022e-15 9.529974112782576e-18
3.3702598118196083 3.245861748894006e-23 2.9037741365960107e-15 2.8940014958438526e-15 9.77264075215849e-18
3.382922481734668 3.386591522627537e-23 3.04105514978988e-15 3.0310463162086127e-15 1.0008833581266822e-17
3.389271646505754 3.4593357211024655e-23 3.112207342047855e-15 3.1020787267942996e-15 1.0128615253555995e-17
3.395632727569191 3.538460418360119e-23 3.1893669217598187e-15 3.1791148621826977e-15 1.025205957712089e-17
3.421196662673239 3.9199932254208596e-23 3.559858939217659e-15 3.549095515742998e-15 1.0763423474661482e-17
3.4276182099114902 3.8482228375147026e-23 3.501241658112857e-15 3.490363759927771e-15 1.0877898185085512e-17
3.4340518103208963 3.5259139915415093e-23 3.2140156746153614e-15 3.2030293307500442e-15 1.0986343865317488e-17
3.4469541582030403 3.0655409476351914e-23 2.804865639691905e-15 2.793670796793463e-15 1.1194842898441804e-17
3.472904465399547 2.9393887515012595e-23 2.7096880595646087e-15 2.698013434796171e-15 1.1674624768438822e-17
3.4990501388274233 2.745940842118586e-23 2.5504145383304654e-15 2.5382481430546036e-15 1.216639527586126e-17
3.5253949054701885 2.051363526059119e-23 1.9196401950197844e-15 1.9069947669512145e-15 1.2645428068570008e-17
3.5519380250092896 1.394177566230112e-23 1.3144767315386628e-15 1.3013487942564952e-15 1.3127937282167785e-17
3.578680990867387 1.1368131834971246e-23 1.0798949764793575e-15 1.0662380307191103e-15 1.3656945760247204e-17
3.605625307711299 1.036434982543847e-23 9.919552712703675e-16 9.777405460725093e-16 1.42147251978582e-17
3.660119384959845 9.707825639871084e-24 9.431627756152946e-16 9.27773384701253e-16 1.538939091404191e-17
3.715437065384467 9.267176651084822e-24 9.139591477127056e-16 8.973273284893343e-16 1.6631819223371068e-17
3.8285932144167436 9.209780721681639e-24 9.359614216676138e-16 9.166449699483315e-16 1.9316451719281997e-17
3.94519561050918 9.372624600775845e-24 9.815200984001386e-16 9.59254464489944e-16 2.2265633910194803e-17
4.06534921144712 9.622522574635041e-24 1.0383797948580616e-15 1.01289850623729e-15 2.5481288620771576e-17
4.189162171576248 9.92017496120024e-24 1.1031026757844112e-15 1.0741280007965903e-15 2.8974674987821074e-17
4.316745939156006 1.0249914002641199e-23 1.1744814013244955e-15 1.141742453794603e-15 3.273894752989265e-17
4.448215356677963 1.0605515740367139e-23 1.2522384394368143e-15 1.215509345254477e-15 3.6729094182337325e-17
4.58368876423945 1.0986530875718435e-23 1.3367344313297646e-15 1.295778904153536e-15 4.095552717622828e-17
4.723288106065518 1.1396672396224993e-23 1.4288674219808222e-15 1.3834175140451402e-15 4.544990793568175e-17
4.867139040275056 1.1842926039068865e-23 1.530037950654357e-15 1.4799326887812396e-15 5.0105261873117136e-17
4.940699165968905 1.2091300876044029e-23 1.5857359500700753e-15 1.5332274083170433e-15 5.250854175303232e-17
5.015371051989984 1.234134367539016e-23 1.6429901072585844e-15 1.5880340672383263e-15 5.495604002025766e-17
5.091171501069577 1.2628583692884919e-23 1.7066395535121187e-15 1.6491409948928847e-15 5.749855861923401e-17
5.129500256944802 1.2772965604207147e-23 1.739146758504113e-15 1.6803620563219498e-15 5.87847021821629e-17
5.168117569889187 1.2920958311371795e-23 1.7725420355795872e-15 1.7124498601876204e-15 6.009217539196702e-17
5.20702561229733 1.3096444531809424e-23 1.8101416230760262e-15 1.748627907003818e-15 6.151371607220831e-17
5.246226572918644 1.327378826551861e-23 1.8484655530361504e-15 1.7855163450981652e-15 6.294920793798513e-17
5.265937586045735 1.3363178442970753e-23 1.8679055312870826e-15 1.8042334768071063e-15 6.367205447997618e-17
5.285722656980489 1.3453059643030518e-23 1.887534387861044e-15 1.8231361578673814e-15 6.439822999366317e-17
5.305582063971359 1.3543441333464323e-23 1.9073548598464017e-15 1.842227179871782e-15 6.512767997461962e-17
5.3255160863122235 1.3639450085350593e-23 1.928093074606225e-15 1.8622273992097274e-15 6.586567539649742e-17
5.365609099470188 1.3873159210781064e-23 1.9758948680225925e-15 1.90850230025869e-15 6.739256776390199e-17
5.406003951863644 1.411209070039679e-23 2.025056529016078e-15 1.956122324901722e-15 6.893420411435588e-17
5.446702915881641 1.4356524476547728e-23 2.075641936264672e-15 2.0051517766639774e-15 7.049015960069427e-17
5.487708281020852 1.4616696021403902e-23 2.129166699136952e-15 2.057100535492079e-15 7.20661636448734e-17
5.529022354014368 1.497251337458568e-23 2.1974170430610677e-15 2.123707137149471e-15 7.370990591159692e-17
5.570647458961463 1.534344970409237e-23 2.2688099696675644e-15 2.1934405072917694e-15 7.536946237579467e-17
5.612585937458331 1.5730637431984427e-23 2.343574469139998e-15 2.266530060411207e-15 7.704440872879049e-17
5.654840148729818 1.615062645276942e-23 2.424259679372102e-15 2.345517683136525e-15 7.8741996235577e-17
5.67608639626678 1.643607917751068e-23 2.4763763916465157e-15 2.3967466299082984e-15 7.962976173821722e-17
5.686739436050992 1.6582352228204764e-23 2.5031040239927296e-15 2.4230287257334384e-15 8.007529825929176e-17
5.6974124697621304 1.6731065762714375e-23 2.5302923418338692e-15 2.4497704131174283e-15 8.052192871644102e-17
5.718818669136295 1.7036051157065545e-23 2.5860963114473107e-15 2.50467786601819e-15 8.141844542912088e-17
5.740305295436557 1.7370811435661228e-23 2.646820744364513e-15 2.5644951454398797e-15 8.23255989246339e-17
5.7835210386641895 1.8237329593865392e-23 2.7997741521237285e-15 2.715571926101298e-15 8.420222602243003e-17
5.827062130521658 1.9222505598810754e-23 2.97323391365312e-15 2.887120390041753e-15 8.611352361136586e-17
5.8489554468988025 1.9916701075133238e-23 3.092182738554087e-15 3.0050387438703715e-15 8.714399468371575e-17
5.870931020387893 2.0655355486677093e-23 3.2189118563239134e-15 3.130731056302581e-15 8.81808000213321e-17
5.892989160043636 2.1441985130345288e-23 3.3540541184977917e-15 3.26483021896521e-15 8.922389953258225e-17
5.915130176081913 2.2333598937301293e-23 3.506650256004618e-15 3.4163455108594928e-15 9.030474514512594e-17
5.95966208400165 2.4831025690021584e-23 3.928128876911029e-15 3.835370336814069e-15 9.275854009696082e-17
6.004529249263818 2.841349246944483e-23 4.528694413751539e-15 4.433179231535181e-15 9.551518221635768e-17
6.027089341400364 3.0902097786147e-23 4.94384703164319e-15 4.8467436014915834e-15 9.710343015160609e-17
6.049734195844842 3.382726774575419e-23 5.432161180580312e-15 5.333376186218306e-15 9.878499436200513e-17
6.095279466722835 4.226883134597095e-23 6.838853433853333e-15 6.735950742511581e-15 1.0290269134175054e-16
6.141167624020661 5.519840380953582e-23 8.99801896103959e-15 8.88979123573937e-15 1.0822772530022132e-16
6.164241091010745 6.345318211376929e-23 1.0382512332148082e-14 1.0270951768609266e-14 1.1156056353881733e-16
6.187401249150058 7.279496629190378e-23 1.1955811605058643e-14 1.184082577035326e-14 1.1498583470538228e-16
6.1990139391386085 7.734908530148132e-23 1.2727620816002131e-14 1.2610891492783038e-14 1.1672932321908818e-16
6.204828454712694 7.974271858797456e-23 1.3133795494293855e-14 1.3016185240751557e-14 1.176102535422955e-16
6.210648424152782 8.148589691833473e-23 1.3433489135402078e-14 1.3315126150670428e-14 1.1836298473165138e-16
6.233982942956859 8.737767130893415e-23 1.4458908483627028e-14 1.4337911801410565e-14 1.2099668221646258e-16
6.239830258556775 8.811399564965061e-23 1.4594428868884305e-14 1.4473059727601803e-14 1.213691412824989e-16
6.245683058788269 8.815211475446644e-23 1.4614437703702345e-14 1.4492695393907208e-14 1.2174230979514008e-16
6.257405133728602 8.793111035200614e-23 1.4605158164075746e-14 1.4482758563607588e-14 1.2239960046815956e-16
6.269149208991335 8.669912636120299e-23 1.4427555734846144e-14 1.4304894743386026e-14 1.2266099146011926e-16
6.280915325867298 8.369728131906296e-23 1.3954160793160467e-14 1.3831728336953308e-14 1.224324562071558e-16
6.304513850009849 7.633059153507841e-23 1.2773786826187529e-14 1.2652255201476839e-14 1.215316247106861e-16
6.32820103803542 6.726012359547204e-23 1.1298150659661449e-14 1.1177992043451192e-14 1.201586162102555e-16
6.3519772230701035 5.895879198365568e-23 9.940928308597935e-15 9.821992835937873e-15 1.189354726600631e-16
6.375842739491607 5.1961920596803646e-23 8.794116701755384e-15 8.676251074274752e-15 1.178656274806322e-16
6.399797922933955 4.638229664521342e-23 7.87930557016526e-15 7.761948155204722e-15 1.1735741496053735e-16
6.42384311029221 4.1730979829460935e-23 7.115787014851646e-15 6.998826104398027e-15 1.1696091045361813e-16
6.447978639727206 3.8349820976830033e-23 6.563815484443501e-15 6.446812054108209e-15 1.1700343033528985e-16
6.472204850670314 3.5526024630011875e-23 6.103350346898182e-15 5.9862168528335926e-15 1.1713349406459095e-16
6.496522083828205 3.369133809964759e-23 5.8098993942597614e-15 5.692279148020577e-15 1.1762024623918487e-16
