Dust emission spectrum from A.P. Jones, M. Kohler, N. Ysard, M. Bocchio, and L. Verstraete (2017), A&A, 602A, 46J 
inside the DustPedia framework.

lambda    nu*dP/dnu     j_nu    j_nu(carb.) j_nu(sil)
 (um)   (erg s-1 H-1) (Jy cm2 sr-1 H-1)
0.9927057738263894 3.363893876135869e-25 8.864051428975804e-18 8.864051428198369e-18 7.774355445723899e-28
1.0001793341362166 3.419405611825625e-25 9.078162032014045e-18 9.078162031077705e-18 9.363411433906792e-28
1.0077091589558085 3.4748384480550727e-25 9.294783044720973e-18 9.294783043594708e-18 1.1262656454258026e-27
1.0114953028030835 3.502518481666933e-25 9.404024219958608e-18 9.404024218723993e-18 1.2346177655936973e-27
1.0152956718711033 3.530170655708541e-25 9.513879981603776e-18 9.513879980250825e-18 1.352953420512355e-27
1.0229392996569957 3.5853535090047096e-25 9.73534349764027e-18 9.735343496017096e-18 1.6231716901413918e-27
1.0267826658714554 3.6128172195896757e-25 9.846773576432741e-18 9.846773574655658e-18 1.777084916935377e-27
1.0306404723013447 3.640240978729921e-25 9.958794255587915e-18 9.958794253642956e-18 1.944958087474758e-27
1.03451277320114 3.6676221530832396e-25 1.0071400758211354e-17 1.007140075608336e-17 2.1279950138187064e-27
1.0383996230291617 3.694958124158643e-25 1.0184588248230317e-17 1.0184588245902819e-17 2.3274975234232217e-27
1.0403485208654093 3.708608344374173e-25 1.0241398336346795e-17 1.0241398333912935e-17 2.4338588222422964e-27
1.0423010764483396 3.7222462888217665e-25 1.0298351831564155e-17 1.0298351829019284e-17 2.5448729310928043e-27
1.0462171883269815 3.7494840597892337e-25 1.0412686557296637e-17 1.0412686554514994e-17 2.781642038449892e-27
1.0471985131304309 3.7562853268673476e-25 1.0441358894227416e-17 1.0441358891383365e-17 2.8440542923463513e-27
1.048180758391296 3.763083243564445e-25 1.0470066536148867e-17 1.047006653324106e-17 2.907807606280823e-27
1.0501480137395462 3.776668866111889e-25 1.0527587418849549e-17 1.0527587415810102e-17 3.039447694893254e-27
1.0521189612883777 3.7902406086926095e-25 1.058524857107195e-17 1.0585248567895161e-17 3.1767882328582492e-27
1.0531058218030118 3.797010750582603e-25 1.061410240695413e-17 1.0614102403706456e-17 3.247673793881534e-27
1.0540936079674168 3.803743147644622e-25 1.0642895448042906e-17 1.0642895444722819e-17 3.320088866748939e-27
1.058054026499678 3.8306346462382237e-25 1.0758407982246983e-17 1.0758407978621466e-17 3.625521658712094e-27
1.0590464539527713 3.837347802931395e-25 1.0787370800970456e-17 1.0787370797264467e-17 3.705984518429766e-27
1.06003981227728 3.8440569944789554e-25 1.0816367330164791e-17 1.0816367326376633e-17 3.7881560362793525e-27
1.0620293250338977 3.857463326795001e-25 1.0874461191227797e-17 1.0874461187270033e-17 3.957763775308326e-27
1.0660195594769086 3.8842267050621295e-25 1.0991049812239111e-17 1.0991049807920062e-17 4.3190467300403326e-27
1.070024785945596 3.910922315850794e-25 1.1108168534180773e-17 1.1108168529468995e-17 4.71177691075644e-27
1.0740450607676866 3.9375477134453715e-25 1.1225811998779479e-17 1.1225811993640929e-17 5.138548366410905e-27
1.07808044048254 3.9641004720014855e-25 1.1343974801767788e-17 1.1343974796165627e-17 5.6021564558429554e-27
1.0861967418109137 4.0169315237609126e-25 1.1581701225721549e-17 1.1581701219069387e-17 6.652159732942105e-27
1.0902777775684922 4.0430983127144503e-25 1.1700943845933842e-17 1.1700943838688546e-17 7.245290390245676e-27
1.0943741465085532 4.0691811017310274e-25 1.1820674992344421e-17 1.182067498445566e-17 7.888758865592677e-27
1.1026131145906286 4.121085472932249e-25 1.2061580197912923e-17 1.2061580188569748e-17 9.343176577311393e-27
1.1109141095355224 4.172626449284948e-25 1.2304371139494578e-17 1.2304371128443051e-17 1.1051521460054396e-26
1.1192775983109025 4.223738340974541e-25 1.2548859322570535e-17 1.2548859309515044e-17 1.3055489852401272e-26
1.1277040513999907 4.274183819441979e-25 1.2794336525038158e-17 1.2794336509634993e-17 1.5403165206239157e-26
1.1361939428280308 4.324206766799709e-25 1.3041524295794106e-17 1.3041524277644195e-17 1.8149915889965114e-26
1.1447477501889525 4.373790647531453e-25 1.3290374638427374e-17 1.3290374617067954e-17 2.1359418904933074e-26
1.1533659546722406 4.422946315005882e-25 1.3540921759640896e-17 1.3540921734536049e-17 2.5104843576774545e-26
1.1707974979042381 4.520132157003393e-25 1.404760708260099e-17 1.404760704804933e-17 3.455166072723433e-26
1.1884924949847024 4.615397746205964e-25 1.4560457140627032e-17 1.4560457093309414e-17 4.7317619296843274e-26
1.2064549276569216 4.709488843203397e-25 1.508183923246888e-17 1.5081839167985243e-17 6.448364196115048e-26
1.2246888378427687 4.801379864487504e-25 1.5608503261252885e-17 1.56085031738021e-17 8.745078587716177e-26
1.2431983285522175 4.89085711223497e-25 1.6139676500269865e-17 1.6139676382241072e-17 1.1802879761844606e-25
1.2619875648066055 4.977888905310102e-25 1.6675148436462613e-17 1.6675148277919237e-17 1.5854337728184377e-25
1.3004222497298317 5.143177185172532e-25 1.7753554218779138e-17 1.7753553936704366e-17 2.8207476973081805e-25
1.3400274889804893 5.296611893647497e-25 1.8840017068785445e-17 1.884001657605041e-17 4.927350346178442e-25
1.3808389325824078 5.437639657515468e-25 1.993071508224507e-17 1.9930714236778404e-17 8.454666700779342e-25
1.4228933163050095 5.566959428708529e-25 2.1026153405237816e-17 2.1026151979543452e-17 1.4256943668217902e-24
1.466228494730424 5.6876845370364455e-25 2.213637936541232e-17 2.2136377001565654e-17 2.3638466605716635e-24
1.5108834753276823 5.797500547153496e-25 2.32509767913494e-17 2.3250972935981278e-17 3.855368115319073e-24
1.5568984535646726 5.894538859871107e-25 2.436012741072259e-17 2.4360121218901987e-17 6.191820603764856e-24
1.6043148490894465 5.978994062243089e-25 2.5461686022905086e-17 2.5461676212781218e-17 9.810123876169336e-24
1.6531753430134553 6.051139676996109e-25 2.655372969384239e-17 2.655371437822348e-17 1.531561890972648e-23
1.7035239163302658 6.111835206336045e-25 2.7636898530915052e-17 2.7636874963992878e-17 2.3566922173526326e-23
1.755405889504358 6.16595240534827e-25 2.8730762510966016e-17 2.873072675099239e-17 3.5759973628251265e-23
1.8088679632656115 6.212315114192948e-25 2.9828387539392136e-17 2.9828334012503136e-17 5.352688899595735e-23
1.8639582606462262 6.250131262639462e-25 3.0923935188725535e-17 3.0923856120799653e-17 7.906792588526105e-23
1.9207263702978936 6.280008296448138e-25 3.2018069981781593e-17 3.201795467714514e-17 1.1530463645986688e-22
1.979223391128241 6.30333405606592e-25 3.3115748215804014e-17 3.31155821502338e-17 1.6606557021373904e-22
2.039501978296691 6.32176269239423e-25 3.422407769362741e-17 3.42238413984972e-17 2.3629513020732836e-22
2.1016163906111602 6.339901697569762e-25 3.5367584838187464e-17 3.5367252521107e-17 3.323170804578267e-22
2.1656225393682647 6.360426566243662e-25 3.656271512977609e-17 3.6562253042526913e-17 4.620872491791104e-22
2.231578038680979 6.3835335001273785e-25 3.781313225678122e-17 3.781249677195084e-17 6.354848303803111e-22
2.299542257339062 6.410823102729945e-25 3.913133109355955e-17 3.9130466463074926e-17 8.64630484628301e-22
2.369576372248914 6.44582004877336e-25 4.054322771902887e-17 4.054206348011914e-17 1.1642389097137142e-21
2.4417434235010123 6.49268312103769e-25 4.208173790421185e-17 4.208018597337245e-17 1.5519308393854602e-21
2.5161083711144245 6.55853198161235e-25 4.380315740859827e-17 4.380110877938182e-17 2.0486292164442996e-21
2.5927381535095444 6.655011988967968e-25 4.580120813031319e-17 4.579852924848904e-17 2.678881824157829e-21
2.6717017477616296 6.796002724163337e-25 4.8195995137998057e-17 4.8192524123107236e-17 3.471014890800389e-21
2.753070231689431 7.0023929598330335e-25 5.1172095579890844e-17 5.116763819211539e-17 4.457387775445379e-21
2.836916847834745 7.321535872413702e-25 5.51338390521755e-17 5.5128164289463066e-17 5.674762712425078e-21
2.9233170693905177 7.8577186472456175e-25 6.09735989569957e-17 6.096643577284419e-17 7.163184151501449e-21
2.967498994190263 8.310160015244058e-25 6.545900503782884e-17 6.545099563700717e-17 8.009400821687143e-21
3.0123486681368425 8.837880445200205e-25 7.066799892903515e-17 7.065905527046367e-17 8.943658571495489e-21
3.0578761833420214 1.001318187640982e-24 8.127583389291736e-17 8.126585751802214e-17 9.976374895228128e-21
3.1040917844459814 1.152622365464306e-24 9.497100412041872e-17 9.495989683160772e-17 1.1107288811007078e-20
3.127460860933648 1.3124293172422127e-24 1.0895250994537792e-16 1.0894079431731911e-16 1.1715628058796927e-20
3.1510058709225794 1.5252587850404222e-24 1.2757400226638036e-16 1.275616504556735e-16 1.2351810706848642e-20
3.162844764501044 1.7232889022599594e-24 1.44678967618802e-16 1.446662857809788e-16 1.2681837823196852e-20
3.1747281389236908 1.953537983663279e-24 1.6462577566966656e-16 1.646127565317099e-16 1.30191379566199e-20
3.1986289994194426 2.5956250608111163e-24 2.2038156459561874e-16 2.2036784687210758e-16 1.371772351111093e-20
3.2227097969389145 4.108876584472103e-24 3.514906114539381e-16 3.5147615129241577e-16 1.4460161522464547e-20
3.2348180950136065 5.543780252154491e-24 4.760201139552906e-16 4.760052570146406e-16 1.4856940650044088e-20
3.240889293275058 6.6165392975593524e-24 5.691995202337174e-16 5.691844539855513e-16 1.506624816609011e-20
3.2469718861334385 7.857570440227316e-24 6.772300874407933e-16 6.772148046042728e-16 1.5282836520576435e-20
3.2714166318528037 1.447675627161411e-23 1.2571194711424162e-15 1.2571032914493298e-15 1.6179693086223955e-20
3.2744851364798273 1.4890553068726326e-23 1.294265233117651e-15 1.2942489472330196e-15 1.6285884631552244e-20
3.2775565192852394 1.5316229914967203e-23 1.3325131377771774e-15 1.332496745122646e-15 1.6392654531576348e-20
3.283707930232385 1.4906925220259895e-23 1.2993376644249213e-15 1.2993210798293003e-15 1.6584595621518067e-20
3.2898708863219004 1.3608784607973546e-23 1.1884136391520032e-15 1.1883968789530107e-15 1.6760198992533588e-20
3.29141343181113 1.33026467193522e-23 1.1622242364406178e-15 1.1622074321215366e-15 1.6804319081279512e-20
3.292184975758714 1.3152220812514697e-23 1.1493511992423157e-15 1.1493343728302358e-15 1.6826412079435867e-20
3.295272960557952 1.2202778453279498e-23 1.0673812126045345e-15 1.067364300080606e-15 1.691252392855826e-20
3.3076538914384823 8.913467639297188e-24 7.825934062065894e-16 7.825761473279755e-16 1.725887861385844e-20
3.310756385682612 8.243966378441727e-24 7.244907923648779e-16 7.244734460829591e-16 1.73462819187565e-20
3.313861789986515 7.626230393272889e-24 6.708319611892715e-16 6.70814527176975e-16 1.7434012296673877e-20
3.3200813396944477 6.759955903873087e-24 5.957472136333369e-16 5.957295913434115e-16 1.762228992541599e-20
3.345076488085796 5.214882279300796e-24 4.630415837878821e-16 4.630231234814524e-16 1.846030642962212e-20
3.3482140837626964 5.27287190261728e-24 4.68629768706184e-16 4.686111949121645e-16 1.857379401952886e-20
3.3513546224236106 5.331501847807187e-24 4.742849917736125e-16 4.742663039267227e-16 1.868784688985762e-20
3.3576445397418455 5.759783117278596e-24 5.133461163801524e-16 5.133271902339237e-16 1.8926146228773937e-20
3.3702598118196083 7.339231799128685e-24 6.565736044689689e-16 6.565541783531828e-16 1.9426115786382818e-20
3.382922481734668 7.699131485170622e-24 6.913583553094656e-16 6.913384413928814e-16 1.9913916584044295e-20
3.389271646505754 7.885578013958209e-24 7.094296642452112e-16 7.094095027093472e-16 2.0161535863998397e-20
3.395632727569191 8.086508735153867e-24 7.28871894075735e-16 7.288514773337395e-16 2.0416741995394955e-20
3.421196662673239 9.051348636242586e-24 8.219790826614083e-16 8.219576073690582e-16 2.1475292350077308e-20
3.4276182099114902 8.857123561490457e-24 8.058506820922845e-16 8.058289685580528e-16 2.1713534231719044e-20
3.4340518103208963 8.005695136604351e-24 7.29752050587858e-16 7.297301107436979e-16 2.1939844160078958e-20
3.4469541582030403 6.793062890278805e-24 6.215421361083916e-16 6.215197598959087e-16 2.237621248284003e-20
3.472904465399547 6.453381840479421e-24 5.949077578808539e-16 5.948843791886102e-16 2.3378692243726812e-20
3.4990501388274233 5.933797462426346e-24 5.511277986602382e-16 5.511033894060093e-16 2.4409254228913724e-20
3.5253949054701885 4.084290579687928e-24 3.8220277709488957e-16 3.821773592382766e-16 2.5417856612960792e-20
3.5519380250092896 2.3458105821863006e-24 2.2117078208473443e-16 2.2114434440504718e-16 2.643767968729293e-20
3.578680990867387 1.656647825421176e-24 1.5737024257269313e-16 1.5734268597619227e-16 2.755659650086948e-20
3.605625307711299 1.3780660211210175e-24 1.3189248499258794e-16 1.3186374608023516e-16 2.8738912352784544e-20
3.660119384959845 1.1751841702040466e-24 1.1417489404388645e-16 1.1414365407161719e-16 3.123997226929767e-20
3.715437065384467 1.0316322201652774e-24 1.0174292993377334e-16 1.0170902812781698e-16 3.390180595637693e-20
3.8285932144167436 9.595424912955026e-25 9.751532435393716e-17 9.747561223244956e-17 3.9712121487585267e-20
3.94519561050918 9.465208445881643e-25 9.91215664864092e-17 9.907538088899119e-17 4.6185597418007194e-20
4.06534921144712 9.577617694464625e-25 1.0335340467813156e-16 1.0330005281144384e-16 5.335186668771307e-20
4.189162171576248 9.830574098628334e-25 1.093139247554341e-16 1.0925266181266839e-16 6.126294276570984e-20
4.316745939156006 1.0185984597249737e-24 1.1671560815597968e-16 1.1664567249821259e-16 6.993565776711368e-20
4.448215356677963 1.063100774901197e-24 1.2552483895330657e-16 1.2544553388136835e-16 7.930507193820547e-20
4.58368876423945 1.1167101748488324e-24 1.358704542337257e-16 1.3578102460999565e-16 8.942962373005272e-20
4.723288106065518 1.1806304246377767e-24 1.480225360977375e-16 1.4792211601332796e-16 1.0042008440958283e-19
4.867139040275056 1.2572758050201492e-24 1.624328050157765e-16 1.623207229003541e-16 1.1208211542241274e-19
4.940699165968905 1.3034166937334089e-24 1.7093898583481226e-16 1.7082077274978853e-16 1.1821308502369324e-19
5.015371051989984 1.351165011380377e-24 1.7987917728915452e-16 1.7975464038971954e-16 1.2453689943494896e-19
5.091171501069577 1.4093443758871347e-24 1.9046022221509884e-16 1.903290444820089e-16 1.3117773308994564e-19
5.129500256944802 1.439189147700602e-24 1.9595771402323166e-16 1.9582314257340804e-16 1.345714498236482e-19
5.168117569889187 1.4702910028117367e-24 2.0169963745835953e-16 2.0156159746057596e-16 1.3803999778353414e-19
5.20702561229733 1.5084362027749816e-24 2.0849041507149383e-16 2.0834862703871533e-16 1.4178803277849016e-19
5.246226572918644 1.5475415449162772e-24 2.1550571550858773e-16 2.1536011758441324e-16 1.4559792417452186e-19
5.265937586045735 1.5674638290876064e-24 2.1910014664103211e-16 2.1895262057860222e-16 1.475260624298521e-19
5.285722656980489 1.5876377881813524e-24 2.227538567564763e-16 2.2260438709823344e-16 1.494696582427847e-19
5.305582063971359 1.6080674800697424e-24 2.264679447086601e-16 2.263165160015198e-16 1.5142870714027545e-19
5.3255160863122235 1.6300122765742624e-24 2.3042097462283266e-16 2.3026755945688005e-16 1.5341516595254177e-19
5.365609099470188 1.684656516536325e-24 2.3993843902678994e-16 2.3978091107715043e-16 1.5752794963951004e-19
5.406003951863644 1.7413629107353804e-24 2.498820625970022e-16 2.497203536421134e-16 1.6170895488875223e-19
5.446702915881641 1.8002311957596073e-24 2.602743700952527e-16 2.6010841182549507e-16 1.6595826975748505e-19
5.487708281020852 1.8638249328697988e-24 2.714973325214151e-16 2.713270422865144e-16 1.702902349006733e-19
5.529022354014368 1.952222468382336e-24 2.865148166206798e-16 2.8633999979081187e-16 1.748168298678534e-19
5.570647458961463 2.045804348089799e-24 3.0250963052314147e-16 3.023302110133841e-16 1.7941950975739044e-19
5.612585937458331 2.1449440816412045e-24 3.1955705604443064e-16 3.193729575405553e-16 1.8409850387535985e-19
5.654840148729818 2.2539019760817858e-24 3.3831775490883416e-16 3.3812888267915286e-16 1.8887222968125887e-19
5.67608639626678 2.328129959447176e-24 3.507725903479819e-16 3.5058122296966495e-16 1.9136737831684357e-19
5.686739436050992 2.366387197228574e-24 3.5720585561032866e-16 3.5701323259148653e-16 1.926230188419907e-19
5.6974124697621304 2.4054309272120712e-24 3.6378097727036894e-16 3.635870932246651e-16 1.938840457038833e-19
5.718818669136295 2.485953655962839e-24 3.773712300369633e-16 3.771748077521247e-16 1.9642228483847806e-19
5.740305295436557 2.5747151987943966e-24 3.923138319842227e-16 3.921148341366664e-16 1.989978475561604e-19
5.7835210386641895 2.8050255837095226e-24 4.306243457900441e-16 4.3042000808651996e-16 2.0433770352399038e-19
5.827062130521658 3.0702963788551685e-24 4.748969519948182e-16 4.746871412586386e-16 2.098107361795262e-19
5.8489554468988025 3.2564481821652936e-24 5.055823662714682e-16 5.053696158489676e-16 2.1275042250067642e-19
5.870931020387893 3.4561836891942176e-24 5.386085299745346e-16 5.383928109095744e-16 2.1571906496050813e-19
5.892989160043636 3.670595954533732e-24 5.741715332701073e-16 5.739528164633726e-16 2.1871680673475574e-19
5.915130176081913 3.91444540238945e-24 6.14616166921449e-16 6.143943460042861e-16 2.218209171628439e-19
5.95966208400165 4.596374887470681e-24 7.27120705764393e-16 7.268919137418197e-16 2.2879202257318464e-19
6.004529249263818 5.5793001944699864e-24 8.89258708710679e-16 8.890221215103624e-16 2.3658720031661663e-19
6.027089341400364 6.262609214493212e-24 1.0019184519341317e-15 1.0016774122090216e-15 2.410397251101056e-19
6.049734195844842 7.070042891428391e-24 1.1353448001923108e-15 1.135099052426281e-15 2.457477660298393e-19
6.095279466722835 9.402508912934058e-24 1.5212717815579005e-15 1.5210146437095892e-15 2.571378483108e-19
6.141167624020661 1.2992008317143477e-23 2.1178572044042615e-15 2.117585507893637e-15 2.716965106249805e-19
6.164241091010745 1.528436518550773e-23 2.5009007388008233e-15 2.500620015254234e-15 2.8072354658972597e-19
6.187401249150058 1.7895431980075498e-23 2.939137473970093e-15 2.9388474478906314e-15 2.900260794624843e-19
6.1990139391386085 1.9170364549718926e-23 3.15444106342495e-15 3.154146296767796e-15 2.947666571531734e-19
6.204828454712694 1.984192849996518e-23 3.268007860096241e-15 3.2677106955285718e-15 2.9716456767008706e-19
6.210648424152782 2.033216578465529e-23 3.3518920266790937e-15 3.351592792133985e-15 2.9923454510848537e-19
6.233982942956859 2.1997629518366288e-23 3.640079980367587e-15 3.639773412772935e-15 3.0656759465298997e-19
6.239830258556775 2.2210480230317223e-23 3.6787490054811865e-15 3.678441333883101e-15 3.076715980854426e-19
6.245683058788269 2.2228865184668855e-23 3.685247556115845e-15 3.684938777428364e-15 3.087786874794116e-19
6.257405133728602 2.218294512773608e-23 3.684536915758477e-15 3.68422614815099e-15 3.1076760748555257e-19
6.269149208991335 2.1855182676981292e-23 3.636909383074161e-15 3.6365976392379134e-15 3.1174383624794793e-19
6.280915325867298 2.1033485306090696e-23 3.5067403788528864e-15 3.506428915146119e-15 3.114637067673099e-19
6.304513850009849 1.900722765942516e-23 3.180825268028141e-15 3.180515505416407e-15 3.097626117340759e-19
6.32820103803542 1.6495837423362255e-23 2.7709205172940663e-15 2.770613669756966e-15 3.0684753710039853e-19
6.3519772230701035 1.4192743095012846e-23 2.393011065236602e-15 2.3927067480849806e-15 3.043171516214114e-19
6.375842739491607 1.2255090525916993e-23 2.0740706855650805e-15 2.0737685078158588e-15 3.0217774922174013e-19
6.399797922933955 1.0702248320087627e-23 1.8180704902731588e-15 1.8177689925011475e-15 3.0149777201072147e-19
6.42384311029221 9.411118926025944e-24 1.6047434812868385e-15 1.6044423726252205e-15 3.011086616177397e-19
6.447978639727206 8.47028049437024e-24 1.4497423156190903e-15 1.4494404469227473e-15 3.018686963427897e-19
6.472204850670314 7.686473927393278e-24 1.3205317453827345e-15 1.320228882286581e-15 3.0286309615340164e-19
