Dust emission spectrum from A.P. Jones, M. Kohler, N. Ysard, M. Bocchio, and L. Verstraete (2017), A&A, 602A, 46J 
inside the DustPedia framework.

lambda    nu*dP/dnu     j_nu    j_nu(carb.) j_nu(sil)
 (um)   (erg s-1 H-1) (Jy cm2 sr-1 H-1)
0.9927057738263894 3.291539766372783e-21 8.673394240118681e-14 8.673387687727161e-14 6.552391520564646e-20
1.0001793341362166 3.3467674604825996e-21 8.885315384831445e-14 8.885307501613818e-14 7.883217627281586e-20
1.0077091589558085 3.4022393828407754e-21 9.100589107217452e-14 9.100579635598926e-14 9.471618525098654e-20
1.0114953028030835 3.4300649951482436e-21 9.209491529950381e-14 9.209481153096949e-14 1.0376853430905944e-19
1.0152956718711033 3.4579494011558684e-21 9.319242267185103e-14 9.31923090240109e-14 1.1364784012735142e-19
1.0229392996569957 3.513864620156054e-21 9.541229057471862e-14 9.541215439263917e-14 1.3618207944896995e-19
1.0267826658714554 3.541832387764803e-21 9.65330362656905e-14 9.653288726225215e-14 1.4900343834283733e-19
1.0306404723013447 3.569854963015523e-21 9.766235616457701e-14 9.766219318739615e-14 1.629771808211786e-19
1.03451277320114 3.597931784827885e-21 9.880028910624231e-14 9.880011090466354e-14 1.7820157879211687e-19
1.0383996230291617 3.626062328224026e-21 9.994687499683147e-14 9.994668021403331e-14 1.9478279816967866e-19
1.0403485208654093 3.640147591602106e-21 1.0052342557348592e-13 1.0052322195578982e-13 2.0361769610444272e-19
1.0423010764483396 3.6542461054265655e-21 1.0110215486229431e-13 1.0110194202680343e-13 2.1283549085094146e-19
1.0462171883269815 3.682482666971531e-21 1.0226617089821087e-13 1.0226593841478322e-13 2.324834276458367e-19
1.0471985131304309 3.689550005978873e-21 1.0255854499411084e-13 1.0255830733401518e-13 2.376600956713693e-19
1.048180758391296 3.696620612168585e-21 1.0285146849859105e-13 1.0285122555164111e-13 2.4294694995153896e-19
1.0501480137395462 3.7107716028365694e-21 1.0343896652095071e-13 1.0343871266077597e-13 2.5386017472910253e-19
1.0521189612883777 3.724935594073118e-21 1.0402867059170192e-13 1.0402840535025512e-13 2.652414468332205e-19
1.0531058218030118 3.732013174306619e-21 1.0432409234057196e-13 1.0432382122664916e-13 2.7111392281904113e-19
1.0540936079674168 3.739063596297463e-21 1.0461921687225124e-13 1.0461893976029384e-13 2.7711195737377534e-19
1.058054026499678 3.767296317902964e-21 1.0580521120127828e-13 1.058049088036082e-13 3.023976700630604e-19
1.0590464539527713 3.774362235144308e-21 1.0610308749334182e-13 1.0610277843775706e-13 3.090555848032897e-19
1.06003981227728 3.7814312390959616e-21 1.0640151635255896e-13 1.064012004990535e-13 3.158535054701462e-19
1.0620293250338977 3.795578492473102e-21 1.070000347843907e-13 1.0699970490379282e-13 3.298805978907172e-19
1.0660195594769086 3.823909888440043e-21 1.0820373591115082e-13 1.0820337616973268e-13 3.597414181451249e-19
1.070024785945596 3.852290319879489e-21 1.0941636437620074e-13 1.0941597220143952e-13 3.9217476122489015e-19
1.0740450607676866 3.880719647737418e-21 1.1063797153927332e-13 1.1063754414906041e-13 4.2739021288319777e-19
1.07808044048254 3.909197781075638e-21 1.1186861038680547e-13 1.118681447734229e-13 4.656133825569297e-19
1.0861967418109137 3.966257256204424e-21 1.143559611459383e-13 1.1435540907354273e-13 5.520723955706308e-19
1.0902777775684922 3.9947407036455455e-21 1.156099432591858e-13 1.1560934240883776e-13 6.008503480683099e-19
1.0943741465085532 4.0232714263761894e-21 1.1687310726216593e-13 1.1687245353953726e-13 6.537226286681608e-19
1.1026131145906286 4.080475463091906e-21 1.1942722946893857e-13 1.1942645639728836e-13 7.730716502222712e-19
1.1109141095355224 4.1378714685498284e-21 1.2201884567281964e-13 1.2201793265982602e-13 9.130129935683303e-19
1.1192775983109025 4.19541820146157e-21 1.2464719298247471e-13 1.2464611610196677e-13 1.0768805079228713e-18
1.1277040513999907 4.252916152781017e-21 1.273067391812711e-13 1.273054706713216e-13 1.2685099494884878e-18
1.1361939428280308 4.31061170536856e-21 1.300052248123741e-13 1.3000373250381084e-13 1.4923085632655524e-18
1.1447477501889525 4.368511094648392e-21 1.327433197854861e-13 1.3274156645228297e-13 1.7533332031120076e-18
1.1533659546722406 4.4266414813325744e-21 1.3552234571182122e-13 1.3552028833067288e-13 2.0573811483260924e-18
1.1707974979042381 4.543792617474879e-21 1.412113874949747e-13 1.4120856544171398e-13 2.822053260741524e-18
1.1884924949847024 4.661978162075601e-21 1.4707407021473153e-13 1.4707021874519236e-13 3.851469539224095e-18
1.2064549276569216 4.782043569983624e-21 1.5314191141834653e-13 1.5313668107314654e-13 5.230345199991842e-18
1.2246888378427687 4.903326990876348e-21 1.5939916750630177e-13 1.5939209955550184e-13 7.067950799907902e-18
1.2431983285522175 5.025830788933589e-21 1.658508543943477e-13 1.658413496664483e-13 9.504727899417472e-18
1.2619875648066055 5.149848239679632e-21 1.7251185282642203e-13 1.724991325617815e-13 1.2720264640560159e-17
1.3004222497298317 5.402272138741468e-21 1.864791506624504e-13 1.8645668953055387e-13 2.2461131896524204e-17
1.3400274889804893 5.6627056280658176e-21 2.0142210309239547e-13 2.0138317096690585e-13 3.8932125489553197e-17
1.3808389325824078 5.933906473377353e-21 2.174969411261274e-13 2.1743066898981873e-13 6.627213630857905e-17
1.4228933163050095 6.220420077330586e-21 2.3494244652922917e-13 2.348316014501872e-13 1.1084507904197374e-16
1.466228494730424 6.5298846167703005e-21 2.5414208918927453e-13 2.5395983291436864e-13 1.8225627490589065e-16
1.5108834753276823 6.866118583495469e-21 2.7536688014611615e-13 2.750721523160966e-13 2.9472783001947856e-16
1.5568984535646726 7.234487395169067e-21 2.9897679680652523e-13 2.9850755884303685e-13 4.692379634884169e-16
1.6043148490894465 7.64379358793113e-21 3.255127373161869e-13 3.247758256262901e-13 7.369116898967718e-16
1.6531753430134553 8.10476483697666e-21 3.556548785865602e-13 3.5451471302309406e-13 1.1401655634661416e-15
1.7035239163302658 8.630651028855703e-21 3.9026645628950877e-13 3.885280500694749e-13 1.7384062200338493e-15
1.755405889504358 9.241163140566433e-21 4.305995993196618e-13 4.27986343846314e-13 2.6132554733478147e-15
1.8088679632656115 9.953074552174967e-21 4.778961779843737e-13 4.740217081643176e-13 3.874469820056053e-15
1.8639582606462262 1.0786292387928632e-20 5.336761624908448e-13 5.280083710100843e-13 5.667791480760447e-15
1.9207263702978936 1.1765629670696275e-20 5.998602810590892e-13 5.916766064868985e-13 8.183674572190688e-15
1.979223391128241 1.2920499074005844e-20 6.788026627678891e-13 6.671350620619261e-13 1.1667600705963038e-14
2.039501978296691 1.428416765913453e-20 7.733008775276791e-13 7.568698024049796e-13 1.643107512269957e-14
2.1016163906111602 1.5897490742204023e-20 8.86852634883482e-13 8.639872516876825e-13 2.2865383195799792e-14
2.1656225393682647 1.7803387707476653e-20 1.023422228546942e-12 9.919689602081892e-13 3.1453268338753117e-14
2.231578038680979 2.0045043136044257e-20 1.187376657741361e-12 1.1445947361609705e-12 4.278192158039038e-14
2.299542257339062 2.2671204127025348e-20 1.3838385192792523e-12 1.3262823471118129e-12 5.755617216743968e-14
2.369576372248914 2.573516265580244e-20 1.618702588724925e-12 1.5420904175000398e-12 7.661217122488548e-14
2.4417434235010123 2.9292872256180195e-20 1.898590998152885e-12 1.7976645131233351e-12 1.0092648502954975e-13
2.5161083711144245 3.3405055985633244e-20 2.2310586114150593e-12 2.0994299308279467e-12 1.3162868058711242e-13
2.5927381535095444 3.8135726088761746e-20 2.6245817899162894e-12 2.454575069247369e-12 1.700067206689208e-13
2.6717017477616296 4.354649546949725e-20 3.088236966801871e-12 2.8707367964940646e-12 2.175001703078068e-13
2.753070231689431 4.969835327846965e-20 3.6318568505325218e-12 3.3561594495832122e-12 2.7569740094930884e-13
2.836916847834745 5.666591100109314e-20 4.2671500506480585e-12 3.920811263158028e-12 3.4633878749002877e-13
2.9233170693905177 6.454039979575311e-20 5.0081462958079465e-12 4.576936351262917e-12 4.3120994454502983e-13
2.967498994190263 6.880078660097622e-20 5.419427578360082e-12 4.940843111923998e-12 4.785844664360826e-13
3.0123486681368425 7.332261115066131e-20 5.862901448370537e-12 5.332418663106622e-12 5.304827852639161e-13
3.0578761833420214 7.846903969549571e-20 6.369240781547173e-12 5.781803561931628e-12 5.874372196155459e-13
3.1040917844459814 8.398387482307521e-20 6.919901227717418e-12 6.2706968096516756e-12 6.492044180657423e-13
3.127460860933648 8.728569507332939e-20 7.246101131411288e-12 6.563908573038448e-12 6.821925583728402e-13
3.1510058709225794 9.090886977362474e-20 7.603698777074816e-12 6.887181442687525e-12 7.165173343872913e-13
3.162844764501044 9.325641528486469e-20 7.829355756629352e-12 7.095098523091631e-12 7.342572335377194e-13
3.1747281389236908 9.576298086754523e-20 8.070001780152949e-12 7.317660251614051e-12 7.523415285388989e-13
3.1986289994194426 1.0172054390904854e-19 8.63658351764726e-12 7.846929786977223e-12 7.896537306700362e-13
3.2227097969389145 1.1232292922029873e-19 9.608576519708863e-12 8.779446895577464e-12 8.291296241313989e-13
3.2348180950136065 1.2118070118330814e-19 1.0405255721318014e-11 9.55507477000752e-12 8.501809513104932e-13
3.240889293275058 1.2748748780877053e-19 1.0967337097706271e-11 1.0106051984555606e-11 8.612851131506658e-13
3.2469718861334385 1.3469064737213646e-19 1.1608748479084608e-11 1.0735973871436123e-11 8.727746076484842e-13
3.2714166318528037 1.714779158027265e-19 1.4890644201091617e-11 1.3970439431817584e-11 9.202047692740316e-13
3.2744851364798273 1.7393738348979709e-19 1.5118384599367498e-11 1.4192604579660669e-11 9.257800197068316e-13
3.2775565192852394 1.7645347035790997e-19 1.5351464999132866e-11 1.4420083160216797e-11 9.313818389160697e-13
3.283707930232385 1.7500369425802767e-19 1.525390970995924e-11 1.4312539011054061e-11 9.41370698905174e-13
3.2898708863219004 1.689665041982404e-19 1.4755329291593807e-11 1.3804894813085128e-11 9.504344785086824e-13
3.29141343181113 1.6754737430439236e-19 1.463826133826964e-11 1.3685551567820452e-11 9.527097704491895e-13
3.292184975758714 1.6685077446263283e-19 1.4580817981755724e-11 1.3626969162210227e-11 9.538488195454957e-13
3.295272960557952 1.6235403702596685e-19 1.4201163249460233e-11 1.324288877990131e-11 9.582744695589183e-13
3.3076538914384823 1.4678940257458684e-19 1.2887960466633162e-11 1.191192362183132e-11 9.760368448018437e-13
3.310756385682612 1.4363543303968505e-19 1.2622873980505441e-11 1.1642362679526983e-11 9.805113009784656e-13
3.313861789986515 1.4073220272724106e-19 1.237933483379658e-11 1.1394335521929997e-11 9.84999311866584e-13
3.3200813396944477 1.3690104881336528e-19 1.2064933489775464e-11 1.1070268428241762e-11 9.946650615337069e-13
3.345076488085796 1.3193484565646248e-19 1.171480325300252e-11 1.0677029719833146e-11 1.0377735331693748e-12
3.3482140837626964 1.3263671368189087e-19 1.178817039417171e-11 1.0744555643480474e-11 1.0436147506912368e-12
3.3513546224236106 1.333425384657025e-19 1.1862016850897183e-11 1.0812535990494807e-11 1.0494808604023784e-12
3.3576445397418455 1.3639527174101626e-19 1.2156357559856974e-11 1.1094607229952857e-11 1.0617503299041163e-12
3.3702598118196083 1.4619297854728657e-19 1.3078541937351278e-11 1.1991058097966065e-11 1.0874838393852138e-12
3.382922481734668 1.4971733958371567e-19 1.3444157156592907e-11 1.2331705534437285e-11 1.1124516221556247e-12
3.389271646505754 1.5151535410493223e-19 1.3631148737656253e-11 1.2506050496902403e-11 1.1250982407538528e-12
3.395632727569191 1.534450223521337e-19 1.3830661381974642e-11 1.2692529977866238e-11 1.1381314041084023e-12
3.421196662673239 1.622471749157884e-19 1.473413403475386e-11 1.3542099315545843e-11 1.1920347192080184e-12
3.4276182099114902 1.6197123126548737e-19 1.4736683561932354e-11 1.3532668416126771e-11 1.2040151458055818e-12
3.4340518103208963 1.5814181121060074e-19 1.4415276755537683e-11 1.3199954044748668e-11 1.215322710789014e-12
3.4469541582030403 1.5300419734926884e-19 1.3999363349057907e-11 1.2762385447987207e-11 1.2369779010707011e-12
3.472904465399547 1.541482029276092e-19 1.4210217844201548e-11 1.2923281534895104e-11 1.286936309306446e-12
3.4990501388274233 1.544095369535047e-19 1.43414716683866e-11 1.300351933990264e-11 1.337952328483959e-12
3.5253949054701885 1.4773172944873065e-19 1.3824549492423725e-11 1.243720818913475e-11 1.3873413032889773e-12
3.5519380250092896 1.4149435431108895e-19 1.3340555815206359e-11 1.1903712939969487e-11 1.436842875236872e-12
3.578680990867387 1.4106908813332365e-19 1.3400601068248015e-11 1.1909519902289038e-11 1.4910811659589757e-12
3.605625307711299 1.429444091202534e-19 1.3680979754025684e-11 1.2132858539376411e-11 1.5481212146492753e-12
3.660119384959845 1.48722082442582e-19 1.4449078225687524e-11 1.2781502204559909e-11 1.6675760211276184e-12
3.715437065384467 1.5492684503896902e-19 1.527939010777993e-11 1.3486440328116519e-11 1.7929497796634123e-12
3.8285932144167436 1.6889073726241597e-19 1.716384128261405e-11 1.5103373184851428e-11 2.0604680977626143e-12
3.94519561050918 1.8359505669541743e-19 1.9226443583214505e-11 1.6877159321822222e-11 2.349284261392286e-12
4.06534921144712 1.9874733151882262e-19 2.1447100979020517e-11 1.8788723221461227e-11 2.658377757559291e-12
4.189162171576248 2.1418329907327565e-19 2.381673420480453e-11 2.082909034881187e-11 2.9876438559926588e-12
4.316745939156006 2.2974790560718966e-19 2.6325551810421922e-11 2.2990486097709733e-11 3.335065712712183e-12
4.448215356677963 2.452650084067644e-19 2.895948475251725e-11 2.526456833239439e-11 3.694916420122851e-12
4.58368876423945 2.6061493368430966e-19 3.170909535643198e-11 2.7642164778069907e-11 4.06693057836207e-12
4.723288106065518 2.756957875071302e-19 3.4565592082542536e-11 3.011280360855958e-11 4.452788473982961e-12
4.867139040275056 2.9030913074242493e-19 3.750627049363141e-11 3.26654820812071e-11 4.8407884124243125e-12
4.940699165968905 2.9743740279671443e-19 3.900797667227829e-11 3.39713205141522e-11 5.036656158126091e-12
5.015371051989984 3.0438946725642807e-19 4.052304972701538e-11 3.529001743993641e-11 5.2330322870789696e-12
5.091171501069577 3.1125888492751056e-19 4.206384004080002e-11 3.662941034777207e-11 5.434429693027939e-12
5.129500256944802 3.1461513628383093e-19 4.283749846348373e-11 3.730246763794877e-11 5.535030825534965e-12
5.168117569889187 3.1793138565124747e-19 4.361493411838662e-11 3.797825780353847e-11 5.636676314848163e-12
5.20702561229733 3.2132002744016985e-19 4.44116534517955e-11 3.8663168675951813e-11 5.7484847758436964e-12
5.246226572918644 3.2465319811505243e-19 4.521017221267607e-11 3.934967796511615e-11 5.860494247559923e-12
5.265937586045735 3.262983847408316e-19 4.5609999171121145e-11 3.969344374755676e-11 5.9165554235643854e-12
5.285722656980489 3.279289933046305e-19 4.6010146989856774e-11 4.003750294445005e-11 5.972644045406723e-12
5.305582063971359 3.2954479359421447e-19 4.641057232964166e-11 4.038181989855458e-11 6.028752431087071e-12
5.3255160863122235 3.3115988448075994e-19 4.681325682921316e-11 4.07278713952366e-11 6.0853854339765515e-12
5.365609099470188 3.34453993034441e-19 4.763485507416806e-11 4.143222762458196e-11 6.202627449586112e-12
5.406003951863644 3.376892463775255e-19 4.845772519985996e-11 4.213769368920441e-11 6.3200315106555526e-12
5.446702915881641 3.408640643120915e-19 4.9281547745595367e-11 4.284401183225338e-11 6.437535913341985e-12
5.487708281020852 3.4400144380399085e-19 5.010957452559377e-11 4.3553921670012796e-11 6.55565285558098e-12
5.529022354014368 3.472900576954408e-19 5.0969471362168066e-11 4.4290690265993976e-11 6.678781096174076e-12
5.570647458961463 3.5052322054451364e-19 5.183127606298745e-11 4.502923454574238e-11 6.802041517245074e-12
5.612585937458331 3.5370023285377453e-19 5.26948026759275e-11 4.5769431237000553e-11 6.925371438926929e-12
5.654840148729818 3.5685580257875823e-19 5.3565175076742e-11 4.6515768508651115e-11 7.049406568090897e-12
5.67608639626678 3.5856640931564135e-19 5.4024161192998054e-11 4.69097166484801e-11 7.114444544517934e-12
5.686739436050992 3.5941812224874436e-19 5.425412123175857e-11 4.710714240941152e-11 7.1469788223470606e-12
5.6974124697621304 3.602674752394433e-19 5.4484397260673686e-11 4.730487529635048e-11 7.1795219643231945e-12
5.718818669136295 3.619592115051671e-19 5.4945912825559164e-11 4.770128198471101e-11 7.2446308408481425e-12
5.740305295436557 3.6368443909761973e-19 5.5415230392172546e-11 4.8104919558092255e-11 7.310310834080308e-12
5.7835210386641895 3.674494895558861e-19 5.641042882811547e-11 4.8964457061411626e-11 7.445971766703851e-12
5.827062130521658 3.712977766987929e-19 5.7430345699217944e-11 4.984718911044481e-11 7.583156588773139e-12
5.8489554468988025 3.7359038117723806e-19 5.800206186798781e-11 5.034438765446342e-11 7.657674213524386e-12
5.870931020387893 3.759066051786962e-19 5.858094425247949e-11 5.0848614679970826e-11 7.73232957250867e-12
5.892989160043636 3.782494500068599e-19 5.91675219389821e-11 5.136040744845487e-11 7.807114490527234e-12
5.915130176081913 3.8074565126575164e-19 5.978175927811421e-11 5.189697947969655e-11 7.884779798417637e-12
5.95966208400165 3.8699275039334275e-19 6.122008075510917e-11 5.315585438009836e-11 8.064226375010802e-12
6.004529249263818 3.949445440824373e-19 6.294837399700796e-11 5.468081098735604e-11 8.267563009651924e-12
6.027089341400364 4.0008124871845627e-19 6.400667383751293e-11 5.5620390808732885e-11 8.386283028780038e-12
6.049734195844842 4.0581714508594527e-19 6.516825888861486e-11 5.6655949394902534e-11 8.512309493712332e-12
6.095279466722835 4.214681274291996e-19 6.819111526734133e-11 5.936486943967064e-11 8.826245827670687e-12
6.141167624020661 4.43864638127475e-19 7.235539715581466e-11 6.311655261048639e-11 9.238844545328254e-12
6.164241091010745 4.579334390416288e-19 7.492925366025057e-11 6.542898186663279e-11 9.500271793617776e-12
6.187401249150058 4.730492774048843e-19 7.769339459383668e-11 6.792516063181269e-11 9.768233962024008e-12
6.1990139391386085 4.803534710593394e-19 7.904110066026392e-11 6.913660730720139e-11 9.904493353062533e-12
6.204828454712694 4.841240945762239e-19 7.973626889845168e-11 6.97630039820392e-11 9.973264916412475e-12
6.210648424152782 4.86875449956714e-19 8.026463860172453e-11 7.023332302509107e-11 1.0031315576633456e-11
6.233982942956859 4.959327672150836e-19 8.206497595755469e-11 7.183356406666342e-11 1.0231411890891301e-11
6.239830258556775 4.969323478725804e-19 8.230751256032505e-11 7.205006949490042e-11 1.0257443065424645e-11
6.245683058788269 4.969015097905833e-19 8.237960234915607e-11 7.209610450522284e-11 1.028349784393322e-11
6.257405133728602 4.963546077554795e-19 8.244337553245924e-11 7.211528560053565e-11 1.032808993192358e-11
6.269149208991335 4.941836548792592e-19 8.223684047652673e-11 7.189727146072635e-11 1.0339569015800365e-11
6.280915325867298 4.892564564120585e-19 8.156971354708518e-11 7.125954490647216e-11 1.0310168640613022e-11
6.304513850009849 4.772800807728829e-19 7.987196071153973e-11 6.96574733243078e-11 1.0214487387231937e-11
6.32820103803542 4.630979487522469e-19 7.778978264522979e-11 6.771020414809349e-11 1.0079578497136296e-11
6.3519772230701035 4.503393146752959e-19 7.593084408804173e-11 6.597357630806976e-11 9.95726777997198e-12
6.375842739491607 4.393416392189478e-19 7.435486607994244e-11 6.450692990257291e-11 9.847936177369537e-12
6.399797922933955 4.311938256820575e-19 7.325010097075737e-11 6.346513449251123e-11 9.784966478246142e-12
6.42384311029221 4.2425380913515974e-19 7.234193298078415e-11 6.261063750894512e-11 9.731295471839014e-12
6.447978639727206 4.1954532593236666e-19 7.180784777182009e-11 6.209421416029701e-11 9.713633611523066e-12
6.472204850670314 4.1557892281269305e-19 7.139621697412463e-11 6.16931339801685e-11 9.703082993956136e-12
6.496522083828205 4.1329595350718565e-19 7.127077894114646e-11 6.154919874772041e-11 9.721580193426044e-12
