Dust emission spectrum from A.P. Jones, M. Kohler, N. Ysard, M. Bocchio, and L. Verstraete (2017), A&A, 602A, 46J 
inside the DustPedia framework.

lambda    nu*dP/dnu     j_nu    j_nu(carb.) j_nu(sil)
 (um)   (erg s-1 H-1) (Jy cm2 sr-1 H-1)
0.9927057738263894 7.942041126901093e-21 2.0927729468314773e-13 2.0927712619939404e-13 1.6848375371881417e-19
1.0001793341362166 8.07518361656642e-21 2.1438762648083747e-13 2.1438742379341817e-13 2.0268741924902874e-19
1.0077091589558085 8.208925175213986e-21 2.1957906727050468e-13 2.1957882376356881e-13 2.435069359037105e-19
1.0114953028030835 8.276016171724457e-21 2.2220541285088603e-13 2.2220514608253055e-13 2.6676835549293177e-19
1.0152956718711033 8.343251758092961e-21 2.2485229079348701e-13 2.2485199864003322e-13 2.9215345374230436e-19
1.0229392996569957 8.478084760231205e-21 2.3020621853790963e-13 2.302058684868356e-13 3.5005107401917485e-19
1.0267826658714554 8.545530238763572e-21 2.329093785741558e-13 2.329089955834898e-13 3.8299066607538005e-19
1.0306404723013447 8.613111097048175e-21 2.3563330509495877e-13 2.356328862060181e-13 4.188889406366434e-19
1.03451277320114 8.68082608598976e-21 2.3837809560300665e-13 2.383776376049999e-13 4.579980067691808e-19
1.0383996230291617 8.748674045395667e-21 2.411438502855105e-13 2.4114334969530464e-13 5.005902058739163e-19
1.0403485208654093 8.7826475514335e-21 2.4253462126411134e-13 2.4253409798062127e-13 5.232834900958944e-19
1.0423010764483396 8.816653906667636e-21 2.439306721338384e-13 2.439301251742112e-13 5.46959627194137e-19
1.0462171883269815 8.884764695531058e-21 2.4673866706637075e-13 2.4673806964264265e-13 5.974237280180782e-19
1.0471985131304309 8.901812745214876e-21 2.4744398679509236e-13 2.4744337607597945e-13 6.107191128610244e-19
1.048180758391296 8.918868909820672e-21 2.4815063837004045e-13 2.481500140727384e-13 6.2429730205458e-19
1.0501480137395462 8.953005534802605e-21 2.495679440546587e-13 2.4956729172959355e-13 6.523250651335504e-19
1.0521189612883777 8.987174476460004e-21 2.5099059823998045e-13 2.5098991668591843e-13 6.815540620827208e-19
1.0531058218030118 9.0042487024344e-21 2.517033111129807e-13 2.5170261447774085e-13 6.966352398265305e-19
1.0540936079674168 9.02125780217068e-21 2.524153179422676e-13 2.524146059036111e-13 7.120386565295055e-19
1.058054026499678 9.089371556542581e-21 2.552766748547679e-13 2.5527589788277367e-13 7.769719942312543e-19
1.0590464539527713 9.10641929117467e-21 2.55995355667186e-13 2.5599456159836724e-13 7.940688187047206e-19
1.06003981227728 9.123474728577959e-21 2.567153768362655e-13 2.567145653113513e-13 8.115249141572421e-19
1.0620293250338977 9.157608683839806e-21 2.5815944780376355e-13 2.581586002600436e-13 8.475437199632318e-19
1.0660195594769086 9.225968745576478e-21 2.6106375798466757e-13 2.610628337675837e-13 9.24217083824195e-19
1.070024785945596 9.294451415569347e-21 2.6398973034686646e-13 2.639887228557916e-13 1.0074910747817478e-18
1.0740450607676866 9.363056482953583e-21 2.6693749374181027e-13 2.669363958388256e-13 1.0979029846205928e-18
1.07808044048254 9.431783855245884e-21 2.699071810750751e-13 2.699059850439343e-13 1.1960311406918656e-18
1.0861967418109137 9.569501960405437e-21 2.759098877558288e-13 2.759084697833413e-13 1.4179724874726574e-18
1.0902777775684922 9.638257173049091e-21 2.7893634344696546e-13 2.789348002719091e-13 1.5431750563566085e-18
1.0943741465085532 9.707131548808405e-21 2.819851077593589e-13 2.819834288806078e-13 1.6788787510525372e-18
1.1026131145906286 9.845240196361453e-21 2.8815018512983376e-13 2.8814819995417464e-13 1.9851756590708372e-18
1.1109141095355224 9.98383412237731e-21 2.944064174686237e-13 2.9440407319176634e-13 2.3442768574279314e-18
1.1192775983109025 1.0122815183111476e-20 3.007520197189523e-13 3.0074925499611504e-13 2.764722837301733e-18
1.1277040513999907 1.0261704045977575e-20 3.071737211847938e-13 3.07170464846481e-13 3.256338312736301e-18
1.1361939428280308 1.0401095555329884e-20 3.1369022737111336e-13 3.136863969610139e-13 3.8304100995435995e-18
1.1447477501889525 1.0541006099095253e-20 3.2030321387694254e-13 3.2029871399035265e-13 4.499886589978563e-18
1.1533659546722406 1.0681502301180912e-20 3.2701592249717954e-13 3.270106428874303e-13 5.279609749247525e-18
1.1707974979042381 1.0964731223126474e-20 3.407604703551857e-13 3.407532301528228e-13 7.240202362920259e-18
1.1884924949847024 1.1250588136918548e-20 3.54928687368517e-13 3.549188084690156e-13 9.878899501423956e-18
1.2064549276569216 1.1541120746920198e-20 3.6959706979402253e-13 3.6958365736829464e-13 1.3412425727940613e-17
1.2246888378427687 1.183475295634071e-20 3.8472852665008514e-13 3.847104064173104e-13 1.8120232774639382e-17
1.2431983285522175 1.213150538188877e-20 4.00335908066416e-13 4.003115466971055e-13 2.436136931039506e-17
1.2619875648066055 1.2432105412245055e-20 4.164560661564666e-13 4.164234713440783e-13 3.2594812388329823e-17
1.3004222497298317 1.3044566969638394e-20 4.502808645667959e-13 4.5022333903824275e-13 5.75255285531455e-17
1.3400274889804893 1.3677405651124126e-20 4.865045072170251e-13 4.864048499933062e-13 9.965722371880408e-17
1.3808389325824078 1.4337502061626888e-20 5.255160080099038e-13 5.253464576397371e-13 1.6955037016654626e-16
1.4228933163050095 1.5036093281262235e-20 5.679064271905945e-13 5.676229964308132e-13 2.834307597814276e-16
1.466228494730424 1.5791928578288305e-20 6.146193932595146e-13 6.141536230077685e-13 4.657702517460141e-16
1.5108834753276823 1.661465415492597e-20 6.663335949871583e-13 6.655808200192374e-13 7.527749679209376e-16
1.5568984535646726 1.751773785347021e-20 7.239486178694963e-13 7.227508058689057e-13 1.197812000590528e-15
1.6043148490894465 1.8523043732025118e-20 7.888081486343322e-13 7.869281368339796e-13 1.8800118003526867e-15
1.6531753430134553 1.9657206765121195e-20 8.626013988097432e-13 8.596943018926584e-13 2.9070969170850087e-15
1.7035239163302658 2.0953085053487552e-20 9.47470384889545e-13 9.430405652786791e-13 4.429819610865875e-15
1.755405889504358 2.2459270822665472e-20 1.0465082014187607e-12 1.0398530709516838e-12 6.65513046707709e-15
1.8088679632656115 2.421747470223288e-20 1.1628003527916203e-12 1.1529392913577068e-12 9.861061433913157e-15
1.8639582606462262 2.6277133395709206e-20 1.3001204869595732e-12 1.2857040251632355e-12 1.4416461796337773e-14
1.9207263702978936 2.869969357308414e-20 1.4632286358577173e-12 1.4424257625333299e-12 2.080287332438801e-14
1.979223391128241 3.155787151516432e-20 1.6579519949718905e-12 1.6283116419693197e-12 2.9640353002570954e-14
2.039501978296691 3.4933807617155686e-20 1.8912088355707807e-12 1.8494939316742214e-12 4.1714903896559434e-14
2.1016163906111602 3.8928063904352825e-20 2.1716292592538756e-12 2.1136164710252817e-12 5.801278822859411e-14
2.1656225393682647 4.364624956886796e-20 2.5089911389576716e-12 2.42924173195011e-12 7.974940700756158e-14
2.231578038680979 4.9194566708444454e-20 2.914061087365387e-12 2.805659724266229e-12 1.0840136309915858e-13
2.299542257339062 5.56925548997478e-20 3.399444611566717e-12 3.2537057494587164e-12 1.457388621080021e-13
2.369576372248914 6.327049668686963e-20 3.979618009286456e-12 3.785758830251593e-12 1.9385917903486384e-13
2.4417434235010123 7.206475650315799e-20 4.670811956724689e-12 4.415603625846567e-12 2.552083308781228e-13
2.5161083711144245 8.222277642970423e-20 5.4914990559166214e-12 5.158887639021844e-12 3.326114168947771e-13
2.5927381535095444 9.38992454736e-20 6.4623458114651084e-12 6.033061233177729e-12 4.2928457828737855e-13
2.6717017477616296 1.0724222165073458e-19 7.605420131586586e-12 7.056603983126561e-12 5.488161484600263e-13
2.753070231689431 1.2239716076069892e-19 8.94454116625739e-12 8.249383414316317e-12 6.95157751941071e-13
2.836916847834745 1.3954092735123428e-19 1.0507941453598262e-11 9.635310865253678e-12 8.726305883445799e-13
2.9233170693905177 1.5888720762723301e-19 1.2329182695610696e-11 1.1243530868658239e-11 1.085651826952455e-12
2.967498994190263 1.6933268002268852e-19 1.3338309652691682e-11 1.2133875706287016e-11 1.2044339464046623e-12
3.0123486681368425 1.8041201511769272e-19 1.442580737562056e-11 1.3091299293419187e-11 1.3345080822013704e-12
3.0578761833420214 1.92990083763714e-19 1.566478087041775e-11 1.4187575967381079e-11 1.477204903036675e-12
3.1040917844459814 2.0644979340366296e-19 1.7010553297827747e-11 1.5378672266339516e-11 1.631881031488235e-12
3.127460860933648 2.1447267382039756e-19 1.7804643511415972e-11 1.6090185370654575e-11 1.7144581407613981e-12
3.1510058709225794 2.2325748521596157e-19 1.8673454763397832e-11 1.6873096117516518e-11 1.8003586458813109e-12
3.162844764501044 2.2892005892630325e-19 1.9219016468601798e-11 1.7374270909105983e-11 1.8447455594958146e-12
3.1747281389236908 2.3495801128294247e-19 1.9800047493688128e-11 1.791005934205201e-11 1.8899881516361167e-12
3.1986289994194426 2.4926633791889697e-19 2.116396022714478e-11 1.9180644189489138e-11 1.9833160376556447e-12
3.2227097969389145 2.745609588665994e-19 2.3487100994492226e-11 2.1405067688753484e-11 2.0820333057387425e-12
3.2348180950136065 2.9561767855317196e-19 2.5383394476610268e-11 2.324872365360737e-11 2.134670823002904e-12
3.240889293275058 3.1058685969712507e-19 2.6718785089920283e-11 2.4556348883565717e-11 2.1624362063545703e-12
3.2469718861334385 3.2767471926326684e-19 2.824170403140284e-11 2.6050538911993654e-11 2.1911651194091794e-12
3.2714166318528037 4.1483394552147197e-19 3.602297506579004e-11 3.371323174059612e-11 2.3097433251939336e-12
3.2744851364798273 4.2067219901111914e-19 3.656421619843916e-11 3.424053987826044e-11 2.3236763201787075e-12
3.2775565192852394 4.2664390192855467e-19 3.711805108884945e-11 3.478037586180204e-11 2.337675227047406e-12
3.283707930232385 4.2326957737561386e-19 3.689359783880133e-11 3.453097174094827e-11 2.362626097853061e-12
3.2898708863219004 4.0905426073731987e-19 3.572146055781086e-11 3.33362046330996e-11 2.3852559247112537e-12
3.29141343181113 4.0571335518845936e-19 3.54463216527959e-11 3.3055385185634075e-11 2.390936467161833e-12
3.292184975758714 4.040735187057589e-19 3.531132802033064e-11 3.2917547816679704e-11 2.3937802036509337e-12
3.295272960557952 3.934771390601179e-19 3.441758017898615e-11 3.2012752908826796e-11 2.4048272701593467e-12
3.3076538914384823 3.5680800532908075e-19 3.132738049344413e-11 2.8878220720039974e-11 2.4491597734041573e-12
3.310756385682612 3.493805938727437e-19 3.070403391669593e-11 2.8243707509363645e-11 2.4603264073322786e-12
3.313861789986515 3.42544997456041e-19 3.0131548693009363e-11 2.766002223001072e-11 2.4715264629986373e-12
3.3200813396944477 3.335458930783492e-19 2.9395019619346925e-11 2.6899366860467024e-11 2.4956527588799028e-12
3.345076488085796 3.2205464919153984e-19 2.859598488345854e-11 2.599271669282868e-11 2.603268190629861e-12
3.3482140837626964 3.237456418058838e-19 2.8773095201463012e-11 2.6155244393909945e-11 2.617850807553066e-12
3.3513546224236106 3.254459974786765e-19 2.8951345538858637e-11 2.6318850503709612e-11 2.6324950351490343e-12
3.3576445397418455 3.327266114447612e-19 2.9654573848294164e-11 2.6991447227676507e-11 2.663126620617669e-12
3.3702598118196083 3.560094019040037e-19 3.1848888634462254e-11 2.912151713533423e-11 2.7273714991280224e-12
3.382922481734668 3.644658056457612e-19 3.2727909692557835e-11 2.993822338644238e-11 2.7896863061154592e-12
3.389271646505754 3.687785183580009e-19 3.317732954977643e-11 3.0356083191509825e-11 2.821246358266611e-12
3.395632727569191 3.734059429502223e-19 3.365668742978062e-11 3.08029162892751e-11 2.853771140505525e-12
3.421196662673239 3.944884847882858e-19 3.5824637396949513e-11 3.2836367502154036e-11 2.9882698947954863e-12
3.4276182099114902 3.9388878155545e-19 3.583731683105753e-11 3.281917381045626e-11 3.0181430206012757e-12
3.4340518103208963 3.8488228018223006e-19 3.5083603410489654e-11 3.203727493865409e-11 3.0463284718355607e-12
3.4469541582030403 3.7282636251399013e-19 3.411234335634957e-11 3.1012056731178834e-11 3.1002866251707457e-12
3.472904465399547 3.7574413134183504e-19 3.463813303457865e-11 3.141333287634771e-11 3.2248001582309542e-12
3.4990501388274233 3.765762191145765e-19 3.4976189191254894e-11 3.1624282562324456e-11 3.351906628930438e-12
3.5253949054701885 3.6100361032762566e-19 3.378226394926152e-11 3.030737504471792e-11 3.4748889045435918e-12
3.5519380250092896 3.464667725950084e-19 3.266603349951388e-11 2.9067938040601674e-11 3.598095458912209e-12
3.578680990867387 3.456879193303256e-19 3.283799422223751e-11 2.910490783127023e-11 3.733086390967286e-12
3.605625307711299 3.5035240095048026e-19 3.353166544726848e-11 2.965664708580025e-11 3.875018361468222e-12
3.660119384959845 3.644702406936837e-19 3.541006777356934e-11 3.1237961006871763e-11 4.172106766697574e-12
3.715437065384467 3.7958920601348107e-19 3.743632394969099e-11 3.2952623008038957e-11 4.483700941652029e-12
3.8285932144167436 4.1346919928599015e-19 4.201959104937555e-11 3.687176664155152e-11 5.1478244078240396e-12
3.94519561050918 4.490421364078519e-19 4.702459563742257e-11 4.116087901010665e-11 5.863716627315909e-12
4.06534921144712 4.855998809371578e-19 5.240175856586646e-11 4.57731492822402e-11 6.628609283626251e-12
4.189162171576248 5.227387042602469e-19 5.812744892714951e-11 5.068543092860533e-11 7.442017998544184e-12
4.316745939156006 5.600754297112907e-19 6.417597019499229e-11 5.5877268689722884e-11 8.298701505269386e-12
4.448215356677963 5.971749603704104e-19 7.051099246391735e-11 6.132674848800078e-11 9.184243975916569e-12
4.58368876423945 6.337431565727373e-19 7.710771558314953e-11 6.700992872852814e-11 1.009778685462139e-11
4.723288106065518 6.695310606099724e-19 8.394302189705323e-11 7.28997390641861e-11 1.104328283286715e-11
4.867139040275056 7.040517139903155e-19 9.09594333422963e-11 7.896786510990143e-11 1.1991568232394887e-11
4.940699165968905 7.208290147908756e-19 9.453445037267661e-11 8.206510772302436e-11 1.2469342649652242e-11
5.015371051989984 7.371475882488864e-19 9.813568335330845e-11 8.518797700957349e-11 1.2947706343734983e-11
5.091171501069577 7.532320514329437e-19 1.0179254009876013e-10 8.835477068091242e-11 1.3437769417847718e-11
5.129500256944802 7.610725375771052e-19 1.0362643083276999e-10 8.994413629185561e-11 1.3682294540914393e-11
5.168117569889187 7.688086024258139e-19 1.0546784009941362e-10 9.153860514299958e-11 1.392923495641407e-11
5.20702561229733 7.767136494990342e-19 1.0735445813209854e-10 9.315324347113792e-11 1.4201214660960599e-11
5.246226572918644 7.8447667111970935e-19 1.0924372716507216e-10 9.477022933544907e-11 1.4473497829623111e-11
5.265937586045735 7.883035085071186e-19 1.1018909087815164e-10 9.55793850574686e-11 1.4609705820683008e-11
5.285722656980489 7.920931588806654e-19 1.1113479873340856e-10 9.638886610295657e-11 1.4745932630451965e-11
5.305582063971359 7.958450789834508e-19 1.1208074386036747e-10 9.719858479140666e-11 1.48821590689608e-11
5.3255160863122235 7.995929770065764e-19 1.1303165976801374e-10 9.801202453638735e-11 1.5019635231626394e-11
5.365609099470188 8.07234477204728e-19 1.1497096202573765e-10 9.966668105929844e-11 1.5304280966439222e-11
5.406003951863644 8.147258045906691e-19 1.1691150836337965e-10 1.0132238751203876e-10 1.5589120851340895e-11
5.446702915881641 8.220632462648249e-19 1.1885250855779923e-10 1.029785078214752e-10 1.5874000736324052e-11
5.487708281020852 8.293014754083405e-19 1.2080165602397106e-10 1.0464147186881777e-10 1.6160184155153306e-11
5.529022354014368 8.368883448605465e-19 1.2282458302940882e-10 1.0636605327240674e-10 1.6458529757002065e-11
5.570647458961463 8.44332684559535e-19 1.2485004672279918e-10 1.0809306563806242e-10 1.675698108473672e-11
5.612585937458331 8.51632860500025e-19 1.2687756853962052e-10 1.0982218678145195e-10 1.7055381758168588e-11
5.654840148729818 8.588710726303292e-19 1.2891924144525946e-10 1.1156394424630075e-10 1.7355297198958678e-11
5.67608639626678 8.628002748880651e-19 1.299956156430812e-10 1.1248300095922699e-10 1.7512614683854216e-11
5.686739436050992 8.647552204150484e-19 1.3053469388425652e-10 1.1294340493667407e-10 1.7591288947582406e-11
5.6974124697621304 8.667038069887823e-19 1.3107437604776892e-10 1.1340440580547923e-10 1.7669970242289723e-11
5.718818669136295 8.705821589083497e-19 1.3215558518858804e-10 1.1432824124128606e-10 1.7827343947301997e-11
5.740305295436557 8.745363756825658e-19 1.3325462828443062e-10 1.1526856810297625e-10 1.7986060181454344e-11
5.7835210386641895 8.831767696881817e-19 1.3558429586976694e-10 1.1727042997978759e-10 1.8313865889979384e-11
5.827062130521658 8.919990846037579e-19 1.3796962709458184e-10 1.1932446276524222e-10 1.8645164329339604e-11
5.8489554468988025 8.972739803432412e-19 1.3930696169533837e-10 1.2048169180062044e-10 1.8825269894717923e-11
5.870931020387893 9.025998439688582e-19 1.4066034066281145e-10 1.2165469591790813e-10 1.9005644744903345e-11
5.892989160043636 9.079836248797638e-19 1.4203098258129816e-10 1.2284471422636266e-10 1.918626835493552e-11
5.915130176081913 9.137246726935213e-19 1.4346603368376083e-10 1.2409213256716864e-10 1.9373901116592196e-11
5.95966208400165 9.28151010747097e-19 1.468282797884964e-10 1.27020088419967e-10 1.9808191368529342e-11
6.004529249263818 9.465636303632984e-19 1.508683745828309e-10 1.3056763212634475e-10 2.0300742456486163e-11
6.027089341400364 9.584896196030276e-19 1.5334318380351197e-10 1.327544926423228e-10 2.058869116118912e-11
6.049734195844842 9.718128383721079e-19 1.5605883440163834e-10 1.3516438768572263e-10 2.0894446715915714e-11
6.095279466722835 1.0082464455288567e-18 1.6312846716148187e-10 1.4147117192735807e-10 2.1657295234123806e-11
6.141167624020661 1.0604522174800191e-18 1.7286675884843726e-10 1.5020540436431045e-10 2.2661354484126804e-11
6.164241091010745 1.0932739002541378e-18 1.7888669052802434e-10 1.555884663564785e-10 2.329822417154587e-11
6.187401249150058 1.128511675225869e-18 1.853462357411685e-10 1.6139535106402736e-10 2.3950884677141134e-11
6.1990139391386085 1.1455304252876353e-18 1.8849449646918398e-10 1.6421175314324924e-10 2.428274332593477e-11
6.204828454712694 1.15431385371438e-18 1.9011794881546902e-10 1.6566772682749192e-10 2.445022198797711e-11
6.210648424152782 1.1607092895159847e-18 1.9135060445735716e-10 1.6675915557193313e-10 2.4591448885424052e-11
6.233982942956859 1.181710161437909e-18 1.9554468346944627e-10 1.7046704460183496e-10 2.5077638867611313e-11
6.239830258556775 1.1839896317549293e-18 1.961056508077256e-10 1.7096523060199463e-10 2.5140420205730982e-11
6.245683058788269 1.1838640734166318e-18 1.9626877697476957e-10 1.7106552348232738e-10 2.520325349244223e-11
6.257405133728602 1.1824751959802524e-18 1.9640645038202944e-10 1.710959497661071e-10 2.5310500615922315e-11
6.269149208991335 1.1772768607980986e-18 1.959100193668156e-10 1.7057335624988975e-10 2.533666311692584e-11
6.280915325867298 1.165624653630297e-18 1.9433503197342842e-10 1.6907229160995208e-10 2.5262740363476377e-11
6.304513850009849 1.1373547692787888e-18 1.9033426934518545e-10 1.653096354882934e-10 2.502463385689202e-11
6.32820103803542 1.103944586819753e-18 1.8543724862627116e-10 1.6074672170673756e-10 2.469052691953364e-11
6.3519772230701035 1.0738823044100843e-18 1.8106522608149745e-10 1.5667793140755452e-10 2.438729467394292e-11
6.375842739491607 1.0479358522168743e-18 1.7735430242960584e-10 1.532384150157443e-10 2.4115887413861535e-11
6.399797922933955 1.0286909553994524e-18 1.7475138061525876e-10 1.5079346796493288e-10 2.3957912650325895e-11
6.42384311029221 1.0122658840044383e-18 1.7260722040106362e-10 1.487845065426762e-10 2.3822713858387456e-11
6.447978639727206 1.0010753330001432e-18 1.7134040275730945e-10 1.475648241175971e-10 2.3775578639712312e-11
6.472204850670314 9.916174492310581e-19 1.703593004223126e-10 1.4661346708616944e-10 2.3745833336143102e-11
