Dust emission spectrum from A.P. Jones, M. Kohler, N. Ysard, M. Bocchio, and L. Verstraete (2017), A&A, 602A, 46J 
inside the DustPedia framework.

lambda    nu*dP/dnu     j_nu    j_nu(carb.) j_nu(sil)
 (um)   (erg s-1 H-1) (Jy cm2 sr-1 H-1)
0.9927057738263894 1.2027745246873113e-20 3.169379188780221e-13 3.1693790066514006e-13 1.8212882022614728e-20
1.0001793341362166 1.222961207146582e-20 3.2468332972690724e-13 3.2468330781309557e-13 2.1913811734526005e-20
1.0077091589558085 1.2432333592029309e-20 3.325502615587428e-13 3.3255023522725106e-13 2.6331491688507552e-20
1.0114953028030835 1.2534006573278447e-20 3.3652956295646363e-13 3.3652953410712693e-13 2.8849336679147166e-20
1.0152956718711033 1.263588344792469e-20 3.4053956680731795e-13 3.4053953520997856e-13 3.1597339407781404e-20
1.0229392996569957 1.284013712506792e-20 3.4864942928330697e-13 3.486493914173891e-13 3.786591782221653e-20
1.0267826658714554 1.294228238277845e-20 3.5274334802895925e-13 3.527433065961107e-13 4.143284855453435e-20
1.0306404723013447 1.304461459181501e-20 3.568682227973014e-13 3.568681774767125e-13 4.532058879241688e-20
1.03451277320114 1.3147131040760516e-20 3.6102417317145687e-13 3.610241236149385e-13 4.955651834498011e-20
1.0383996230291617 1.3249829119294355e-20 3.6521132149542944e-13 3.6521126732521087e-13 5.417021852697388e-20
1.0403485208654093 1.330124548218344e-20 3.673166339045206e-13 3.6731657727590126e-13 5.662861918319214e-20
1.0423010764483396 1.335270632066235e-20 3.6942979299002484e-13 3.694297337963875e-13 5.919363744478577e-20
1.0462171883269815 1.3455760244129911e-20 3.736797158703855e-13 3.7367965120911877e-13 6.466126673334804e-20
1.0471985131304309 1.348155106678067e-20 3.747471261894438e-13 3.7474706008756264e-13 6.610188125602498e-20
1.048180758391296 1.3507352756010837e-20 3.7581651249550757e-13 3.758164449223268e-13 6.757318062593166e-20
1.0501480137395462 1.3558988597416968e-20 3.779612214651133e-13 3.779611508547828e-13 7.061033046373485e-20
1.0521189612883777 1.3610667499155616e-20 3.8011385970155645e-13 3.801137859237272e-13 7.377782931044521e-20
1.0531058218030118 1.363648902510269e-20 3.811922074793642e-13 3.811921320671428e-13 7.541222133614846e-20
1.0540936079674168 1.3662209863739873e-20 3.8226942652277384e-13 3.822693494411924e-13 7.708158134662216e-20
1.058054026499678 1.376519479466471e-20 3.865980320037437e-13 3.865979478844388e-13 8.411930501050817e-20
1.0590464539527713 1.379096627142945e-20 3.876851265864945e-13 3.8768504061403794e-13 8.597245655275672e-20
1.06003981227728 1.3816747787402647e-20 3.8877420285763883e-13 3.8877411499303393e-13 8.786460481945526e-20
1.0620293250338977 1.386834082389894e-20 3.9095830938595415e-13 3.9095821761693095e-13 9.176902308089851e-20
1.0660195594769086 1.397164615000249e-20 3.9535040164757794e-13 3.9535030156647394e-13 1.0008110400075858e-19
1.070024785945596 1.4075109092984247e-20 3.9977445552465986e-13 3.997743464148498e-13 1.0910981007105696e-19
1.0740450607676866 1.4178728096587342e-20 4.0423062163945037e-13 4.0423050272587286e-13 1.189135774982249e-19
1.07808044048254 1.4282501730547023e-20 4.0871905463013066e-13 4.087189250748159e-13 1.2955531493600035e-19
1.0861967418109137 1.4490350010677726e-20 4.177888109047818e-13 4.177886572761388e-13 1.5362864301359569e-19
1.0902777775684922 1.4594063693131046e-20 4.2236004803618205e-13 4.223598808247578e-13 1.672114243087873e-19
1.0943741465085532 1.4697921439237057e-20 4.2696392235362493e-13 4.2696374041840015e-13 1.8193522473132631e-19
1.1026131145906286 1.4906066311391932e-20 4.3627028711524523e-13 4.362700719407344e-13 2.1517451067647144e-19
1.1109141095355224 1.511478041624189e-20 4.457093636198252e-13 4.457091094660879e-13 2.541537374064561e-19
1.1192775983109025 1.532389967352832e-20 4.552778741306279e-13 4.552775743275008e-13 2.998031270280987e-19
1.1277040513999907 1.553267917075834e-20 4.649550249621184e-13 4.649546717690006e-13 3.531931178328491e-19
1.1361939428280308 1.5742005302509716e-20 4.747685660950479e-13 4.747681505412268e-13 4.155538211714624e-19
1.1447477501889525 1.5951883647802068e-20 4.847202963121898e-13 4.847198080152981e-13 4.882968916407869e-19
1.1533659546722406 1.61623951210795e-20 4.948143436433464e-13 4.94813770602406e-13 5.730409404617277e-19
1.1707974979042381 1.658595828252606e-20 5.154562232883906e-13 5.154554370750025e-13 7.862133879377219e-19
1.1884924949847024 1.7012181779767752e-20 5.366929510603667e-13 5.366918777929258e-13 1.073267440842111e-18
1.2064549276569216 1.744393673142141e-20 5.586310067266338e-13 5.586295488529021e-13 1.4578737318981316e-18
1.2246888378427687 1.78785240098833e-20 5.812016715832958e-13 5.811997010089247e-13 1.970574371209746e-18
1.2431983285522175 1.8315631522495457e-20 6.044101491571444e-13 6.04407498519493e-13 2.6506376515276804e-18
1.2619875648066055 1.8755945489817744e-20 6.282948074138042e-13 6.282912591191041e-13 3.548294700412556e-18
1.3004222497298317 1.9643735119604688e-20 6.780752518319839e-13 6.780689830213529e-13 6.2688106306762145e-18
1.3400274889804893 2.0544915291459544e-20 7.307814175172584e-13 7.307705458324385e-13 1.0871684819793143e-17
1.3808389325824078 2.1463145805914426e-20 7.86693989983552e-13 7.866754734444383e-13 1.85165391136581e-17
1.4228933163050095 2.240634907715491e-20 8.462776475754958e-13 8.462466598304457e-13 3.0987745050184137e-17
1.466228494730424 2.3390832472568636e-20 9.103675457278035e-13 9.103165651035445e-13 5.098062425881697e-17
1.5108834753276823 2.4415193585317955e-20 9.791755857397083e-13 9.790930965310545e-13 8.248920865369802e-17
1.5568984535646726 2.547908857964117e-20 1.0529642078273072e-12 1.052832798551731e-12 1.314092755761306e-16
1.6043148490894465 2.6588971084858578e-20 1.1322975510378525e-12 1.1320910570763343e-12 2.0649396151800384e-16
1.6531753430134553 2.775166477451928e-20 1.2178039911690285e-12 1.217484306126992e-12 3.196850420364642e-16
1.7035239163302658 2.897504480580434e-20 1.3102126385812485e-12 1.3097249172498498e-12 4.877213313986177e-16
1.755405889504358 3.028097653007197e-20 1.4109670138404085e-12 1.4102333923817666e-12 7.336214586416113e-16
1.8088679632656115 3.166990952816171e-20 1.5206284893457434e-12 1.5195401214684367e-12 1.0883678773068637e-15
1.8639582606462262 3.314169167304461e-20 1.6397600022709734e-12 1.638166861431768e-12 1.593140839204552e-15
1.9207263702978936 3.4700783488734906e-20 1.7691889273352666e-12 1.7668871188097352e-12 2.3018085255312742e-15
1.979223391128241 3.635372741132078e-20 1.9099112833798403e-12 1.906627408204953e-12 3.283875174887519e-15
2.039501978296691 3.81062344155801e-20 2.0629542592913646e-12 2.0583266242737296e-12 4.627635017634581e-15
2.1016163906111602 3.9975328771141046e-20 2.230051661983532e-12 2.2236075433633666e-12 6.4441186201646855e-15
2.1656225393682647 4.196946888974767e-20 2.4126019209276064e-12 2.403731448434624e-12 8.870472492983441e-15
2.231578038680979 4.4084645818755936e-20 2.611372749598184e-12 2.59929902375054e-12 1.207372584764355e-14
2.299542257339062 4.6323045083151083e-20 2.827534601038625e-12 2.8112799661414143e-12 1.6254634897210274e-14
2.369576372248914 4.869100837515608e-20 3.06259036939569e-12 3.0409386806521847e-12 2.165168874350654e-14
2.4417434235010123 5.1196199977078974e-20 3.3182353565758564e-12 3.289691516506543e-12 2.8543840069313264e-14
2.5161083711144245 5.3854802823980335e-20 3.5968573636929853e-12 3.5596031195911856e-12 3.725424410180079e-14
2.5927381535095444 5.669372747806192e-20 3.901782921218519e-12 3.853630932323186e-12 4.815198889533274e-14
2.6717017477616296 5.973544761938846e-20 4.236327529407549e-12 4.174677150294051e-12 6.165037911349834e-14
2.753070231689431 6.301274282420253e-20 4.604845967724809e-12 4.526639596357122e-12 7.820637136768513e-14
2.836916847834745 6.661629681505652e-20 5.016450442716273e-12 4.918128739563445e-12 9.83217031528284e-14
2.9233170693905177 7.074393953273559e-20 5.489522839073652e-12 5.367009701281386e-12 1.2251313779226518e-13
2.967498994190263 7.318470429468001e-20 5.764748113549749e-12 5.6287165675971494e-12 1.3603154595259833e-13
3.0123486681368425 7.578487503637102e-20 6.059784923675793e-12 5.908937953056366e-12 1.5084697061942765e-13
3.0578761833420214 7.973876333970351e-20 6.472302774498354e-12 6.3051909412177764e-12 1.6711183328057667e-13
3.1040917844459814 8.428693039287958e-20 6.944871671317142e-12 6.760111019661433e-12 1.8476065165571123e-13
3.127460860933648 8.825277257212365e-20 7.326383946966443e-12 7.132193786316914e-12 1.94190160649531e-13
3.1510058709225794 9.320582128944659e-20 7.795817846152955e-12 7.59181337368927e-12 2.0400447246368536e-13
3.162844764501044 9.755834918437803e-20 8.19052523583257e-12 7.981447437511775e-12 2.090777983207928e-13
3.1747281389236908 1.0245620994787459e-19 8.63404406563631e-12 8.419793717075886e-12 2.142503485604251e-13
3.1986289994194426 1.1558653560216787e-19 9.813875642822133e-12 9.58895086284533e-12 2.2492477997680745e-13
3.2227097969389145 1.4553397470973664e-19 1.2449589250590591e-11 1.2213368287928947e-11 2.362209626616435e-13
3.2348180950136065 1.7346542224153828e-19 1.48947155743825e-11 1.465247001876082e-11 2.4224555562167293e-13
3.240889293275058 1.9428756192668723e-19 1.6713931870221315e-11 1.646850847244154e-11 2.4542339777977355e-13
3.2469718861334385 2.184059567693056e-19 1.882402281031132e-11 1.8575311295180565e-11 2.487115151307551e-13
3.2714166318528037 3.446679385033133e-19 2.9929962792882044e-11 2.966767522929076e-11 2.6228756359128967e-13
3.2744851364798273 3.525741088283851e-19 3.064522916293867e-11 3.0381345120357665e-11 2.6388404258100916e-13
3.2775565192852394 3.6068918205625363e-19 3.13799855716707e-11 3.1114497382893564e-11 2.6548818877713544e-13
3.283707930232385 3.530027295461546e-19 3.076890340341601e-11 3.050055343067304e-11 2.683499727429736e-13
3.2898708863219004 3.2841044628141613e-19 2.8679082287198306e-11 2.840813431508067e-11 2.7094797211763914e-13
3.29141343181113 3.225988853678333e-19 2.8184785414002368e-11 2.791318523213903e-11 2.7160018186334067e-13
3.292184975758714 3.1974148299367997e-19 2.7941688492381506e-11 2.766976179882002e-11 2.719266935614834e-13
3.295272960557952 3.019216040554893e-19 2.6409186160521126e-11 2.613599060459521e-11 2.7319555592591453e-13
3.3076538914384823 2.397138016204901e-19 2.1046628328781568e-11 2.076833957905076e-11 2.7828874973080684e-13
3.310756385682612 2.269199069415702e-19 1.9942024947284856e-11 1.9662453066120447e-11 2.7957188116440707e-13
3.313861789986515 2.1506372414411092e-19 1.891781554036509e-11 1.8636956591043884e-11 2.8085894932120943e-13
3.3200813396944477 1.9853951106824625e-19 1.7497060956753447e-11 1.721343066685434e-11 2.8363028989910574e-13
3.345076488085796 1.69950830894837e-19 1.5090331418595906e-11 1.4794342850528044e-11 2.9598856806786454e-13
3.3482140837626964 1.711833618396048e-19 1.5214027715223206e-11 1.4916364674083915e-11 2.9766304113929354e-13
3.3513546224236106 1.7242655401177072e-19 1.533889119529432e-11 1.503954648019959e-11 2.9934471509472816e-13
3.3576445397418455 1.808810791916803e-19 1.612119721160129e-11 1.5818335364273606e-11 3.0286184732768034e-13
3.3702598118196083 2.1130400355817217e-19 1.8903426823415465e-11 1.8593188196875625e-11 3.102386265398418e-13
3.382922481734668 2.1873981889962413e-19 1.964216375917408e-11 1.9324765616397624e-11 3.1739814277645596e-13
3.389271646505754 2.2256869574445797e-19 2.0023495400589952e-11 1.9702470410662747e-11 3.210249899271975e-13
3.395632727569191 2.267794835171427e-19 2.044061251923097e-11 2.0115849835965816e-11 3.247626832651549e-13
3.421196662673239 2.4713950237587224e-19 2.2443451204487666e-11 2.210322760098847e-11 3.4022360349918967e-13
3.4276182099114902 2.4365269013565876e-19 2.216833548457347e-11 2.1824673107210887e-11 3.4366237736258457e-13
3.4340518103208963 2.2746697873613867e-19 2.073455100916185e-11 2.0387641786860904e-11 3.4690922230094686e-13
3.4469541582030403 2.0428083009954777e-19 1.8691000739558476e-11 1.833787102885732e-11 3.5312971070115163e-13
3.472904465399547 1.9819469135290232e-19 1.827066216926095e-11 1.7903185717546237e-11 3.6747645171471475e-13
3.4990501388274233 1.8880895663218742e-19 1.7536470581435097e-11 1.715433838970371e-11 3.821321917313873e-13
3.5253949054701885 1.545353836548658e-19 1.4461226898509968e-11 1.4064897759619687e-11 3.9632913889027755e-13
3.5519380250092896 1.2192212287754598e-19 1.1495221086915696e-11 1.1084655747838346e-11 4.1056533907734893e-13
3.578680990867387 1.0952688314975726e-19 1.040430676032564e-11 9.978142304591107e-12 4.261644557345314e-13
3.605625307711299 1.0509051178590362e-19 1.0058044053150975e-11 9.615470701581897e-12 4.425733515690779e-13
3.660119384959845 1.030342897854508e-19 1.0010285551326287e-11 9.533329810217874e-12 4.769557411084151e-13
3.715437065384467 1.020157780906332e-19 1.0061128335785971e-11 9.548059970130854e-12 5.130683656551189e-13
3.8285932144167436 1.041383621900584e-19 1.058325843698771e-11 9.993041665092426e-12 5.902167718952789e-13
3.94519561050918 1.073197266958375e-19 1.1238737620842602e-11 1.0565092991258156e-11 6.736446295844431e-13
4.06534921144712 1.1087071021947507e-19 1.1964212548270645e-11 1.1201125036137394e-11 7.630875121332482e-13
4.189162171576248 1.145759195500063e-19 1.2740602250505023e-11 1.188205818343313e-11 8.585440670718953e-13
4.316745939156006 1.1833060158557368e-19 1.3558854321507818e-11 1.2599391295959182e-11 9.594630255486346e-13
4.448215356677963 1.2207023877423453e-19 1.4413353300915008e-11 1.3349134275917663e-11 1.0642190249973451e-12
4.58368876423945 1.2576960380251015e-19 1.5302424552329344e-11 1.4129662486490486e-11 1.1727620658388565e-12
4.723288106065518 1.2942591324704394e-19 1.622688312599683e-11 1.494127717518867e-11 1.2856059508081608e-12
4.867139040275056 1.3302484179631068e-19 1.7186044703539308e-11 1.578665231789124e-11 1.3993923856480692e-12
4.940699165968905 1.3485378449188362e-19 1.7685648241163125e-11 1.6228694313739484e-11 1.4569539274236392e-12
5.015371051989984 1.3662036305849364e-19 1.8188125285157408e-11 1.6673375980024825e-11 1.514749305132588e-12
5.091171501069577 1.3850228589358838e-19 1.8717338785268284e-11 1.7143246697062296e-11 1.5740920882059882e-12
5.129500256944802 1.3941632258285928e-19 1.8982705584259965e-11 1.737893580129775e-11 1.6037697829622086e-12
5.168117569889187 1.4032905350134283e-19 1.9250828007494658e-11 1.7617056149422788e-11 1.6337718580718696e-12
5.20702561229733 1.413703119996205e-19 1.953967623779198e-11 1.7872946303918442e-11 1.6667299338735385e-12
5.246226572918644 1.423968934228164e-19 1.982973866135811e-11 1.812996712553344e-11 1.699771535824669e-12
5.265937586045735 1.4290464615800642e-19 1.9975216236491573e-11 1.825889797683605e-11 1.7163182596555255e-12
5.285722656980489 1.4340869200875915e-19 2.012098696261553e-11 1.838810760280287e-11 1.732879359812661e-12
5.305582063971359 1.4390902189407958e-19 2.0267047755963757e-11 1.8517595113950872e-11 1.7494526420128863e-12
5.3255160863122235 1.4443087272802898e-19 2.041696430014742e-11 1.8650780175779528e-11 1.7661841243678902e-12
5.365609099470188 1.4565848800565787e-19 2.0745516905093322e-11 1.8944699955795145e-11 1.800816949298175e-12
5.406003951863644 1.4688088918389254e-19 2.1077111105951532e-11 1.9241587251234932e-11 1.8355238547165984e-12
5.446702915881641 1.4809868097826373e-19 2.141185587403999e-11 1.95415686535393e-11 1.8702872205006776e-12
5.487708281020852 1.4935986584456105e-19 2.1756767198149448e-11 1.9851511357957025e-11 1.9052558401924227e-12
5.529022354014368 1.510379534882295e-19 2.2166844326047197e-11 2.0225138116936603e-11 1.9417062091105907e-12
5.570647458961463 1.5274284870415604e-19 2.2585826826348182e-11 2.0607602742597752e-11 1.9782240837504355e-12
5.612585937458331 1.5447804015707575e-19 2.3014375133890286e-11 2.0999583590296758e-11 2.0147915435935235e-12
5.654840148729818 1.5631791971895605e-19 2.3463809967136555e-11 2.1412216353633173e-11 2.0515936135033832e-12
5.67608639626678 1.5756448131792153e-19 2.3739783526452035e-11 2.16688996651786e-11 2.070883861273436e-12
5.686739436050992 1.581976032371412e-19 2.387990870048981e-11 2.17993723288855e-11 2.080536371604315e-12
5.6974124697621304 1.5883753900128112e-19 2.402150671276046e-11 2.1931313286250753e-11 2.090193426509705e-12
5.718818669136295 1.6013864122179596e-19 2.430926894769934e-11 2.2199748921178003e-11 2.109520026521336e-12
5.740305295436557 1.6155701940034574e-19 2.461672397575353e-11 2.24877027049753e-11 2.1290212707782257e-12
5.7835210386641895 1.652164399684105e-19 2.536384045419975e-11 2.3194536453507022e-11 2.169304000692724e-12
5.827062130521658 1.6930183393452522e-19 2.6186698279798717e-11 2.3976633576880957e-11 2.2100647029177668e-12
5.8489554468988025 1.7219967060823403e-19 2.673499225754277e-11 2.4502805430957115e-11 2.2321868265856553e-12
5.870931020387893 1.7524987570753236e-19 2.731078160809806e-11 2.50564232696254e-11 2.254358338472654e-12
5.892989160043636 1.7846476179187844e-19 2.79162804029581e-11 2.5639703482823622e-11 2.2765769201344734e-12
5.915130176081913 1.8209494750132415e-19 2.859115076192127e-11 2.6291506049789255e-11 2.2996447121320104e-12
5.95966208400165 1.9230387405785158e-19 3.0421393391416204e-11 2.8068548715274396e-11 2.3528446761418136e-12
6.004529249263818 2.0686781026633021e-19 3.297169813762243e-11 3.0558627555142924e-11 2.413070582479501e-12
6.027089341400364 2.169775706828721e-19 3.471298052893181e-11 3.2264794083104544e-11 2.448186445827264e-12
6.049734195844842 2.287829258141684e-19 3.673916964645478e-11 3.425371706199858e-11 2.4854525844562015e-12
6.095279466722835 2.6279040171074757e-19 4.251797326529468e-11 3.9939845361602355e-11 2.578127903692322e-12
6.141167624020661 3.1449181905191905e-19 5.126603589272877e-11 4.856629751997204e-11 2.6997383727567377e-12
6.164241091010745 3.4739806044614253e-19 5.684292775545001e-11 5.406622490889234e-11 2.7767028465576686e-12
6.187401249150058 3.8427475650195697e-19 6.311310832804326e-11 6.025749984719373e-11 2.855608480849533e-12
6.1990139391386085 4.0215617149411717e-19 6.617390806422663e-11 6.327817301364636e-11 2.8957350505802744e-12
6.204828454712694 4.115245577565507e-19 6.777897064659805e-11 6.486298143012164e-11 2.915989216476402e-12
6.210648424152782 4.182777958442958e-19 6.895586154847845e-11 6.60227567888508e-11 2.933104759627641e-12
6.233982942956859 4.408008959309027e-19 7.294197382797554e-11 6.994979296709237e-11 2.9921808608831555e-12
6.239830258556775 4.434371819828478e-19 7.344704280576838e-11 7.044711495951588e-11 2.999927846252508e-12
6.245683058788269 4.4329691237030415e-19 7.34926794226585e-11 7.048499689364096e-11 3.0076825290175526e-12
6.257405133728602 4.418254669351385e-19 7.338620881360328e-11 7.036521613363552e-11 3.0209926799677596e-12
6.269149208991335 4.363198774179556e-19 7.260775989186619e-11 6.958315085857982e-11 3.0246090332863567e-12
6.280915325867298 4.237907827011838e-19 7.065515905980508e-11 6.76389033874757e-11 3.0162556723293644e-12
6.304513850009849 3.9342409180816673e-19 6.583881219804816e-11 6.285006633859257e-11 2.988745859455599e-12
6.32820103803542 3.566036143818771e-19 5.990118878308888e-11 5.695144395721802e-11 2.949744825870862e-12
6.3519772230701035 3.230702584172691e-19 5.447225374727138e-11 5.1557824891788574e-11 2.9144288554828014e-12
6.375842739491607 2.9475967732828954e-19 4.9885588747006236e-11 4.700268157733282e-11 2.882907169673417e-12
6.399797922933955 2.723472454006998e-19 4.626565139969957e-11 4.340068060612847e-11 2.8649707935710975e-12
6.42384311029221 2.536104446663823e-19 4.324456114768169e-11 4.0394805040644046e-11 2.849756107037646e-12
6.447978639727206 2.4000569082582933e-19 4.1078498664933156e-11 3.823340033564236e-11 2.845098329290791e-12
6.472204850670314 2.2860355179880853e-19 3.927395709777023e-11 3.643143130751623e-11 2.8425257902540078e-12
