Dust emission spectrum from A.P. Jones, M. Kohler, N. Ysard, M. Bocchio, and L. Verstraete (2017), A&A, 602A, 46J 
inside the DustPedia framework.

lambda    nu*dP/dnu     j_nu    j_nu(carb.) j_nu(sil)
 (um)   (erg s-1 H-1) (Jy cm2 sr-1 H-1)
0.9927057738263894 2.0405055837208554e-21 5.376848111507845e-14 5.3768478262216624e-14 2.8528618217396632e-21
1.0001793341362166 2.0748395566283717e-21 5.50848066118957e-14 5.508480317844661e-14 3.43344907548421e-21
1.0077091589558085 2.1093032732104535e-21 5.642137495912803e-14 5.642137083242749e-14 4.126700544046922e-21
1.0114953028030835 2.1265820933384317e-21 5.709728475713041e-14 5.709728023521713e-14 4.521913272751446e-21
1.0152956718711033 2.1438913451811133e-21 5.777829725786544e-14 5.777829230454096e-14 4.9533244991087424e-21
1.0229392996569957 2.178581739990114e-21 5.915523120167373e-14 5.915522526398754e-14 5.9376861907569264e-21
1.0267826658714554 2.195923415792019e-21 5.985013730904042e-14 5.985013081109546e-14 6.497944963145945e-21
1.0306404723013447 2.213292168857985e-21 6.055017089789194e-14 6.055016378919289e-14 7.108699055409462e-21
1.03451277320114 2.2306874176699608e-21 6.125534750292443e-14 6.125533972865539e-14 7.774269035687674e-21
1.0383996230291617 2.248108596783329e-21 6.196568303668818e-14 6.196567453736423e-14 8.499323939605021e-21
1.0403485208654093 2.256828738000233e-21 6.232279048241086e-14 6.232278159669184e-14 8.885719021007954e-21
1.0423010764483396 2.2655551572475475e-21 6.268119380820232e-14 6.268118451929478e-14 9.288907529978636e-21
1.0462171883269815 2.2830265670244913e-21 6.340189654184931e-14 6.340188639338293e-14 1.014846638412301e-20
1.0471985131304309 2.287398241469619e-21 6.358288547033048e-14 6.358287509536172e-14 1.0374968767192373e-20
1.048180758391296 2.2917714288702058e-21 6.376420023913055e-14 6.376418963282448e-14 1.0606306083620767e-20
1.0501480137395462 2.3005223114043028e-21 6.412780839654662e-14 6.41277973126667e-14 1.1083879924304691e-20
1.0521189612883777 2.309279153063379e-21 6.44927232300487e-14 6.449271164805297e-14 1.1581995731285265e-20
1.0531058218030118 2.313653958490174e-21 6.467550834798529e-14 6.467549650895027e-14 1.1839035016672297e-20
1.0540936079674168 2.318011127413838e-21 6.48580861505911e-14 6.485807404900589e-14 1.2101585230742116e-20
1.058054026499678 2.335453553849258e-21 6.559164336012325e-14 6.55916301515448e-14 1.3208578445849074e-20
1.0590464539527713 2.339817562624653e-21 6.577584558630193e-14 6.577583208620022e-14 1.3500101699868285e-20
1.06003981227728 2.344182918319609e-21 6.596037355861162e-14 6.596035976083824e-14 1.37977733820458e-20
1.0620293250338977 2.352917643175041e-21 6.633040791115192e-14 6.633039349909482e-14 1.4412057101499464e-20
1.0660195594769086 2.370402959953914e-21 6.707439855139908e-14 6.707438283141494e-14 1.571998414598006e-20
1.070024785945596 2.387909088314565e-21 6.782363456771898e-14 6.782361742677882e-14 1.7140940164685394e-20
1.0740450607676866 2.4054356323463815e-21 6.857813580691316e-14 6.857811712274518e-14 1.868416797918242e-20
1.07808044048254 2.4229822164904327e-21 6.933792269680048e-14 6.933790233718026e-14 2.0359620206294297e-20
1.0861967418109137 2.4581071098339613e-21 7.087265978650356e-14 7.087263563563595e-14 2.4150867599166577e-20
1.0902777775684922 2.4756233892841622e-21 7.16458716094056e-14 7.164584531880847e-14 2.629059712896279e-20
1.0943741465085532 2.493157354711521e-21 7.242440692128737e-14 7.242437831076147e-14 2.861052590921228e-20
1.1026131145906286 2.5282773146412275e-21 7.399754213641961e-14 7.399750828704383e-14 3.384937579083793e-20
1.1109141095355224 2.563465161915181e-21 7.559226098654049e-14 7.559222099120749e-14 3.9995332986771766e-20
1.1192775983109025 2.5986917200938855e-21 7.720794752324258e-14 7.720790032736711e-14 4.719587547087276e-20
1.1277040513999907 2.6338284852573743e-21 7.884098909441345e-14 7.884093347361536e-14 5.562079808230322e-20
1.1361939428280308 2.6690258277945265e-21 8.049607027705889e-14 8.04960048117403e-14 6.546531856405885e-20
1.1447477501889525 2.7042835285949153e-21 8.217343745942585e-14 8.217336050584417e-14 7.695358167831764e-20
1.1533659546722406 2.7396145697848976e-21 8.387374365175903e-14 8.38736533090335e-14 9.034272553601763e-20
1.1707974979042381 2.810604232607263e-21 8.734758753278739e-14 8.73474634880247e-14 1.240447627090016e-19
1.1884924949847024 2.8818937270056785e-21 9.091673654865872e-14 9.091656708256802e-14 1.6946609068089308e-19
1.2064549276569216 2.9539680642945923e-21 9.459895314930728e-14 9.459872277307818e-14 2.303762290708854e-19
1.2246888378427687 3.0263517148138217e-21 9.838176095948583e-14 9.83814493152424e-14 3.116442434597557e-19
1.2431983285522175 3.098984244295992e-21 1.0226551713655473e-13 1.022650975992842e-13 4.1953727053965206e-19
1.2619875648066055 3.171969590184663e-21 1.0625601486576311e-13 1.0625545278488004e-13 5.620808830227408e-19
1.3004222497298317 3.318539491981878e-21 1.1455150907091229e-13 1.1455051436082856e-13 9.947100837811734e-19
1.3400274889804893 3.466501736562009e-21 1.2330326102263804e-13 1.2330153296483812e-13 1.7280577999129947e-18
1.3808389325824078 3.61641062612973e-21 1.3255319283648236e-13 1.325502444260223e-13 2.9484104600461977e-18
1.4228933163050095 3.769565529458851e-21 1.423747812580801e-13 1.4236983814378793e-13 4.9431142921286266e-18
1.466228494730424 3.928719700598737e-21 1.52905157004606e-13 1.5289700970649288e-13 8.147298113110638e-18
1.5108834753276823 4.0935999883391144e-21 1.641745396103037e-13 1.6416133218528673e-13 1.3207425016940401e-17
1.5568984535646726 4.264146116342456e-21 1.7622267858678863e-13 1.7620159850432673e-13 2.1080082461894742e-17
1.6043148490894465 4.441496973796049e-21 1.891421871993829e-13 1.8910899873470885e-13 3.318846467406343e-17
1.6531753430134553 4.626885958505566e-21 2.0303791620189806e-13 2.029864350585198e-13 5.1481143378312756e-17
1.7035239163302658 4.8217821587137364e-21 2.180345178816347e-13 2.1795582113604602e-13 7.869674558863251e-17
1.755405889504358 5.030095716497264e-21 2.3438144821351004e-13 2.342628360184851e-13 1.1861219502489595e-16
1.8088679632656115 5.252115164309392e-21 2.5217994200683905e-13 2.520036150903673e-13 1.763269164717682e-16
1.8639582606462262 5.488102557450306e-21 2.715362616624489e-13 2.712776214655489e-13 2.5864019689999867e-16
1.9207263702978936 5.739161662945777e-21 2.926061098755006e-13 2.9223163413641756e-13 3.744757390830608e-16
1.979223391128241 6.006812364532136e-21 3.1557915870252314e-13 3.150437718589924e-13 5.353868435307279e-16
2.039501978296691 6.2925104893436326e-21 3.406571526867941e-13 3.399010495344343e-13 7.561031523597523e-16
2.1016163906111602 6.599695208328928e-21 3.6816861099948346e-13 3.671133955931283e-13 1.0552154063549795e-15
2.1656225393682647 6.930412649922588e-21 3.983926247898905e-13 3.9693684646761003e-13 1.4557783222803339e-15
2.231578038680979 7.284660465091613e-21 4.3150996169560015e-13 4.295239745277592e-13 1.98598716784085e-15
2.299542257339062 7.663515499106789e-21 4.677770038740775e-13 4.650971244665051e-13 2.6798794075723312e-15
2.369576372248914 8.068851658119148e-21 5.075184968411313e-13 5.039404204152014e-13 3.578076425929843e-15
2.4417434235010123 8.502809137830473e-21 5.511018771705159e-13 5.463735490100013e-13 4.728328160514529e-15
2.5161083711144245 8.96906752259266e-21 5.990265467972738e-13 5.928403088746644e-13 6.186237922609583e-15
2.5927381535095444 9.473272493379273e-21 6.519707640853109e-13 6.43955093709749e-13 8.015670375561834e-15
2.6717017477616296 1.002049726068152e-20 7.106351437132267e-13 7.003465521894314e-13 1.028859152379545e-14
2.753070231689431 1.0617817145968957e-20 7.759289673687245e-13 7.628438534845337e-13 1.308511388419099e-14
2.836916847834745 1.128294248721284e-20 8.496467762574332e-13 8.331529515551467e-13 1.6493824702286454e-14
2.9233170693905177 1.2053691423250694e-20 9.353312071695166e-13 9.14724090940299e-13 2.060711622921768e-14
2.967498994190263 1.2512978586274938e-20 9.856454350032875e-13 9.6273132264277e-13 2.2914112360517232e-14
3.0123486681368425 1.3004631478316379e-20 1.0398548487734606e-12 1.0144087755805707e-12 2.5446073192890282e-14
3.0578761833420214 1.375015660600536e-20 1.1160842358652793e-12 1.0878548730795868e-12 2.822936278569236e-14
3.1040917844459814 1.4611456636047473e-20 1.2039196444261232e-12 1.172664602460649e-12 3.1255041965473666e-14
3.127460860933648 1.535858037719964e-20 1.2750064779183132e-12 1.2421326600383036e-12 3.28738178800097e-14
3.1510058709225794 1.629235999457516e-20 1.3627074902030688e-12 1.328147236872984e-12 3.4560253330084847e-14
3.162844764501044 1.7108657911244633e-20 1.4363598353682934e-12 1.400927197326068e-12 3.543263804222541e-14
3.1747281389236908 1.8029098377184325e-20 1.5193225469837003e-12 1.4830000319001693e-12 3.63225150835311e-14
3.1986289994194426 2.049945731248059e-20 1.7405065716516915e-12 1.702346333259078e-12 3.816023839261322e-14
3.2227097969389145 2.612282851732184e-20 2.2346567923600684e-12 2.194550161319848e-12 4.0106631040220975e-14
3.2348180950136065 3.136703413112624e-20 2.6933497509637764e-12 2.652204647155447e-12 4.114510380832934e-14
3.240889293275058 3.527480651581633e-20 3.0345777516270773e-12 2.992884879335592e-12 4.1692872291484884e-14
3.2469718861334385 3.9800022351955405e-20 3.430293475903034e-12 3.388033825031223e-12 4.2259650871809536e-14
3.2714166318528037 6.3537940648101e-20 5.51745023860329e-12 5.4728491231086684e-12 4.4601115494621135e-14
3.2744851364798273 6.502741022528454e-20 5.652087996048084e-12 5.607211149076174e-12 4.487684697191129e-14
3.2775565192852394 6.655660543136563e-20 5.790429605426595e-12 5.745275667737124e-12 4.51539376894703e-14
3.283707930232385 6.512228321819163e-20 5.676276906772336e-12 5.6306278522183415e-12 4.564905455399648e-14
3.2898708863219004 6.051232965012081e-20 5.2843571240690105e-12 5.2382578632902e-12 4.609926077881073e-14
3.29141343181113 5.942320767980537e-20 5.1916805451988445e-12 5.145468245030236e-12 4.621230016860805e-14
3.292184975758714 5.888775601947135e-20 5.1461052826353345e-12 5.099836389517508e-12 4.626889311782572e-14
3.295272960557952 5.554089308175155e-20 4.85818094901218e-12 4.8116919913694075e-12 4.648895764277383e-14
3.3076538914384823 4.3867319781331976e-20 3.8515061251216e-12 3.804133473128732e-12 4.737265199286837e-14
3.310756385682612 4.146955036343334e-20 3.6443995550959534e-12 3.596804200120378e-12 4.759535497557587e-14
3.313861789986515 3.924872120434338e-20 3.4524654071434464e-12 3.404646636365688e-12 4.7818770777758993e-14
3.3200813396944477 3.615387128979685e-20 3.186199494380479e-12 3.1379000037632184e-12 4.8299490617260867e-14
3.345076488085796 3.0800131914610245e-20 2.7348156868708873e-12 2.684373459295878e-12 5.044222757500869e-14
3.3482140837626964 3.103361814943604e-20 2.7581321079064036e-12 2.7073995947514353e-12 5.073251315496832e-14
3.3513546224236106 3.1269174460792834e-20 2.7816740151753817e-12 2.7306499293276198e-12 5.102408584776099e-14
3.3576445397418455 3.2861466082084244e-20 2.9288092360961193e-12 2.8771754745806464e-12 5.1633761515472646e-14
3.3702598118196083 3.859314451648761e-20 3.452573879188605e-12 3.399661335644165e-12 5.291254354444019e-14
3.382922481734668 3.999939551840732e-20 3.591822837711421e-12 3.5376678549838914e-12 5.415498272753047e-14
3.389271646505754 4.072393905797016e-20 3.663747966413984e-12 3.608963337865063e-12 5.478462854892155e-14
3.395632727569191 4.1518454608126716e-20 3.742237304186495e-12 3.686803787416159e-12 5.543351677033516e-14
3.421196662673239 4.535185448610339e-20 4.118532745298825e-12 4.060413698650058e-12 5.811904664876713e-14
3.4276182099114902 4.4702032068172595e-20 4.067140170616087e-12 4.008422365964694e-12 5.871780465139392e-14
3.4340518103208963 4.1665490416514154e-20 3.79798088128254e-12 3.738697029684912e-12 5.928385159762838e-14
3.4469541582030403 3.732279480446374e-20 3.414908706571606e-12 3.3545389563449137e-12 6.036975022669286e-14
3.472904465399547 3.620914382280532e-20 3.3379553695849803e-12 3.2750833618490163e-12 6.287200773596427e-14
3.4990501388274233 3.4471078800379066e-20 3.2016545723028766e-12 3.136223246760234e-12 6.543132554264267e-14
3.5253949054701885 2.8032622740342394e-20 2.6232575894320577e-12 2.5553419351734182e-12 6.791565425864028e-14
3.5519380250092896 2.1910947253862057e-20 2.0658365927557106e-12 1.9954256194042904e-12 7.041097335142025e-14
3.578680990867387 1.9594699646106744e-20 1.861362800909675e-12 1.788217130401021e-12 7.314567050865352e-14
3.605625307711299 1.8776677239805043e-20 1.7970856135376517e-12 1.7210608445367857e-12 7.602476900086654e-14
3.660119384959845 1.842678170655006e-20 1.7902520321983952e-12 1.7081833783440358e-12 8.206865385435917e-14
3.715437065384467 1.8276585936991697e-20 1.8024964382345695e-12 1.7140635619429883e-12 8.843287629158092e-14
3.8285932144167436 1.8769523472231055e-20 1.9074883978220624e-12 1.8054029217447337e-12 1.0208547607732867e-13
3.94519561050918 1.9476038399761486e-20 2.0395699113988177e-12 1.922635937032102e-12 1.1693397436671553e-13
4.06534921144712 2.0266498337342442e-20 2.1869860239656602e-12 2.0540351646638286e-12 1.329508593018314e-13
4.189162171576248 2.110036125181566e-20 2.346315972040016e-12 2.19616102484535e-12 1.5015494719466552e-13
4.316745939156006 2.1958005738158665e-20 2.5160473876169613e-12 2.3475783270789935e-12 1.6846906053796798e-13
4.448215356677963 2.282736310016933e-20 2.6953240412638343e-12 2.507700218590139e-12 1.876238226736957e-13
4.58368876423945 2.3703589362442927e-20 2.8840226642340743e-12 2.676393476134207e-12 2.076291880998679e-13
4.723288106065518 2.4586035029029237e-20 3.082494895641259e-12 2.853897836026085e-12 2.2859705961517437e-13
4.867139040275056 2.5472267846804708e-20 3.2908705472172473e-12 3.040924138277879e-12 2.4994640893936804e-13
4.940699165968905 2.5926688235612545e-20 3.4002033381639586e-12 3.139377436761451e-12 2.608259014025065e-13
5.015371051989984 2.6372697912879705e-20 3.51096954369603e-12 3.239163934882341e-12 2.7180560881368876e-13
5.091171501069577 2.6844903112436116e-20 3.6278473165360967e-12 3.3447211144788226e-12 2.8312620205727397e-13
5.129500256944802 2.7077189028038087e-20 3.686787155522027e-12 3.397976020501317e-12 2.8881113502070974e-13
5.168117569889187 2.731013457409702e-20 3.746499320202742e-12 3.4519298842585217e-12 2.945694359442203e-13
5.20702561229733 2.7568936293142475e-20 3.810475352065171e-12 3.509606939429485e-12 3.008684126356848e-13
5.246226572918644 2.7825890210369673e-20 3.8749450049649845e-12 3.567745275033694e-12 3.0719972993129083e-13
5.265937586045735 2.795366359989266e-20 3.907364036244215e-12 3.596987412393341e-12 3.103766238508748e-13
5.285722656980489 2.808096284649665e-20 3.9399054507626364e-12 3.62634492490344e-12 3.1356052585919507e-13
5.305582063971359 2.8207784500784245e-20 3.972568974779808e-12 3.655817904050393e-12 3.167510707294153e-13
5.3255160863122235 2.833909927786556e-20 4.006057481519522e-12 3.686083084906537e-12 3.1997439661298707e-13
5.365609099470188 2.863881931950713e-20 4.078904830535317e-12 3.752260680121578e-12 3.2664415041373705e-13
5.406003951863644 2.893869360726643e-20 4.152644117355551e-12 3.8192980818215725e-12 3.3334603553397997e-13
5.446702915881641 2.923883520392759e-20 4.227301156066271e-12 3.887224027169915e-12 3.400771288963561e-13
5.487708281020852 2.9548776263860456e-20 4.304274394783323e-12 3.957409833257649e-12 3.4686456152567343e-13
5.529022354014368 2.99429373612888e-20 4.394527440442293e-12 4.040587857840299e-12 3.5393958260199376e-13
5.570647458961463 3.034397116447669e-20 4.486911719657652e-12 4.125864474165826e-12 3.610472454918263e-13
5.612585937458331 3.075259046076481e-20 4.581568049952498e-12 4.213383477749544e-12 3.681845722029519e-13
5.654840148729818 3.118370980108044e-20 4.680772634118903e-12 4.3053871125330986e-12 3.753855215858041e-13
5.67608639626678 3.146534375592947e-20 4.740792106845228e-12 4.361636156608561e-12 3.7915595023666656e-13
5.686739436050992 3.1608330392941313e-20 4.771273575029389e-12 4.390228985866416e-12 3.810445891629742e-13
5.6974124697621304 3.175281578742083e-20 4.8020794226761715e-12 4.419143974285325e-12 3.829354483908461e-13
5.718818669136295 3.2046446030353355e-20 4.864695175543682e-12 4.477971537190073e-12 3.8672363835360816e-13
5.740305295436557 3.2364192438546556e-20 4.931388279599352e-12 4.540838546166639e-12 3.905497334327133e-13
5.7835210386641895 3.316716370918069e-20 5.091785350167514e-12 4.693329134105312e-12 3.9845621606219993e-13
5.827062130521658 3.405892330688192e-20 5.268051311937033e-12 4.861576673699484e-12 4.064746382375495e-13
5.8489554468988025 3.467869036311885e-20 5.384066735348175e-12 4.9732520350696444e-12 4.1081470027853053e-13
5.870931020387893 3.5330327013659505e-20 5.50584610298397e-12 5.0906756766444215e-12 4.151704263395483e-13
5.892989160043636 3.601638016351123e-20 5.633848148222352e-12 5.214306700155817e-12 4.1954144806653456e-13
5.915130176081913 3.6787642243895806e-20 5.776113176139609e-12 5.3520375825059925e-12 4.2407559363361616e-13
5.95966208400165 3.8931920348263774e-20 6.158811257445166e-12 5.724342729637987e-12 4.344685278071782e-13
6.004529249263818 4.1968127154563054e-20 6.689104593702121e-12 6.24290662907647e-12 4.4619796462564954e-13
6.027089341400364 4.4065024505630836e-20 7.049707178750406e-12 6.5967012781082045e-12 4.530059006422007e-13
6.049734195844842 4.651033644274462e-20 7.468875287798512e-12 7.008651419737855e-12 4.602238680606567e-13
6.095279466722835 5.353236761921157e-20 8.661228722374899e-12 8.183158043578298e-12 4.780706787966002e-13
6.141167624020661 6.418978529108471e-20 1.0463724769056823e-11 9.962361283971453e-12 5.013634850853677e-13
6.164241091010745 7.097355967006777e-20 1.1613032380467855e-11 1.1096986985179188e-11 5.160453952886653e-13
6.187401249150058 7.857979546682214e-20 1.2905909273974839e-11 1.2374799372065936e-11 5.311099019089002e-13
6.1990139391386085 8.227370296829679e-20 1.3537955755099493e-11 1.299918278339387e-11 5.38772971705621e-13
6.204828454712694 8.420924659265411e-20 1.3869442164256315e-11 1.3326799887361254e-11 5.426422768950636e-13
6.210648424152782 8.56104492391467e-20 1.4113448869361373e-11 1.356752401387683e-11 5.459248554845368e-13
6.233982942956859 9.030166628273813e-20 1.4942759507572708e-11 1.4385449651274611e-11 5.573098562980923e-13
6.239830258556775 9.086243837726946e-20 1.5049656799392922e-11 1.4490812003527198e-11 5.588447958657239e-13
6.245683058788269 9.085404153678045e-20 1.506238090676762e-11 1.4501999161845826e-11 5.603817449217936e-13
6.257405133728602 9.059316947527886e-20 1.5047320151816778e-11 1.4484274488077166e-11 5.630456637396106e-13
6.269149208991335 8.95052239348521e-20 1.489451694703381e-11 1.4330619363345972e-11 5.638975836878346e-13
6.280915325867298 8.697552048709899e-20 1.4500714704449725e-11 1.3938204238053487e-11 5.625104663962355e-13
6.304513850009849 8.081979641025628e-20 1.3525047165474308e-11 1.2967334490185257e-11 5.577126752890535e-13
6.32820103803542 7.332816195493062e-20 1.231744125755121e-11 1.1766679167406492e-11 5.507620901447148e-13
6.3519772230701035 6.650019649161354e-20 1.1212469991143416e-11 1.0667971296714953e-11 5.444986944284617e-13
6.375842739491607 6.073509439023833e-20 1.0278902354366394e-11 9.739961034984349e-12 5.389413193820476e-13
6.399797922933955 5.617649414520082e-20 9.543118716531166e-12 9.007185800308245e-12 5.359329162229213e-13
6.42384311029221 5.2367400864214814e-20 8.929463736388e-12 8.396030325282275e-12 5.334334111057252e-13
6.447978639727206 4.9611508596109166e-20 8.491324862415574e-12 7.958406427631849e-12 5.329184347837244e-13
6.472204850670314 4.730548920598477e-20 8.12705550261954e-12 7.594259362347102e-12 5.327961402724394e-13
6.496522083828205 4.581099931547899e-20 7.899873147995264e-12 7.365594203748084e-12 5.342789442471806e-13
