Dust emission spectrum from A.P. Jones, M. Kohler, N. Ysard, M. Bocchio, and L. Verstraete (2017), A&A, 602A, 46J 
inside the DustPedia framework.

lambda    nu*dP/dnu     j_nu    j_nu(carb.) j_nu(sil)
 (um)   (erg s-1 H-1) (Jy cm2 sr-1 H-1)
0.9927057738263894 2.4055378023100222e-20 6.338728740906401e-13 6.338728604309784e-13 1.365966151696104e-20
1.0001793341362166 2.4459096522732002e-20 6.493632712718251e-13 6.493632548364664e-13 1.6435358800894498e-20
1.0077091589558085 2.4864522258472988e-20 6.650966465289874e-13 6.650966267803687e-13 1.974861876638066e-20
1.0114953028030835 2.5067858670420118e-20 6.730549783335803e-13 6.730549566965776e-13 2.1637002509360373e-20
1.0152956718711033 2.527160221854038e-20 6.810746955284745e-13 6.810746718304699e-13 2.3698004555836054e-20
1.0229392996569957 2.5680087047779363e-20 6.972937754437383e-13 6.972937470442998e-13 2.8399438366662386e-20
1.0267826658714554 2.5884365146551292e-20 7.054812554196845e-13 7.054812243450482e-13 3.1074636415900765e-20
1.0306404723013447 2.608901631362288e-20 7.137306220004599e-13 7.137305880100181e-13 3.399044159431264e-20
1.03451277320114 2.6294035073314566e-20 7.220421126292777e-13 7.220420754618889e-13 3.716738875873508e-20
1.0383996230291617 2.649941614905396e-20 7.304159701622429e-13 7.304159295345792e-13 4.0627663895230414e-20
1.0403485208654093 2.6602240962132368e-20 7.346263639458374e-13 7.346263214743731e-13 4.247146438739412e-20
1.0423010764483396 2.6705154468152543e-20 7.388524430938622e-13 7.388523986986342e-13 4.439522808358933e-20
1.0462171883269815 2.691124516654092e-20 7.473517857854459e-13 7.473517372894959e-13 4.849595005001103e-20
1.0471985131304309 2.6962822350637688e-20 7.494864752435956e-13 7.494864256671847e-13 4.957641094201874e-20
1.048180758391296 2.701442119614683e-20 7.516251144401871e-13 7.516250637603013e-13 5.067988546944875e-20
1.0501480137395462 2.7117683593459883e-20 7.559142586963388e-13 7.559142057385907e-13 5.295774784780112e-20
1.0521189612883777 2.7221031811226784e-20 7.602192521025276e-13 7.602191967691553e-13 5.533337198283392e-20
1.0531058218030118 2.727266995477594e-20 7.623758025089515e-13 7.623757459497857e-13 5.655916600211136e-20
1.0540936079674168 2.7324106644969495e-20 7.645300929787035e-13 7.645300351675172e-13 5.781118600996664e-20
1.058054026499678 2.753005574956333e-20 7.73186688056148e-13 7.731866249666693e-13 6.308947875788112e-20
1.0590464539527713 2.7581593305439037e-20 7.753607166909561e-13 7.753606522116134e-13 6.447934241456755e-20
1.06003981227728 2.763315085389376e-20 7.775387059943553e-13 7.775386400959016e-13 6.589845361459143e-20
1.0620293250338977 2.7736325697246867e-20 7.819065842748175e-13 7.819065154480505e-13 6.882676731067388e-20
1.0660195594769086 2.7942912802553753e-20 7.906900647989076e-13 7.906899897380799e-13 7.506082800056893e-20
1.070024785945596 2.814981361828929e-20 7.995374201384778e-13 7.995373383061201e-13 8.183235755329272e-20
1.0740450607676866 2.8357024939867344e-20 8.084489483966432e-13 8.0844885921146e-13 8.918518312366864e-20
1.07808044048254 2.856454380958237e-20 8.174249555190714e-13 8.174248583525853e-13 9.716648620200024e-20
1.0861967418109137 2.89801780192237e-20 8.355625713346092e-13 8.355624561131269e-13 1.1522148226019678e-19
1.0902777775684922 2.9187571207602696e-20 8.447039999629982e-13 8.4470387455443e-13 1.2540856823159051e-19
1.0943741465085532 2.9395250365261476e-20 8.539106326295855e-13 8.53910496178167e-13 1.364514185484947e-19
1.1026131145906286 2.981146045243953e-20 8.725209011696717e-13 8.725207397887889e-13 1.613808830073536e-19
1.1109141095355224 3.022879876099272e-20 8.913962550376101e-13 8.913960644223067e-13 1.9061530305484207e-19
1.1192775983109025 3.064693591080827e-20 9.105300952990215e-13 9.105298704466764e-13 2.2485234527107406e-19
1.1277040513999907 3.1064380717227006e-20 9.298807857309183e-13 9.298805208360798e-13 2.648948383746368e-19
1.1361939428280308 3.1482904484696106e-20 9.495037723258512e-13 9.495034606604851e-13 3.1166536587859674e-19
1.1447477501889525 3.190251671994311e-20 9.694025921337565e-13 9.694022259110881e-13 3.662226687305901e-19
1.1533659546722406 3.2323377423364187e-20 9.895854336105263e-13 9.89585003829821e-13 4.2978070534629574e-19
1.1707974979042381 3.317011758628045e-20 1.0308565381518578e-12 1.0308559484918167e-12 5.896600409532915e-19
1.1884924949847024 3.4022080308400926e-20 1.0733138711017088e-12 1.0733130661511281e-12 8.049505806315832e-19
1.2064549276569216 3.488498502722307e-20 1.117169513135079e-12 1.1171684197297802e-12 1.0934052989235986e-18
1.2246888378427687 3.5753406370243166e-20 1.1622849590768776e-12 1.1622834811460995e-12 1.4779307784073096e-18
1.2431983285522175 3.662668736677443e-20 1.2086693023549129e-12 1.2086673143766743e-12 1.9879782386457605e-18
1.2619875648066055 3.7506161443150305e-20 1.2563976843261852e-12 1.25639502310516e-12 2.6612210253094164e-18
1.3004222497298317 3.92785784849223e-20 1.3558435722942089e-12 1.355838870686235e-12 4.701607973007162e-18
1.3400274889804893 4.1076217881294774e-20 1.4610786320456931e-12 1.4610704782820784e-12 8.153763614844858e-18
1.3808389325824078 4.290572939578456e-20 1.5726343079784278e-12 1.5726204205740928e-12 1.3887404335243575e-17
1.4228933163050095 4.478204391477538e-20 1.6913974984197127e-12 1.6913742576109255e-12 2.3240808787638106e-17
1.466228494730424 4.673654754211825e-20 1.8189791291783258e-12 1.8189408937101318e-12 3.8235468194112716e-17
1.5108834753276823 4.876481160474723e-20 1.9557212520026414e-12 1.9556593850961516e-12 6.186690649027353e-17
1.5568984535646726 5.0864030925460807e-20 2.1020376715172817e-12 2.1019391145606003e-12 9.855695668209791e-17
1.6043148490894465 5.304437450890264e-20 2.258907092007341e-12 2.258752221536202e-12 1.548704711385028e-16
1.6531753430134553 5.531603511240143e-20 2.4273890911719352e-12 2.4271493273904076e-12 2.397637815273481e-16
1.7035239163302658 5.769042757376164e-20 2.6086837083046355e-12 2.6083179173060865e-12 3.657909985489631e-16
1.755405889504358 6.020590644738724e-20 2.8053437428367863e-12 2.8047935267428047e-12 5.502160939812085e-16
1.8088679632656115 6.285684807427346e-20 3.018067160792594e-12 3.0172508848846132e-12 8.16275907980148e-16
1.8639582606462262 6.563511865219821e-20 3.2474456455619096e-12 3.2462507899325054e-12 1.1948556294034137e-15
1.9207263702978936 6.854036517787742e-20 3.494470238332859e-12 3.492743881938709e-12 1.7263563941484552e-15
1.979223391128241 7.157479742962967e-20 3.7603162853090665e-12 3.7578533789279e-12 2.4629063811656385e-15
2.039501978296691 7.473733176852235e-20 4.046049137747055e-12 4.0425784114838294e-12 3.4707262632259344e-15
2.1016163906111602 7.804771319727351e-20 4.353946243345076e-12 4.349113154379952e-12 4.8330889651235135e-15
2.1656225393682647 8.150678287171088e-20 4.685392170234377e-12 4.6787393158646395e-12 6.652854369737579e-15
2.231578038680979 8.508895068132475e-20 5.0402801922155896e-12 5.031224897829856e-12 9.05529438573266e-15
2.299542257339062 8.8779436612467e-20 5.419050678379752e-12 5.406859702206844e-12 1.21909761729077e-14
2.369576372248914 9.257035453044578e-20 5.822534503539724e-12 5.806295736982091e-12 1.6238766557629896e-14
2.4417434235010123 9.64554734467999e-20 6.251674195931142e-12 6.230266315879158e-12 2.1407880051984934e-14
2.5161083711144245 1.0044453666729082e-19 6.708494923568882e-12 6.680554240492531e-12 2.7940683076350574e-14
2.5927381535095444 1.0456847662618198e-19 7.196624994462655e-12 7.1605110027911565e-12 3.611399167149951e-14
2.6717017477616296 1.088496795287022e-19 7.719418073046509e-12 7.673180288711385e-12 4.623778433512369e-14
2.753070231689431 1.1333233839896108e-19 8.282101970156289e-12 8.223447191630528e-12 5.865477852576373e-14
2.836916847834745 1.1817708297112093e-19 8.899165947864676e-12 8.825424670500058e-12 7.374127736462112e-14
2.9233170693905177 1.2376336741779945e-19 9.603675404114185e-12 9.511790550769988e-12 9.188485334419859e-14
2.967498994190263 1.272199889384431e-19 1.0021099330888759e-11 9.919075671424308e-12 1.0202365946444834e-13
3.0123486681368425 1.30907743265471e-19 1.0467428608304904e-11 1.0354293380340334e-11 1.1313522796457029e-13
3.0578761833420214 1.3719824762859622e-19 1.1136222353986875e-11 1.1010888479026445e-11 1.253338749604319e-13
3.1040917844459814 1.4459253272488377e-19 1.1913787579217307e-11 1.1775217090475521e-11 1.385704887417827e-13
3.127460860933648 1.5163617406452946e-19 1.2588214500999045e-11 1.2442571880511897e-11 1.4564262048714744e-13
3.1510058709225794 1.6063084214026582e-19 1.3435306598617472e-11 1.3282303244269713e-11 1.530033543477631e-13
3.162844764501044 1.688665253046911e-19 1.417721341698254e-11 1.4020405068241945e-11 1.5680834874059363e-13
3.1747281389236908 1.7818726013857994e-19 1.5015943462618927e-11 1.4855255701198606e-11 1.6068776142031783e-13
3.1986289994194426 2.0347585841217777e-19 1.7276119232836882e-11 1.7107425647854276e-11 1.686935849826044e-13
3.2227097969389145 2.6233783885407905e-19 2.2441483819395785e-11 2.2264318097399555e-11 1.7716572199623133e-13
3.2348180950136065 3.1764603786403648e-19 2.7274873148646487e-11 2.7093188981930232e-11 1.8168416671625327e-13
3.240889293275058 3.5899452806239807e-19 3.0883140558844964e-11 3.069907301051013e-11 1.8406754833482877e-13
3.2469718861334385 4.0692915907483766e-19 3.5072503909298495e-11 3.488597027295043e-11 1.8653363634806486e-13
3.2714166318528037 6.582304860273154e-19 5.71588237695884e-11 5.696210809689493e-11 1.9671567269346537e-13
3.2744851364798273 6.739038843127188e-19 5.857474627727153e-11 5.837683324533578e-11 1.979130319357549e-13
3.2775565192852394 6.8999468449409e-19 6.002958869051177e-11 5.983047254892892e-11 1.9911614158284966e-13
3.283707930232385 6.743811460013306e-19 5.878132547325504e-11 5.85800629936978e-11 2.0126247955722825e-13
3.2898708863219004 6.249850741966202e-19 5.457803968816654e-11 5.4374828709078315e-11 2.032109790882274e-13
3.29141343181113 6.133089361245125e-19 5.358351048686877e-11 5.337981035047127e-11 2.0370013639750356e-13
3.292184975758714 6.075676022715772e-19 5.309434522473617e-11 5.289040020456507e-11 2.0394502017111059e-13
3.295272960557952 5.71823910922973e-19 5.001763342455812e-11 4.9812736757613686e-11 2.048966669444339e-13
3.3076538914384823 4.469915212222153e-19 3.9245401598422193e-11 3.9036685036124096e-11 2.0871656229810316e-13
3.310756385682612 4.2129895779238373e-19 3.7024315935067565e-11 3.681463702419426e-11 2.096789108733033e-13
3.313861789986515 3.9748158708619557e-19 3.496397811910631e-11 3.475333390711541e-11 2.106442119909051e-13
3.3200813396944477 3.6420130283597073e-19 3.209664596212049e-11 3.188392324469616e-11 2.1272271742432728e-13
3.345076488085796 3.0596229957139493e-19 2.716710755586155e-11 2.694511612981065e-11 2.219914260508962e-13
3.3482140837626964 3.082790372400895e-19 2.7398491104454605e-11 2.7175243823600142e-11 2.2324728085446795e-13
3.3513546224236106 3.106166401655981e-19 2.7632140967236084e-11 2.7407632430915037e-11 2.2450853632104395e-13
3.3576445397418455 3.2720921272449417e-19 2.91628304704796e-11 2.8935684084983837e-11 2.271463854957579e-13
3.3702598118196083 3.873875402571635e-19 3.465600223489465e-11 3.442332326498978e-11 2.3267896990487877e-13
3.382922481734668 4.0164597060248426e-19 3.6066574286626e-11 3.5828525679543674e-11 2.3804860708233927e-13
3.389271646505754 4.0899452676321135e-19 3.679538130066769e-11 3.6554612558222286e-11 2.4076874244539544e-13
3.395632727569191 4.17095336118008e-19 3.7594600785490066e-11 3.7351028773041193e-11 2.4357201244886333e-13
3.421196662673239 4.564751762064554e-19 4.145382767530278e-11 4.1198659972678385e-11 2.5516770262438907e-13
3.4276182099114902 4.492396953426481e-19 4.087332782494039e-11 4.061558104191845e-11 2.577467830219352e-13
3.4340518103208963 4.166711379655647e-19 3.798128859052684e-11 3.772110667380114e-11 2.6018191672570674e-13
3.4469541582030403 3.698765632456502e-19 3.38424467621404e-11 3.357759947911454e-11 2.6484728302586037e-13
3.472904465399547 3.5659650411347914e-19 3.2873000850441014e-11 3.259739351165498e-11 2.756073387860324e-13
3.4990501388274233 3.367178122800126e-19 3.127416259598667e-11 3.098756345218815e-11 2.865991437985364e-13
3.5253949054701885 2.671824470938751e-19 2.500259745918717e-11 2.470535060501946e-11 2.972468541677038e-13
3.5519380250092896 2.0096796186406666e-19 1.8947924285525584e-11 1.8640000281217572e-11 3.079240043080072e-13
3.578680990867387 1.7502389716861062e-19 1.6626076303477385e-11 1.6306452961676497e-11 3.1962334180089355e-13
3.605625307711299 1.649267252338685e-19 1.578487191425673e-11 1.5452941900579932e-11 3.319300136768029e-13
3.660119384959845 1.5828000593489648e-19 1.5377677273975505e-11 1.50199604681442e-11 3.5771680583130483e-13
3.715437065384467 1.5364517464204075e-19 1.515298759839342e-11 1.476818632415209e-11 3.8480127424133145e-13
3.8285932144167436 1.525056884773887e-19 1.5498679644310985e-11 1.5056017065389538e-11 4.426625789214482e-13
3.94519561050918 1.5328394695291987e-19 1.6052203209327037e-11 1.5546969737138716e-11 5.052334721883164e-13
4.06534921144712 1.5464329622203626e-19 1.668777318647162e-11 1.6115457552371703e-11 5.723156340999139e-13
4.189162171576248 1.5619418132859603e-19 1.7368465782047402e-11 1.6724557731743514e-11 6.439080503038904e-13
4.316745939156006 1.577765139461734e-19 1.8078744967796414e-11 1.735914769863498e-11 7.195972691614331e-13
4.448215356677963 1.593234606570426e-19 1.8811999965212543e-11 1.8013835696464593e-11 7.981642687479501e-13
4.58368876423945 1.6082908403146008e-19 1.9568121786216006e-11 1.8688550236836936e-11 8.79571549379063e-13
4.723288106065518 1.623280197542643e-19 2.035201250308437e-11 1.938780803997836e-11 9.642044631060136e-13
4.867139040275056 1.6386871290554883e-19 2.117089550700985e-11 2.012135121777395e-11 1.0495442892359086e-12
4.940699165968905 1.6476346556446122e-19 2.160820851967588e-11 2.0515493074108316e-11 1.092715445567564e-12
5.015371051989984 1.6559148318314143e-19 2.204502004580766e-11 2.0908958066958408e-11 1.1360619788492499e-12
5.091171501069577 1.66689709009094e-19 2.2526615610792833e-11 2.1346046544638558e-11 1.1805690661542714e-12
5.129500256944802 1.6721135079849495e-19 2.2767232586182763e-11 2.1564405248961342e-11 1.2028273372214214e-12
5.168117569889187 1.677448900595985e-19 2.301182789380483e-11 2.178649900025118e-11 1.2253288935536498e-12
5.20702561229733 1.6851921926143738e-19 2.329209674675404e-11 2.204204929634915e-11 1.2500474504048836e-12
5.246226572918644 1.6928343311753535e-19 2.3573872699952807e-11 2.2299044048084598e-11 1.2748286518682118e-12
5.265937586045735 1.6966192063865775e-19 2.3715348961492012e-11 2.242811026675067e-11 1.287238694741344e-12
5.285722656980489 1.7003809255920546e-19 2.3857230657419407e-11 2.2557571137560218e-11 1.2996595198591859e-12
5.305582063971359 1.7041202482173681e-19 2.3999528311676398e-11 2.2687438830167057e-11 1.3120894815093436e-12
5.3255160863122235 1.708312131650306e-19 2.414895593069717e-11 2.2824317837421583e-11 1.324638093275585e-12
5.365609099470188 1.7203019945383665e-19 2.4501527235525875e-11 2.3150914523552605e-11 1.3506127119732752e-12
5.406003951863644 1.732404007429147e-19 2.4859647805688856e-11 2.3483004914651797e-11 1.3766428910370674e-12
5.446702915881641 1.7446374862560523e-19 2.5223672595466735e-11 2.3820957180091632e-11 1.4027154153751e-12
5.487708281020852 1.7579208625126322e-19 2.5607063009992775e-11 2.4178121129848895e-11 1.42894188014388e-12
5.529022354014368 1.7793593235806577e-19 2.6114483290444533e-11 2.4658203633612057e-11 1.4562796568324744e-12
5.570647458961463 1.8015707212675527e-19 2.6639521700148162e-11 2.5155853637335835e-11 1.4836680628123247e-12
5.612585937458331 1.8246315824686887e-19 2.7183640909335297e-11 2.5672547251640702e-11 1.5110936576946042e-12
5.654840148729818 1.8499684926806733e-19 2.776860723037471e-11 2.6229912020247753e-11 1.5386952101269608e-12
5.67608639626678 1.868972659905125e-19 2.8159269139775572e-11 2.6606106243821095e-11 1.5531628959544796e-12
5.686739436050992 1.8786950068216358e-19 2.8358877960822294e-11 2.6798475682119667e-11 1.5604022787026274e-12
5.6974124697621304 1.8885693944225889e-19 2.8561436213935723e-11 2.6993791144054056e-11 1.5676450698816595e-12
5.718818669136295 1.908790479520719e-19 2.8975705537060356e-11 2.7393565517169993e-11 1.58214001989036e-12
5.740305295436557 1.9313414990632384e-19 2.942818626007409e-11 2.7831420306991083e-11 1.5967659530830039e-12
5.7835210386641895 1.9924803064253126e-19 3.058833165148054e-11 2.8961353650961717e-11 1.6269780005188247e-12
5.827062130521658 2.0622353641128823e-19 3.189754889651093e-11 3.024000036932338e-11 1.6575485271875493e-12
5.8489554468988025 2.1136206233098106e-19 3.281517949481403e-11 3.11410393748756e-11 1.6741401199384312e-12
5.870931020387893 2.1681142597962142e-19 3.378769588944854e-11 3.20969271355949e-11 1.690768753853645e-12
5.892989160043636 2.225963416453324e-19 3.481954548142372e-11 3.311211279132375e-11 1.707432690099974e-12
5.915130176081913 2.2919320714915264e-19 3.5986157930944366e-11 3.426142439684628e-11 1.7247335340980875e-12
5.95966208400165 2.4808601467459163e-19 3.924581490778481e-11 3.748118140067947e-11 1.7646335071053435e-12
6.004529249263818 2.7545568601146556e-19 4.3903600650912736e-11 4.2093797714054237e-11 1.8098029368584872e-12
6.027089341400364 2.946231376614686e-19 4.713504353850103e-11 4.529890370413178e-11 1.8361398343692322e-12
6.049734195844842 3.171172889274438e-19 5.092436786647502e-11 4.9060278428134166e-11 1.8640894383408485e-12
6.095279466722835 3.8229943832698297e-19 6.185384699101459e-11 5.992025106324688e-11 1.9335959277677017e-12
6.141167624020661 4.819975454077274e-19 7.857153021522747e-11 7.654672643566179e-11 2.0248037795656696e-12
6.164241091010745 5.455354085099208e-19 8.926310577020857e-11 8.718057863529243e-11 2.082527134916141e-12
6.187401249150058 6.170079521719551e-19 1.0133710077438934e-10 9.919539441375457e-11 2.141706360634789e-12
6.1990139391386085 6.51673726733033e-19 1.0723146960666374e-10 1.0505966831873104e-10 2.171801287932715e-12
6.204828454712694 6.698589644298243e-19 1.103271973244151e-10 1.0814020541206033e-10 2.186991912354744e-12
6.210648424152782 6.82951126129901e-19 1.125890108575629e-10 1.1038918228784476e-10 2.1998285697181177e-12
6.233982942956859 7.266553104497427e-19 1.202440220200757e-10 1.1799988637441615e-10 2.2441356456595552e-12
6.239830258556775 7.317889159690395e-19 1.2120709317975926e-10 1.1895714729507268e-10 2.249945884686542e-12
6.245683058788269 7.314952008538388e-19 1.2127208828979345e-10 1.1901632639303317e-10 2.2557618967602982e-12
6.257405133728602 7.285970922588204e-19 1.2101832591134768e-10 1.1875258140137483e-10 2.2657445099729052e-12
6.269149208991335 7.178632224635769e-19 1.1945923894250653e-10 1.1719078216754467e-10 2.268456774961837e-12
6.280915325867298 6.934595773546805e-19 1.1561482396394575e-10 1.1335263220970165e-10 2.2621917542441186e-12
6.304513850009849 6.343373575461442e-19 1.061552127164872e-10 1.039136533218983e-10 2.2415593945888826e-12
6.32820103803542 5.6252223191403275e-19 9.449077084362671e-11 9.227846222422625e-11 2.212308619400466e-12
6.3519772230701035 4.970518941842096e-19 8.380696210851476e-11 8.162114046690523e-11 2.1858216416095502e-12
6.375842739491607 4.418661363841241e-19 7.47821159280779e-11 7.261993555082528e-11 2.1621803772526255e-12
6.399797922933955 3.9794129217067427e-19 6.760124588015055e-11 6.54525177849746e-11 2.1487280951759634e-12
6.42384311029221 3.6126701149063816e-19 6.160169542543307e-11 5.946437834515714e-11 2.13731708027594e-12
6.447978639727206 3.3449184476682193e-19 5.725040415252596e-11 5.5116580405560124e-11 2.1338237469658297e-12
6.472204850670314 3.120538754968112e-19 5.361067412128709e-11 5.147877977859881e-11 2.1318943426882636e-12
6.496522083828205 2.9723328153852547e-19 5.125636320103842e-11 4.912000778099697e-11 2.136355420041441e-12
6.520930681187647 2.846265629250494e-19 4.926681024958944e-11 4.712504895983481e-11 2.1417612897546155e-12
