Dust emission spectrum from A.P. Jones, M. Kohler, N. Ysard, M. Bocchio, and L. Verstraete (2017), A&A, 602A, 46J 
inside the DustPedia framework.

lambda    nu*dP/dnu     j_nu    j_nu(carb.) j_nu(sil)
 (um)   (erg s-1 H-1) (Jy cm2 sr-1 H-1)
0.9927057738263894 6.861509174678682e-20 1.808046640121907e-12 1.8080465983051128e-12 4.181679448737929e-20
1.0001793341362166 6.976559980732812e-20 1.8522032517032388e-12 1.8522032013932274e-12 5.031001129659486e-20
1.0077091589558085 7.092107562810857e-20 1.8970551325356744e-12 1.897055072088627e-12 6.04470480867684e-20
1.0114953028030835 7.150063099073993e-20 1.91974337636966e-12 1.919743310145481e-12 6.62241787573245e-20
1.0152956718711033 7.208137470366066e-20 1.9426073544934515e-12 1.942607281964385e-12 7.252906606121817e-20
1.0229392996569957 7.324579248956962e-20 1.9888497685149834e-12 1.9888496816047607e-12 8.691022218847501e-20
1.0267826658714554 7.382814688304524e-20 2.012194367274219e-12 2.0121942721815167e-12 9.509270225290778e-20
1.0306404723013447 7.44115959936932e-20 2.035716259063905e-12 2.0357161550532814e-12 1.04010623527948e-19
1.03451277320114 7.499612509564671e-20 2.0594161547318676e-12 2.0594160410051656e-12 1.1372670229318535e-19
1.0383996230291617 7.558172003919941e-20 2.083294781229878e-12 2.083294656921185e-12 1.2430869271432403e-19
1.0403485208654093 7.587491294067828e-20 2.095301350275773e-12 2.095301220328726e-12 1.299470479636325e-19
1.0423010764483396 7.616836726437665e-20 2.1073528822635743e-12 2.10735274643381e-12 1.3582976463786388e-19
1.0462171883269815 7.675605381438332e-20 2.1315912189505165e-12 2.1315910705816095e-12 1.4836890752141296e-19
1.0471985131304309 7.69031363865258e-20 2.1376790558482296e-12 2.1376789041756182e-12 1.5167261216533857e-19
1.048180758391296 7.705028295541076e-20 2.143778218438e-12 2.1437780633913635e-12 1.5504663672148299e-19
1.0501480137395462 7.734476734891869e-20 2.1560105704861616e-12 2.1560104084747986e-12 1.6201136213945721e-19
1.0521189612883777 7.7639505550858e-20 2.168288375429634e-12 2.168288206154842e-12 1.6927479130252149e-19
1.0531058218030118 7.778677597391068e-20 2.1744389477095987e-12 2.1744387746870437e-12 1.7302255455293806e-19
1.0540936079674168 7.793347568743038e-20 2.180583182009872e-12 2.180583005159424e-12 1.768504481932422e-19
1.058054026499678 7.852087511750015e-20 2.205273244909186e-12 2.2052730519216158e-12 1.9298757076408078e-19
1.0590464539527713 7.866787431960589e-20 2.2114741065729294e-12 2.211473909336335e-12 1.9723659421655405e-19
1.06003981227728 7.881493294895656e-20 2.2176863327016666e-12 2.217686131126697e-12 2.01574968237326e-19
1.0620293250338977 7.910922788935967e-20 2.230144931191345e-12 2.2301447206644075e-12 2.1052693698286797e-19
1.0660195594769086 7.969852444638163e-20 2.255199087660167e-12 2.2551988580763133e-12 2.2958385352828727e-19
1.070024785945596 8.028875591913618e-20 2.280436582784567e-12 2.2804363325020344e-12 2.502825318329736e-19
1.0740450607676866 8.087991413765226e-20 2.305858307408945e-12 2.3058580346522168e-12 2.7275672770716616e-19
1.07808044048254 8.147199164348474e-20 2.3314651754699024e-12 2.3314648783194793e-12 2.971504231370897e-19
1.0861967418109137 8.265797988476481e-20 2.383212213811258e-12 2.3832118614834437e-12 3.5232781550487725e-19
1.0902777775684922 8.32498369049038e-20 2.409295029369292e-12 2.4092946459118105e-12 3.834574818062405e-19
1.0943741465085532 8.384255581947738e-20 2.4355652355898687e-12 2.4355648183897567e-12 4.172001127980541e-19
1.1026131145906286 8.503056588552636e-20 2.488671968680267e-12 2.488671475312642e-12 4.933676234074927e-19
1.1109141095355224 8.62219911031671e-20 2.542540991421296e-12 2.542540408744321e-12 5.826769752162753e-19
1.1192775983109025 8.741590192994483e-20 2.5971539127620207e-12 2.5971532255062187e-12 6.872558018846032e-19
1.1277040513999907 8.860806128050756e-20 2.6523926034655807e-12 2.652391793913532e-12 8.095520497588467e-19
1.1361939428280308 8.980352084273311e-20 2.708415351250949e-12 2.708414398872565e-12 9.523783843803993e-19
1.1447477501889525 9.100231623454039e-20 2.7652326624373167e-12 2.7652315434752704e-12 1.11896204603041e-18
1.1533659546722406 9.220490921832182e-20 2.822868225517738e-12 2.8228669125149303e-12 1.3130028080853558e-18
1.1707974979042381 9.462512799300936e-20 2.940747243699727e-12 2.9407454426898077e-12 1.8010099193019153e-18
1.1884924949847024 9.706129928176771e-20 3.062047879551667e-12 3.0620454215772066e-12 2.457974461548299e-18
1.2064549276569216 9.952974751938085e-20 3.1873770188496246e-12 3.187373680888673e-12 3.3379609511988057e-18
1.2246888378427687 1.0201512730697002e-19 3.31634549277207e-12 3.3163409820671603e-12 4.510704910093455e-18
1.2431983285522175 1.0451561811634204e-19 3.4489829224486735e-12 3.4489768566137496e-12 6.065834924256022e-18
1.2619875648066055 1.0703511007404512e-19 3.5855086008325243e-12 3.585500482869935e-12 8.117962588620523e-18
1.3004222497298317 1.1211681920181543e-19 3.870121438310347e-12 3.870107103810745e-12 1.4334499602519676e-17
1.3400274889804893 1.1727660064498892e-19 4.1715217242378764e-12 4.171496878092992e-12 2.4846144883802878e-17
1.3808389325824078 1.2253384773579976e-19 4.4912634175345394e-12 4.491221123231832e-12 4.2294302707000375e-17
1.4228933163050095 1.2793138936153015e-19 4.8319105833411274e-12 4.8318398429728875e-12 7.074036824093954e-17
1.466228494730424 1.3355872227330884e-19 5.198084606398e-12 5.197968292023808e-12 1.163143741923127e-16
1.5108834753276823 1.394033754479112e-19 5.5907966214277854e-12 5.590608528682427e-12 1.8809274535801435e-16
1.5568984535646726 1.4545726799635002e-19 6.011254935189603e-12 6.010955471590346e-12 2.994635992566664e-16
1.6043148490894465 1.5174898251166961e-19 6.462265904237916e-12 6.461795613587623e-12 4.702906502922949e-16
1.6531753430134553 1.583069587905633e-19 6.946856983584991e-12 6.94612933980944e-12 7.276437755499386e-16
1.7035239163302658 1.651627439582291e-19 7.468437616133769e-12 7.467328180358898e-12 1.1094357748706833e-15
1.755405889504358 1.7242424116609747e-19 8.03424937205117e-12 8.032581615069174e-12 1.6677569819971275e-15
1.8088679632656115 1.8007400406633729e-19 8.6462407014564e-12 8.643768048415074e-12 2.4726530413261315e-15
1.8639582606462262 1.8808702220379013e-19 9.306029969703543e-12 9.302412834329315e-12 3.617135374228288e-15
1.9207263702978936 1.964602013018429e-19 1.001635057946496e-11 1.00111278293185e-11 5.222750146459493e-15
1.979223391128241 2.051975055774682e-19 1.0780435986373196e-11 1.0772989824779363e-11 7.446161593836097e-15
2.039501978296691 2.1429320472258003e-19 1.1601174616164526e-11 1.1590688446504852e-11 1.0486169659675772e-14
2.1016163906111602 2.238007303693277e-19 1.2484880201249238e-11 1.2470287711973024e-11 1.459248927621375e-14
2.1656225393682647 2.3371954902090145e-19 1.3435295891102016e-11 1.3415222687998234e-11 2.0073203103783548e-14
2.231578038680979 2.4397372538103254e-19 1.445188741443672e-11 1.4424584363071614e-11 2.7303051365102107e-14
2.299542257339062 2.545183296547573e-19 1.5535666586805204e-11 1.5498934736831762e-11 3.673184997343746e-14
2.369576372248914 2.6532784321335453e-19 1.6688717783309704e-11 1.6639824559983712e-11 4.8893223325990686e-14
2.4417434235010123 2.763815977963173e-19 1.791342306900242e-11 1.784901266145018e-11 6.441040755224211e-14
2.5161083711144245 2.8770419823066597e-19 1.9215202910566973e-11 1.91311986280469e-11 8.400428252006897e-14
2.5927381535095444 2.9937995316946877e-19 2.060396520380221e-11 2.049546838890076e-11 1.0849681490145344e-13
2.6717017477616296 3.114680024166891e-19 2.2088735009983086e-11 2.1949928287366066e-11 1.388067226170237e-13
2.753070231689431 3.2408814129108596e-19 2.3683717034429415e-11 2.3507769343879805e-11 1.759476905496082e-13
2.836916847834745 3.376863355309303e-19 2.5429014345788404e-11 2.520798393492201e-11 2.2103041086639185e-13
2.9233170693905177 3.533180270910359e-19 2.7416445733491998e-11 2.7141251286161425e-11 2.75194447330581e-13
2.967498994190263 3.6296698020524657e-19 2.8590854258205243e-11 2.828542580181647e-11 3.054284563887773e-13
3.0123486681368425 3.732489250925753e-19 2.984511365847981e-11 2.9506564145056315e-11 3.3854951342349144e-13
3.0578761833420214 3.9078478116323906e-19 3.1719546647335415e-11 3.134464930779451e-11 3.748973395409059e-13
3.1040917844459814 4.1137240176181976e-19 3.389527327713319e-11 3.3480956647161496e-11 4.143166299716836e-13
3.127460860933648 4.309918622090342e-19 3.577918028559292e-11 3.5343810910537044e-11 4.353693750558766e-13
3.1510058709225794 4.560357653895714e-19 3.8143237290593833e-11 3.768596214113609e-11 4.572751494577386e-13
3.162844764501044 4.789823214912311e-19 4.021302968418621e-11 3.9744433084923897e-11 4.685965992623186e-13
3.1747281389236908 5.049388503657343e-19 4.25514889407631e-11 4.2071351101250714e-11 4.801378395123868e-13
3.1986289994194426 5.753355671346642e-19 4.884887049635081e-11 4.834492033299465e-11 5.039501633561682e-13
3.2227097969389145 7.392183186981496e-19 6.323584889823276e-11 6.270670556198854e-11 5.29143336244244e-13
3.2348180950136065 8.931947321726994e-19 7.669471711615475e-11 7.615213900545337e-11 5.425781107013558e-13
3.240889293275058 1.0083126807773649e-18 8.674188549832325e-11 8.619222080782628e-11 5.49664690496958e-13
3.2469718861334385 1.1417712090043408e-18 9.84072394378714e-11 9.785024225161817e-11 5.569971862532215e-13
3.2714166318528037 1.8411188916059943e-18 1.5987741755826212e-10 1.592901508541546e-10 5.872667041074868e-13
3.2744851364798273 1.884715242159184e-18 1.6381670989620236e-10 1.6322588511561497e-10 5.908247805873856e-13
3.2775565192852394 1.929470114082464e-18 1.6786404292944554e-10 1.6726964311641555e-10 5.943998130300128e-13
3.283707930232385 1.8859510355358852e-18 1.6438582588463777e-10 1.6378505126778207e-10 6.007746168557094e-13
3.2898708863219004 1.7484063540995036e-18 1.526829924822568e-10 1.5207643343985557e-10 6.065590424012415e-13
3.29141343181113 1.7158924584195003e-18 1.4991391144738546e-10 1.4930590033339818e-10 6.080111139872623e-13
3.292184975758714 1.69990467654806e-18 1.4855190666575874e-10 1.4794316862051559e-10 6.087380452431526e-13
3.295272960557952 1.6004164837467425e-18 1.399889782178902e-10 1.3937741576118592e-10 6.115624567042738e-13
3.3076538914384823 1.252908811711266e-18 1.100041212132209e-10 1.093812229626647e-10 6.228982505561821e-13
3.310756385682612 1.1813696584106794e-18 1.0382034576656759e-10 1.0319459195688017e-10 6.257538096874296e-13
3.313861789986515 1.1150454578593717e-18 9.808359998811612e-11 9.745498196879813e-11 6.286180193180134e-13
3.3200813396944477 1.0223704109129527e-18 9.010033974535172e-11 8.94655531284136e-11 6.347866169381034e-13
3.345076488085796 8.602105329546689e-19 7.638010337287101e-11 7.571780530315424e-11 6.622980697167739e-13
3.3482140837626964 8.666500817550988e-19 7.702406484794253e-11 7.635803896385598e-11 6.660258840865529e-13
3.3513546224236106 8.731472776733394e-19 7.767429539179045e-11 7.700452580735474e-11 6.697695844356748e-13
3.3576445397418455 9.193072254197668e-19 8.193412569889031e-11 8.125652584541448e-11 6.775998534758122e-13
3.3702598118196083 1.0866954299381511e-18 9.721665085971995e-11 9.652262810364387e-11 6.940227560760729e-13
3.382922481734668 1.12633034253596e-18 1.0114100462508872e-10 1.0043104764655911e-10 7.099569785296453e-13
3.389271646505754 1.14675444311924e-18 1.0316829256063946e-10 1.024502646197868e-10 7.180279408526783e-13
3.395632727569191 1.1692823962676354e-18 1.053924632730628e-10 1.0466611768037556e-10 7.263455926872358e-13
3.421196662673239 1.2788366128887286e-18 1.1613484224075435e-10 1.1537409601979824e-10 7.607462209560858e-13
3.4276182099114902 1.2586742002126195e-18 1.1451838237679675e-10 1.1374999035147551e-10 7.683920253212419e-13
3.4340518103208963 1.1680246047924223e-18 1.0647024848436562e-10 1.0569464006912657e-10 7.756084152390428e-13
3.4469541582030403 1.037743056971225e-18 9.494995803506758e-11 9.416052946517584e-11 7.894285698917729e-13
3.472904465399547 1.0006409594022381e-18 9.224451370097575e-11 9.1423202108167e-11 8.213115928087353e-13
3.4990501388274233 9.452102831061697e-19 8.779060389201647e-11 8.69367343181589e-11 8.538695738575604e-13
3.5253949054701885 7.517709685932451e-19 7.034978200733394e-11 6.946439281803701e-11 8.853891892969299e-13
3.5519380250092896 5.675618479617223e-19 5.351160863046276e-11 5.259462796720627e-11 9.169806632564855e-13
3.578680990867387 4.953652233669622e-19 4.705631708025583e-11 4.6104722010192985e-11 9.515950700628345e-13
3.605625307711299 4.672445872622369e-19 4.47192288096774e-11 4.373123127516864e-11 9.879975345087744e-13
3.660119384959845 4.486706423768906e-19 4.359054891378384e-11 4.2526316357644295e-11 1.0642325561395347e-12
3.715437065384467 4.356793616626311e-19 4.29681178047449e-11 4.18238728030983e-11 1.1442450016466038e-12
3.8285932144167436 4.3227645522916924e-19 4.393091408107423e-11 4.261594120862726e-11 1.3149728724469689e-12
3.94519561050918 4.341678968287208e-19 4.546693535365024e-11 4.396764251007165e-11 1.4992928435785858e-12
4.06534921144712 4.376378216196464e-19 4.722610603517063e-11 4.552955240267192e-11 1.6965536324987119e-12
4.189162171576248 4.416043310228601e-19 4.9105476576228e-11 4.719878817497141e-11 1.9066884012565892e-12
4.316745939156006 4.456222909404134e-19 5.10614130606623e-11 4.893300304314897e-11 2.128410017513307e-12
4.448215356677963 4.495047325558799e-19 5.307493936129426e-11 5.0716875742791097e-11 2.3580636185031524e-12
4.58368876423945 4.532352648090316e-19 5.514526749313648e-11 5.254978766480122e-11 2.5954798283352553e-12
4.723288106065518 4.5690990014085255e-19 5.728546442275798e-11 5.444373343144091e-11 2.841730991317059e-12
4.867139040275056 4.606579776868358e-19 5.951436205945962e-11 5.642501287200768e-11 3.0893491874519503e-12
4.940699165968905 4.628593314834328e-19 6.070254055234617e-11 5.748819026807313e-11 3.214350284273037e-12
5.015371051989984 4.648656275451613e-19 6.188707221437198e-11 5.854739638749551e-11 3.3396758268764776e-12
5.091171501069577 4.676060476722627e-19 6.319275350477968e-11 5.972454759986335e-11 3.4682059049163466e-12
5.129500256944802 4.688959912965228e-19 6.384413523123547e-11 6.031172655592542e-11 3.532408675310037e-12
5.168117569889187 4.702159634690361e-19 6.45058625656175e-11 6.09085846204563e-11 3.5972779451611907e-12
5.20702561229733 4.721981953013324e-19 6.52654699968581e-11 6.159683686144726e-11 3.6686331354108335e-12
5.246226572918644 4.741490586550582e-19 6.602849046531397e-11 6.228837385635466e-11 3.7401166089593395e-12
5.265937586045735 4.751132135009061e-19 6.641134093010222e-11 6.263544656475664e-11 3.775894365345566e-12
5.285722656980489 4.760701225790061e-19 6.679511956721488e-11 6.298342992978737e-11 3.811689637427525e-12
5.305582063971359 4.770199980775786e-19 6.717985401015195e-11 6.33323564875324e-11 3.847497522619519e-12
5.3255160863122235 4.780934639687123e-19 6.75840075020796e-11 6.370036728811449e-11 3.883640213965114e-12
5.365609099470188 4.812289435169566e-19 6.853938496576619e-11 6.458092191411435e-11 3.958463051651844e-12
5.406003951863644 4.843907332111682e-19 6.950909243069e-11 6.547570312534412e-11 4.033389305345875e-12
5.446702915881641 4.875841264369282e-19 7.049408524623843e-11 6.638570565004871e-11 4.1083795961897485e-12
5.487708281020852 4.910611675070142e-19 7.153128747866127e-11 6.734752667419688e-11 4.183760804464376e-12
5.529022354014368 4.967706421000295e-19 7.290775089878336e-11 6.864541071889072e-11 4.262340179892638e-12
5.570647458961463 5.026855454251188e-19 7.433126181292174e-11 6.999025790116605e-11 4.341003911755681e-12
5.612585937458331 5.08826714093206e-19 7.580578355589268e-11 7.138607155758677e-11 4.419711998305891e-12
5.654840148729818 5.155848250833542e-19 7.739089913328815e-11 7.289202899113223e-11 4.498870142155915e-12
5.67608639626678 5.206965953313929e-19 7.845184620756204e-11 7.391146939283339e-11 4.540376814728648e-12
5.686739436050992 5.233118839338722e-19 7.899386434754947e-11 7.443272443883435e-11 4.561139908715113e-12
5.6974124697621304 5.259681886572745e-19 7.954384369067363e-11 7.496193503095031e-11 4.581908659723327e-12
5.718818669136295 5.314082486623923e-19 8.066851285360934e-11 7.604505227348559e-11 4.623460580123733e-12
5.740305295436557 5.374835019094011e-19 8.189729581008106e-11 7.723191882782687e-11 4.6653769822541926e-12
5.7835210386641895 5.540131025429233e-19 8.505146306942362e-11 8.029950845636578e-11 4.751954613057852e-12
5.827062130521658 5.728851581088858e-19 8.861079904293271e-11 8.377129426604151e-11 4.839504776891238e-12
5.8489554468988025 5.8682916719285035e-19 9.11086135413951e-11 8.622155226257427e-11 4.887061278820812e-12
5.870931020387893 6.016173092297882e-19 9.375549556135941e-11 8.882078987981587e-11 4.934705681543533e-12
5.892989160043636 6.173168120710454e-19 9.656354033258649e-11 9.158110756486806e-11 4.982432767718449e-12
5.915130176081913 6.352294334620581e-19 9.973884915390894e-11 9.470685106017695e-11 5.031998093731997e-12
5.95966208400165 6.866041958790711e-19 1.0861692958276313e-10 1.0347041023993746e-10 5.146519342825696e-12
6.004529249263818 7.610885989198338e-19 1.2130637196412142e-10 1.160300849443207e-10 5.276287019800689e-12
6.027089341400364 8.132789706655881e-19 1.3011177599811157e-10 1.247597228915952e-10 5.35205310651631e-12
6.049734195844842 8.74531034365179e-19 1.4043680890211834e-10 1.3500432679853274e-10 5.43248210358562e-12
6.095279466722835 1.0520696123175824e-18 1.702188031166531e-10 1.6458596956706407e-10 5.632833549589057e-12
6.141167624020661 1.3236213158061576e-18 2.1576655980770344e-10 2.0987040933439432e-10 5.896150473309082e-12
6.164241091010745 1.4966501507286358e-18 2.4488903675453974e-10 2.3882604567836353e-10 6.062991076176204e-12
6.187401249150058 1.6912431662420902e-18 2.777689956315315e-10 2.7153499342313796e-10 6.2340022083936205e-12
6.1990139391386085 1.78559112866661e-18 2.9381506878208226e-10 2.8749410701191417e-10 6.320961770168139e-12
6.204828454712694 1.8350816439058265e-18 3.022418529636924e-10 2.9587700177815345e-10 6.364851185538918e-12
6.210648424152782 1.8706816409010726e-18 3.083942430433796e-10 3.019923444298795e-10 6.4018986135001216e-12
6.233982942956859 1.9894254632909774e-18 3.2920218950468187e-10 3.2267259115857656e-10 6.5295983461052554e-12
6.239830258556775 2.0033136675572713e-18 3.318112929469028e-10 3.252650817309422e-10 6.546211215960629e-12
6.245683058788269 2.002411551127395e-18 3.319729646036945e-10 3.25410125454026e-10 6.562839149668312e-12
6.257405133728602 1.9943097559963264e-18 3.3125033105897905e-10 3.246590336254399e-10 6.591297433539226e-12
6.269149208991335 1.9648550764434423e-18 3.2697049343012327e-10 3.203718701447958e-10 6.598623285327421e-12
6.280915325867298 1.898160333681889e-18 3.164646938342482e-10 3.098848336134172e-10 6.579860220831009e-12
6.304513850009849 1.7367093332577287e-18 2.9063517465195435e-10 2.8411637737732207e-10 6.5187972746322925e-12
6.32820103803542 1.5407561519334908e-18 2.588115246270034e-10 2.5237882503615493e-10 6.432699590848528e-12
6.3519772230701035 1.362159800332681e-18 2.2967113918675746e-10 2.2331649723497414e-10 6.3546419517832814e-12
6.375842739491607 1.2116307978123275e-18 2.0505829101432466e-10 1.987734235432429e-10 6.284867471081798e-12
6.399797922933955 1.0918205641757672e-18 1.8547567660858583e-10 1.7923099585343687e-10 6.2446807551489845e-12
6.42384311029221 9.917883206184365e-19 1.6911547445516458e-10 1.6290504607089143e-10 6.210428384273195e-12
6.447978639727206 9.187324583897014e-19 1.5724689666954565e-10 1.5104773993136955e-10 6.199156738176055e-12
6.472204850670314 8.575038450375035e-19 1.4731866130765622e-10 1.4112623788212068e-10 6.192423425535526e-12
6.496522083828205 8.170186600652002e-19 1.4089070027946975e-10 1.3468647210163277e-10 6.204228177836995e-12
6.520930681187647 7.825692926032333e-19 1.3545711422581288e-10 1.292383479774614e-10 6.218766248351484e-12
