Dust emission spectrum from A.P. Jones, M. Kohler, N. Ysard, M. Bocchio, and L. Verstraete (2017), A&A, 602A, 46J 
inside the DustPedia framework.

lambda    nu*dP/dnu     j_nu    j_nu(carb.) j_nu(sil)
 (um)   (erg s-1 H-1) (Jy cm2 sr-1 H-1)
0.9927057738263894 3.6114239393865737e-20 9.516307205068325e-13 9.516306962020378e-13 2.4304794744636832e-20
1.0001793341362166 3.672034251093754e-20 9.748864481957927e-13 9.748864189521676e-13 2.924362523289459e-20
1.0077091589558085 3.7329009050762585e-20 9.985069682749316e-13 9.98506933135984e-13 3.5138947258024804e-20
1.0114953028030835 3.7634278593310904e-20 1.0104548177108535e-12 1.010454779211883e-12 3.849897043394619e-20
1.0152956718711033 3.794015947538087e-20 1.0224948279709528e-12 1.0224947858048173e-12 4.216613536666938e-20
1.0229392996569957 3.855341948358283e-20 1.0468445600653954e-12 1.0468445095339444e-12 5.053145127407641e-20
1.0267826658714554 3.8860103251799105e-20 1.0591364428912967e-12 1.0591363875998344e-12 5.529146230416358e-20
1.0306404723013447 3.916734724420815e-20 1.0715212399985917e-12 1.0715211795190031e-12 6.047958840001549e-20
1.03451277320114 3.9475143249002526e-20 1.0839993081465135e-12 1.0839992420141463e-12 6.61323674714417e-20
1.0383996230291617 3.97834833538081e-20 1.0965710122387955e-12 1.0965709399495205e-12 7.228927530170245e-20
1.0403485208654093 3.9937855054747137e-20 1.1028920941069841e-12 1.1028920185370134e-12 7.556997098046834e-20
1.0423010764483396 4.0092359952882454e-20 1.109236725663283e-12 1.1092366466703366e-12 7.89929461189922e-20
1.0462171883269815 4.0401765754252394e-20 1.1219968306359447e-12 1.121996744346536e-12 8.628940844896628e-20
1.0471985131304309 4.0479199068374044e-20 1.1252016512181626e-12 1.1252015630062773e-12 8.821188509139609e-20
1.048180758391296 4.055666491459487e-20 1.128412401894905e-12 1.128412311719595e-12 9.017531016322674e-20
1.0501480137395462 4.071169378678657e-20 1.1348517185491897e-12 1.1348516243208527e-12 9.422833720885603e-20
1.0521189612883777 4.0866851550716573e-20 1.1413148310145052e-12 1.1413147325591925e-12 9.845531288615837e-20
1.0531058218030118 4.09443764572989e-20 1.1445524736530448e-12 1.1445523730166626e-12 1.0063638245371304e-19
1.0540936079674168 4.1021598936023005e-20 1.147786723869587e-12 1.1477866210054707e-12 1.0286411622803218e-19
1.058054026499678 4.1330792763215033e-20 1.160782929828688e-12 1.160782817572844e-12 1.122558439572203e-19
1.0590464539527713 4.140816673936655e-20 1.1640468150026186e-12 1.1640467002737744e-12 1.14728844540496e-19
1.06003981227728 4.1485570744554134e-20 1.1673166467591825e-12 1.1673165295052969e-12 1.1725388561809294e-19
1.0620293250338977 4.164046849565478e-20 1.1738741765738788e-12 1.1738740541096102e-12 1.224642682650435e-19
1.0660195594769086 4.1950620614133523e-20 1.187060889683346e-12 1.1870607561267416e-12 1.335566050191696e-19
1.070024785945596 4.2261243957930235e-20 1.2003435057919155e-12 1.2003433601866497e-12 1.4560526637742031e-19
1.0740450607676866 4.257233373136157e-20 1.2137224729637384e-12 1.2137223142755037e-12 1.5868823450655037e-19
1.07808044048254 4.288388551023593e-20 1.2271982510685183e-12 1.2271980781790582e-12 1.7288945998148036e-19
1.0861967418109137 4.3507885469997765e-20 1.2544284797880904e-12 1.2544282747731653e-12 2.0501492463994277e-19
1.0902777775684922 4.381924952563924e-20 1.2681526354629604e-12 1.268152412322035e-12 2.2314092529327227e-19
1.0943741465085532 4.413104326474452e-20 1.2819746933448644e-12 1.2819744505552672e-12 2.427895974082322e-19
1.1026131145906286 4.4755910667110817e-20 1.3099146071772297e-12 1.3099143200303458e-12 2.87146883715359e-19
1.1109141095355224 4.538247356816536e-20 1.3382525485996985e-12 1.3382522094356706e-12 3.3916402761386923e-19
1.1192775983109025 4.601023767448312e-20 1.366978617908196e-12 1.3669782178258008e-12 4.000823953710603e-19
1.1277040513999907 4.663696450450038e-20 1.396030314987105e-12 1.396029843656635e-12 4.713304694713728e-19
1.1361939428280308 4.7265313556506225e-20 1.4254908896313045e-12 1.4254903350814915e-12 5.545498134990892e-19
1.1447477501889525 4.789529937824703e-20 1.4553656620849114e-12 1.4553650104606543e-12 6.516242575467841e-19
1.1533659546722406 4.8527162482468826e-20 1.485666936908362e-12 1.4856661721945502e-12 7.647138119547557e-19
1.1707974979042381 4.9798433600902824e-20 1.5476291494500043e-12 1.5476281002610293e-12 1.0491889749016515e-18
1.1884924949847024 5.1077561671085216e-20 1.6113728186718702e-12 1.611371386413932e-12 1.4322579382757238e-18
1.2064549276569216 5.2373137059273156e-20 1.6772164868124774e-12 1.6772145413037009e-12 1.9455087763366958e-18
1.2246888378427687 5.367701920218919e-20 1.74495239476565e-12 1.7449497650662117e-12 2.629699438113349e-18
1.2431983285522175 5.498822726114821e-20 1.8145944135192614e-12 1.8145908762864399e-12 3.53723282140591e-18
1.2619875648066055 5.630876960923407e-20 1.8862556183343746e-12 1.8862508831928258e-12 4.735141548708538e-18
1.3004222497298317 5.897021755426389e-20 2.0355724038850227e-12 2.0355640382592264e-12 8.365625796202732e-18
1.3400274889804893 6.166979161085784e-20 2.1935908273182757e-12 2.19357631923176e-12 1.450808651510288e-17
1.3808389325824078 6.44175867627706e-20 2.3611137348538637e-12 2.361089024833671e-12 2.471002019228419e-17
1.4228933163050095 6.723617112252028e-20 2.5394797043291885e-12 2.5394383516875747e-12 4.1352641614253184e-17
1.466228494730424 7.01728694337207e-20 2.73111711598859e-12 2.7310490831749457e-12 6.803281364396124e-17
1.5108834753276823 7.322130381727712e-20 2.9365531263705428e-12 2.9364430458636536e-12 1.1008050688991508e-16
1.5568984535646726 7.63776160871935e-20 3.156427505937206e-12 3.1562521423969117e-12 1.753635402927155e-16
1.6043148490894465 7.965752968169105e-20 3.3922345280847316e-12 3.391958965252641e-12 2.7556283209160633e-16
1.6531753430134553 8.307692319154899e-20 3.645597821201833e-12 3.645171206714352e-12 4.266144874808438e-16
1.7035239163302658 8.665365685469869e-20 3.9183620647090556e-12 3.917711208527287e-12 6.508561817676887e-16
1.755405889504358 9.044620896945104e-20 4.214415517811197e-12 4.2134365119102964e-12 9.790059009005546e-16
1.8088679632656115 9.4447224836411e-20 4.5348768899443655e-12 4.533424480719303e-12 1.4524092250613367e-15
1.8639582606462262 9.864579927099574e-20 4.880723580208543e-12 4.8785975596782345e-12 2.126020530308478e-15
1.9207263702978936 1.0304294932396133e-19 5.253554146496523e-12 5.250482420468482e-12 3.0717260280402915e-15
1.979223391128241 1.0764380661077752e-19 5.655269362223896e-12 5.650887084230027e-12 4.382277993869697e-15
2.039501978296691 1.1244883034396733e-19 6.087633613453381e-12 6.081458109811669e-12 6.175503641710577e-15
2.1016163906111602 1.1749004959000188e-19 6.554264552887446e-12 6.545664981431444e-12 8.599571456001199e-15
2.1656225393682647 1.2277140877759918e-19 7.057476410528984e-12 7.0456389093052775e-12 1.1837501223705707e-14
2.231578038680979 1.2825742085129393e-19 7.597382887497735e-12 7.581270696787576e-12 1.6112190710158888e-14
2.299542257339062 1.339290912702323e-19 8.174962137581516e-12 8.153270591766023e-12 2.1691545815492477e-14
2.369576372248914 1.3977801185939523e-19 8.791824348256538e-12 8.76293052189055e-12 2.889382636598998e-14
2.4417434235010123 1.4579842445722247e-19 9.44979289837153e-12 9.41170160819313e-12 3.809129017840094e-14
2.5161083711144245 1.5200873035741953e-19 1.015236696564877e-11 1.010265178300296e-11 4.9715182645809176e-14
2.5927381535095444 1.5845918639044013e-19 1.090549827417234e-11 1.0841240228400455e-11 6.425804577188366e-14
2.6717017477616296 1.651871643606162e-19 1.1714768362403907e-11 1.1632496934497987e-11 8.227142790592268e-14
2.753070231689431 1.722625752242638e-19 1.2588606516056408e-11 1.2484241385845047e-11 1.0436513021136582e-13
2.836916847834745 1.7993003103509152e-19 1.3549388467957146e-11 1.3418179754744958e-11 1.3120871321218448e-13
2.9233170693905177 1.8876190808028448e-19 1.4647372091489938e-11 1.4483880302334047e-11 1.6349178915588936e-13
2.967498994190263 1.941890063024252e-19 1.5296238722869057e-11 1.5114706837960992e-11 1.8153188490806897e-13
3.0123486681368425 1.9997772914034647e-19 1.5990288662929238e-11 1.578898583484288e-11 2.0130282808635357e-13
3.0578761833420214 2.0969141215566418e-19 1.7020408291281002e-11 1.679740026859458e-11 2.2300802268642167e-13
3.1040917844459814 2.2107633856426334e-19 1.821571617019254e-11 1.796915608652201e-11 2.4656008367053157e-13
3.127460860933648 2.3179906136813604e-19 1.924300928609948e-11 1.8983865676090125e-11 2.591436100093571e-13
3.1510058709225794 2.4545475372153953e-19 2.0530054056850193e-11 2.0257813407398824e-11 2.7224064945136855e-13
3.162844764501044 2.5789724581438583e-19 2.1651800361057018e-11 2.137278944078983e-11 2.790109202671871e-13
3.1747281389236908 2.71969658201885e-19 2.291904038443141e-11 2.263312678002426e-11 2.8591360440715373e-13
3.1986289994194426 3.1009747315712497e-19 2.632882820531843e-11 2.6028669745853805e-11 3.001584594646198e-13
3.2227097969389145 3.986390164384618e-19 3.410126071122999e-11 3.378602767975573e-11 3.1523303147425303e-13
3.2348180950136065 4.817655142935774e-19 4.13670933159071e-11 4.1043820563144816e-11 3.232727527622778e-13
3.240889293275058 5.43891171093448e-19 4.678920198659458e-11 4.646168845517424e-11 3.2751353142035e-13
3.2469718861334385 6.159056359923355e-19 5.3083816542445147e-11 5.275191507191595e-11 3.319014705291991e-13
3.2714166318528037 9.933872260566996e-19 8.62628617094755e-11 8.591284322315126e-11 3.5001848632421834e-13
3.2744851364798273 1.0169408110968758e-18 8.839101743678432e-11 8.803886847522226e-11 3.52148961562079e-13
3.2775565192852394 1.041121107307484e-18 9.05776134993019e-11 9.022332383073976e-11 3.5428966856214777e-13
3.283707930232385 1.0177207069207278e-18 8.870795464714914e-11 8.834984597444438e-11 3.5810867270475547e-13
3.2898708863219004 9.435978703415283e-19 8.24015230817617e-11 8.20399474211596e-11 3.615756606020875e-13
3.29141343181113 9.260773763569252e-19 8.09094306064358e-11 8.05469845825392e-11 3.6244602389659757e-13
3.292184975758714 9.17462361000569e-19 8.017554448845e-11 7.98126627400044e-11 3.62881748445586e-13
3.295272960557952 8.638178418749375e-19 7.555844261698523e-11 7.519386759235808e-11 3.6457502462715894e-13
3.3076538914384823 6.764770161303657e-19 5.939399498573549e-11 5.902262317683943e-11 3.713718088960547e-13
3.310756385682612 6.379223549160179e-19 5.606146982706808e-11 5.5688385700149816e-11 3.730841269182833e-13
3.313861789986515 6.021829514633499e-19 5.2970281448779707e-11 5.259547975034613e-11 3.748016984335766e-13
3.3200813396944477 5.522580755424226e-19 4.866987512779551e-11 4.829137512044905e-11 3.7850000734644477e-13
3.345076488085796 4.650011935410119e-19 4.128854259570261e-11 4.0893550667203004e-11 3.9499192849960707e-13
3.3482140837626964 4.685040440464368e-19 4.163858820283756e-11 4.124136171726699e-11 3.972264855705839e-13
3.3513546224236106 4.720382957466535e-19 4.199204757044441e-11 4.15925769183403e-11 3.9947065210411164e-13
3.3576445397418455 4.970014474647525e-19 4.429572393550325e-11 4.389155972765625e-11 4.0416420784699215e-13
3.3702598118196083 5.87458270535593e-19 5.255449135786289e-11 5.2140482958173795e-11 4.140083996890886e-13
3.382922481734668 6.089666801925281e-19 5.468333710978846e-11 5.4259774452163374e-11 4.235626576250778e-13
3.389271646505754 6.200506140502953e-19 5.578313956974433e-11 5.5354736943603584e-11 4.284026261407411e-13
3.395632727569191 6.32265831947733e-19 5.6988845196906326e-11 5.65554546798165e-11 4.333905170898315e-13
3.421196662673239 6.916101771499588e-19 6.280711547191156e-11 6.235309260831091e-11 4.5402286360065953e-13
3.4276182099114902 6.807912598397547e-19 6.194066248433505e-11 6.148205063296083e-11 4.586118513742177e-13
3.4340518103208963 6.319291040377205e-19 5.760293786221714e-11 5.713999314909723e-11 4.629447131199077e-13
3.4469541582030403 5.617470443538122e-19 5.139794280425305e-11 5.092669695056732e-11 4.712458536857252e-13
3.472904465399547 5.419945367670966e-19 4.9963997578645016e-11 4.9473606232491046e-11 4.903913461539764e-13
3.4990501388274233 5.123354355586028e-19 4.7585429493171206e-11 4.707548030040659e-11 5.099491927646166e-13
3.5253949054701885 4.0810712392903095e-19 3.819015152682941e-11 3.766125673905853e-11 5.288947877708781e-13
3.5519380250092896 3.088643945011766e-19 2.912075689687037e-11 2.8572864131565746e-11 5.478927653046204e-13
3.578680990867387 2.7010710733051976e-19 2.565833265763994e-11 2.5089623124946193e-11 5.687095326937518e-13
3.605625307711299 2.551525117127839e-19 2.4420236988735816e-11 2.3829630051515438e-11 5.906069372203705e-13
3.660119384959845 2.4559656140330087e-19 2.3860908006356143e-11 2.3224418329679922e-11 6.364896766762191e-13
3.715437065384467 2.3907164853136747e-19 2.357802471677522e-11 2.2893343330175887e-11 6.846813865993345e-13
3.8285932144167436 2.3825915663522207e-19 2.421353837932753e-11 2.3425903699766946e-11 7.876346795605852e-13
3.94519561050918 2.403590987904667e-19 2.517088823515441e-11 2.427192043683743e-11 8.989677983169763e-13
4.06534921144712 2.433578113245116e-19 2.6261079902931536e-11 2.524275203304445e-11 1.018327869887092e-12
4.189162171576248 2.4666357915802823e-19 2.7428473313424314e-11 2.628276022400233e-11 1.1457130894219894e-12
4.316745939156006 2.5002781895586544e-19 2.864931579930559e-11 2.7368928001697707e-11 1.2803877976078792e-12
4.448215356677963 2.533398181221909e-19 2.991291194685045e-11 2.8492728972306344e-11 1.420182974544114e-12
4.58368876423945 2.5658323690243665e-19 3.1218557627464035e-11 2.9653525730858275e-11 1.5650318966057594e-12
4.723288106065518 2.598033675214072e-19 3.257306651152073e-11 3.0857446286337387e-11 1.7156202251833478e-12
4.867139040275056 2.6306008007804317e-19 3.39858498223996e-11 3.211838345117117e-11 1.8674663712284387e-12
4.940699165968905 2.64864289358846e-19 3.4736115644779165e-11 3.2791834332548923e-11 1.944281312230248e-12
5.015371051989984 2.665586359353497e-19 3.548667093028481e-11 3.346526262680404e-11 2.0214083034807564e-12
5.091171501069577 2.686520528854589e-19 3.6305909731181745e-11 3.4205309449167135e-11 2.1006002820146103e-12
5.129500256944802 2.696531189872078e-19 3.6715541428582465e-11 3.4575336745757025e-11 2.140204682825436e-12
5.168117569889187 2.706696265176713e-19 3.713140149480623e-11 3.4951159530865805e-11 2.1802419639404215e-12
5.20702561229733 2.7205034423993135e-19 3.760178195576441e-11 3.537755797587819e-11 2.224223979886228e-12
5.246226572918644 2.734126666786114e-19 3.807457871179341e-11 3.580626125167385e-11 2.268317460119563e-12
5.265937586045735 2.740871502966218e-19 3.831191106806463e-11 3.602151227419977e-11 2.290398793864864e-12
5.285722656980489 2.747573071048815e-19 3.854988227493915e-11 3.6237382962355466e-11 2.31249931258369e-12
5.305582063971359 2.7542323541814403e-19 3.87885053477055e-11 3.6453889259664677e-11 2.3346160880408224e-12
5.3255160863122235 2.7615673716900553e-19 3.90379296166268e-11 3.6680985637596125e-11 2.356943979030669e-12
5.365609099470188 2.7816632642370257e-19 3.9618042904760036e-11 3.721488198431876e-11 2.4031609204412778e-12
5.406003951863644 2.8018914251084483e-19 4.020657636398617e-11 3.7757099642928115e-11 2.449476721058055e-12
5.446702915881641 2.8222796486237063e-19 4.080404003154917e-11 3.830817216443495e-11 2.495867867114218e-12
5.487708281020852 2.844213714519796e-19 4.143073863831038e-11 3.8888205717139605e-11 2.5425329211707804e-12
5.529022354014368 2.8784214989390776e-19 4.2244693997858206e-11 3.965351865239552e-11 2.5911753454626813e-12
5.570647458961463 2.9137501936414237e-19 4.30851315443831e-11 4.044522368934121e-11 2.6399078550418764e-12
5.612585937458331 2.9503135616754115e-19 4.3954223527150174e-11 4.126551699188209e-11 2.6887065352680726e-12
5.654840148729818 2.9902635477113474e-19 4.4884793606069346e-11 4.214697530725796e-11 2.737818298811385e-12
5.67608639626678 3.019783136642789e-19 4.549819690395933e-11 4.273463608334156e-11 2.763560820617772e-12
5.686739436050992 3.0348697016610944e-19 4.5811320722041634e-11 4.303487878342886e-11 2.7764419386127822e-12
5.6974124697621304 3.0501818954082654e-19 4.6128871887834466e-11 4.333954276656591e-11 2.7893291212685403e-12
5.718818669136295 3.081507404344584e-19 4.6777711915756976e-11 4.39625917612071e-11 2.8151201545498802e-12
5.740305295436557 3.116333435219246e-19 4.74841144482267e-11 4.464297020049155e-11 2.8411442477351445e-12
5.7835210386641895 3.210130916537273e-19 4.928156569631521e-11 4.6386664800889175e-11 2.8949008954260388e-12
5.827062130521658 3.316847802187673e-19 5.13032201821823e-11 4.835392479279334e-11 2.9492953893889826e-12
5.8489554468988025 3.395088501259149e-19 5.271070756072378e-11 4.973189055721596e-11 2.9788170035078172e-12
5.870931020387893 3.4779856207840895e-19 5.420061232103746e-11 5.1192207795635926e-11 3.0084045254015334e-12
5.892989160043636 3.5659100468826546e-19 5.577960812039244e-11 5.27415532592485e-11 3.0380548611439464e-12
5.915130176081913 3.6660553564888546e-19 5.7561586873880545e-11 5.4492748419617397e-11 3.068838454263143e-12
5.95966208400165 3.9522363439815424e-19 6.252216040117058e-11 5.938232746047334e-11 3.139832940697239e-12
6.004529249263818 4.366069113196895e-19 6.958874493957714e-11 6.636854150671783e-11 3.220203432859307e-12
6.027089341400364 4.655584343912648e-19 7.448198824073053e-11 7.121492325955127e-11 3.2670649811792452e-12
6.049734195844842 4.995150776859801e-19 8.021476740346307e-11 7.689797136658504e-11 3.3167960368780013e-12
6.095279466722835 5.978453481938366e-19 9.672793361480958e-11 9.328746387219239e-11 3.440469742617199e-12
6.141167624020661 7.481397510632196e-19 1.219559842491557e-10 1.1835322731411402e-10 3.6027569350417454e-12
6.164241091010745 8.439083508711541e-19 1.3808430985246344e-10 1.3437884507930807e-10 3.705464773155335e-12
6.187401249150058 9.515902996694911e-19 1.5628875082417727e-10 1.5247798776581493e-10 3.810763058362357e-12
6.1990139391386085 1.0038169064305585e-18 1.6517585054746288e-10 1.6131153923463425e-10 3.864311312828676e-12
6.204828454712694 1.0312103423123095e-18 1.6984253844554862e-10 1.6595119827785675e-10 3.891340167691842e-12
6.210648424152782 1.0509346715462217e-18 1.7325353252701281e-10 1.6933935194544705e-10 3.914180581565787e-12
6.233982942956859 1.1167714769679052e-18 1.8479888901494345e-10 1.8080587233739099e-10 3.993016677552451e-12
6.239830258556775 1.1245017236203652e-18 1.862525958256246e-10 1.8224924092213636e-10 4.003354903488249e-12
6.245683058788269 1.1240629698518285e-18 1.8635455648108377e-10 1.8234085307961038e-10 4.013703401473365e-12
6.257405133728602 1.1197045831841056e-18 1.8598039384443263e-10 1.819489282630657e-10 4.031465581366872e-12
6.269149208991335 1.1035436080225023e-18 1.8364010779354917e-10 1.7960381624751497e-10 4.036291546034269e-12
6.280915325867298 1.066797320652549e-18 1.7785836184272716e-10 1.73833217720985e-10 4.025144121742196e-12
6.304513850009849 9.777685888823794e-19 1.6362780987994706e-10 1.5963937715591396e-10 3.988432724033143e-12
6.32820103803542 8.696482319658964e-19 1.4608086070065373e-10 1.4214447422141197e-10 3.936386479241752e-12
6.3519772230701035 7.710915569205478e-19 1.300122615951374e-10 1.261230037038052e-10 3.889257891332179e-12
6.375842739491607 6.880019365129775e-19 1.1643852365805358e-10 1.125913309435919e-10 3.847192714461725e-12
6.399797922933955 6.219075923117636e-19 1.0564806641017931e-10 1.0182480949781022e-10 3.823256912369108e-12
6.42384311029221 5.667152911782529e-19 9.66338515549821e-11 9.28308983942565e-11 3.802953160725609e-12
6.447978639727206 5.26445376882055e-19 9.010447059400472e-11 8.630773316190255e-11 3.79673743210216e-12
6.472204850670314 4.926982303245519e-19 8.46452691030088e-11 8.085196468239732e-11 3.793304420611506e-12
6.496522083828205 4.704317564959906e-19 8.112355671427607e-11 7.732231464680014e-11 3.801242067475921e-12
