Dust emission spectrum from A.P. Jones, M. Kohler, N. Ysard, M. Bocchio, and L. Verstraete (2017), A&A, 602A, 46J 
inside the DustPedia framework.

lambda    nu*dP/dnu     j_nu    j_nu(carb.) j_nu(sil)
 (um)   (erg s-1 H-1) (Jy cm2 sr-1 H-1)
0.9927057738263894 3.0451303250857697e-26 8.024091366550543e-19 8.024091366504647e-19 4.589557264456333e-30
1.0001793341362166 3.095410979550741e-26 8.217990381385017e-19 8.217990381329731e-19 5.5287150018293566e-30
1.0077091589558085 3.1456192047073897e-26 8.414160395119334e-19 8.41416039505282e-19 6.651495615608108e-30
1.0114953028030835 3.1706899727998953e-26 8.513087212604621e-19 8.5130872125317e-19 7.29217133994504e-30
1.0152956718711033 3.195735233026061e-26 8.612569879823606e-19 8.612569879743684e-19 7.991975473407518e-30
1.0229392996569957 3.245714859167416e-26 8.81311953480468e-19 8.813119534708772e-19 9.590312890837869e-30
1.0267826658714554 3.2705885818735977e-26 8.914025612132467e-19 8.914025612027457e-19 1.0500897665314659e-29
1.0306404723013447 3.295425799591065e-26 9.015465655829756e-19 9.015465655714814e-19 1.1494217314189618e-29
1.03451277320114 3.320224115663591e-26 9.117435297366903e-19 9.117435297241128e-19 1.2577422033566984e-29
1.0383996230291617 3.3449811467744526e-26 9.219930113754216e-19 9.219930113616631e-19 1.3758245769933598e-29
1.0403485208654093 3.3573434394429603e-26 9.27137306569865e-19 9.27137306555477e-19 1.4387852170755203e-29
1.0423010764483396 3.3696945234033845e-26 9.322945628589118e-19 9.322945628438666e-19 1.5045050868888183e-29
1.0462171883269815 3.394361890273481e-26 9.426477313104637e-19 9.426477312940167e-19 1.6446875889146556e-29
1.0471985131304309 3.4005212683487974e-26 9.452440350130276e-19 9.452440349962112e-19 1.6816431705293538e-29
1.048180758391296 3.4066775880272886e-26 9.478435289692791e-19 9.478435289520852e-19 1.7193942844930615e-29
1.0501480137395462 3.4189809067879284e-26 9.530520587218743e-19 9.530520587039008e-19 1.7973486786752075e-29
1.0521189612883777 3.4312715563445623e-26 9.582732625326518e-19 9.582732625138647e-19 1.878685110016161e-29
1.0531058218030118 3.4374025974107574e-26 9.608859594945772e-19 9.608859594753705e-19 1.9206677168425297e-29
1.0540936079674168 3.443499426759211e-26 9.634931421983077e-19 9.634931421786719e-19 1.963557807655506e-29
1.058054026499678 3.4678519902159583e-26 9.739526208647534e-19 9.739526208433087e-19 2.144477997628493e-29
1.0590464539527713 3.473931264523933e-26 9.765751402277525e-19 9.76575140205831e-19 2.1921440873356022e-29
1.06003981227728 3.4800069212083094e-26 9.792007044996215e-19 9.792007044772133e-19 2.2408243278344695e-29
1.0620293250338977 3.4921472402300304e-26 9.844609376879466e-19 9.844609376645335e-19 2.3413097966830615e-29
1.0660195594769086 3.516382914281889e-26 9.950176110835572e-19 9.950176110580034e-19 2.555380845586623e-29
1.070024785945596 3.5405567670000856e-26 1.0056221549907056e-18 1.0056221549628243e-18 2.7881231345760843e-29
1.0740450607676866 3.564666570530483e-26 1.0162740789773127e-18 1.016274078946902e-18 3.0410806610814117e-29
1.07808044048254 3.5887101148953093e-26 1.0269728883452556e-18 1.0269728883120967e-18 3.3159176060486247e-29
1.0861967418109137 3.636547161274867e-26 1.0484969053119004e-18 1.0484969052725153e-18 3.938540864030937e-29
1.0902777775684922 3.660239653521722e-26 1.0592930306402571e-18 1.0592930305973538e-18 4.2903393138098116e-29
1.0943741465085532 3.683855542944002e-26 1.070133228362907e-18 1.0701332283161864e-18 4.672059545852093e-29
1.1026131145906286 3.730849120371676e-26 1.0919437649920264e-18 1.0919437649366756e-18 5.535080428532117e-29
1.1109141095355224 3.777511311010734e-26 1.1139243284593551e-18 1.1139243283938633e-18 6.54913175203763e-29
1.1192775983109025 3.823782511384484e-26 1.1360577986087557e-18 1.1360577985313647e-18 7.73908462920115e-29
1.1277040513999907 3.869447673262222e-26 1.1582799848839024e-18 1.1582799847925665e-18 9.133633457628193e-29
1.1361939428280308 3.91472754380498e-26 1.1806561787453903e-18 1.180656178637732e-18 1.0765834978215222e-28
1.1447477501889525 3.9596070284537523e-26 1.2031819780583607e-18 1.2031819779316239e-18 1.2673724678073636e-28
1.1533659546722406 4.004095861378443e-26 1.2258604313843074e-18 1.225860431235297e-18 1.4901028909551432e-28
1.1707974979042381 4.092045431873929e-26 1.271720480607047e-18 1.271720480401826e-18 2.0522097720143876e-28
1.1884924949847024 4.178242989791371e-26 1.3181340227067773e-18 1.3181340224255365e-18 2.8124040452359315e-28
1.2064549276569216 4.263363188957501e-26 1.3653150128655242e-18 1.3653150124819814e-18 3.835428982821316e-28
1.2246888378427687 4.346475789690053e-26 1.412968426849837e-18 1.412968426329308e-18 5.205288610913098e-28
1.2431983285522175 4.427386343629048e-26 1.4610237364966079e-18 1.4610237357935474e-18 7.030605137387061e-28
1.2619875648066055 4.506064675785198e-26 1.5094611141856746e-18 1.5094611132405634e-18 9.451115146487143e-28
1.3004222497298317 4.6554164044429613e-26 1.6069869765628033e-18 1.6069869748786605e-18 1.6841422319434653e-27
1.3400274889804893 4.7939471434746124e-26 1.7052041535880712e-18 1.705204150641398e-18 2.946673179596759e-27
1.3808389325824078 4.921143905647725e-26 1.8037590432575028e-18 1.8037590381929314e-18 5.06457132001553e-27
1.4228933163050095 5.037627373803584e-26 1.9026890229123177e-18 1.902689014357247e-18 8.555070135095499e-27
1.466228494730424 5.146204279489063e-26 2.002894666201637e-18 2.0028946519917522e-18 1.420988477000551e-26
1.5108834753276823 5.244763005903552e-26 2.1034213267347666e-18 2.1034213035162475e-18 2.321851894159914e-26
1.5568984535646726 5.331595390918287e-26 2.2033673220712436e-18 2.20336728471129e-18 3.7359953507743317e-26
1.6043148490894465 5.406861473321977e-26 2.302524601461445e-18 2.3025245421552683e-18 5.930617764821959e-26
1.6531753430134553 5.470791607910767e-26 2.400703492600891e-18 2.4007033998281278e-18 9.277276276823743e-26
1.7035239163302658 5.524147415885821e-26 2.4979453216340343e-18 2.49794517858873e-18 1.4304530439202177e-25
1.755405889504358 5.571323260031483e-26 2.5960039087707553e-18 2.596003691261433e-18 2.1750932076571007e-25
1.8088679632656115 5.611235672027318e-26 2.6942308804925477e-18 2.694230554213801e-18 3.2627874665197537e-25
1.8639582606462262 5.643151316211446e-26 2.7920764897503644e-18 2.792076006713396e-18 4.830369682730811e-25
1.9207263702978936 5.667604287279155e-26 2.8895782001081626e-18 2.8895774940858018e-18 7.060223608916528e-25
1.979223391128241 5.685836070011079e-26 2.9871606679265983e-18 2.9871596486955986e-18 1.0192309996351687e-24
2.039501978296691 5.699332087875965e-26 3.0854429953835894e-18 3.0854415415981123e-18 1.4537854767272876e-24
2.1016163906111602 5.712250468687362e-26 3.1866188579188667e-18 3.186616808250865e-18 2.0496680005157e-24
2.1656225393682647 5.727002829039381e-26 3.2921498393975303e-18 3.2921469819737273e-18 2.857423803119576e-24
2.231578038680979 5.743762986366731e-26 3.402342440135326e-18 3.402338499992133e-18 3.940143192997039e-24
2.299542257339062 5.763975466103355e-26 3.518300673172481e-18 3.518295297512536e-18 5.375659946099428e-24
2.369576372248914 5.790832679174024e-26 3.642345678564592e-18 3.6423384195409154e-18 7.259023675880966e-24
2.4417434235010123 5.82810416258388e-26 3.777432954545654e-18 3.777423249757773e-18 9.704787881683596e-24
2.5161083711144245 5.882244610030399e-26 3.928636580433308e-18 3.9286237305314024e-18 1.2849901904615506e-23
2.5927381535095444 5.963816009908292e-26 4.104425037453052e-18 4.1044081812140636e-18 1.6856238987519066e-23
2.6717017477616296 6.085428108064612e-26 4.315673130413973e-18 4.3156512182699425e-18 2.1912144030500246e-23
2.753070231689431 6.266065041699859e-26 4.579115754613742e-18 4.579087519879377e-18 2.823473436304824e-23
2.836916847834745 6.54873506727079e-26 4.931436675119577e-18 4.9314006020915245e-18 3.6073028052331037e-23
2.9233170693905177 7.028157062984262e-26 5.4536443642633255e-18 5.453598662145354e-18 4.5702117971259673e-23
2.967498994190263 7.435159900499959e-26 5.856664233794493e-18 5.8566130314251816e-18 5.1202369312256306e-23
3.0123486681368425 7.910466673140978e-26 6.325236620385527e-18 6.325179331801004e-18 5.728858452324058e-23
3.0578761833420214 8.973671930317604e-26 7.283825243764884e-18 7.28376121297402e-18 6.403079086352089e-23
3.1040917844459814 1.0343680462717307e-25 8.522736928233249e-18 8.5226654941013e-18 7.143413194942688e-23
3.127460860933648 1.1792802740626565e-25 9.789902137982126e-18 9.789826713460164e-18 7.542452195918452e-23
3.1510058709225794 1.3723522752472722e-25 1.1478476569995819e-17 1.147839696652601e-17 7.960346980828108e-23
3.162844764501044 1.5520649814640044e-25 1.303038387243287e-17 1.3030302098775167e-17 8.177365770854645e-23
3.1747281389236908 1.761055862563809e-25 1.484051960067503e-17 1.484043560739046e-17 8.39932845729613e-23
3.1986289994194426 2.343988471396995e-25 1.9901635814809747e-17 1.9901547219436574e-17 8.859537317584535e-23
3.2227097969389145 3.718078399691067e-25 3.180600885117594e-17 3.1805915358285414e-17 9.349289051793437e-23
3.2348180950136065 5.021138687927765e-25 4.3114317337592865e-17 4.311422122548083e-17 9.611211202018759e-23
3.240889293275058 5.995342456435343e-25 5.1575996096609317e-17 5.157589860265166e-17 9.749395767998994e-23
3.2469718861334385 7.122344904130265e-25 6.138622999182542e-17 6.138613106782865e-17 9.892399676512487e-23
3.2714166318528037 1.3133948444194826e-24 1.140513939200072e-16 1.1405128906899724e-16 1.0485100996157305e-22
3.2744851364798273 1.3509749268511617e-24 1.1742477734486737e-16 1.1742467179073887e-16 1.0555412847643005e-22
3.2775565192852394 1.3896343874982417e-24 1.2089829470624744e-16 1.2089818844503176e-16 1.0626121566138552e-22
3.283707930232385 1.3524549798338103e-24 1.1788451801910088e-16 1.1788441048424313e-16 1.0753485772683324e-22
3.2898708863219004 1.2345494377761365e-24 1.0780943576702463e-16 1.0780932706461265e-16 1.0870241197949928e-22
3.29141343181113 1.2067443915943199e-24 1.0543071681061707e-16 1.0543060781478685e-16 1.0899583022032425e-22
3.292184975758714 1.1930819801020709e-24 1.0426149501078254e-16 1.0426138586801324e-16 1.0914276933561254e-22
3.295272960557952 1.106843708958621e-24 9.681599848389001e-17 9.681588876797336e-17 1.0971591665966312e-22
3.3076538914384823 8.080885291142032e-25 7.094935216097569e-17 7.094924013841925e-17 1.1202255643206078e-22
3.310756385682612 7.47284345104871e-25 6.567234780610934e-17 6.567223520117561e-17 1.1260493372854767e-22
3.313861789986515 6.911830574500747e-25 6.079906612564874e-17 6.079895293604044e-17 1.131896083116305e-22
3.3200813396944477 6.125072997548692e-25 5.397957062855615e-17 5.3979456185151366e-17 1.1444340478237611e-22
3.345076488085796 4.721577207749737e-25 4.192398737227753e-17 4.192386734991466e-17 1.2002236287363258e-22
3.3482140837626964 4.77420621531188e-25 4.243105457059736e-17 4.243093379268237e-17 1.2077791498835523e-22
3.3513546224236106 4.827417049935623e-25 4.294421199081456e-17 4.294409045342671e-17 1.2153738784925783e-22
3.3576445397418455 5.216294023765779e-25 4.649071370351113e-17 4.6490590579593034e-17 1.2312391809128422e-22
3.3702598118196083 6.650634955513435e-25 5.949711746762357e-17 5.94969910143764e-17 1.2645324717275132e-22
3.382922481734668 6.977314070805251e-25 6.265413689532032e-17 6.265400718908454e-17 1.2970623578205724e-22
3.389271646505754 7.146556094345022e-25 6.429432162799507e-17 6.429419026941655e-17 1.3135857852190401e-22
3.395632727569191 7.328922055998998e-25 6.605873406489034e-17 6.605860100321225e-17 1.3306167806867279e-22
3.421196662673239 8.204569821644473e-25 7.450806555636525e-17 7.450792542435167e-17 1.4013201361384485e-22
3.4276182099114902 8.02809968340473e-25 7.304233209418938e-17 7.304219036570543e-17 1.4172848394047613e-22
3.4340518103208963 7.254825604236072e-25 6.613072033110338e-17 6.613057708365061e-17 1.4324745277216437e-22
3.4469541582030403 6.153542980292071e-25 5.63028240777638e-17 5.63026778963358e-17 1.4618142801005268e-22
3.472904465399547 5.844900537278114e-25 5.388146493762102e-17 5.3881312021050606e-17 1.5291657042052299e-22
3.4990501388274233 5.372848098939024e-25 4.990271346560753e-17 4.9902553611955724e-17 1.5985365180739092e-22
3.5253949054701885 3.6929187589398734e-25 3.455786941977273e-17 3.4557702757172207e-17 1.666626005206304e-22
3.5519380250092896 2.113994251817015e-25 1.99314371564153e-17 1.9931263592375544e-17 1.735640397539057e-22
3.578680990867387 1.4879464235972795e-25 1.413447601979884e-17 1.4134294878628183e-17 1.8114117065487624e-22
3.605625307711299 1.234724055888286e-25 1.1817345578171829e-17 1.1817156418560244e-17 1.8915961158658991e-22
3.660119384959845 1.0499947315350866e-25 1.020121273407234e-17 1.0201006562052995e-17 2.0617201934447462e-22
3.715437065384467 9.191776829388961e-26 9.065229716938994e-18 9.065005364273305e-18 2.243526656925383e-22
3.8285932144167436 8.527805173461322e-26 8.666543639922723e-18 8.666279334128533e-18 2.643057941905549e-22
3.94519561050918 8.400470534273513e-26 8.797141693613848e-18 8.796832455258938e-18 3.0923835490801944e-22
4.06534921144712 8.493831164210657e-26 9.165811348784067e-18 9.165451863641559e-18 3.594851425089648e-22
4.189162171576248 8.71533636728365e-26 9.691271479297172e-18 9.690855927064344e-18 4.1555223282815664e-22
4.316745939156006 9.030597107973475e-26 1.034766569108443e-17 1.0347187959958975e-17 4.777311254555692e-22
4.448215356677963 9.428189380359036e-26 1.1132264988715046e-17 1.1131719222202376e-17 5.457665126726048e-22
4.58368876423945 9.909710397462374e-26 1.2057173681704411e-17 1.2056553403024078e-17 6.202786803307341e-22
4.723288106065518 1.048639856502421e-25 1.3147410720020953e-17 1.3146708427127667e-17 7.022928932874836e-22
4.867139040275056 1.1180556955509952e-25 1.444463673500046e-17 1.4443846003141157e-17 7.907318593016359e-22
4.940699165968905 1.1599444629939708e-25 1.5212305556786886e-17 1.5211467762025446e-17 8.37794761443134e-22
5.015371051989984 1.2033616720110048e-25 1.6020227412601618e-17 1.6019340659195815e-17 8.86753405800089e-22
5.091171501069577 1.256312547350866e-25 1.6977934636411753e-17 1.6976996088319595e-17 9.385480921554379e-22
5.129500256944802 1.2835051733418588e-25 1.747600307484984e-17 1.7475037877305277e-17 9.65197544561966e-22
5.168117569889187 1.3118600399209139e-25 1.799655265128751e-17 1.799556011460015e-17 9.925366873638361e-22
5.20702561229733 1.3466215691469002e-25 1.861250010966126e-17 1.8611478112332762e-17 1.0219973284952057e-21
5.246226572918644 1.382280084991869e-25 1.9249193000861257e-17 1.9248140922777687e-17 1.052078083571008e-21
5.265937586045735 1.4004547296460734e-25 1.9575560911551484e-17 1.9574493558317275e-17 1.0673532342076109e-21
5.285722656980489 1.4188645966884124e-25 1.9907409831156237e-17 1.9906327045058725e-17 1.0827860975147198e-21
5.305582063971359 1.437513509964043e-25 2.0244842590708296e-17 2.0243744213131607e-17 1.0983775766917182e-21
5.3255160863122235 1.4575427308999102e-25 2.0604042155696078e-17 2.0602927942251393e-17 1.1142134446805476e-21
5.365609099470188 1.5073710401819427e-25 2.1468842512719146e-17 2.1467695479459507e-17 1.1470332596368027e-21
5.406003951863644 1.5591035978791438e-25 2.237282191085155e-17 2.2371641358157317e-17 1.1805526942391884e-21
5.446702915881641 1.6128323718468736e-25 2.3318056627418437e-17 2.3316841846579308e-17 1.2147808391375283e-21
5.487708281020852 1.670881823692594e-25 2.433919356323723e-17 2.433794373247569e-17 1.2498307615468035e-21
5.529022354014368 1.751451722055248e-25 2.5704901828143184e-17 2.5703615298579668e-17 1.2865295635134436e-21
5.570647458961463 1.8367719640602636e-25 2.7160036526559663e-17 2.7158712500125707e-17 1.3240264339534318e-21
5.612585937458331 1.9271839805259798e-25 2.8711482250001376e-17 2.871011991692759e-17 1.3623330737933184e-21
5.654840148729818 2.0265520985229176e-25 3.0419182531174164e-17 3.041778093452468e-17 1.401596649488067e-21
5.67608639626678 2.0941607060411966e-25 3.155211213541775e-17 3.1550690002817615e-17 1.4221326001415946e-21
5.686739436050992 2.1290087671921877e-25 3.2137361086868604e-17 3.213592860042872e-17 1.4324864398891186e-21
5.6974124697621304 2.1645748468743122e-25 3.273555454296251e-17 3.273411164512844e-17 1.4428978340736004e-21
5.718818669136295 2.2379301599876367e-25 3.3972091763885095e-17 3.3970627869657913e-17 1.4638942271946367e-21
5.740305295436557 2.318774425633249e-25 3.533156913250652e-17 3.533008388745962e-17 1.4852450468971276e-21
5.7835210386641895 2.5283896438393432e-25 3.8815551009726195e-17 3.8814021395062343e-17 1.529614663855624e-21
5.827062130521658 2.769822167339468e-25 4.284212149341962e-17 4.284054618901265e-17 1.5753044069682764e-21
5.8489554468988025 2.939106162313425e-25 4.563131869881078e-17 4.562971886835433e-17 1.5998304564572906e-21
5.870931020387893 3.120756931312161e-25 4.8633592839325167e-17 4.863196817502925e-17 1.624664295910779e-21
5.892989160043636 3.315769502947335e-25 5.1866794467694863e-17 5.186514465852838e-17 1.6498091664925061e-21
5.915130176081913 3.537529230514474e-25 5.554356830993742e-17 5.554189245278241e-17 1.6758571550181324e-21
5.95966208400165 4.157388878039493e-25 6.576755832900706e-17 6.576582423460251e-17 1.7340944045343446e-21
6.004529249263818 5.050622908793238e-25 8.049952950209924e-17 8.049773030594996e-17 1.7991961492899857e-21
6.027089341400364 5.671442332397358e-25 9.073410981414864e-17 9.073227353756147e-17 1.8362765872082967e-21
6.049734195844842 6.405043025649745e-25 1.0285556121584271e-16 1.0285368571159139e-16 1.8755042513386836e-21
6.095279466722835 8.523899718022524e-25 1.3791178748067355e-16 1.3790981750995593e-16 1.969970717612131e-21
6.141167624020661 1.1784490032576153e-24 1.921016867175855e-16 1.920995964703373e-16 2.0902472481045396e-21
6.164241091010745 1.3866679870120799e-24 2.2689323050709097e-16 2.268910659874493e-16 2.1645196417157575e-21
6.187401249150058 1.623854567803942e-24 2.667011233829931e-16 2.6669888205380507e-16 2.2413291880199643e-21
6.1990139391386085 1.7396711528493594e-24 2.862590383803788e-16 2.8625675786477124e-16 2.2805156075354684e-21
6.204828454712694 1.800678418964227e-24 2.96575568584026e-16 2.9657326821793537e-16 2.3003660906074207e-21
6.210648424152782 1.8452178199195743e-24 3.041963637116517e-16 3.0419404611759485e-16 2.3175940569143006e-21
6.233982942956859 1.9965484111148725e-24 3.3038086649591466e-16 3.3037848739909156e-16 2.379096823142556e-21
6.239830258556775 2.0159008262617626e-24 3.338961194380821e-16 3.338937307627367e-16 2.3886753454409966e-21
6.245683058788269 2.0175927577367702e-24 3.344898049413053e-16 3.344874066539229e-16 2.398287382565531e-21
6.257405133728602 2.0134673545961976e-24 3.3443236477235876e-16 3.3442994904050676e-16 2.4157318519594302e-21
6.269149208991335 1.9837462537735713e-24 3.301141642520389e-16 3.301117391583112e-16 2.4250937276427596e-21
6.280915325867298 1.9091671792142364e-24 3.1829977485436346e-16 3.1829735044506837e-16 2.4244092948646437e-21
6.304513850009849 1.725235453737853e-24 2.8871504160819436e-16 2.8871262770698323e-16 2.4139012111610256e-21
6.32820103803542 1.4972354465900263e-24 2.5150104912531557e-16 2.5149865550906766e-16 2.3936162480139463e-21
6.3519772230701035 1.2881466061112244e-24 2.1719191712518942e-16 2.17189540741325e-16 2.3763838643615286e-21
6.375842739491607 1.1122482487472869e-24 1.882386329924913e-16 1.882362706902035e-16 2.362302287716941e-21
6.399797922933955 9.71288120291058e-25 1.649999342418173e-16 1.649975743075123e-16 2.3599343050246847e-21
6.42384311029221 8.541004130857973e-25 1.4563752525467244e-16 1.4563516530556928e-16 2.359949103203e-21
6.447978639727206 7.687225490723111e-25 1.3157174772446075e-16 1.3156937844605105e-16 2.3692784096823264e-21
6.472204850670314 6.976089980124018e-25 1.198488196853131e-16 1.1984643912489726e-16 2.3805604158516747e-21
6.496522083828205 6.514162750097662e-25 1.1233341372184262e-16 1.1233101418904266e-16 2.399532799971513e-21
