Dust emission spectrum from A.P. Jones, M. Kohler, N. Ysard, M. Bocchio, and L. Verstraete (2017), A&A, 602A, 46J 
inside the DustPedia framework.

lambda    nu*dP/dnu     j_nu    j_nu(carb.) j_nu(sil)
 (um)   (erg s-1 H-1) (Jy cm2 sr-1 H-1)
0.9927057738263894 8.613528995729259e-25 2.269713814242653e-17 2.269713726798119e-17 8.744453402719253e-25
1.0001793341362166 8.758347483490646e-25 2.3252490816776838e-17 2.325248976409121e-17 1.0526856366304346e-24
1.0077091589558085 8.903525947303558e-25 2.3815881874897094e-17 2.3815880609310124e-17 1.2655869739908463e-24
1.0114953028030835 8.9762401387082e-25 2.4100595074776726e-17 2.4100593687786285e-17 1.3869904371516787e-24
1.0152956718711033 9.049032378429661e-25 2.4387321859018444e-17 2.4387320339481295e-17 1.5195371491359777e-24
1.0229392996569957 9.194764727963552e-25 2.4966629589493704e-17 2.4966627767438406e-17 1.8220552920289288e-24
1.0267826658714554 9.267536667503372e-25 2.525877442162934e-17 2.525877242734696e-17 1.9942823792806785e-24
1.0306404723013447 9.34036770833511e-25 2.5552923782342768e-17 2.5552921600275872e-17 2.182066899401918e-24
1.03451277320114 9.413254177065244e-25 2.5849079130583885e-17 2.5849076743840217e-17 2.3867436633382222e-24
1.0383996230291617 9.486192458281297e-25 2.6147241994268044e-17 2.614723938451254e-17 2.609755496633816e-24
1.0403485208654093 9.522679915023231e-25 2.62970767423378e-17 2.6297074013718318e-17 2.728619482171226e-24
1.0423010764483396 9.559178996232848e-25 2.6447413976807365e-17 2.6447411124145958e-17 2.8526614120129465e-24
1.0462171883269815 9.632210296501625e-25 2.6749596763741038e-17 2.6749593646595684e-17 3.1171453535865353e-24
1.0471985131304309 9.650474712152816e-25 2.6825456854548474e-17 2.682545366770059e-17 3.186847888555351e-24
1.048180758391296 9.668741657678177e-25 2.6901442759697252e-17 2.6901439501655492e-17 3.2580417660947795e-24
1.0501480137395462 9.705282927660031e-25 2.7053792129463878e-17 2.705378872443833e-17 3.405025549057442e-24
1.0521189612883777 9.7418336876312e-25 2.720664510984395e-17 2.7206641551497347e-17 3.5583466030275794e-24
1.0531058218030118 9.760087268967668e-25 2.728319000880805e-17 2.7283186371338467e-17 3.637469585871785e-24
1.0540936079674168 9.778260415396642e-25 2.7359629508434437e-17 2.7359625790141638e-17 3.718292794489829e-24
1.058054026499678 9.850970759827467e-25 2.76666328801378e-17 2.7666628821026665e-17 4.059111132220502e-24
1.0590464539527713 9.869152535227278e-25 2.7743695217698683e-17 2.7743691068823058e-17 4.14887562241465e-24
1.06003981227728 9.88733588714612e-25 2.782088221524642e-17 2.782087797470855e-17 4.240537879402305e-24
1.0620293250338977 9.923707124355153e-25 2.797563031832445e-17 2.7975625888615497e-17 4.4297089477578325e-24
1.0660195594769086 9.996466374631567e-25 2.828662387979525e-17 2.828661904724395e-17 4.832551301163571e-24
1.070024785945596 1.006924544835714e-24 2.85996157476862e-17 2.859961047739106e-17 5.270295140168168e-24
1.0740450607676866 1.0142041356848805e-24 2.891460823879374e-17 2.891460249299052e-17 5.745803216784906e-24
1.07808044048254 1.0214851186593256e-24 2.923160381099399e-17 2.923159754883505e-17 6.2621589325876586e-24
1.0861967418109137 1.0360385411484062e-24 2.987128053076427e-17 2.987127309981722e-17 7.430947047429615e-24
1.0902777775684922 1.0432840744311424e-24 3.019320191123441e-17 3.019319382043488e-17 8.09079953132115e-24
1.0943741465085532 1.0505294510946964e-24 3.051711609983098e-17 3.051710729345812e-17 8.80637285940764e-24
1.1026131145906286 1.0650187468875691e-24 3.1170935697009566e-17 3.1170925274211055e-17 1.0422798504528874e-23
1.1109141095355224 1.0795045389964187e-24 3.183276685804727e-17 3.183275453812459e-17 1.2319922676328636e-23
1.1192775983109025 1.0939731957855754e-24 3.2502287377509795e-17 3.2502272833969554e-17 1.4543540231944765e-23
1.1277040513999907 1.10836849544721e-24 3.317788874684669e-17 3.3177871600441336e-17 1.7146405354348364e-23
1.1361939428280308 1.1227537203651396e-24 3.386151660174165e-17 3.3861496412538256e-17 2.0189203392238066e-23
1.1447477501889525 1.1371275895752049e-24 3.4553212293496445e-17 3.4553188551844964e-17 2.3741651484143248e-23
1.1533659546722406 1.1514948070943085e-24 3.52531999689806e-17 3.5253172085206584e-17 2.788377403110003e-23
1.1707974979042381 1.1802533562965946e-24 3.6679758093991473e-17 3.667971977664909e-17 3.8317342369045834e-23
1.1884924949847024 1.208972164936467e-24 3.8140130839728835e-17 3.814007844762231e-17 5.2392106513329985e-23
1.2064549276569216 1.237852583930666e-24 3.9641443659604836e-17 3.9641372375296845e-17 7.128430800052074e-23
1.2246888378427687 1.266676034773611e-24 4.1177573067997864e-17 4.117747655289688e-17 9.651510098838838e-23
1.2431983285522175 1.2954087513659713e-24 4.274808628197938e-17 4.274795623717957e-17 1.3004479980277419e-22
1.2619875648066055 1.3240804316928934e-24 4.435462132700819e-17 4.435444694022832e-17 1.7438677987983536e-22
1.3004222497298317 1.3809986445917616e-24 4.767021129177348e-17 4.7669902110563227e-17 3.091812102621558e-22
1.3400274889804893 1.4375248222099223e-24 5.113267260476408e-17 5.1132134461106074e-17 5.381436580026803e-22
1.3808389325824078 1.4937980705994102e-24 5.475255002301441e-17 5.475163005718937e-17 9.199658250410184e-22
1.4228933163050095 1.5502810168452974e-24 5.855341124513872e-17 5.855186582070975e-17 1.545424428969377e-21
1.466228494730424 1.6080624923129409e-24 6.258554099007267e-17 6.258298862300461e-17 2.5523670680539993e-21
1.5108834753276823 1.666924970564196e-24 6.685231590454688e-17 6.684816971876783e-17 4.1461857790291514e-21
1.5568984535646726 1.7267573605511198e-24 7.136101790216737e-17 7.135438626846849e-17 6.6316336988615745e-21
1.6043148490894465 1.787976127040853e-24 7.614138145854735e-17 7.613091825259945e-17 1.0463205947912583e-20
1.6531753430134553 1.8510462042499687e-24 8.12279722203779e-17 8.121170655462952e-17 1.6265665748366482e-20
1.7035239163302658 1.916562976273685e-24 8.666440555935381e-17 8.663948579513815e-17 2.491976421566328e-20
1.755405889504358 1.9861782418879577e-24 9.254760922681462e-17 9.25099650609911e-17 3.764416582350245e-20
1.8088679632656115 2.0600160458102044e-24 9.891152625437228e-17 9.885543616011406e-17 5.609009425822934e-20
1.8639582606462262 2.138238404136242e-24 1.057941714325358e-16 1.0571170425297828e-16 8.246717955750105e-20
1.9207263702978936 2.2213873245263974e-24 1.1325547906291074e-16 1.1313579253453593e-16 1.1968652837480685e-19
1.979223391128241 2.31021055864604e-24 1.2137124655798842e-16 1.2119971456846104e-16 1.7153198952733537e-19
2.039501978296691 2.4054775745443324e-24 1.3022515302659166e-16 1.2998230509813824e-16 2.4284792845340546e-19
2.1016163906111602 2.508808771336643e-24 1.3995565120047542e-16 1.3961587638376667e-16 3.3977481670875564e-19
2.1656225393682647 2.621279452128324e-24 1.5068343747942248e-16 1.5021347453450752e-16 4.699629449149581e-19
2.231578038680979 2.7431705881608888e-24 1.6249287679146698e-16 1.6185006250826467e-16 6.428142832023335e-19
2.299542257339062 2.875218019022925e-24 1.755018138320545e-16 1.7463207606173961e-16 8.697377703149374e-19
2.369576372248914 3.0185637517244793e-24 1.8986306884856497e-16 1.8869864530530015e-16 1.1644235432648198e-18
2.4417434235010123 3.1744945494240142e-24 2.057519905358631e-16 2.0420893126326217e-16 1.5430592726008335e-18
2.5161083711144245 3.345011600573321e-24 2.23406808237412e-16 2.2138219661362643e-16 2.0246116237856156e-18
2.5927381535095444 3.5330713966032996e-24 2.431534888942826e-16 2.405224769386941e-16 2.6310119555885073e-18
2.6717017477616296 3.741611988485969e-24 2.653482061803407e-16 2.619610465451745e-16 3.3871596351661424e-18
2.753070231689431 3.974695035905985e-24 2.9046281099189914e-16 2.86141811010446e-16 4.320999981453099e-18
2.836916847834745 4.2416045171578176e-24 3.1940831110735793e-16 3.1394461313744254e-16 5.463697969915357e-18
2.9233170693905177 4.561958305029751e-24 3.5399462444092916e-16 3.471463977882168e-16 6.848226652712441e-18
2.967498994190263 4.760279657331428e-24 3.749665102707179e-16 3.6733838485783865e-16 7.628125412879261e-18
3.0123486681368425 4.975463866607366e-24 3.9783981846893774e-16 3.893542129046808e-16 8.485605564256912e-18
3.0578761833420214 5.317753841770909e-24 4.3163590081733395e-16 4.2220614368604667e-16 9.429757131287369e-18
3.1040917844459814 5.721520770462431e-24 4.71428100779358e-16 4.609696560574029e-16 1.0458444721955036e-17
3.127460860933648 6.083031531618306e-24 5.049883789851187e-16 4.939786580004934e-16 1.1009720984625158e-17
3.1510058709225794 6.540886740067357e-24 5.470855883510783e-16 5.355008804699731e-16 1.1584707881105282e-17
3.162844764501044 6.94491275736328e-24 5.830611493059998e-16 5.711787463808313e-16 1.1882402925168523e-17
3.1747281389236908 7.404184050948851e-24 6.239548720228656e-16 6.117686244505161e-16 1.2186247572349361e-17
3.1986289994194426 8.648360146635295e-24 7.342890809145936e-16 7.214747988603911e-16 1.2814282054202492e-17
3.2227097969389145 1.1499246709390132e-23 9.836940034699318e-16 9.702138592959538e-16 1.3480144173977823e-17
3.2348180950136065 1.4168035066502863e-23 1.216547078008405e-15 1.2027114969136339e-15 1.3835581094771073e-17
3.240889293275058 1.615769427018425e-23 1.3899942875068309e-15 1.3759712210354998e-15 1.4023066471330782e-17
3.2469718861334385 1.8460845090767241e-23 1.5911075605565374e-15 1.5768904995887017e-15 1.4217060967835574e-17
3.2714166318528037 3.060714139383809e-23 2.6578352691927203e-15 2.642816215326007e-15 1.5019053866713104e-17
3.2744851364798273 3.1369858189884935e-23 2.7266224857873535e-15 2.7115088286666156e-15 1.5113657120737224e-17
3.2775565192852394 3.2153417916461615e-23 2.7973497418092864e-15 2.782141000238124e-15 1.5208741571162337e-17
3.283707930232385 3.1419725699995774e-23 2.738648809508982e-15 2.7232698421904717e-15 1.537896731851033e-17
3.2898708863219004 2.9060662858052996e-23 2.537779022755133e-15 2.5222449708348665e-15 1.5534051920266818e-17
3.29141343181113 2.850365800222295e-23 2.490304587973851e-15 2.4747315890907053e-15 1.5572998883144775e-17
3.292184975758714 2.822986427198311e-23 2.466961954028198e-15 2.451369455255324e-15 1.5592498772874154e-17
3.295272960557952 2.6511750177895964e-23 2.3189918723424778e-15 2.3033234906887843e-15 1.5668381653694163e-17
3.3076538914384823 2.053207382504885e-23 1.802695229451362e-15 1.786721979559044e-15 1.5973249892317837e-17
3.310756385682612 1.9307524257694165e-23 1.6967710572717038e-15 1.6807209451426557e-15 1.605011212904757e-17
3.313861789986515 1.8174765533505663e-23 1.5987208592270632e-15 1.5825936262222087e-15 1.6127233004854372e-17
3.3200813396944477 1.6594024350989891e-23 1.4624124640224234e-15 1.4461194306295818e-15 1.6293033392841482e-17
3.345076488085796 1.3839971149953428e-23 1.2288833798396446e-15 1.2118516807905083e-15 1.7031699049136128e-17
3.3482140837626964 1.3957089206108464e-23 1.2404449808886112e-15 1.2233132266502788e-15 1.713175423833267e-17
3.3513546224236106 1.4075319942079897e-23 1.2521261726066938e-15 1.2348939029738346e-15 1.723226963285953e-17
3.3576445397418455 1.48845746160331e-23 1.3266017864786217e-15 1.3091593934839652e-15 1.7442392994656393e-17
3.3702598118196083 1.7814410136816874e-23 1.5936915191051738e-15 1.5758083661246922e-15 1.7883152980481495e-17
3.382922481734668 1.8523685886390367e-23 1.6633700870482273e-15 1.6450581453520405e-15 1.831194169618643e-17
3.389271646505754 1.8889734679209747e-23 1.699423695692565e-15 1.68089434253145e-15 1.8529353161115604e-17
3.395632727569191 1.9288809859213992e-23 1.7385835886671435e-15 1.7198301776619176e-15 1.875341100522626e-17
3.421196662673239 2.1209457764058357e-23 1.9260920485197113e-15 1.9064107252051098e-15 1.968132331460124e-17
3.4276182099114902 2.0873691689187292e-23 1.899158182533587e-15 1.8792693671319735e-15 1.988881540161398e-17
3.4340518103208963 1.9320075887266483e-23 1.7611044082582742e-15 1.7410191409486009e-15 2.0085267309672924e-17
3.4469541582030403 1.710296804461871e-23 1.5648633707569844e-15 1.5444006311677473e-15 2.0462739589236996e-17
3.472904465399547 1.6532491186687646e-23 1.5240547525584912e-15 1.5027230805732685e-15 2.1331671985222734e-17
3.4990501388274233 1.5638441879865072e-23 1.4524897592648658e-15 1.4302679733003937e-15 2.222178596447237e-17
3.5253949054701885 1.2322057822557947e-23 1.1530826779874463e-15 1.1299946735757406e-15 2.308800441170563e-17
3.5519380250092896 9.178641029966082e-24 8.653926410292782e-16 8.414328154665982e-16 2.3959825562679982e-17
3.578680990867387 7.979912716785424e-24 7.580372730276416e-16 7.331217268977036e-16 2.4915546129937916e-17
3.605625307711299 7.545975254512328e-24 7.22213168858625e-16 6.962903522064394e-16 2.5922816652185657e-17
3.660119384959845 7.33675583328824e-24 7.128017387658531e-16 6.847595477603351e-16 2.8042191005517986e-17
3.715437065384467 7.233331692522889e-24 7.133747329665544e-16 6.830937013098851e-16 3.0281031656669274e-17
3.8285932144167436 7.435726847628681e-24 7.55669834250714e-16 7.205609565655694e-16 3.5108877685144315e-17
3.94519561050918 7.754758374619742e-24 8.120938933472286e-16 7.716963510383912e-16 4.039754230883748e-17
4.06534921144712 8.124910677275026e-24 8.767704120069474e-16 8.306237978069714e-16 4.6146614199976055e-17
4.189162171576248 8.526192034966972e-24 9.480946943788438e-16 8.957224090778327e-16 5.2372285301011075e-17
4.316745939156006 8.949624757702623e-24 1.0254883918095756e-15 9.664306698341139e-16 5.905772197546143e-17
4.448215356677963 9.390304733466506e-24 1.1087532971654582e-15 1.0426357432046331e-15 6.611755396082526e-17
4.58368876423945 9.846677353102196e-24 1.1980481191908555e-15 1.124482370468426e-15 7.35657487224291e-17
4.723288106065518 1.0319275852699444e-23 1.293787920870627e-15 1.212334159463432e-15 8.145376140719524e-17
4.867139040275056 1.0808686269097441e-23 1.3964201189705303e-15 1.3068352629541236e-15 8.958485601640673e-17
4.940699165968905 1.1065132523691606e-23 1.4511572092190082e-15 1.3573900677106349e-15 9.376714150837313e-17
5.015371051989984 1.1321382683003934e-23 1.5072037727752577e-15 1.409188272251872e-15 9.801550052338585e-17
5.091171501069577 1.1595439825370895e-23 1.567019447912999e-15 1.4646000785005955e-15 1.0241936941240365e-16
5.129500256944802 1.173222170207955e-23 1.5974407178003032e-15 1.4927982078188243e-15 1.0464250998147945e-16
5.168117569889187 1.1870463811343372e-23 1.6284315435732208e-15 1.5215313766781168e-15 1.0690016689510374e-16
5.20702561229733 1.2022927456689443e-23 1.6617641045794824e-15 1.5524054877962983e-15 1.0935861678318393e-16
5.246226572918644 1.217574157553679e-23 1.6955550619648618e-15 1.5837171339316748e-15 1.1183792803318706e-16
5.265937586045735 1.2252279168061475e-23 1.7126239933534661e-15 1.5995388509316546e-15 1.1308514242181192e-16
5.285722656980489 1.2328903569033148e-23 1.7298094313607463e-15 1.6154721789506848e-15 1.1433725241006158e-16
5.305582063971359 1.2405614789069225e-23 1.7471120577639049e-15 1.631517909054958e-15 1.1559414870894725e-16
5.3255160863122235 1.2485022316873967e-23 1.7649014377290482e-15 1.6480362007700305e-15 1.1686523695901779e-16
5.365609099470188 1.2664455935668537e-23 1.803744418224469e-15 1.6842493982329425e-15 1.1949501999152608e-16
5.406003951863644 1.284560470042077e-23 1.8433183445324146e-15 1.7211717643381244e-15 1.2214658019429013e-16
5.446702915881641 1.3028557237176008e-23 1.883646687238469e-15 1.758827631998334e-15 1.2481905524013434e-16
5.487708281020852 1.3218422565738426e-23 1.9254847402503133e-15 1.797962222465455e-15 1.2752251778485835e-16
5.529022354014368 1.3455194578512437e-23 1.9747301702005845e-15 1.8443886539950904e-15 1.3034151620549384e-16
5.570647458961463 1.3697960602013068e-23 2.0254942778397274e-15 1.8923106582230242e-15 1.3318361961670342e-16
5.612585937458331 1.394718298577253e-23 2.07787269290313e-15 1.9418247356617928e-15 1.3604795724133735e-16
5.654840148729818 1.4211017975524224e-23 2.1331183642717486e-15 1.994171126023618e-15 1.3894723824813034e-16
5.67608639626678 1.4379787761488514e-23 2.1665609264137733e-15 2.026097081653407e-15 1.4046384476036591e-16
5.686739436050992 1.4465677378401343e-23 2.1835922164329197e-15 2.042367655293542e-15 1.4122456113937774e-16
5.6974124697621304 1.4552602922911392e-23 2.200836471018567e-15 2.058849602705774e-15 1.419868683127927e-16
5.718818669136295 1.4729664001162634e-23 2.2359835264093156e-15 2.092467325716809e-15 1.4351620069250643e-16
5.740305295436557 1.49207874987348e-23 2.273506336775377e-15 2.128443484989425e-15 1.4506285178595219e-16
5.7835210386641895 1.5397941443501646e-23 2.3638745040793736e-15 2.215613218453658e-15 1.4826128562571615e-16
5.827062130521658 1.592912934153129e-23 2.4638321643219035e-15 2.312317340495189e-15 1.5151482382671472e-16
5.8489554468988025 1.629258006447165e-23 2.5295170446058755e-15 2.376246338758273e-15 1.5327070584760207e-16
5.870931020387893 1.667580347278491e-23 2.5987420815341393e-15 2.4437059758523393e-15 1.5503610568179957e-16
5.892989160043636 1.7080358387805318e-23 2.6717883651062015e-15 2.5149774352813013e-15 1.5681092982489993e-16
5.915130176081913 1.7534396074775433e-23 2.753116264741499e-15 2.5944658194059977e-15 1.5865044533550172e-16
5.95966208400165 1.8785189543115368e-23 2.971711536354761e-15 2.8088742722308433e-15 1.6283726412391879e-16
6.004529249263818 2.0550200836988757e-23 3.2754009325683435e-15 3.107854514093021e-15 1.6754641847532278e-16
6.027089341400364 2.176494301095586e-23 3.4820467413974123e-15 3.3117817422886886e-15 1.7026499910872396e-16
6.049734195844842 2.3183371402227542e-23 3.72290813176784e-15 3.54976380213572e-15 1.7314432963212026e-16
6.095279466722835 2.724925214605572e-23 4.40877203544336e-15 4.228558259512512e-15 1.802137759308479e-16
6.141167624020661 3.3427174453246764e-23 5.449040711070916e-15 5.259661458138192e-15 1.893792529327231e-16
6.164241091010745 3.736285254559379e-23 6.1134881560916946e-15 5.9183610780874525e-15 1.9512707800424367e-16
6.187401249150058 4.1791899560501493e-23 6.863882260200462e-15 6.662850799684874e-15 2.0103146051558807e-16
6.1990139391386085 4.394854416789991e-23 7.231635686500348e-15 7.027599440403836e-15 2.0403624609651207e-16
6.204828454712694 4.507992113534444e-23 7.424758969526718e-15 7.219204800343788e-15 2.0555416918292807e-16
6.210648424152782 4.5903866311890655e-23 7.567556015143813e-15 7.36070747118481e-15 2.068485439590044e-16
6.233982942956859 4.86812302206979e-23 8.055575779111884e-15 7.84420967803307e-15 2.113661010788113e-16
6.239830258556775 4.9024782660089356e-23 8.120034712646967e-15 7.908038155030841e-15 2.1199655761612582e-16
6.245683058788269 4.90391862625548e-23 8.130039020283977e-15 7.917410913674625e-15 2.1262810660935298e-16
6.257405133728602 4.892719479645502e-23 8.126696179158007e-15 7.912960534730218e-15 2.1373564442778724e-16
6.269149208991335 4.833732313444428e-23 8.043788361719153e-15 7.829635536202909e-15 2.1415282551624344e-16
6.280915325867298 4.6912317346124825e-23 7.82130565187784e-15 7.607589583813111e-15 2.137160680647268e-16
6.304513850009849 4.3421077249491535e-23 7.26643896495327e-15 7.054369423367041e-15 2.1206954158622883e-16
6.32820103803542 3.9140071394836583e-23 6.574629956203928e-15 6.365029430628844e-15 2.0960052557508586e-16
6.3519772230701035 3.523054251427657e-23 5.94015388755799e-15 5.732761002330238e-15 2.0739288522775184e-16
6.375842739491607 3.193195403844817e-23 5.40421383782485e-15 5.198760880360323e-15 2.054529574645276e-16
6.399797922933955 2.931986165692153e-23 4.980782884404617e-15 4.776293058803157e-15 2.0448982560145923e-16
6.42384311029221 2.714081164069771e-23 4.627934350802563e-15 4.424213235648786e-15 2.037211151537779e-16
6.447978639727206 2.5568092324474432e-23 4.37614142732143e-15 4.172426398413143e-15 2.0371502890828742e-16
6.472204850670314 2.4255724704662775e-23 4.167119381699896e-15 3.963258796067655e-15 2.0386058563224132e-16
