Dust emission spectrum from A.P. Jones, M. Kohler, N. Ysard, M. Bocchio, and L. Verstraete (2017), A&A, 602A, 46J 
inside the DustPedia framework.

lambda    nu*dP/dnu     j_nu    j_nu(carb.) j_nu(sil)
 (um)   (erg s-1 H-1) (Jy cm2 sr-1 H-1)
0.9927057738263894 1.129653711701232e-26 2.976701693382637e-19 2.976701693116896e-19 2.657419820742165e-29
1.0001793341362166 1.1482513739006687e-26 3.048486552663643e-19 3.048486552343554e-19 3.200896674939486e-29
1.0077091589558085 1.1668210261128568e-26 3.1211086362325824e-19 3.121108635847529e-19 3.850547026675987e-29
1.0114953028030835 1.1760930647900592e-26 3.157729994603009e-19 3.1577299941808896e-19 4.2212099942135694e-29
1.0152956718711033 1.1853553680136109e-26 3.1945562429382886e-19 3.1945562424756826e-19 4.6260534751691556e-29
1.0229392996569957 1.2038380372049845e-26 3.268792541176496e-19 3.2687925406214355e-19 5.550607397050848e-29
1.0267826658714554 1.2130359212834735e-26 3.3061429158916714e-19 3.306142915283943e-19 6.07727716379512e-29
1.0306404723013447 1.2222200096395674e-26 3.343690069471686e-19 3.343690068806511e-19 6.651757367252874e-29
1.03451277320114 1.2313894178599103e-26 3.381432382902904e-19 3.381432382175086e-19 7.278175337585096e-29
1.0383996230291617 1.2405432665608632e-26 3.4193682173093444e-19 3.419368216513245e-19 7.96099490392227e-29
1.0403485208654093 1.2451140827011201e-26 3.438408187394904e-19 3.4384081865623994e-19 8.325048530029554e-29
1.0423010764483396 1.2496806815573464e-26 3.4574959143448233e-19 3.4574959134743193e-19 8.705042088503484e-29
1.0462171883269815 1.2588007940279545e-26 3.495813796585661e-19 3.4958137956341054e-19 9.515532618518615e-29
1.0471985131304309 1.2610780173347254e-26 3.505422785226458e-19 3.505422784253538e-19 9.72918771018164e-29
1.048180758391296 1.2633540918157813e-26 3.515043527843401e-19 3.515043526848656e-19 9.947437817795933e-29
1.0501480137395462 1.2679027406763092e-26 3.534320167923698e-19 3.5343201668838857e-19 1.0398101373018316e-28
1.0521189612883777 1.272446633586635e-26 3.55364350195811e-19 3.553643500871281e-19 1.0868298305122583e-28
1.0531058218030118 1.2747132617301113e-26 3.5633128237600917e-19 3.5633128226489943e-19 1.111098798548883e-28
1.0540936079674168 1.2769671890660598e-26 3.572961621298482e-19 3.5729616201625897e-19 1.1358918850283096e-28
1.058054026499678 1.2859698715111993e-26 3.611670077745866e-19 3.6116700765053973e-19 1.240469497612788e-28
1.0590464539527713 1.288217219749184e-26 3.6213753705134584e-19 3.6213753692454396e-19 1.2680206405286925e-28
1.06003981227728 1.2904632128638939e-26 3.6310918793472453e-19 3.631091878051088e-19 1.2961573971882139e-28
1.0620293250338977 1.294951081573048e-26 3.650558433903404e-19 3.6505584325491686e-19 1.3542353542171802e-28
1.0660195594769086 1.303909985257535e-26 3.689624907826355e-19 3.689624906348401e-19 1.4779551672934077e-28
1.070024785945596 1.3128457550070813e-26 3.7288677013340165e-19 3.728867699721563e-19 1.612454742398475e-28
1.0740450607676866 1.321757569836959e-26 3.7682850004045275e-19 3.768284998645903e-19 1.75862438003727e-28
1.07808044048254 1.330644615467884e-26 3.807874975568986e-19 3.807874973651561e-19 1.9174235749203979e-28
1.0861967418109137 1.348325413788977e-26 3.887520114590025e-19 3.8875201123128993e-19 2.277125310065278e-28
1.0902777775684922 1.3570817301110557e-26 3.9274674742478104e-19 3.9274674717674673e-19 2.4803404127798297e-28
1.0943741465085532 1.3658094656861952e-26 3.9675771099192703e-19 3.9675771072184516e-19 2.70082060273804e-28
1.1026131145906286 1.383176104889223e-26 4.0482755396693153e-19 4.048275536470085e-19 3.1992318303553644e-28
1.1109141095355224 1.4004192281124397e-26 4.1295999397532575e-19 4.129599935968494e-19 3.784762031806015e-28
1.1192775983109025 1.417516785790521e-26 4.211486909523692e-19 4.2114869050519565e-19 4.471736830797594e-28
1.1277040513999907 1.434389112631175e-26 4.2936985843650706e-19 4.2936985790883913e-19 5.276680094781023e-28
1.1361939428280308 1.4511180887039185e-26 4.376477081345594e-19 4.376477075126972e-19 6.218623390922368e-28
1.1447477501889525 1.4676981671406415e-26 4.459806165720704e-19 4.459806158401244e-19 7.319459339875728e-28
1.1533659546722406 1.4841330049538115e-26 4.543697225715382e-19 4.543697217111031e-19 8.604350011278168e-28
1.1707974979042381 1.516620472112456e-26 4.71333309417851e-19 4.713333082332433e-19 1.1846074855752897e-27
1.1884924949847024 1.548457367764663e-26 4.885006315210733e-19 4.885006298982275e-19 1.6228457983142915e-27
1.2064549276569216 1.5798941047784435e-26 5.059510636060072e-19 5.059510613936442e-19 2.2123630752049697e-27
1.2246888378427687 1.6105863730715546e-26 5.235753755405089e-19 5.235753725390908e-19 3.0014180180305084e-27
1.2431983285522175 1.6404625803721735e-26 5.413475542307526e-19 5.413475501783739e-19 4.052378605915573e-27
1.2619875648066055 1.6695120312127128e-26 5.592603906293465e-19 5.592603851839116e-19 5.445435007133475e-27
1.3004222497298317 1.7246480579413142e-26 5.9532525718236825e-19 5.953252474865867e-19 9.695781336919388e-27
1.3400274889804893 1.7757824260820885e-26 6.316447549793296e-19 6.316447380290112e-19 1.6950318341915095e-26
1.3808389325824078 1.8227296660168808e-26 6.6808961118135365e-19 6.680895820729681e-19 2.910838569191236e-26
1.4228933163050095 1.8657243835363435e-26 7.046756421077167e-19 7.046755929811482e-19 4.9126568902786387e-26
1.466228494730424 1.9058105738166993e-26 7.417384980813724e-19 7.417384165567553e-19 8.152461670998205e-26
1.5108834753276823 1.9422112815668598e-26 7.789272129311004e-19 7.789270798470795e-19 1.3308402137644985e-25
1.5568984535646726 1.9742995242169568e-26 8.159109491035862e-19 8.159107351697613e-19 2.139338251835147e-25
1.6043148490894465 2.002140173347089e-26 8.52616074492026e-19 8.526157352222299e-19 3.39269796489673e-25
1.6531753430134553 2.0258243522733014e-26 8.889762115716433e-19 8.889756813886344e-19 5.301830091130625e-25
1.7035239163302658 2.0456397755657968e-26 9.25010851887935e-19 9.250100352562897e-19 8.166316450510334e-25
1.755405889504358 2.0632186973066596e-26 9.613737262889904e-19 9.61372485881078e-19 1.240407912794762e-24
1.8088679632656115 2.0781660294046366e-26 9.978299644630035e-19 9.9782810582111e-19 1.8586418929908715e-24
1.8639582606462262 2.0902163738812172e-26 1.0341817309132615e-18 1.0341789824288838e-18 2.7484843776254076e-24
1.9207263702978936 2.0995733697363684e-26 1.0704490171155494e-18 1.0704450045483514e-18 4.012567198066084e-24
1.979223391128241 2.1067025129666036e-26 1.1067956951744655e-18 1.106789909529819e-18 5.785644646753551e-24
2.039501978296691 2.1121591901552067e-26 1.1434579838333656e-18 1.1434497417270121e-18 8.242106353236302e-24
2.1016163906111602 2.117487701829936e-26 1.1812553176809692e-18 1.181243712209297e-18 1.1605471672181696e-23
2.1656225393682647 2.123586024755746e-26 1.2207368494558845e-18 1.2207206918502919e-18 1.6157605592793802e-23
2.231578038680979 2.1305235297085933e-26 1.2620246765125906e-18 1.2620024271223574e-18 2.2249390232927688e-23
2.299542257339062 2.1388400744092256e-26 1.305536867367944e-18 1.3055065549008535e-18 3.0312467090806437e-23
2.369576372248914 2.149721350943915e-26 1.3521420331981416e-18 1.3521011608538377e-18 4.08723443038616e-23
2.4417434235010123 2.164566444569486e-26 1.4029441464881871e-18 1.402889586229988e-18 5.456025819932399e-23
2.5161083711144245 2.1857672226981397e-26 1.4598313461431607e-18 1.4597592179492368e-18 7.212819392354384e-23
2.5927381535095444 2.21723375594522e-26 1.5259474347746644e-18 1.5258529732076982e-18 9.446156696653265e-23
2.6717017477616296 2.2636304626912036e-26 1.605324882907852e-18 1.6052022967558839e-18 1.2258615196816607e-22
2.753070231689431 2.33197522090635e-26 1.7041611286122706e-18 1.704003449742639e-18 1.5767886963136606e-22
2.836916847834745 2.438163088017701e-26 1.836025850589829e-18 1.8358247677093354e-18 2.0108288049324637e-22
2.9233170693905177 2.6171911863227545e-26 2.0308638289634506e-18 2.030609557719005e-18 2.542712444455685e-22
2.967498994190263 2.7685619882626876e-26 2.1807921003300474e-18 2.1805075214021005e-18 2.8457892794699334e-22
3.0123486681368425 2.945207022665549e-26 2.354997762348673e-18 2.3546796866706692e-18 3.1807567800311637e-22
3.0578761833420214 3.339085396442706e-26 2.7102968205831494e-18 2.709941680110389e-18 3.551404727596929e-22
3.1040917844459814 3.84635254208788e-26 3.1692250130515394e-18 3.168829231037902e-18 3.95782013637825e-22
3.127460860933648 4.382287686612306e-26 3.637995863749953e-18 3.637578199061002e-18 4.17664688950366e-22
3.1510058709225794 5.096155194644535e-26 4.26246956075836e-18 4.2620289964308965e-18 4.405643274643574e-22
3.162844764501044 5.760376527386177e-26 4.836132397677867e-18 4.835679947928774e-18 4.52449749091368e-22
3.1747281389236908 6.532755225497748e-26 5.505190609301228e-18 5.504726008014692e-18 4.646012865331055e-22
3.1986289994194426 8.686897281829815e-26 7.375610766575176e-18 7.375120985202113e-18 4.897813730611408e-22
3.2227097969389145 1.376379492124251e-25 1.177412996797442e-17 1.177361340931169e-17 5.165586627269306e-22
3.2348180950136065 1.8577957597604756e-25 1.595207798727504e-17 1.5951547113616743e-17 5.308736582916387e-22
3.240889293275058 2.217707759537708e-25 1.907822406817848e-17 1.9077685642885028e-17 5.384252934432692e-22
3.2469718861334385 2.6340693617503254e-25 2.2702577568387426e-17 2.270203132857537e-17 5.462398120466194e-22
3.2714166318528037 4.854889166334819e-25 4.215844756055557e-17 4.215786894850412e-17 5.786120514418388e-22
3.2744851364798273 4.9937142815680855e-25 4.340463882655162e-17 4.3404056377908345e-17 5.824486432741047e-22
3.2775565192852394 5.136525714309395e-25 4.468781178427632e-17 4.4687225477791054e-17 5.863064852657079e-22
3.283707930232385 4.999173689535257e-25 4.3574476760553644e-17 4.357388351176671e-17 5.9324878691888e-22
3.2898708863219004 4.563608190181177e-25 3.9852597959258115e-17 3.985199835259268e-17 5.996066654364124e-22
3.29141343181113 4.460890986851246e-25 3.8973865354897565e-17 3.897326415063723e-17 6.012042603225445e-22
3.292184975758714 4.4104193905463715e-25 3.854193818630711e-17 3.8541336182027874e-17 6.020042792288012e-22
3.295272960557952 4.0918484278195143e-25 3.5791538405797805e-17 3.5790933282077974e-17 6.051237198250404e-22
3.3076538914384823 2.9882171187491307e-25 2.6236242819086672e-17 2.62356251449257e-17 6.176741609789842e-22
3.310756385682612 2.763597759270674e-25 2.428686676388735e-17 2.42862459218379e-17 6.208420494585991e-22
3.313861789986515 2.556350368777009e-25 2.2486621081973842e-17 2.248599705987474e-17 6.240220991035453e-22
3.3200813396944477 2.26571453465661e-25 1.996748410942844e-17 1.9966853265478196e-17 6.30843950247574e-22
3.345076488085796 1.7472991841016957e-25 1.5514677766919845e-17 1.5514016565197167e-17 6.612017226747414e-22
3.3482140837626964 1.7667475349116787e-25 1.5702078562479652e-17 1.5701413249702176e-17 6.653127774822714e-22
3.3513546224236106 1.786410725177747e-25 1.589172845253157e-17 1.5891059007818357e-17 6.694447132076299e-22
3.3576445397418455 1.9300779350383426e-25 1.720200209085465e-17 1.7201324013989565e-17 6.780768650786224e-22
3.3702598118196083 2.459943664280652e-25 2.200685470431796e-17 2.2006158515328728e-17 6.961889892364411e-22
3.382922481734668 2.5806406910903415e-25 2.31733606222126e-17 2.3172646749125755e-17 7.138730868471865e-22
3.389271646505754 2.643168480596692e-25 2.3779387185239427e-17 2.3778664332604515e-17 7.228526349272737e-22
3.395632727569191 2.710546962062291e-25 2.4431328313923837e-17 2.4430596206368178e-17 7.321075556617696e-22
3.421196662673239 3.034067244238656e-25 2.7553239968752407e-17 2.755246945782931e-17 7.705109231084873e-22
3.4276182099114902 2.968890503251184e-25 2.7011957330080087e-17 2.7011178162040567e-17 7.79168039510181e-22
3.4340518103208963 2.6832596122998895e-25 2.4459015374971765e-17 2.4458227976729195e-17 7.873982425640562e-22
3.4469541582030403 2.276469655527446e-25 2.0828922613204178e-17 2.082811933184748e-17 8.032813567086546e-22
3.472904465399547 2.1625007546743994e-25 1.9935105456016667e-17 1.9934265702414585e-17 8.39753602070954e-22
3.4990501388274233 1.9881797557919086e-25 1.8466102678576982e-17 1.846522539686228e-17 8.77281714696117e-22
3.5253949054701885 1.3677242613050543e-25 1.279899166750252e-17 1.2798077604940269e-17 9.140625622480158e-22
3.5519380250092896 7.845805585445552e-26 7.397285060418228e-18 7.396333764224396e-18 9.512961938290054e-22
3.578680990867387 5.534165540802402e-26 5.257079750019276e-18 5.256087591493143e-18 9.921585261338897e-22
3.605625307711299 4.5996793177142916e-26 4.402279180273569e-18 4.401243814570513e-18 1.0353657030572893e-21
3.660119384959845 3.919046959447783e-26 3.807545937844571e-18 3.8064190451130246e-18 1.1268927315458583e-21
3.715437065384467 3.4376081397131873e-26 3.3902811221093307e-18 3.3890566298195466e-18 1.2244922897823995e-21
3.8285932144167436 3.1959813526285544e-26 3.247976624880177e-18 3.246538414986356e-18 1.4382098938208785e-21
3.94519561050918 3.1527637037262656e-26 3.3016375588729266e-18 3.2999601880632088e-18 1.6773708097182961e-21
4.06534921144712 3.1912664153425894e-26 3.4437399756648973e-18 3.4417965909217554e-18 1.9433847431411546e-21
4.189162171576248 3.2773144110305454e-26 3.64430497479573e-18 3.642066451588079e-18 2.2385232076507797e-21
4.316745939156006 3.398209278258591e-26 3.893821542399884e-18 3.891257716752377e-18 2.5638256475070637e-21
4.448215356677963 3.549733964236718e-26 4.191322165382751e-18 4.188404812268911e-18 2.917353113841253e-21
4.58368876423945 3.7324833109067823e-26 4.541323382688395e-18 4.538021617863589e-18 3.301764824807286e-21
4.723288106065518 3.9506149284477346e-26 4.953116814974754e-18 4.9493950685686336e-18 3.7217464061211915e-21
4.867139040275056 4.212363320862294e-26 5.442131211156717e-18 5.437960481116849e-18 4.1707300398671996e-21
4.940699165968905 4.369850658715869e-26 5.730921227584478e-18 5.726513127053465e-18 4.408100531013355e-21
5.015371051989984 4.5330379895339217e-26 6.0347858130578515e-18 6.030131910919886e-18 4.6539021379648104e-21
5.091171501069577 4.7315068581626415e-26 6.3942061502936e-18 6.389293246913145e-18 4.912903380454365e-21
5.129500256944802 4.833408498019988e-26 6.5810924278140466e-18 6.576046749941711e-18 5.045677872334025e-21
5.168117569889187 4.9396172018550054e-26 6.7763388124657165e-18 6.771157201042777e-18 5.181611422939981e-21
5.20702561229733 5.0695190176670215e-26 7.006899743335699e-18 7.001571453998409e-18 5.328289337290109e-21
5.246226572918644 5.202743571118273e-26 7.245175288410154e-18 7.239697594808638e-18 5.4776936015141784e-21
5.265937586045735 5.270635092238321e-26 7.367295500993941e-18 7.361742078146762e-18 5.553422847177668e-21
5.285722656980489 5.339397732457393e-26 7.491453318354809e-18 7.485823479036594e-18 5.629839318212303e-21
5.305582063971359 5.409045578852004e-26 7.617686759171019e-18 7.61197981431838e-18 5.7069448526398576e-21
5.3255160863122235 5.483797501844527e-26 7.751978210034681e-18 7.746193022973126e-18 5.785187061554152e-21
5.365609099470188 5.66941774124922e-26 8.074709768273384e-18 8.06876252558894e-18 5.947242684446623e-21
5.406003951863644 5.862074554482622e-26 8.411958654574315e-18 8.405846318328772e-18 6.1123362455412574e-21
5.446702915881641 6.062106782502866e-26 8.764491071938874e-18 8.758210582921176e-18 6.28048901770036e-21
5.487708281020852 6.278106974039e-26 9.145114794184119e-18 9.138662535021332e-18 6.452259162783939e-21
5.529022354014368 6.577348566050591e-26 9.653140708977855e-18 9.646508821800021e-18 6.631887177833856e-21
5.570647458961463 6.894120825123476e-26 1.0194219919110537e-17 1.0187404982655202e-17 6.814936455336113e-21
5.612585937458331 7.229681883928155e-26 1.0770890853238983e-17 1.0763889416691048e-17 7.001436547931965e-21
5.654840148729818 7.5983131469633e-26 1.1405306318794508e-17 1.1398114211336388e-17 7.19210745811426e-21
5.67608639626678 7.848870330497634e-26 1.1825665341241631e-17 1.1818373564788927e-17 7.291776452703313e-21
5.686739436050992 7.977998969263221e-26 1.2042779606023715e-17 1.2035437630433317e-17 7.341975590394473e-21
5.6974124697621304 8.109776047270489e-26 1.226467250647347e-17 1.2257280087813391e-17 7.392418660079689e-21
5.718818669136295 8.381530168871846e-26 1.2723279622821598e-17 1.271578558370409e-17 7.49403911750719e-21
5.740305295436557 8.680945398611542e-26 1.322730745586847e-17 1.3219710208663946e-17 7.597247204523372e-21
5.7835210386641895 9.456843345873591e-26 1.4518038632896343e-17 1.45102272301315e-17 7.81140276484938e-21
5.827062130521658 1.0350162558069138e-25 1.6009075492935616e-17 1.600104415131554e-17 8.031341620078748e-21
5.8489554468988025 1.0976280898709033e-25 1.7041309301410984e-17 1.7033159918290555e-17 8.149383120436623e-21
5.870931020387893 1.1648009071539864e-25 1.815215164276989e-17 1.8143882918136605e-17 8.268724633284398e-21
5.892989160043636 1.2369014725832909e-25 1.934818279685638e-17 1.9339793421118198e-17 8.389375738180884e-21
5.915130176081913 1.3188775177374844e-25 2.070800231613604e-17 2.0699488011595805e-17 8.514304540231698e-21
5.95966208400165 1.5479636574996519e-25 2.448791612291998e-17 2.4479122025773318e-17 8.794097146662006e-21
6.004529249263818 1.8779956343169337e-25 2.9932498960931324e-17 2.9923392307520774e-17 9.106653410552008e-21
6.027089341400364 2.1073461263384173e-25 3.371420595275377e-17 3.3704921167367423e-17 9.284785386339834e-21
6.049734195844842 2.3783254546104216e-25 3.8192405329402734e-17 3.818293223236267e-17 9.473097040068392e-21
6.095279466722835 3.1609228307588575e-25 5.11419106394129e-17 5.113198345818769e-17 9.927181225206207e-21
6.141167624020661 4.365059844811638e-25 7.115584607340103e-17 7.114534033827165e-17 1.050573512940948e-20
6.164241091010745 5.134012306306593e-25 8.400515830404874e-17 8.399429479548874e-17 1.086350855999059e-20
6.187401249150058 6.009838742176678e-25 9.87053136203435e-17 9.869408106828288e-17 1.1232552060591825e-20
6.1990139391386085 6.437500789624869e-25 1.0592765090072823e-16 1.0591623020468007e-16 1.1420696048191063e-20
6.204828454712694 6.662765717211448e-25 1.0973716961970199e-16 1.097256537186608e-16 1.1515901041208259e-20
6.210648424152782 6.827232701948468e-25 1.1255144729940444e-16 1.1253984895924346e-16 1.1598340160960362e-20
6.233982942956859 7.38602938980819e-25 1.2222106792825086e-16 1.2220917643832495e-16 1.1891489925935969e-20
6.239830258556775 7.4574882134587275e-25 1.235192893812415e-16 1.2350735296111298e-16 1.1936420128533062e-20
6.245683058788269 7.463739934920233e-25 1.2373879244910618e-16 1.2372681096045427e-16 1.1981488651908626e-20
6.257405133728602 7.448516824859588e-25 1.2371817651267905e-16 1.2370611361916047e-16 1.2062893518599949e-20
6.269149208991335 7.338788574435981e-25 1.2212439228373563e-16 1.2211228740570246e-16 1.2104878033141495e-20
6.280915325867298 7.063433082836297e-25 1.1776282268224368e-16 1.1775072476784544e-16 1.2097914398290348e-20
6.304513850009849 6.384328196526303e-25 1.068405809135742e-16 1.0682854140026306e-16 1.2039513311117207e-20
6.32820103803542 5.542546209832416e-25 9.310200274600412e-17 9.309006896326434e-17 1.1933782739801863e-20
6.3519772230701035 4.770601794258599e-25 8.043619760516834e-17 8.042435454052594e-17 1.1843064642390213e-20
6.375842739491607 4.1211700627200832e-25 6.974732662512545e-17 6.973555904419086e-17 1.176758093456923e-20
6.399797922933955 3.6008013359595756e-25 6.116948938623271e-17 6.115774015652448e-17 1.1749229708235573e-20
6.42384311029221 3.168174374715817e-25 5.4022345433818583e-17 5.4010603134843657e-17 1.174229897492643e-20
6.447978639727206 2.853026788719391e-25 4.883136592643461e-17 4.881958545007249e-17 1.1780476362147704e-20
6.472204850670314 2.590530342872179e-25 4.450516046048774e-17 4.4493332514718826e-17 1.1827945768915338e-20
6.496522083828205 2.4200674098424643e-25 4.17328279955096e-17 4.172091552147451e-17 1.1912474035107517e-20
6.520930681187647 2.276519808345441e-25 3.940492000274788e-17 3.939291676024087e-17 1.2003242507007437e-20
6.57002334288761 2.1300532828644147e-25 3.714726235172924e-17 3.7135024279409016e-17 1.2238072320240237e-20
