Dust emission spectrum from A.P. Jones, M. Kohler, N. Ysard, M. Bocchio, and L. Verstraete (2017), A&A, 602A, 46J 
inside the DustPedia framework.

lambda    nu*dP/dnu     j_nu    j_nu(carb.) j_nu(sil)
 (um)   (erg s-1 H-1) (Jy cm2 sr-1 H-1)
0.9927057738263894 3.810266561977766e-23 1.0040268809631607e-15 1.0040268487749442e-15 3.218821674517621e-23
1.0001793341362166 3.8744069034634015e-23 1.028614257576068e-15 1.0286142188303557e-15 3.874571215072047e-23
1.0077091589558085 3.9387462439419205e-23 1.0535681687918733e-15 1.053568122214395e-15 4.657747838481609e-23
1.0114953028030835 3.970986679800231e-23 1.0661829511946456e-15 1.0661829001516265e-15 5.104301931621558e-23
1.0152956718711033 4.0032722786211807e-23 1.0788898245158355e-15 1.078889768597693e-15 5.591814260625148e-23
1.0229392996569957 4.067941664717899e-23 1.1045719574074865e-15 1.1045718903636416e-15 6.704384520354515e-23
1.0267826658714554 4.100251354630819e-23 1.117528074118756e-15 1.1175280007414963e-15 7.337725969989638e-23
1.0306404723013447 4.1325987780936254e-23 1.130576278120127e-15 1.1305761978377865e-15 8.028234029628174e-23
1.03451277320114 4.1649825524311676e-23 1.1437167375932875e-15 1.1437166497851983e-15 8.7808089355462e-23
1.0383996230291617 4.197401322321143e-23 1.1569496255157798e-15 1.1569495295083094e-15 9.600747007326792e-23
1.0403485208654093 4.2136234147256956e-23 1.163600785589177e-15 1.1636006852116974e-15 1.0037747956896361e-22
1.0423010764483396 4.229853760550873e-23 1.1702751199734874e-15 1.1702750150357818e-15 1.049377057492292e-22
1.0462171883269815 4.2623385687693534e-23 1.1836934044778006e-15 1.1836932898172007e-15 1.1466059995377306e-22
1.0471985131304309 4.2704646792927695e-23 1.1870624960964858e-15 1.187062378873603e-15 1.1722288259092138e-22
1.048180758391296 4.2785927139654795e-23 1.1904374019073745e-15 1.1904372820674307e-15 1.198399438199184e-22
1.0501480137395462 4.2948544782341966e-23 1.1972046682873898e-15 1.1972045430445112e-15 1.2524287891876503e-22
1.0521189612883777 4.3111237077307325e-23 1.2039952282267396e-15 1.2039950973481641e-15 1.308785752401116e-22
1.0531058218030118 4.3192500365456613e-23 1.2073961655784537e-15 1.2073960317915889e-15 1.3378686464041563e-22
1.0540936079674168 4.3273420124390316e-23 1.210792811676334e-15 1.2107926749187337e-15 1.3675760046617375e-22
1.058054026499678 4.3597261601048116e-23 1.2244371247292712e-15 1.2244369754450954e-15 1.4928417582681187e-22
1.0590464539527713 4.36782616709624e-23 1.2278626509344597e-15 1.2278624983511822e-15 1.5258327777413476e-22
1.06003981227728 4.375927726185903e-23 1.2312939627237521e-15 1.2312938067716816e-15 1.5595207067616389e-22
1.0620293250338977 4.392135429829491e-23 1.2381739560951547e-15 1.2381737931908028e-15 1.6290435162336304e-22
1.0660195594769086 4.424568690484121e-23 1.2520035149185937e-15 1.2520033372100333e-15 1.7770856045490724e-22
1.070024785945596 4.4570248445984215e-23 1.2659260178646559e-15 1.2659258240703903e-15 1.9379426580919233e-22
1.0740450607676866 4.489502829066629e-23 1.2799416894682357e-15 1.2799414782017647e-15 2.1126647121441862e-22
1.07808044048254 4.5220016158463074e-23 1.2940507624876995e-15 1.2940505322494364e-15 2.302382633038195e-22
1.0861967418109137 4.587006762017906e-23 1.3225354110173233e-15 1.3225351378404093e-15 2.731769139464678e-22
1.0902777775684922 4.6193955005599056e-23 1.336877888530047e-15 1.3368775911141988e-15 2.974158478249415e-22
1.0943741465085532 4.651799273721801e-23 1.3513138385730147e-15 1.3513135148732863e-15 3.236997285729187e-22
1.1026131145906286 4.716648634141273e-23 1.3804672613497793e-15 1.3804668782833295e-15 3.8306644956000687e-22
1.1109141095355224 4.7815486619589266e-23 1.409997997026035e-15 1.4099975442938451e-15 4.5273219020551235e-22
1.1192775983109025 4.846441606827791e-23 1.4398930291004318e-15 1.4398924947252342e-15 5.343751973117057e-22
1.1277040513999907 4.911082570496129e-23 1.4700828453695343e-15 1.4700822154411494e-15 6.299283853401306e-22
1.1361939428280308 4.975751870564635e-23 1.5006541640893126e-15 1.5006534224744535e-15 7.416148584481554e-22
1.1447477501889525 5.0404461292002245e-23 1.531610056363594e-15 1.5316091843755067e-15 8.719880873292773e-22
1.1533659546722406 5.1051876031948537e-23 1.5629614510267512e-15 1.5629604270482613e-15 1.0239784898551693e-21
1.1707974979042381 5.235009319835952e-23 1.6269292897746241e-15 1.6269278830410738e-15 1.406733550419816e-21
1.1884924949847024 5.364992185150089e-23 1.6925245248016122e-15 1.692522601900882e-15 1.922900730285706e-21
1.2064549276569216 5.496032778642072e-23 1.7600696284371477e-15 1.7600670129236248e-15 2.6155135231235695e-21
1.2246888378427687 5.627198341526843e-23 1.8293104512532405e-15 1.8293069110517826e-15 3.540201457859536e-21
1.2431983285522175 5.758354196296462e-23 1.900238992255625e-15 1.900234223631262e-15 4.7686243626094484e-21
1.2619875648066055 5.889658419010931e-23 1.9729433550094642e-15 1.972936962388336e-15 6.3926211281760525e-21
1.3004222497298317 6.151727619701922e-23 2.123493434183048e-15 2.1234821074944243e-15 1.1326688623644423e-20
1.3400274889804893 6.413983166859932e-23 2.2814500055681412e-15 2.2814303038142044e-15 1.970175393613272e-20
1.3808389325824078 6.677199322314925e-23 2.4474103769727427e-15 2.447376719005961e-15 3.3657966781069536e-20
1.4228933163050095 6.943553098623837e-23 2.6225485293854322e-15 2.622492027041062e-15 5.650234436979382e-20
1.466228494730424 7.217954487564597e-23 2.8092166107064515e-15 2.809123358846105e-15 9.325186034608157e-20
1.5108834753276823 7.499568463166383e-23 3.007714977583437e-15 3.007563603307375e-15 1.5137427606148378e-19
1.5568984535646726 7.787971302530057e-23 3.2185040714929108e-15 3.218262131986977e-15 2.419395059340582e-19
1.6043148490894465 8.084998995873027e-23 3.443015727819473e-15 3.4426342848736017e-15 3.8144294587089954e-19
1.6531753430134553 8.392645446955945e-23 3.682877119196739e-15 3.6822845908652245e-15 5.925283315150535e-19
1.7035239163302658 8.713369592252735e-23 3.940068787093686e-15 3.93916170355849e-15 9.070835351956378e-19
1.755405889504358 9.054197553188963e-23 4.218877839576003e-15 4.2175086593411004e-15 1.3691802349028763e-18
1.8088679632656115 9.415315699941448e-23 4.520757243333455e-15 4.518718783953231e-15 2.0384593802235503e-18
1.8639582606462262 9.796895541037943e-23 4.847235202446463e-15 4.844240572148086e-15 2.9946302983774844e-18
1.9207263702978936 1.0200648427044205e-22 5.200710887298887e-15 5.196368320238582e-15 4.34256706030363e-18
1.979223391128241 1.0629029122590965e-22 5.584159891755062e-15 5.577941495470942e-15 6.218396284121127e-18
2.039501978296691 1.108437638189545e-22 6.000740251382753e-15 5.991944109528845e-15 8.796141853907951e-18
2.1016163906111602 1.1572648131751587e-22 6.455882663908007e-15 6.443586608050721e-15 1.2296055857287259e-17
2.1656225393682647 1.2097166335513656e-22 6.954018602310813e-15 6.93702650329696e-15 1.6992099013853226e-17
2.231578038680979 1.2657463305927062e-22 7.497702236744347e-15 7.474481855686131e-15 2.3220381058215542e-17
2.299542257339062 1.325495721967213e-22 8.090757010173697e-15 8.059368994465215e-15 3.138801570848144e-17
2.369576372248914 1.3892597866484218e-22 8.738232756233257e-15 8.696250176210875e-15 4.198258002238304e-17
2.4417434235010123 1.457380370625497e-22 9.445878944051008e-15 9.390299541719085e-15 5.557940233191983e-17
2.5161083711144245 1.5304917044146384e-22 1.0221855931934795e-14 1.0149004822154962e-14 7.285110977983321e-17
2.5927381535095444 1.609619517339769e-22 1.1077743908876952e-14 1.0983170286472073e-14 9.457362240488174e-17
2.6717017477616296 1.695730950127392e-22 1.2025810457242592e-14 1.1904184925907217e-14 1.2162553133537746e-16
2.753070231689431 1.7902357373031396e-22 1.3082686845097733e-14 1.292769678775509e-14 1.5499005734264497e-16
2.836916847834745 1.8967088215627295e-22 1.428291013240727e-14 1.4087149728847252e-14 1.9576040356002132e-16
2.9233170693905177 2.0229552647807048e-22 1.5697541304296862e-14 1.545245388124122e-14 2.450874230556438e-16
2.967498994190263 2.1009235287010393e-22 1.6548942932153106e-14 1.6276112196364743e-14 2.728307357883577e-16
3.0123486681368425 2.1850959846518884e-22 1.7472103369205578e-14 1.716878909274064e-14 3.0331427646494025e-16
3.0578761833420214 2.320860691479878e-22 1.8838156579749684e-14 1.850129756392036e-14 3.36859015829319e-16
3.1040917844459814 2.480683567706965e-22 2.04397395356154e-14 2.006636165657163e-14 3.7337787904376786e-16
3.127460860933648 2.625842840981508e-22 2.1798672468563727e-14 2.140573565182245e-14 3.929368167412802e-16
3.1510058709225794 2.8099748658888824e-22 2.3502879867030543e-14 2.3089551362534242e-14 4.133285044963017e-16
3.162844764501044 2.974026022382495e-22 2.4968478240965518e-14 2.4544595359817036e-14 4.238828811484811e-16
3.1747281389236908 3.160211944166587e-22 2.6631288817501814e-14 2.6196635822538297e-14 4.346529949635105e-16
3.1986289994194426 3.664591189207303e-22 3.111421414726409e-14 3.065730676909264e-14 4.569073781714461e-16
3.2227097969389145 4.825063087301984e-22 4.127562218025327e-14 4.079512877532254e-14 4.804934049307348e-16
3.2348180950136065 5.912401270710236e-22 5.076719852918261e-14 5.027411714962944e-14 4.930813795531839e-16
3.240889293275058 6.723686775215706e-22 5.784170719074066e-14 5.734198595142908e-14 4.997212393115845e-16
3.2469718861334385 7.66325891768444e-22 6.604827212665412e-14 6.554168054423858e-14 5.065915824155511e-16
3.2714166318528037 1.2609223001106688e-21 1.0949483056331556e-13 1.0895984348176868e-13 5.349870815468577e-16
3.2744851364798273 1.2919329865426193e-21 1.122929376956306e-13 1.117546030958756e-13 5.38334599755014e-16
3.2775565192852394 1.323784499202154e-21 1.1516934954396896e-13 1.1462765058712246e-13 5.416989568465205e-16
3.283707930232385 1.2937056835888789e-21 1.1276373205944837e-13 1.1221601411267365e-13 5.477179467747257e-16
3.2898708863219004 1.1973572472857616e-21 1.0456155524558529e-13 1.0400835743822281e-13 5.531978073624412e-16
3.29141343181113 1.1745995812653915e-21 1.0262229240995115e-13 1.020677185235088e-13 5.545738864423425e-16
3.292184975758714 1.163411844636167e-21 1.0166867009812827e-13 1.0111340725388631e-13 5.552628442419305e-16
3.295272960557952 1.0933694465697122e-21 9.563740013576052e-14 9.507945695282665e-14 5.579431829338859e-16
3.3076538914384823 8.493116311100381e-22 7.456869865e-14 7.399998881374888e-14 5.687098362511274e-16
3.310756385682612 7.992492706220598e-22 7.023909496820127e-14 6.966767107990764e-14 5.714238882936311e-16
3.313861789986515 7.529069548858087e-22 6.622853272104343e-14 6.565438580775795e-14 5.741469132854821e-16
3.3200813396944477 6.882187968897224e-22 6.0651938629101e-14 6.007193581694721e-14 5.80002812153786e-16
3.345076488085796 5.754233910269433e-22 5.1093187546591006e-14 5.048709136805297e-14 6.060961785380416e-16
3.3482140837626964 5.801436193624094e-22 5.15606248699548e-14 5.095099406593367e-14 6.096308040211214e-16
3.3513546224236106 5.849079860030122e-22 5.203282062892976e-14 5.1419639151758e-14 6.131814771717547e-16
3.3576445397418455 6.178084857567101e-22 5.506276545005705e-14 5.444216077388719e-14 6.206046761698715e-16
3.3702598118196083 7.369392755493602e-22 6.592718279856448e-14 6.529100744937434e-14 6.361753491901473e-16
3.382922481734668 7.656535431532729e-22 6.875333605496683e-14 6.810201993509763e-14 6.513161198692008e-16
3.389271646505754 7.804666969425793e-22 7.021504647934074e-14 6.955605482031635e-14 6.589916590243908e-16
3.395632727569191 7.966712526111608e-22 7.180741453008972e-14 7.114051272529421e-14 6.669018047954985e-16
3.421196662673239 8.748941668094204e-22 7.945166334443145e-14 7.8752010279389e-14 6.996530650424677e-16
3.4276182099114902 8.610805293661004e-22 7.834398234467997e-14 7.763701334482885e-14 7.069689998511234e-16
3.4340518103208963 7.975532226607154e-22 7.270025772383783e-14 7.1986365753044e-14 7.138919707938414e-16
3.4469541582030403 7.06706708335836e-22 6.46612587276014e-14 6.393407215050815e-14 7.271865770932433e-16
3.472904465399547 6.8268343727333525e-22 6.293346388759522e-14 6.217566258242742e-14 7.578013051677903e-16
3.4990501388274233 6.455241896927167e-22 5.995592668945041e-14 5.916678166237402e-14 7.891450270763841e-16
3.5253949054701885 5.09890025785636e-22 4.77148675065978e-14 4.689524768030384e-14 8.19619826293948e-16
3.5519380250092896 3.810869482139546e-22 3.593013818712121e-14 3.507986874698038e-14 8.502694401408294e-16
3.578680990867387 3.3157856811853896e-22 3.1497702104220405e-14 3.061383706587826e-14 8.83865038342139e-16
3.605625307711299 3.132678556040603e-22 2.998236318918013e-14 2.9063104258411396e-14 9.19258930768732e-16
3.660119384959845 3.034531824352985e-22 2.948196191735178e-14 2.848829325101656e-14 9.936686663352128e-16
3.715437065384467 2.9782874923280674e-22 2.937284138004351e-14 2.830065886418665e-14 1.0721825158568514e-15
3.8285932144167436 3.03053507753218e-22 3.079838712015148e-14 2.955721391658038e-14 1.2411732035710913e-15
3.94519561050918 3.127018929045286e-22 3.274677113048527e-14 3.132095660000869e-14 1.4258145304765786e-15
4.06534921144712 3.241067204659032e-22 3.4974807000883354e-14 3.334883572241879e-14 1.6259712784645633e-15
4.189162171576248 3.364604961012435e-22 3.74137023789071e-14 3.557161723331383e-14 1.842085145593277e-15
4.316745939156006 3.4940587381118897e-22 4.003650178909118e-14 3.796307312493039e-14 2.0734286641607783e-15
4.448215356677963 3.6275790775921877e-22 4.28323720813263e-14 4.051549130763008e-14 2.3168807736962146e-15
4.58368876423945 3.7646321010553746e-22 4.580438909876506e-14 4.323160020064897e-14 2.5727888981160814e-15
4.723288106065518 3.9055288751145587e-22 4.896589795022155e-14 4.612310572341675e-14 2.8427922268048003e-15
4.867139040275056 4.050699527172276e-22 5.2332708849362455e-14 4.921282813138755e-14 3.1198807179748998e-15
4.940699165968905 4.127089789390856e-22 5.412548008933018e-14 5.086355499541709e-14 3.2619250939130816e-15
5.015371051989984 4.2028038731362387e-22 5.595148606128256e-14 5.2545611226788185e-14 3.405874834494388e-15
5.091171501069577 4.285035858721921e-22 5.790840732862886e-14 5.435360468414907e-14 3.554802644479779e-15
5.129500256944802 4.325829231680075e-22 5.889980541120956e-14 5.526996381360605e-14 3.629841597603519e-15
5.168117569889187 4.367054995711189e-22 5.99087804870728e-14 5.620280685971833e-14 3.705973627354462e-15
5.20702561229733 4.413752975797109e-22 6.100524425587879e-14 5.721623963711996e-14 3.789004618758825e-15
5.246226572918644 4.460429109289451e-22 6.2114517689718e-14 5.824187846101572e-14 3.872639228702275e-15
5.265937586045735 4.483759550146799e-22 6.267400604147437e-14 5.875933316553033e-14 3.914672875944047e-15
5.285722656980489 4.507085315834337e-22 6.323675616102796e-14 5.92799108385439e-14 3.956845322484055e-15
5.305582063971359 4.530406781633933e-22 6.380278969924289e-14 5.98036372556378e-14 3.999152443605099e-15
5.3255160863122235 4.554761442071746e-22 6.438678933525535e-14 6.034486805843781e-14 4.041921276817538e-15
5.365609099470188 4.611530011930367e-22 6.568005416692953e-14 6.154964606535136e-14 4.1304081015781576e-15
5.406003951863644 4.668790334971376e-22 6.699619887062595e-14 6.277668246484463e-14 4.21951640578133e-15
5.446702915881641 4.7265784045107475e-22 6.833606815822197e-14 6.402685474731095e-14 4.309213410911e-15
5.487708281020852 4.786919170264047e-22 6.972949888170119e-14 6.532965383426545e-14 4.399845047435746e-15
5.529022354014368 4.865614064065608e-22 7.140940870678138e-14 6.691507474485336e-14 4.4943339619280296e-15
5.570647458961463 4.946412847093721e-22 7.314177057969383e-14 6.85522962681882e-14 4.589474311505625e-15
5.612585937458331 5.029491814092898e-22 7.493013973032494e-14 7.024490691407148e-14 4.685232816253433e-15
5.654840148729818 5.118058198153574e-22 7.682365859149678e-14 7.204161388471376e-14 4.7820447067830014e-15
5.67608639626678 5.176739951950102e-22 7.79964398093398e-14 7.316373785910438e-14 4.832701950235425e-15
5.686739436050992 5.206635203458609e-22 7.859409419052245e-14 7.373599559165083e-14 4.858098598871625e-15
5.6974124697621304 5.236912447759592e-22 7.919949421841723e-14 7.431595431348982e-14 4.8835399049274134e-15
5.718818669136295 5.29865159950439e-22 8.04342698362911e-14 7.549971544469955e-14 4.934554391591567e-15
5.740305295436557 5.36581475020788e-22 8.175985240453849e-14 7.677373061677569e-14 4.986121787762795e-15
5.7835210386641895 5.537038782567101e-22 8.500399130776617e-14 7.991126060317049e-14 5.0927307045956694e-15
5.827062130521658 5.72883158422759e-22 8.861048974222378e-14 8.340943355516365e-14 5.2010561870601395e-15
5.8489554468988025 5.8627940095499455e-22 9.102325916144408e-14 8.57636836379723e-14 5.2595755234717825e-15
5.870931020387893 6.004247030966322e-22 9.356964090374213e-14 8.825126752140396e-14 5.318373382338166e-15
5.892989160043636 6.153782435085773e-22 9.626030050514468e-14 9.08828545736864e-14 5.377445931458233e-15
5.915130176081913 6.322376171938662e-22 9.926909713085945e-14 9.383040893932919e-14 5.438688191530228e-15
5.95966208400165 6.792270431805798e-22 1.0744990543699974e-13 1.0187148498524167e-13 5.578420451758086e-15
6.004529249263818 7.460678235615592e-22 1.1891228044128638e-13 1.1317651150522934e-13 5.735768936057042e-15
6.027089341400364 7.923246251349265e-22 1.267594120366517e-13 1.2093263444511825e-13 5.826777591533452e-15
6.049734195844842 8.464185631479826e-22 1.3592235990836523e-13 1.299991583390688e-13 5.923201569296444e-15
6.095279466722835 1.0020344077034815e-21 1.621233952240638e-13 1.559628582202228e-13 6.160537003840993e-15
6.141167624020661 1.239015526586053e-21 2.0197477520749907e-13 1.955058035991334e-13 6.468971608365712e-15
6.164241091010745 1.3900563442042222e-21 2.274476496734941e-13 2.2078489933453324e-13 6.662750338960847e-15
6.187401249150058 1.5600035941797554e-21 2.5621426899818323e-13 2.493525471048857e-13 6.861721893297488e-15
6.1990139391386085 1.6426760500057595e-21 2.702987088536529e-13 2.633357459020332e-13 6.962962951619723e-15
6.204828454712694 1.6860449699732203e-21 2.7769519552284866e-13 2.7068109780521235e-13 7.014097717636284e-15
6.210648424152782 1.717530959335271e-21 2.8314634009698994e-13 2.760887197028312e-13 7.057620394158723e-15
6.233982942956859 1.823381614287181e-21 3.017259157490364e-13 2.9451674084595373e-13 7.209174903082777e-15
6.239830258556775 1.836292208957882e-21 3.0414732448043863e-13 2.9691725879206536e-13 7.23006568837327e-15
6.245683058788269 1.8364903089027587e-21 3.0446544915761723e-13 2.972144597336668e-13 7.250989423950392e-15
6.257405133728602 1.8314557097916455e-21 3.0420064303664646e-13 2.9691311153270287e-13 7.287531503943668e-15
6.269149208991335 1.807992338928693e-21 3.008670482952097e-13 2.9356648244212086e-13 7.30056585308892e-15
6.280915325867298 1.7523360621226723e-21 2.921526098476044e-13 2.848680762759133e-13 7.284533571691155e-15
6.304513850009849 1.6164136411532619e-21 2.705039075394104e-13 2.632777355347632e-13 7.226172004647286e-15
6.32820103803542 1.4501828771413289e-21 2.435973018507364e-13 2.364574705593222e-13 7.139831291414165e-15
6.3519772230701035 1.2984239096070789e-21 2.189247534642772e-13 2.1186235897201276e-13 7.06239449226448e-15
6.375842739491607 1.1703800145735146e-21 1.98076943949504e-13 1.9108285595362187e-13 6.994087995882176e-15
6.399797922933955 1.0688105482597052e-21 1.8156679413207035e-13 1.7460782553437946e-13 6.958968597690913e-15
6.42384311029221 9.840237939846261e-22 1.6779150080242209e-13 1.6086104004902373e-13 6.930460753398331e-15
6.447978639727206 9.225934275383062e-22 1.5790772606684275e-13 1.5097989010257197e-13 6.927835964270785e-15
6.472204850670314 8.712396679871002e-22 1.496784676929035e-13 1.4274812082382441e-13 6.930346869079125e-15
6.496522083828205 8.379607998839591e-22 1.4450206546442164e-13 1.3754823274766186e-13 6.953832716759782e-15
