Dust emission spectrum from A.P. Jones, M. Kohler, N. Ysard, M. Bocchio, and L. Verstraete (2017), A&A, 602A, 46J 
inside the DustPedia framework.

lambda    nu*dP/dnu     j_nu    j_nu(carb.) j_nu(sil)
 (um)   (erg s-1 H-1) (Jy cm2 sr-1 H-1)
0.9927057738263894 3.7961308101881516e-23 1.0003020300771302e-15 1.0003019978889133e-15 3.218821674517621e-23
1.0001793341362166 3.860038194288968e-23 1.0247995165103905e-15 1.0247994777646783e-15 3.8745712150720474e-23
1.0077091589558085 3.9241449254260205e-23 1.0496624882889965e-15 1.0496624417115179e-15 4.657747838481609e-23
1.0114953028030835 3.956269215790999e-23 1.0622314120743346e-15 1.0622313610313154e-15 5.104301931621558e-23
1.0152956718711033 3.988438790430508e-23 1.0748921700079326e-15 1.0748921140897902e-15 5.591814260625148e-23
1.0229392996569957 4.0528766515517686e-23 1.100481340468309e-15 1.1004812734244638e-15 6.704384520354514e-23
1.0267826658714554 4.0850711220793336e-23 1.1133906848270539e-15 1.1133906114497944e-15 7.337725969989638e-23
1.0306404723013447 4.117303498427334e-23 1.126391869885389e-15 1.126391789603049e-15 8.028234029628174e-23
1.03451277320114 4.1495724090251617e-23 1.1394850658587031e-15 1.1394849780506137e-15 8.7808089355462e-23
1.0383996230291617 4.1818765095926583e-23 1.15267044778338e-15 1.1526703517759095e-15 9.600747007326792e-23
1.0403485208654093 4.1980413436755264e-23 1.159297764571276e-15 1.1592976641937967e-15 1.0037747956896358e-22
1.0423010764483396 4.2142144838947934e-23 1.1659481958288073e-15 1.1659480908911013e-15 1.049377057492292e-22
1.0462171883269815 4.246585044491629e-23 1.179318495614048e-15 1.1793183809534478e-15 1.1466059995377306e-22
1.0471985131304309 4.2546826281795805e-23 1.1826755540667848e-15 1.1826754368439024e-15 1.1722288259092138e-22
1.048180758391296 4.2627821503826794e-23 1.1860384119841768e-15 1.1860382921442333e-15 1.1983994381991836e-22
1.0501480137395462 4.2789869334832765e-23 1.1927815385291333e-15 1.1927814132862545e-15 1.2524287891876503e-22
1.0521189612883777 4.2951992412929197e-23 1.1995479001278492e-15 1.1995477692492738e-15 1.3087857524011157e-22
1.0531058218030118 4.303297175817173e-23 1.20293672870617e-15 1.2029365949193052e-15 1.3378686464041563e-22
1.0540936079674168 4.311360916387083e-23 1.2063212917070812e-15 1.2063211549494806e-15 1.367576004661737e-22
1.058054026499678 4.3436322857315967e-23 1.2199171304590759e-15 1.2199169811749005e-15 1.4928417582681187e-22
1.0590464539527713 4.3517041397105775e-23 1.2233305027841233e-15 1.2233303502008454e-15 1.5258327777413479e-22
1.06003981227728 4.35977756274377e-23 1.2267496466409468e-15 1.2267494906888763e-15 1.5595207067616386e-22
1.0620293250338977 4.3759290457975463e-23 1.2336052621303581e-15 1.233605099226006e-15 1.6290435162336304e-22
1.0660195594769086 4.408250075934087e-23 1.247385898105641e-15 1.247385720397081e-15 1.7770856045490724e-22
1.070024785945596 4.4405942890690713e-23 1.2612592573107448e-15 1.2612590635164791e-15 1.9379426580919233e-22
1.0740450607676866 4.472960632413176e-23 1.275225566561473e-15 1.275225355295002e-15 2.1126647121441862e-22
1.07808044048254 4.505348088157069e-23 1.2892850609167735e-15 1.2892848306785101e-15 2.3023826330381946e-22
1.0861967418109137 4.5701317403343907e-23 1.3176699693696388e-15 1.3176696961927246e-15 2.7317691394646765e-22
1.0902777775684922 4.602410784615426e-23 1.3319624204376553e-15 1.3319621230218079e-15 2.9741584782494144e-22
1.0943741465085532 4.6347052214934996e-23 1.3463481407915381e-15 1.3463478170918097e-15 3.236997285729187e-22
1.1026131145906286 4.6993370221267175e-23 1.375400504107296e-15 1.3754001210408465e-15 3.830664495600067e-22
1.1109141095355224 4.764021037669923e-23 1.4048293964559439e-15 1.4048289437237536e-15 4.5273219020551235e-22
1.1192775983109025 4.8286997941529754e-23 1.4346218808092643e-15 1.434621346434067e-15 5.343751973117057e-22
1.1277040513999907 4.893129390958198e-23 1.4647087428412838e-15 1.4647081129128991e-15 6.299283853401305e-22
1.1361939428280308 4.9575891211228386e-23 1.4951763978561563e-15 1.495175656241298e-15 7.416148584481554e-22
1.1447477501889525 5.022075676644131e-23 1.5260279374095069e-15 1.52602706542142e-15 8.719880873292773e-22
1.1533659546722406 5.086611268894347e-23 1.5572742762018915e-15 1.5572732522234017e-15 1.0239784898551691e-21
1.1707974979042381 5.2160260175190084e-23 1.621029684125584e-15 1.6210282773920339e-15 1.4067335504198153e-21
1.1884924949847024 5.345610076826883e-23 1.686409941117747e-15 1.6864080182170169e-15 1.922900730285705e-21
1.2064549276569216 5.476256894401806e-23 1.753736526974937e-15 1.7537339114614132e-15 2.6155135231235676e-21
1.2246888378427687 5.607038026139893e-23 1.8227566613564545e-15 1.8227531211549974e-15 3.540201457859535e-21
1.2431983285522175 5.737819694461462e-23 1.8934626704554647e-15 1.8934579018311018e-15 4.7686243626094454e-21
1.2619875648066055 5.868760114054679e-23 1.965942750057347e-15 1.9659363574362202e-15 6.392621128176044e-21
1.3004222497298317 6.130138919131013e-23 2.1160413058137666e-15 2.116029979125143e-15 1.1326688623644407e-20
1.3400274889804893 6.391754358317625e-23 2.2735432315630806e-15 2.273523529809145e-15 1.970175393613266e-20
1.3808389325824078 6.654383059038049e-23 2.4390474755806956e-15 2.4390138176139145e-15 3.3657966781069374e-20
1.4228933163050095 6.920199142916711e-23 2.6137278461811527e-15 2.613671343836783e-15 5.650234436979338e-20
1.466228494730424 7.194099578478768e-23 2.799932317356271e-15 2.799839065495925e-15 9.325186034608047e-20
1.5108834753276823 7.475259125307103e-23 2.9979656753491026e-15 2.997814301073041e-15 1.5137427606148092e-19
1.5568984535646726 7.763261972890779e-23 3.2082925446448286e-15 3.2080506051388948e-15 2.419395059340511e-19
1.6043148490894465 8.05994336381657e-23 3.432345728319797e-15 3.431964285373926e-15 3.814429458708822e-19
1.6531753430134553 8.367296130827289e-23 3.671753282624878e-15 3.671160754293364e-15 5.92528331515013e-19
1.7035239163302658 8.687775678949639e-23 3.928495562995082e-15 3.9275884794598865e-15 9.070835351955456e-19
1.755405889504358 9.028387765154199e-23 4.206851556501842e-15 4.20548237626694e-15 1.3691802349026708e-18
1.8088679632656115 9.389323788280274e-23 4.5082772451416704e-15 4.506238785761449e-15 2.038459380223104e-18
1.8639582606462262 9.770758660476072e-23 4.834303390832167e-15 4.831308760533789e-15 2.994630298376537e-18
1.9207263702978936 1.0174401265306606e-22 5.187329002726969e-15 5.182986435666667e-15 4.342567060301668e-18
1.979223391128241 1.060270062428071e-22 5.570327721142058e-15 5.564109324857942e-15 6.218396284117148e-18
2.039501978296691 1.1057988620027266e-22 5.9864547291909096e-15 5.9776585873370095e-15 8.796141853900058e-18
2.1016163906111602 1.1546203931671346e-22 6.441130582023609e-15 6.428834526166339e-15 1.2296055857271925e-17
2.1656225393682647 1.207065736815777e-22 6.938780004526164e-15 6.921787905512342e-15 1.699209901382405e-17
2.231578038680979 1.2630880451852482e-22 7.481955770044286e-15 7.458735388986125e-15 2.3220381058161083e-17
2.299542257339062 1.3228284685611772e-22 8.0744762339817e-15 8.04308821827332e-15 3.138801570838174e-17
2.369576372248914 1.3865805089470218e-22 8.721380507000663e-15 8.679397926978458e-15 4.198258002220384e-17
2.4417434235010123 1.4546842681864678e-22 9.428404400154892e-15 9.37282499782329e-15 5.557940233160352e-17
2.5161083711144245 1.5277709892722045e-22 1.0203684805533013e-14 1.013083369575373e-14 7.285110977928445e-17
2.5927381535095444 1.6068615116883246e-22 1.1058762727313978e-14 1.0964189104910036e-14 9.457362240394545e-17
2.6717017477616296 1.6929171365567128e-22 1.2005855411508206e-14 1.1884229880174404e-14 1.216255313338054e-16
2.753070231689431 1.787338805874328e-22 1.306151664616519e-14 1.2906526588825146e-14 1.5499005734004661e-16
2.836916847834745 1.8936815407054135e-22 1.4260113601944058e-14 1.4064353198388273e-14 1.9576040355579053e-16
2.9233170693905177 2.0197065251696462e-22 1.567233203490799e-14 1.5427244611859136e-14 2.4508742304885325e-16
2.967498994190263 2.0974865747465177e-22 1.6521870097717768e-14 1.6249039361937972e-14 2.7283073577979823e-16
3.0123486681368425 2.181439182346701e-22 1.7442863450993403e-14 1.7139549174539217e-14 3.0331427645418714e-16
3.0578761833420214 2.316711706641446e-22 1.8804479751872708e-14 1.846762073605687e-14 3.3685901581583664e-16
3.1040917844459814 2.475900242977674e-22 2.0400327047519894e-14 2.0026949168492975e-14 3.7337787902691606e-16
3.127460860933648 2.620388367978379e-22 2.17533916662902e-14 2.136045484956778e-14 3.9293681672242963e-16
3.1510058709225794 2.803626108742437e-22 2.3449778297216093e-14 2.3036449792740874e-14 4.133285044752159e-16
3.162844764501044 2.966844823710548e-22 2.4908188384240957e-14 2.4484305503114822e-14 4.23882881126134e-16
3.1747281389236908 3.152062629918423e-22 2.6562614075034605e-14 2.612796108009478e-14 4.3465299493983153e-16
3.1986289994194426 3.653741367773233e-22 3.1022093730516524e-14 3.05651863523717e-14 4.569073781448176e-16
3.2227097969389145 4.807847455657782e-22 4.112835241517797e-14 4.064785901027763e-14 4.804934049003429e-16
3.2348180950136065 5.889148791579892e-22 5.0567539681574655e-14 5.00744583020543e-14 4.930813795203627e-16
3.240889293275058 6.695920993898473e-22 5.760284713574918e-14 5.710312589647191e-14 4.9972123927726865e-16
3.2469718861334385 7.630271985216731e-22 6.576396359478095e-14 6.525737201240141e-14 5.065915823795394e-16
3.2714166318528037 1.2548385275345998e-21 1.0896653342133946e-13 1.0843154633983642e-13 5.349870815030362e-16
3.2744851364798273 1.2856751224236945e-21 1.1174901324062099e-13 1.1121067864091061e-13 5.383345997103688e-16
3.2775565192852394 1.3173475431004825e-21 1.146093338860432e-13 1.1406763492924215e-13 5.416989568010369e-16
3.283707930232385 1.2874410068976042e-21 1.12217681800247e-13 1.1166996385351871e-13 5.47717946728284e-16
3.2898708863219004 1.191638842322595e-21 1.0406218438711496e-13 1.0350898657979935e-13 5.53197807315614e-16
3.29141343181113 1.1690099998763566e-21 1.021339424523113e-13 1.0157936856591586e-13 5.545738863954188e-16
3.292184975758714 1.1578855624513246e-21 1.0118573728039023e-13 1.006304744361953e-13 5.552628441949583e-16
3.295272960557952 1.0882427140845196e-21 9.518896308859988e-14 9.463101990571302e-14 5.579431828868453e-16
3.3076538914384823 8.455690294080016e-22 7.424010202154999e-14 7.367139218534612e-14 5.687098362038817e-16
3.310756385682612 7.957883674180778e-22 6.993494616537403e-14 6.93635222771277e-14 5.71423888246334e-16
3.313861789986515 7.497059596553446e-22 6.594696111915426e-14 6.537281420591611e-14 5.741469132381336e-16
3.3200813396944477 6.8538229809227305e-22 6.04019612210995e-14 5.982195840899351e-14 5.800028121059878e-16
3.345076488085796 5.732371537033363e-22 5.0899066425798447e-14 5.0292970247312136e-14 6.06096178486315e-16
3.3482140837626964 5.779330087523237e-22 5.136415547755599e-14 5.0754524673587354e-14 6.096308039686506e-16
3.3513546224236106 5.826727326308904e-22 5.183397475820297e-14 5.122079328108444e-14 6.131814771185295e-16
3.3576445397418455 6.153930981413531e-22 5.484749174501483e-14 5.4226887068900044e-14 6.206046761147818e-16
3.3702598118196083 7.338594458708245e-22 6.56516587480192e-14 6.501548339888864e-14 6.361753491305472e-16
3.382922481734668 7.62422424461805e-22 6.846319152260685e-14 6.781187540280096e-14 6.51316119805905e-16
3.389271646505754 7.77157200253477e-22 6.991730608278204e-14 6.925831442382289e-14 6.589916589591672e-16
3.395632727569191 7.932773035309663e-22 7.150150326782593e-14 7.083460146309774e-14 6.669018047281924e-16
3.421196662673239 8.710947203286517e-22 7.910662464816706e-14 7.840697158320107e-14 6.996530649660097e-16
3.4276182099114902 8.57362855013982e-22 7.800573591606771e-14 7.729876691629466e-14 7.069689997730388e-16
3.4340518103208963 7.9419377134559905e-22 7.239402991423179e-14 7.168013794351725e-14 7.138919707145328e-16
3.4469541582030403 7.038574271247676e-22 6.440055919354656e-14 6.367337261653451e-14 7.271865770120699e-16
3.472904465399547 6.799771819328642e-22 6.268398658458582e-14 6.192618527950685e-14 7.578013050789656e-16
3.4990501388274233 6.430366547778508e-22 5.972488583401147e-14 5.893574080703194e-14 7.891450269795333e-16
3.5253949054701885 5.081807162159174e-22 4.755491246625116e-14 4.6735292640060193e-14 8.196198261909688e-16
3.5519380250092896 3.8010902522489677e-22 3.5837936372553997e-14 3.4987666932521944e-14 8.502694400320685e-16
3.578680990867387 3.308906536396982e-22 3.1432354921347107e-14 3.0548489883122634e-14 8.838650382244818e-16
3.605625307711299 3.1269726236227853e-22 2.9927752626677943e-14 2.900849369603776e-14 9.19258930640189e-16
3.660119384959845 3.029682209263807e-22 2.943484553312884e-14 2.844117686694803e-14 9.936686661807925e-16
3.715437065384467 2.974044408295332e-22 2.933099470319422e-14 2.82588121875224e-14 1.0721825156718093e-15
3.8285932144167436 3.026600955261822e-22 3.0758405856922155e-14 2.951723265361618e-14 1.2411732033059826e-15
3.94519561050918 3.123145381391069e-22 3.270620656040305e-14 3.128039203030284e-14 1.4258145301002174e-15
4.06534921144712 3.2371522218838464e-22 3.493255987722696e-14 3.33065885992917e-14 1.6259712779352667e-15
4.189162171576248 3.3605894475231538e-22 3.7369050710040394e-14 3.5526965565184645e-14 1.8420851448557454e-15
4.316745939156006 3.489899581037208e-22 3.9988844290421984e-14 3.791541562727982e-14 2.0734286631421593e-15
4.448215356677963 3.6232385213773316e-22 4.278112128434629e-14 4.046424051204502e-14 2.3168807723012703e-15
4.58368876423945 3.760071729891669e-22 4.5748902929171325e-14 4.317611403295019e-14 2.572788896221146e-15
4.723288106065518 3.90070516455021e-22 4.890542027183583e-14 4.606262804758564e-14 2.8427922242502005e-15
4.867139040275056 4.045558737970332e-22 5.226629280868685e-14 4.914641209413153e-14 3.1198807145553203e-15
4.940699165968905 4.121757507216233e-22 5.405554889146402e-14 5.079362380149818e-14 3.261925089965875e-15
5.015371051989984 4.1972732216404844e-22 5.587785707943727e-14 5.2471982249490867e-14 3.4058748299464002e-15
5.091171501069577 4.279262957397554e-22 5.783039175714209e-14 5.42755891178972e-14 3.554802639244913e-15
5.129500256944802 4.319931971653304e-22 5.881950925307824e-14 5.518966766108721e-14 3.629841591991038e-15
5.168117569889187 4.361028060945883e-22 5.982610089814633e-14 5.612012727680699e-14 3.705973621339341e-15
5.20702561229733 4.40756680385894e-22 6.091974129906033e-14 5.713073668674947e-14 3.7890046123108645e-15
5.246226572918644 4.454079614257988e-22 6.20260966405792e-14 5.815345741878583e-14 3.87263922179338e-15
5.265937586045735 4.477326820377373e-22 6.258408932316616e-14 5.866941645437252e-14 3.914672868793644e-15
5.285722656980489 4.500568279968929e-22 6.31453187510314e-14 5.918847343594689e-14 3.956845315084509e-15
5.305582063971359 4.52380435093177e-22 6.370980610684194e-14 5.971065367089337e-14 3.9991524359485554e-15
5.3255160863122235 4.548067252111992e-22 6.429215926424272e-14 6.025023799534787e-14 4.041921268894871e-15
5.365609099470188 4.604607187755253e-22 6.558145533625224e-14 6.145104724316278e-14 4.1304080930894605e-15
5.406003951863644 4.661630140918658e-22 6.689345153131733e-14 6.267393513462721e-14 4.219516396690114e-15
5.446702915881641 4.719171681985203e-22 6.822898302136025e-14 6.391976962018156e-14 4.3092134011786874e-15
5.487708281020852 4.7792460187279395e-22 6.96177265721164e-14 6.521788153509768e-14 4.399845037018739e-15
5.529022354014368 4.857570457457631e-22 7.129135799741916e-14 6.679702404666212e-14 4.494333950757066e-15
5.570647458961463 4.937976893924776e-22 7.301702956628115e-14 6.842755526674973e-14 4.589474299531402e-15
5.612585937458331 5.020640045656666e-22 7.479826472777917e-14 7.011303192435538e-14 4.685232803423779e-15
5.654840148729818 5.108749286038418e-22 7.668392890134767e-14 7.190188420831055e-14 4.782044693037096e-15
5.67608639626678 5.167119644790944e-22 7.785149343087549e-14 7.301879149489107e-14 4.832701935984431e-15
5.686739436050992 5.196854378886141e-22 7.84464527642134e-14 7.358835417985159e-14 4.858098584361789e-15
5.6974124697621304 5.226967789925405e-22 7.904909799191936e-14 7.416555810176492e-14 4.883539890154454e-15
5.718818669136295 5.2883690080028475e-22 8.027817866405237e-14 7.53436242877731e-14 4.934554376279263e-15
5.740305295436557 5.355159624834906e-22 8.159749840642245e-14 7.661137663453772e-14 4.98612177188472e-15
5.7835210386641895 5.525417108185591e-22 8.48255766809411e-14 7.973284599348234e-14 5.092730687458785e-15
5.827062130521658 5.716096308884603e-22 8.84135073438843e-14 8.321245117532955e-14 5.201056168554761e-15
5.8489554468988025 5.849277479003415e-22 9.081340722721335e-14 8.555383172305236e-14 5.259575504161004e-15
5.870931020387893 5.989892060011394e-22 9.334593433895407e-14 8.802756097676448e-14 5.3183733621895646e-15
5.892989160043636 6.138527233979962e-22 9.602167161986927e-14 9.064422570943108e-14 5.377445910438197e-15
5.915130176081913 6.306097093760332e-22 9.901349554232093e-14 9.357480737274798e-14 5.438688169572924e-15
5.95966208400165 6.773128483166467e-22 1.0714709055472638e-13 1.0156867012721155e-13 5.578420427514793e-15
6.004529249263818 7.437409607299951e-22 1.1854141259678601e-13 1.1280564368787167e-13 5.735768908914334e-15
6.027089341400364 7.897108987741914e-22 1.263412571463439e-13 1.2051447958380406e-13 5.826777562539823e-15
6.049734195844842 8.43465823708999e-22 1.3544819342594729e-13 1.295249918877194e-13 5.923201538227915e-15
6.095279466722835 9.98102386262053e-22 1.6148721680416382e-13 1.5532667983702835e-13 6.160536967135416e-15
6.141167624020661 1.2335763747015895e-21 2.0108812652908343e-13 1.9461915496562991e-13 6.468971563453549e-15
6.164241091010745 1.3836547591778758e-21 2.264001917956186e-13 2.1973744150697334e-13 6.6627502886451554e-15
6.187401249150058 1.5525056111818494e-21 2.5498280373750255e-13 2.481210819004929e-13 6.8617218370096826e-15
6.1990139391386085 1.6346427256625424e-21 2.689768431103942e-13 2.620138802181385e-13 6.962962892255721e-15
6.204828454712694 1.677729643608633e-21 2.763256435703364e-13 2.693115459136645e-13 7.014097656671787e-15
6.210648424152782 1.7090097801682593e-21 2.8174156734379096e-13 2.7468394701192687e-13 7.0576203318640235e-15
6.233982942956859 1.814161066163913e-21 3.0020013622795207e-13 2.929909613918905e-13 7.20917483606152e-15
6.239830258556775 1.826982261502341e-21 3.0260530649667605e-13 2.953752408759773e-13 7.230065620698735e-15
6.245683058788269 1.827172615203001e-21 3.0292070057731854e-13 2.956697112217018e-13 7.250989355616719e-15
6.257405133728602 1.8221572427875433e-21 3.026561887390186e-13 2.953686573045612e-13 7.287531434457362e-15
6.269149208991335 1.7988314387777163e-21 2.9934258774921845e-13 2.92042021965985e-13 7.300565783233397e-15
6.280915325867298 1.7435201197295385e-21 2.906828001266881e-13 2.8339826662424735e-13 7.284533502440705e-15
6.304513850009849 1.608448360722701e-21 2.691709322252596e-13 2.6194476028774485e-13 7.22617193751477e-15
6.32820103803542 1.4432719906002261e-21 2.4243643218295516e-13 2.352966009554189e-13 7.139831227536229e-15
6.3519772230701035 1.2924799602742558e-21 2.1792255562067288e-13 2.10860161189205e-13 7.062394431467893e-15
6.375842739491607 1.1652494945806943e-21 1.9720864672262434e-13 1.902145587848307e-13 6.99408793779373e-15
6.399797922933955 1.0643319692433962e-21 1.8080598461762233e-13 1.7384701607618697e-13 6.9589685414354324e-15
6.42384311029221 9.80087207789554e-22 1.6712025107274371e-13 1.601897903740486e-13 6.930460698695092e-15
6.447978639727206 9.19051795480791e-22 1.5730155324133296e-13 1.5037371733103237e-13 6.927835910300599e-15
6.472204850670314 8.680270234317498e-22 1.4912653722881228e-13 1.4219619041317516e-13 6.9303468156371015e-15
6.496522083828205 8.349619543490802e-22 1.4398492984917716e-13 1.3703109718604604e-13 6.953832663131116e-15
6.520930681187647 8.07017248072052e-22 1.396888794226188e-13 1.3270838393823023e-13 6.980495484388574e-15
6.57002334288761 7.780245837918815e-22 1.3568432096377584e-13 1.2862145406968198e-13 7.062866894093885e-15
