Dust emission spectrum from A.P. Jones, M. Kohler, N. Ysard, M. Bocchio, and L. Verstraete (2017), A&A, 602A, 46J 
inside the DustPedia framework.

lambda    nu*dP/dnu     j_nu    j_nu(carb.) j_nu(sil)
 (um)   (erg s-1 H-1) (Jy cm2 sr-1 H-1)
0.9927057738263894 1.8083385346151072e-25 4.765074750289069e-18 4.765074750071663e-18 2.174053797007128e-28
1.0001793341362166 1.8381975055776755e-25 4.880220920491713e-18 4.8802209202298215e-18 2.6189288311933084e-28
1.0077091589558085 1.8680134650797268e-25 4.996715715590107e-18 4.996715715275029e-18 3.150785242593994e-28
1.0114953028030835 1.8829016435002108e-25 5.0554630195266626e-18 5.055463019181234e-18 3.4542706140331914e-28
1.0152956718711033 1.8977746742886646e-25 5.114540412972101e-18 5.114540412593524e-18 3.7857648619202167e-28
1.0229392996569957 1.9274548820797678e-25 5.233636043453704e-18 5.233636042999414e-18 4.542890512835185e-28
1.0267826658714554 1.9422260463649266e-25 5.293558724506319e-18 5.293558724008896e-18 4.974230655767826e-28
1.0306404723013447 1.9569755324430222e-25 5.3537984997958606e-18 5.353798499251385e-18 5.44476195755652e-28
1.03451277320114 1.971701917075675e-25 5.41435277511043e-18 5.4143527745146444e-18 5.957871435748719e-28
1.0383996230291617 1.986403784946461e-25 5.475218923898511e-18 5.47521892324679e-18 6.5172226279705405e-28
1.0403485208654093 1.993745085042839e-25 5.505768121357931e-18 5.505768120676386e-18 6.815464507841358e-28
1.0423010764483396 2.0010797289323004e-25 5.536394287890881e-18 5.536394287178202e-18 7.1267767418403355e-28
1.0462171883269815 2.015728350368858e-25 5.597876177723338e-18 5.597876176944255e-18 7.790815304259996e-28
1.0471985131304309 2.0193860735001447e-25 5.613294226773823e-18 5.613294225977237e-18 7.965872325886591e-28
1.048180758391296 2.023041980425447e-25 5.628731221054122e-18 5.628731220239652e-18 8.144697750486167e-28
1.0501480137395462 2.0303482593099266e-25 5.659661873559929e-18 5.659661872708532e-18 8.51396440715825e-28
1.0521189612883777 2.0376470146827981e-25 5.69066779060236e-18 5.690667789712434e-18 8.899251630309948e-28
1.0531058218030118 2.0412879100607922e-25 5.706183190589644e-18 5.706183189679831e-18 9.098121457005392e-28
1.0540936079674168 2.0449084889580511e-25 5.7216658444123995e-18 5.721665843482269e-18 9.301289996829628e-28
1.058054026499678 2.059370166178641e-25 5.783779054986326e-18 5.783779053970495e-18 1.0158301258051171e-27
1.0590464539527713 2.0629803201450839e-25 5.799352785147483e-18 5.799352784109075e-18 1.038409350193224e-27
1.06003981227728 2.0665883258126124e-25 5.814944597419877e-18 5.814944596358411e-18 1.0614689735070904e-27
1.0620293250338977 2.0737978082364347e-25 5.8461822896596095e-18 5.846182288550541e-18 1.1090685136165876e-27
1.0660195594769086 2.0881900715529625e-25 5.908872688597266e-18 5.908872687386793e-18 1.2104730609140748e-27
1.070024785945596 2.102545622733616e-25 5.971847365382471e-18 5.971847364061748e-18 1.3207220953950962e-27
1.0740450607676866 2.116863138786927e-25 6.03510340764229e-18 6.0351034062017415e-18 1.4405470020891366e-27
1.07808044048254 2.1311413073378214e-25 6.098637877672249e-18 6.098637876101516e-18 1.5707360964471497e-27
1.0861967418109137 2.159549158551886e-25 6.226457431166053e-18 6.226457429300381e-18 1.865670091193098e-27
1.0902777775684922 2.1736188569920116e-25 6.2905698108169395e-18 6.290569808784626e-18 2.0323155237375772e-27
1.0943741465085532 2.1876430654411207e-25 6.354943913613224e-18 6.354943911400087e-18 2.213134777545117e-27
1.1026131145906286 2.2155500283106095e-25 6.484464960621793e-18 6.484464957999849e-18 2.6219441068060305e-27
1.1109141095355224 2.243260199809349e-25 6.6149957098702305e-18 6.614995706767936e-18 3.1022959148770893e-27
1.1192775983109025 2.2707381847923125e-25 6.746434494513034e-18 6.746434490847061e-18 3.6659715423481776e-27
1.1277040513999907 2.297856277880282e-25 6.878400122063588e-18 6.878400117737023e-18 4.326563403579218e-27
1.1361939428280308 2.3247455690727527e-25 7.011280323914794e-18 7.011280318815064e-18 5.099730336432246e-27
1.1447477501889525 2.351397094719816e-25 7.1450489588874e-18 7.145048952883912e-18 6.003489589720334e-27
1.1533659546722406 2.3778166356341095e-25 7.279724131548997e-18 7.279724124490445e-18 7.058554150965752e-27
1.1707974979042381 2.4300451948210704e-25 7.552062396432129e-18 7.552062386710899e-18 9.721230589398743e-27
1.1884924949847024 2.4812333404540447e-25 7.827687600548506e-18 7.827687587226268e-18 1.3322238597207417e-26
1.2064549276569216 2.531781715740242e-25 8.10787031879363e-18 8.107870300625367e-18 1.8168264306952967e-26
1.2246888378427687 2.581137904785702e-25 8.390858574338477e-18 8.390858549681244e-18 2.4657231225143255e-26
1.2431983285522175 2.6291864391415975e-25 8.67623355433721e-18 8.676233521033532e-18 3.3303678140302647e-26
1.2619875648066055 2.675909404254189e-25 8.963877532675697e-18 8.963877487906164e-18 4.4769531321243737e-26
1.3004222497298317 2.764601739495008e-25 9.543032469687169e-18 9.543032389910069e-18 7.977710273739164e-26
1.3400274889804893 2.846868264143567e-25 1.0126293518574715e-17 1.0126293378992055e-17 1.395826578797523e-25
1.3808389325824078 2.922404427403583e-25 1.0711561204165117e-17 1.0711560964258521e-17 2.399065939053592e-25
1.4228933163050095 2.991578937180009e-25 1.1299058033842645e-17 1.1299057628592605e-17 4.0525004132549733e-25
1.466228494730424 3.0560587218892345e-25 1.1894132803990939e-17 1.1894132130874727e-17 6.73116210544194e-25
1.5108834753276823 3.114590025271541e-25 1.2491117474359347e-17 1.2491116374507953e-17 1.09985138777531e-24
1.5568984535646726 3.1661587546057356e-25 1.3084658952686423e-17 1.3084657182961279e-17 1.769725141214477e-24
1.6043148490894465 3.210860336307212e-25 1.3673523822798837e-17 1.3673521013490371e-17 2.809308464252582e-24
1.6531753430134553 3.2488320698945963e-25 1.4256588545232987e-17 1.4256584150626593e-17 4.3946063973780724e-24
1.7035239163302658 3.28052689296457e-25 1.4834102329004276e-17 1.483409555300892e-17 6.775995357241811e-24
1.755405889504358 3.308555215387782e-25 1.5416485223803032e-17 1.5416474920478824e-17 1.0303324208574815e-23
1.8088679632656115 3.332274673874277e-25 1.59998935232596e-17 1.5999878067573855e-17 1.545568574849194e-23
1.8639582606462262 3.3512510912180317e-25 1.658107121132798e-17 1.6581048330071802e-17 2.2881256174789243e-23
1.9207263702978936 3.3658032613072542e-25 1.7160251910239556e-17 1.7160218466259972e-17 3.344397958285979e-23
1.979223391128241 3.3766704361154586e-25 1.7739971731712268e-17 1.7739923451172406e-17 4.8280539866990744e-23
2.039501978296691 3.3847371697766695e-25 1.8323925384025072e-17 1.8323856518824066e-17 6.886520101165303e-23
2.1016163906111602 3.392475735957659e-25 1.8925163058753352e-17 1.8925065966850095e-17 9.709190325688248e-23
2.1656225393682647 3.401321904239037e-25 1.9552393625511952e-17 1.955225827055916e-17 1.3535495279557303e-22
2.231578038680979 3.4113833032154435e-25 2.0207474123929447e-17 2.0207287481018683e-17 1.8664291076236778e-22
2.299542257339062 3.4235231742836635e-25 2.0897007559344503e-17 2.0896752916614414e-17 2.546427300895875e-22
2.369576372248914 3.4396440393354524e-25 2.1634837849020575e-17 2.163449399214995e-17 3.4385687062525594e-22
2.4417434235010123 3.4619928450982762e-25 2.2438593231452525e-17 2.2438133519769513e-17 4.597116830139887e-22
2.5161083711144245 3.494413489945696e-25 2.3338506937217174e-17 2.333789824281775e-17 6.086943994195425e-22
2.5927381535095444 3.543192168561757e-25 2.438500219488844e-17 2.438420372200179e-17 7.98472886652531e-22
2.6717017477616296 3.6158355315114197e-25 2.5642837233850496e-17 2.5641799264887795e-17 1.0379689626929456e-21
2.753070231689431 3.723641700744927e-25 2.7211633238636487e-17 2.7210295771253192e-17 1.3374673832889636e-21
2.836916847834745 3.892184123316449e-25 2.9309567931628165e-17 2.930785916759958e-17 1.708764028593179e-21
2.9233170693905177 4.17775587405405e-25 3.2418163927782867e-17 3.2415999037851626e-17 2.1648899312394696e-21
2.967498994190263 4.419972928516439e-25 3.481606005950386e-17 3.481363462500103e-17 2.4254345028258045e-21
3.0123486681368425 4.702824264387064e-25 3.7603946120320815e-17 3.7601232384386595e-17 2.7137359342365382e-21
3.0578761833420214 5.334883132709798e-25 4.33026265460897e-17 4.329959343470267e-17 3.033111387023883e-21
3.1040917844459814 6.149231937170578e-25 5.066696162946548e-17 5.0663577824953387e-17 3.3838045121103055e-21
3.127460860933648 7.010217409134069e-25 5.819595554241822e-17 5.819238271482497e-17 3.572827593256685e-21
3.1510058709225794 8.157228674462693e-25 6.822778662938217e-17 6.822401584680294e-17 3.770782579224147e-21
3.162844764501044 9.224690590347501e-25 7.744602251335251e-17 7.744214892989352e-17 3.873583458980679e-21
3.1747281389236908 1.0466028391165427e-24 8.819782653242442e-17 8.819384780618296e-17 3.978726241485903e-21
3.1986289994194426 1.3928287897329112e-24 1.1825813848446965e-16 1.182539417592443e-16 4.196725225369341e-21
3.2227097969389145 2.2088863270138108e-24 1.889574412257695e-16 1.8895301250722623e-16 4.428718543241979e-21
3.2348180950136065 2.9827365760131232e-24 2.561145175731999e-16 2.5610996478324576e-16 4.552789954144201e-21
3.240889293275058 3.561281508956648e-24 3.0636555382706845e-16 3.0636093557967195e-16 4.618247396561079e-21
3.2469718861334385 4.230566154040876e-24 3.6462500822866025e-16 3.646203222409192e-16 4.6859877410815304e-21
3.2714166318528037 7.800612223389516e-24 6.773825108931759e-16 6.773775441453353e-16 4.966747840632787e-21
3.2744851364798273 8.023789369489285e-24 6.974161114673265e-16 6.974111114130601e-16 5.000054266261446e-21
3.2775565192852394 8.25337644928523e-24 7.180443627936275e-16 7.180393292449415e-16 5.033548686108273e-21
3.283707930232385 8.032604387023688e-24 7.001487744300076e-16 7.001436805494374e-16 5.093880570184734e-21
3.2898708863219004 7.332441538612196e-24 6.403197481475172e-16 6.403145989603978e-16 5.149187119595903e-21
3.29141343181113 7.167326041571404e-24 6.261941861440283e-16 6.261890230578113e-16 5.163086217130144e-21
3.292184975758714 7.086194191191077e-24 6.192509924985183e-16 6.192458224518577e-16 5.1700466606569156e-21
3.295272960557952 6.5740787673589755e-24 5.750369223965968e-16 5.750317252001908e-16 5.197196406139922e-21
3.3076538914384823 4.7999618729478675e-24 4.214317776003301e-16 4.2142647113937697e-16 5.306460953165958e-21
3.310756385682612 4.4388859904149534e-24 3.9009523823664096e-16 3.900899041887225e-16 5.3340479185258524e-21
3.313861789986515 4.1057381235463244e-24 3.6115619585498986e-16 3.6115083411128455e-16 5.361743705376775e-21
3.3200813396944477 3.6385416716709235e-24 3.206605329103981e-16 3.206551117748861e-16 5.421135512055137e-21
3.345076488085796 2.8051581398926417e-24 2.4907654637326033e-16 2.4907086096487127e-16 5.685408388996273e-21
3.3482140837626964 2.836422519498826e-24 2.5208881494085973e-16 2.5208309374228773e-16 5.7211985719965095e-21
3.3513546224236106 2.86803251432508e-24 2.5513726081190283e-16 2.5513150363742367e-16 5.757174479079232e-21
3.3576445397418455 3.0989889248617144e-24 2.762003181179707e-16 2.7619448579022745e-16 5.832327743283088e-21
3.3702598118196083 3.950816754397905e-24 3.534432578269821e-16 3.5343726779033333e-16 5.990036648826228e-21
3.382922481734668 4.144862241657059e-24 3.7219589610799115e-16 3.721897519786524e-16 6.144129338603797e-21
3.389271646505754 4.2453908270310804e-24 3.8193854447691483e-16 3.8193232207680206e-16 6.2224001128970244e-21
3.395632727569191 4.353714036885781e-24 3.924190154564488e-16 3.9241271238123325e-16 6.3030752155917595e-21
3.421196662673239 4.8738253217686875e-24 4.426061383823157e-16 4.4259950038830606e-16 6.637994009549035e-21
3.4276182099114902 4.769054143025834e-24 4.339044733215494e-16 4.3389775970341815e-16 6.7136181313418166e-21
3.4340518103208963 4.3098693727041156e-24 3.9286232598543036e-16 3.928555404143901e-16 6.785571040212614e-21
3.4469541582030403 3.655921835620247e-24 3.3450440601816054e-16 3.344974814659586e-16 6.924552201982945e-21
3.472904465399547 3.472745570637412e-24 3.2013653185057617e-16 3.2012928825753664e-16 7.243593039413288e-21
3.4990501388274233 3.192535573598954e-24 2.9652092339913303e-16 2.965133511994927e-16 7.572199640447915e-21
3.5253949054701885 2.1950317120380912e-24 2.0540830770576828e-16 2.0540041296911718e-16 7.894736651115296e-21
3.5519380250092896 1.257515002891485e-24 1.1856267457604496e-16 1.185544529211465e-16 8.22165489846161e-21
3.578680990867387 8.85879530276853e-25 8.415251233883024e-17 8.414393175845691e-17 8.580580373327136e-21
3.605625307711299 7.356593384741177e-25 7.040877343483536e-17 7.039981302431832e-17 8.960410517046552e-21
3.660119384959845 6.263057468033087e-25 6.084866873924026e-17 6.083890245818818e-17 9.766281052069586e-21
3.715437065384467 5.490188992935426e-25 5.414603219177389e-17 5.41354047012206e-17 1.0627490553281328e-20
3.8285932144167436 5.10572022572304e-25 5.188784951040898e-17 5.187532945711582e-17 1.2520053293180291e-20
3.94519561050918 5.042980891252509e-25 5.281111013666812e-17 5.27964616470442e-17 1.4648489623925774e-20
4.06534921144712 5.115206309588973e-25 5.519890275351329e-17 5.518187409488663e-17 1.7028658626658244e-20
4.189162171576248 5.268489844155621e-25 5.858450347057092e-17 5.856481893767202e-17 1.9684532898880004e-20
4.316745939156006 5.483690098610264e-25 6.283459578085688e-17 6.281196586020443e-17 2.2629920652448822e-20
4.448215356677963 5.755559733561256e-25 6.795834653667314e-17 6.793249380860404e-17 2.5852728069093347e-20
4.58368876423945 6.0868809836427745e-25 7.405925930836301e-17 7.402987697053668e-17 2.9382337826333783e-20
4.723288106065518 6.48648406711644e-25 8.132484153681877e-17 8.129157422053345e-17 3.3267316285324505e-20
4.867139040275056 6.970132530991895e-25 9.005010466439247e-17 9.001264803182267e-17 3.745663256982734e-20
4.940699165968905 7.260879846627892e-25 9.522414767420942e-17 9.518446169193977e-17 3.9685982269662037e-20
5.015371051989984 7.565382267185539e-25 1.0071713866458229e-16 1.0067513353210864e-16 4.2005132473645117e-20
5.091171501069577 7.931706355795181e-25 1.0718988069319421e-16 1.0714542206841081e-16 4.445862478340886e-20
5.129500256944802 8.1211844839666885e-25 1.1057676117011099e-16 1.1053104017207777e-16 4.57209980332486e-20
5.168117569889187 8.319024843997342e-25 1.1412327844164884e-16 1.1407626240002446e-16 4.7016041624394794e-20
5.20702561229733 8.556526429807455e-25 1.1826511082397317e-16 1.1821669924428215e-16 4.8411579690995315e-20
5.246226572918644 8.80093810066161e-25 1.2255906594303946e-16 1.2250922945074752e-16 4.9836492291952634e-20
5.265937586045735 8.925808723153054e-25 1.247649842912793e-16 1.2471442422158482e-16 5.056006969447353e-20
5.285722656980489 9.052496205228438e-25 1.2701124009512816e-16 1.2695994897724894e-16 5.12911178792593e-20
5.305582063971359 9.181031524327106e-25 1.2929863736375043e-16 1.2924660768411994e-16 5.202967963048144e-20
5.3255160863122235 9.318225913319864e-25 1.3172383592198522e-16 1.3167105610400924e-16 5.2779817975995616e-20
5.365609099470188 9.652184009258308e-25 1.3747193814572736e-16 1.374176036670464e-16 5.433447868096821e-20
5.406003951863644 9.999329252598743e-25 1.434883563226191e-16 1.4343243404254747e-16 5.592228007164289e-20
5.446702915881641 1.0360280596103022e-24 1.4978717803093e-16 1.4972963437816174e-16 5.754365276824354e-20
5.487708281020852 1.0748981006326447e-24 1.5657691981014246e-16 1.565177158574257e-16 5.920395271675539e-20
5.529022354014368 1.1274112341061208e-24 1.6546271146222006e-16 1.6540176910283e-16 6.094235939007612e-20
5.570647458961463 1.182970645870938e-24 1.7492386959499774e-16 1.7486115102476947e-16 6.271857022826027e-20
5.612585937458331 1.2417875707811136e-24 1.8500341512294772e-16 1.8493888198344851e-16 6.453313949923233e-20
5.654840148729818 1.3061778032200176e-24 1.9606138447305491e-16 1.959949914346394e-16 6.639303841550299e-20
5.67608639626678 1.3491658079283109e-24 2.0327490024152964e-16 2.0320753442384758e-16 6.736581768201772e-20
5.686739436050992 1.3713047804317608e-24 2.0699828750355875e-16 2.0693043122888235e-16 6.78562746764436e-20
5.6974124697621304 1.3938871120892404e-24 2.1080198566670013e-16 2.1073363620869996e-16 6.834945800012074e-20
5.718818669136295 1.4404235141025952e-24 2.1865829718395476e-16 2.1858895313572378e-16 6.934404823089871e-20
5.740305295436557 1.4914952127571678e-24 2.272617191124189e-16 2.2719136368492046e-16 7.035542749841318e-20
5.7835210386641895 1.622463631638395e-24 2.490787763220539e-16 2.4900631912463167e-16 7.245719742222298e-20
5.827062130521658 1.7726817546057417e-24 2.7418889196390643e-16 2.7411427046274477e-16 7.46215011616624e-20
5.8489554468988025 1.876933810945751e-24 2.914048019157794e-16 2.9132901862606297e-16 7.578328971652188e-20
5.870931020387893 1.988624299861813e-24 3.0990540640793467e-16 3.0982844674978335e-16 7.695965815136516e-20
5.892989160043636 2.108346065788377e-24 3.2979720684389114e-16 3.297190560838924e-16 7.81507599987442e-20
5.915130176081913 2.244114892249645e-24 3.5235369290471796e-16 3.522743082625582e-16 7.93846421598211e-20
5.95966208400165 2.62128563976506e-24 4.146726738046552e-16 4.145905304887031e-16 8.214331595213886e-20
6.004529249263818 3.1621109017147088e-24 5.039941496687841e-16 5.039089225108136e-16 8.522715797049435e-20
6.027089341400364 3.536793854838205e-24 5.658310941147237e-16 5.657441104721468e-16 8.69836425768704e-20
6.049734195844842 3.978880566606227e-24 6.389496402291198e-16 6.388607983887424e-16 8.884184037757897e-20
6.095279466722835 5.252906656529988e-24 8.498900391090511e-16 8.497967224322598e-16 9.331667679115108e-20
6.141167624020661 7.209620060762084e-24 1.175256774316753e-15 1.1751577601917608e-15 9.901412499237402e-20
6.164241091010745 8.458746977051008e-24 1.3840605290100162e-15 1.383957996633261e-15 1.02532376754778e-19
6.187401249150058 9.880545155309638e-24 1.6227761677704805e-15 1.6226699969581165e-15 1.0617081236342129e-19
6.1990139391386085 1.0575066844929097e-23 1.7401038471434372e-15 1.7399958200870134e-15 1.0802705642422806e-19
6.204828454712694 1.094080058884104e-23 1.8019731459137575e-15 1.8018641785483757e-15 1.0896736538233228e-19
6.210648424152782 1.1208258447004425e-23 1.8477555475091594e-15 1.8476457640623248e-15 1.097834468343331e-19
6.233982942956859 1.2117884697111627e-23 2.0052192193495377e-15 2.0051065225427703e-15 1.1269680676733786e-19
6.239830258556775 1.2234871050296737e-23 2.0264766561432807e-15 2.0263635056059767e-15 1.1315053730326371e-19
6.245683058788269 1.2246340751580838e-23 2.030278961665198e-15 2.030165355809776e-15 1.136058554222771e-19
6.257405133728602 1.2224424537458457e-23 2.030449213249539e-15 2.0303347810570057e-15 1.14432192533621e-19
6.269149208991335 1.2049594116683939e-23 2.005166580069787e-15 2.005051704409176e-15 1.1487566061133904e-19
6.280915325867298 1.1606671151556308e-23 1.935085022711069e-15 1.9349701794717475e-15 1.1484323932112912e-19
6.304513850009849 1.0512779650395715e-23 1.7592947140089152e-15 1.7591803685330592e-15 1.1434547585596778e-19
6.32820103803542 9.15559605175014e-24 1.5379291330745977e-15 1.5378157484888361e-15 1.1338458576110847e-19
6.3519772230701035 7.911279584252698e-24 1.3339056064468271e-15 1.3337930381517657e-15 1.1256829506132443e-19
6.375842739491607 6.864618575694583e-24 1.161778782892206e-15 1.1616668816354538e-15 1.1190125675222425e-19
6.399797922933955 6.027508020993209e-24 1.0239376003156312e-15 1.023825811229214e-15 1.117890864171199e-19
6.42384311029221 5.3319892431408605e-24 9.091878497634716e-16 9.09076059976071e-16 1.1178978740054595e-19
6.447978639727206 4.827043055700393e-24 8.261790836578939e-16 8.260668519452048e-16 1.1223171268889349e-19
6.472204850670314 4.4071550970928394e-24 7.571466796752791e-16 7.570339135387463e-16 1.1276613653278545e-19
6.496522083828205 4.136640894515849e-24 7.133426210688016e-16 7.132289562184853e-16 1.1366485031621393e-19
