Dust emission spectrum from A.P. Jones, M. Kohler, N. Ysard, M. Bocchio, and L. Verstraete (2017), A&A, 602A, 46J 
inside the DustPedia framework.

lambda    nu*dP/dnu     j_nu    j_nu(carb.) j_nu(sil)
 (um)   (erg s-1 H-1) (Jy cm2 sr-1 H-1)
0.9927057738263894 3.826937654528829e-25 1.0084198085402812e-17 1.0084198085392273e-17 1.0540850734968777e-29
1.0001793341362166 3.890162602955093e-25 1.0327972299739208e-17 1.0327972299726507e-17 1.27002686038337e-29
1.0077091589558085 3.9532973906058064e-25 1.0574604289160364e-17 1.0574604289145083e-17 1.528259439862291e-29
1.0114953028030835 3.9848231986215794e-25 1.0698979625156978e-17 1.0698979625140222e-17 1.6756413397723403e-29
1.0152956718711033 4.0163171604199643e-25 1.0824054460512175e-17 1.0824054460493808e-17 1.836648232892819e-29
1.0229392996569957 4.0791663408333165e-25 1.1076198040803155e-17 1.107619804078111e-17 2.204465948836252e-29
1.0267826658714554 4.1104453382052357e-25 1.1203064556974e-17 1.120306455694986e-17 2.4140598327166807e-29
1.0306404723013447 4.141678659809837e-25 1.1330603080073014e-17 1.1330603080046587e-17 2.64273184965737e-29
1.03451277320114 4.172863291530713e-25 1.1458808122560963e-17 1.1458808122532042e-17 2.8921345909676534e-29
1.0383996230291617 4.20399623596775e-25 1.1587674128293673e-17 1.1587674128262031e-17 3.164055952746027e-29
1.0403485208654093 4.219542393479848e-25 1.1652353237645982e-17 1.165235323761289e-17 3.30905937207633e-29
1.0423010764483396 4.235074513011863e-25 1.1717195473836307e-17 1.17171954738017e-17 3.46042952130993e-29
1.0462171883269815 4.266095160407088e-25 1.1847366469779354e-17 1.1847366469741524e-17 3.783345698132526e-29
1.0471985131304309 4.27384097222835e-25 1.1880010053737312e-17 1.1880010053698629e-17 3.86848288069911e-29
1.048180758391296 4.281582952298545e-25 1.191269379099473e-17 1.1912693790955171e-17 3.9554563088951886e-29
1.0501480137395462 4.297055234299912e-25 1.1978181362055672e-17 1.197818136201432e-17 4.135063612438021e-29
1.0521189612883777 4.312511641392932e-25 1.204382845381726e-17 1.2043828453774034e-17 4.322478455459362e-29
1.0531058218030118 4.320221911014618e-25 1.2076678417947669e-17 1.2076678417903477e-17 4.419220369096242e-29
1.0540936079674168 4.327889195205863e-25 1.2109459137327114e-17 1.2109459137281934e-17 4.5180573212582226e-29
1.058054026499678 4.35851476973692e-25 1.2240969035124987e-17 1.2240969035075635e-17 4.935017725121048e-29
1.0590464539527713 4.366160048826445e-25 1.227394279640077e-17 1.227394279635032e-17 5.044883393301385e-29
1.06003981227728 4.373800792790276e-25 1.230695488431437e-17 1.23069548842628e-17 5.15709127333567e-29
1.0620293250338977 4.389068497383722e-25 1.2373093662071324e-17 1.2373093662017433e-17 5.388724762185554e-29
1.0660195594769086 4.419547532212021e-25 1.2505826966998251e-17 1.2505826966939435e-17 5.882252356431725e-29
1.070024785945596 4.449949049794443e-25 1.2639162842302823e-17 1.2639162842238633e-17 6.418916792402166e-29
1.0740450607676866 4.4802702476749355e-25 1.2773095125269205e-17 1.2773095125199183e-17 7.002294569669686e-29
1.07808044048254 4.51050834582049e-25 1.2907617599388578e-17 1.2907617599312213e-17 7.636241472339175e-29
1.0861967418109137 4.570670800115043e-25 1.3178253922162912e-17 1.3178253922072184e-17 9.072786992368011e-29
1.0902777775684922 4.600468194646923e-25 1.3314002244587537e-17 1.3314002244488687e-17 9.884687008297912e-29
1.0943741465085532 4.630169477394851e-25 1.345030540136808e-17 1.345030540126042e-17 1.076580107968051e-28
1.1026131145906286 4.689273148191079e-25 1.3724550126009036e-17 1.3724550125881454e-17 1.2758440521487376e-28
1.1109141095355224 4.747960948957837e-25 1.4000935473582948e-17 1.4000935473431942e-17 1.51006623992233e-28
1.1192775983109025 4.806157942498744e-25 1.4279246258553993e-17 1.427924625837549e-17 1.7850209322636312e-28
1.1277040513999907 4.8635938092396e-25 1.4558675654859344e-17 1.4558675654648604e-17 2.107373375558663e-28
1.1361939428280308 4.9205459806695855e-25 1.4840044293942702e-17 1.4840044293694223e-17 2.4848058451748046e-28
1.1447477501889525 4.976995460751465e-25 1.512329683279926e-17 1.5123296832506646e-17 2.926162188627176e-28
1.1533659546722406 5.032954458727079e-25 1.5408471568881923e-17 1.540847156853776e-17 3.4416146794334307e-28
1.1707974979042381 5.143581720552435e-25 1.5985155410914042e-17 1.5985155410439715e-17 4.743278766148057e-28
1.1884924949847024 5.252008702370438e-25 1.6568809844379633e-17 1.6568809843729122e-17 6.505109308339759e-28
1.2064549276569216 5.359083211896999e-25 1.7162123985471937e-17 1.716212398458413e-17 8.87808911167921e-28
1.2246888378427687 5.463635786121643e-25 1.7761389307421587e-17 1.7761389306215755e-17 1.2058333142372799e-27
1.2431983285522175 5.56542176049101e-25 1.8365718879249868e-17 1.8365718877619896e-17 1.6299717172397526e-27
1.2619875648066055 5.664402986435991e-25 1.8974863119585452e-17 1.8974863117392536e-17 2.192920864215819e-27
1.3004222497298317 5.852305606406468e-25 2.0201369921249754e-17 2.0201369917335525e-17 3.914226873600285e-27
1.3400274889804893 6.026607638200879e-25 2.143660759942661e-17 2.143660759256612e-17 6.86048892573182e-27
1.3808389325824078 6.186661995948655e-25 2.2676125178869583e-17 2.2676125167056877e-17 1.1812708477734859e-26
1.4228933163050095 6.333246653406126e-25 2.3920385516195275e-17 2.392038549620394e-17 1.999132566169384e-26
1.466228494730424 6.469887930956738e-25 2.5180702755006406e-17 2.5180702721736816e-17 3.3269585721799286e-26
1.5108834753276823 6.593928966537448e-25 2.6445066821088054e-17 2.6445066766617957e-17 5.447008928968251e-26
1.5568984535646726 6.703219752945457e-25 2.770213092587778e-17 2.7702130838051748e-17 8.782603261362895e-26
1.6043148490894465 6.797958935681451e-25 2.894926708657533e-17 2.894926694686353e-17 1.3971179776628726e-25
1.6531753430134553 6.878433538670046e-25 3.0184076827255436e-17 3.018407660822813e-17 2.190272983747306e-25
1.7035239163302658 6.945598580819004e-25 3.140706461057161e-17 3.140706427209698e-17 3.3847463546043553e-25
1.755405889504358 7.004976650490578e-25 3.2640265008458056e-17 3.264026449259237e-17 5.158656917904353e-25
1.8088679632656115 7.055203148471328e-25 3.387550853641487e-17 3.387550776072721e-17 7.75687662826373e-25
1.8639582606462262 7.095353558291558e-25 3.5105863278308286e-17 3.510586212710371e-17 1.1512045747535305e-24
1.9207263702978936 7.126097081242517e-25 3.633177923876915e-17 3.633177755182224e-17 1.6869468952318325e-24
1.979223391128241 7.148992419255405e-25 3.755857310543875e-17 3.755857066366547e-17 2.441773288712064e-24
2.039501978296691 7.165905279276178e-25 3.8794005874054886e-17 3.879400238165199e-17 3.492402893825447e-24
2.1016163906111602 7.182062444734806e-25 4.0065637441143186e-17 4.0065632503232734e-17 4.9379104502337364e-24
2.1656225393682647 7.200494975534318e-25 4.1391822363154324e-17 4.139181545888659e-17 6.904267747387225e-24
2.231578038680979 7.221420691265318e-25 4.27763926789486e-17 4.277638312925601e-17 9.549692598644507e-24
2.299542257339062 7.24665604749121e-25 4.423321195600764e-17 4.4233198885311675e-17 1.3070695972419337e-23
2.369576372248914 7.280216997738869e-25 4.5791457619025715e-17 4.5791439910014815e-17 1.770901089463104e-23
2.4417434235010123 7.326847352607393e-25 4.748829785910061e-17 4.748827410076697e-17 2.37583336181612e-23
2.5161083711144245 7.394670946674522e-25 4.9387566664322715e-17 4.938753509146325e-17 3.157285946604449e-23
2.5927381535095444 7.49698168204037e-25 5.159582265779283e-17 5.159578108245701e-17 4.1575335832333945e-23
2.6717017477616296 7.649656475419921e-25 5.4249949751466996e-17 5.424989548835371e-17 5.426311328271666e-23
2.753070231689431 7.8766000764118215e-25 5.756062738363258e-17 5.756055716700778e-17 7.021662479624566e-23
2.836916847834745 8.231944862241499e-25 6.19895512403713e-17 6.198946112980923e-17 9.011056205875703e-23
2.9233170693905177 8.834876072024934e-25 6.855605483396066e-17 6.855594012939786e-17 1.1470456279887861e-22
2.967498994190263 9.346813701301953e-25 7.362471047956149e-17 7.36245816403021e-17 1.2883925940970518e-22
3.0123486681368425 9.944727228314942e-25 7.95183842413006e-17 7.951823971154572e-17 1.4452975487999123e-22
3.0578761833420214 1.128206897136758e-24 9.157524301496857e-17 9.157508104832125e-17 1.6196664732751787e-22
3.1040917844459814 1.3005343059520823e-24 1.0715829627300946e-16 1.0715811508608838e-16 1.8118692109245542e-22
3.127460860933648 1.4827973273875204e-24 1.230957648055596e-16 1.2309557322844927e-16 1.9157711032614204e-22
3.1510058709225794 1.725627426533359e-24 1.4433301376963425e-16 1.4433281128852425e-16 2.024811099661673e-22
3.162844764501044 1.9516459246372943e-24 1.6385071427296376e-16 1.6385050611886834e-16 2.081540954234213e-22
3.1747281389236908 2.214483772765616e-24 1.866158282296632e-16 1.8661561426700745e-16 2.1396265585776634e-22
3.1986289994194426 2.9475962032137992e-24 2.5026567699164064e-16 2.502654509641824e-16 2.2602745823870773e-22
3.2227097969389145 4.675646670785392e-24 3.999745121252097e-16 3.999742732180434e-16 2.38907166269003e-22
3.2348180950136065 6.3143526245498086e-24 5.421857864448998e-16 5.421855406303815e-16 2.4581451848880205e-22
3.240889293275058 7.539490158967131e-24 6.4859800392539365e-16 6.48597754459344e-16 2.494660498401366e-22
3.2469718861334385 8.956783147038507e-24 7.719692849080755e-16 7.719690316579416e-16 2.532501338274233e-22
3.2714166318528037 1.651684944728339e-23 1.434275237666395e-15 1.4342749686906051e-15 2.689757898792167e-22
3.2744851364798273 1.6989458740094228e-23 1.4766990638495875e-15 1.4766987930074485e-15 2.7084213871330104e-22
3.2775565192852394 1.7475642504551158e-23 1.5203821931176292e-15 1.5203819203978463e-15 2.7271978277707884e-22
3.283707930232385 1.7008118506339748e-23 1.4824847277193545e-15 1.4824844516274563e-15 2.760918985816086e-22
3.2898708863219004 1.5525407817226194e-23 1.3557864963619387e-15 1.3557862171874436e-15 2.7917449567934615e-22
3.29141343181113 1.5175748019481894e-23 1.3258731534002923e-15 1.3258728734508873e-15 2.799494052229883e-22
3.292184975758714 1.5003937638870504e-23 1.3111697229249552e-15 1.3111694425874548e-15 2.8033750079548267e-22
3.295272960557952 1.3919447200485428e-23 1.2175388161411724e-15 1.2175385342924284e-15 2.8184874397467434e-22
3.3076538914384823 1.0162446640867858e-23 8.922524940805834e-16 8.92252206147784e-16 2.879327995485849e-22
3.310756385682612 9.397803465862331e-24 8.258915389656112e-16 8.258912494958099e-16 2.894698016774728e-22
3.313861789986515 8.692302072363985e-24 7.646076430626986e-16 7.646073520494649e-16 2.9101323395871787e-22
3.3200813396944477 7.70292255354173e-24 6.788497903479857e-16 6.788494960170141e-16 2.9433097162436904e-22
3.345076488085796 5.9380224946458434e-24 5.2725089335238785e-16 5.272505842014275e-16 3.0915096039529044e-22
3.3482140837626964 6.004220976241845e-24 5.336288723343304e-16 5.336285611693915e-16 3.111649390068903e-22
3.3513546224236106 6.0711513651644284e-24 5.400834619362778e-16 5.400831487462149e-16 3.131900628048423e-22
3.3576445397418455 6.560223606560329e-24 5.846861318285729e-16 5.846858143996744e-16 3.1742889841261757e-22
3.3702598118196083 8.364086060267169e-24 7.482578944202637e-16 7.48257568074903e-16 3.263453605136615e-22
3.382922481734668 8.774980487542209e-24 7.879662906686142e-16 7.879659556192678e-16 3.3504934612499816e-22
3.389271646505754 8.987852346674515e-24 8.085962831513785e-16 8.085959436759394e-16 3.3947543897390857e-22
3.395632727569191 9.217230711612399e-24 8.307887404734413e-16 8.307883964324227e-16 3.440410187797299e-22
3.421196662673239 1.031860197451644e-23 9.370620143168136e-16 9.37061651286115e-16 3.6303069858335985e-22
3.4276182099114902 1.009671332615057e-23 9.186326987855088e-16 9.186323314648722e-16 3.6732063659135303e-22
3.4340518103208963 9.124282764835578e-24 8.317159152536041e-16 8.31715543854005e-16 3.713995986698118e-22
3.4469541582030403 7.739385194689019e-24 7.081274064099301e-16 7.081270271315904e-16 3.7927833974815277e-22
3.472904465399547 7.35139478462036e-24 6.776914642153891e-16 6.776910667580413e-16 3.974573477160689e-22
3.4990501388274233 6.757910066175822e-24 6.276709176373537e-16 6.276705014088723e-16 4.1622848156477867e-22
3.5253949054701885 4.6453925357603826e-24 4.3470999264678923e-16 4.347095579872488e-16 4.34659540502529e-22
3.5519380250092896 2.659893622872411e-24 2.507835702082138e-16 2.507831168275085e-16 4.533807053319481e-22
3.578680990867387 1.8727612535336844e-24 1.778995440231298e-16 1.7789906998942757e-16 4.740337022358859e-22
3.605625307711299 1.5545212210611982e-24 1.48780728700275e-16 1.4878023272462036e-16 4.959756546174397e-22
3.660119384959845 1.32270270178974e-24 1.285070414130787e-16 1.2850649863252452e-16 5.42780554181152e-22
3.715437065384467 1.1587764294674372e-24 1.1428230600758596e-16 1.1428171286987537e-16 5.931377106142311e-22
3.8285932144167436 1.0768121330636943e-24 1.0943307396652155e-16 1.0943236887872375e-16 7.050877977923248e-22
3.94519561050918 1.0629223008823616e-24 1.1131136109595142e-16 1.11310528038141e-16 8.330578104119384e-22
4.06534921144712 1.0775499426058225e-24 1.1627991305541702e-16 1.1627893429000453e-16 9.787654124826789e-22
4.189162171576248 1.109273484077681e-24 1.2334888782190776e-16 1.2334774324865144e-16 1.1445732562915941e-21
4.316745939156006 1.1540337697243345e-24 1.3223439715614872e-16 1.3223306466060593e-16 1.3324955428385283e-21
4.448215356677963 1.2107141071987284e-24 1.4295417415977434e-16 1.429526308754899e-16 1.5432842844179854e-21
4.58368876423945 1.2798971336752077e-24 1.55725459337231e-16 1.5572367893136082e-16 1.780405870174592e-21
4.723288106065518 1.3634456934909741e-24 1.7094315475055806e-16 1.709411058770536e-16 2.0488735044141774e-21
4.867139040275056 1.4646921495841768e-24 1.8922980414606192e-16 1.8922745586244902e-16 2.3482836129610748e-21
4.940699165968905 1.5256354200773775e-24 2.0008227047844986e-16 2.0007975868451538e-16 2.511793934442241e-21
5.015371051989984 1.5894636843294175e-24 2.1160362906087336e-16 2.116009440221756e-16 2.6850386977541814e-21
5.091171501069577 1.666353763754571e-24 2.2519273043814125e-16 2.251898590874491e-16 2.8713506921858283e-21
5.129500256944802 1.7061252868606196e-24 2.3230331578347096e-16 2.3230034714715586e-16 2.9686363151586957e-21
5.168117569889187 1.7476599190913033e-24 2.3975007084115167e-16 2.397470015358937e-16 3.069305257973209e-21
5.20702561229733 1.7975840507833495e-24 2.4845535010646047e-16 2.48452172564924e-16 3.1775415364631157e-21
5.246226572918644 1.8489637509178944e-24 2.5748081361690363e-16 2.5747752446587184e-16 3.289151031772596e-21
5.265937586045735 1.8752149695076134e-24 2.6211761137845914e-16 2.6211426512523867e-16 3.346253220410614e-21
5.285722656980489 1.9018489563129908e-24 2.668393213746093e-16 2.6683591713643453e-16 3.4042381747929146e-21
5.305582063971359 1.928872256997587e-24 2.7164763982967464e-16 2.7164417671011703e-16 3.463119557600628e-21
5.3255160863122235 1.957726991917443e-24 2.767472171872883e-16 2.767436940007048e-16 3.5231865834945855e-21
5.365609099470188 2.028043298432546e-24 2.88845553101302e-16 2.888419048125403e-16 3.6482887617329194e-21
5.406003951863644 2.101144122024477e-24 3.0150994016710682e-16 3.0150616275767756e-16 3.777409429257005e-21
5.446702915881641 2.1771604403386487e-24 3.14770160377286e-16 3.1476624969747033e-16 3.910679815620135e-21
5.487708281020852 2.2590442370482854e-24 3.2906764663896135e-16 3.290635980079068e-16 4.048631054594803e-21
5.529022354014368 2.3698064989641956e-24 3.4780087078899703e-16 3.4779667622978313e-16 4.19455921393161e-21
5.570647458961463 2.487011807566614e-24 3.67750231695491e-16 3.677458863112774e-16 4.3453842136212335e-21
5.612585937458331 2.6111074841087877e-24 3.8900679406007846e-16 3.8900229278243616e-16 4.50127764228454e-21
5.654840148729818 2.7469966849490302e-24 4.123328170684574e-16 4.123281540647615e-16 4.663003695945592e-21
5.67608639626678 2.837790221725804e-24 4.2756162425541746e-16 4.2755687577469973e-16 4.748480717702306e-21
5.686739436050992 2.8845521909351822e-24 4.3542279751276197e-16 4.3541800573011216e-16 4.791782649860998e-21
5.6974124697621304 2.9322526322752665e-24 4.4345390096444224e-16 4.43449065499543e-16 4.835464899106644e-21
5.718818669136295 3.0305571746443205e-24 4.600428032717786e-16 4.600378792870974e-16 4.923984681195745e-21
5.740305295436557 3.1384629963721014e-24 4.782130641959779e-16 4.782080494753055e-16 5.0147206723648776e-21
5.7835210386641895 3.415302494187823e-24 5.243133648320544e-16 5.243081585252063e-16 5.206306848099266e-21
5.827062130521658 3.7329000218568916e-24 5.773849243642845e-16 5.773795176730261e-16 5.406691258251927e-21
5.8489554468988025 3.953401042977428e-24 6.13788318535315e-16 6.137828020777165e-16 5.516457598473186e-21
5.870931020387893 4.1896550100474265e-24 6.529120350626371e-16 6.529064065064326e-16 5.628556204396379e-21
5.892989160043636 4.442917750458831e-24 6.949816674382432e-16 6.949759243938458e-16 5.7430443975565436e-21
5.915130176081913 4.730159960376254e-24 7.426934047916821e-16 7.426875420008572e-16 5.86279082490967e-21
5.95966208400165 5.528312817945901e-24 8.745480549962656e-16 8.745419193452883e-16 6.135650977287545e-21
6.004529249263818 6.6730102807439e-24 1.0635800725239729e-15 1.0635736210568415e-15 6.45146713161629e-21
6.027089341400364 7.466151064153937e-24 1.1944661178589638e-15 1.194459480608862e-15 6.637250101690845e-21
6.049734195844842 8.402035708922133e-24 1.3492432365184157e-15 1.3492363989800938e-15 6.837538322421598e-21
6.095279466722835 1.1099340141045998e-23 1.79580930013893e-15 1.795801961756726e-15 7.338382203424039e-21
6.141167624020661 1.5242334020636668e-23 2.4846879812219137e-15 2.484679974598285e-15 8.00662362886852e-21
6.164241091010745 1.7887187791474718e-23 2.926786989176625e-15 2.9267785604884777e-15 8.428688148219127e-21
6.187401249150058 2.0897769151531457e-23 3.4322399427981397e-15 3.432231064619373e-15 8.87817876692504e-21
6.1990139391386085 2.2368374898438302e-23 3.680666589240851e-15 3.680657480647427e-15 9.108593424025276e-21
6.204828454712694 2.3142803997662622e-23 3.81166908091423e-15 3.81165985417497e-15 9.226739261274204e-21
6.210648424152782 2.370911404205863e-23 3.908604285391872e-15 3.908594957604558e-15 9.327787313898468e-21
6.233982942956859 2.563511086331371e-23 4.241995882790108e-15 4.241986193195796e-15 9.689594311863719e-21
6.239830258556775 2.5882785360715517e-23 4.286997395708958e-15 4.286987651171764e-15 9.744537194081417e-21
6.245683058788269 2.5907012234237595e-23 4.2950349794885245e-15 4.295025179678388e-15 9.79981013642267e-21
6.257405133728602 2.586047816746266e-23 4.2953668198027335e-15 4.2953569204054266e-15 9.899397306690324e-21
6.269149208991335 2.5490124793265607e-23 4.241798176960549e-15 4.241788229062784e-15 9.947897764985322e-21
6.280915325867298 2.4552046838325212e-23 4.0933612655488426e-15 4.093351332741124e-15 9.932807717748413e-21
6.304513850009849 2.2235331248388946e-23 3.721042581545544e-15 3.721032737476279e-15 9.844069264513211e-21
6.32820103803542 1.9361019407687354e-23 3.2522050585022534e-15 3.252195371156283e-15 9.687345970889422e-21
6.3519772230701035 1.6725707991954808e-23 2.82008939573692e-15 2.8200798496545384e-15 9.546082382333923e-21
6.375842739491607 1.450900622621009e-23 2.455526903438511e-15 2.4555174764240436e-15 9.427014467474789e-21
6.399797922933955 1.2735980780410244e-23 2.163555743524403e-15 2.163546369316751e-15 9.374207652009804e-21
6.42384311029221 1.1262832689459283e-23 1.920489739987403e-15 1.9204804016827866e-15 9.338304616814004e-21
6.447978639727206 1.019321159606123e-23 1.7446329189087703e-15 1.744623559611881e-15 9.359296889133953e-21
6.472204850670314 9.303730253520291e-24 1.5983754405861649e-15 1.5983660470879408e-15 9.393498223982389e-21
6.496522083828205 8.730541324255829e-24 1.5055373164856378e-15 1.5055278403635907e-15 9.476122046509464e-21
