Dust emission spectrum from A.P. Jones, M. Kohler, N. Ysard, M. Bocchio, and L. Verstraete (2017), A&A, 602A, 46J 
inside the DustPedia framework.

lambda    nu*dP/dnu     j_nu    j_nu(carb.) j_nu(sil)
 (um)   (erg s-1 H-1) (Jy cm2 sr-1 H-1)
0.9927057738263894 3.66949241117525e-21 9.66932092645484e-14 9.669313621680309e-14 7.304774530412482e-20
1.0001793341362166 3.731061652193531e-21 9.905576019676425e-14 9.905567231262735e-14 8.788413689983971e-20
1.0077091589558085 3.792903165160941e-21 1.0145568652130811e-13 1.0145558092926962e-13 1.055920384897291e-19
1.0114953028030835 3.823923867036036e-21 1.0266975848695683e-13 1.0266964280312685e-13 1.1568382995736046e-19
1.0152956718711033 3.855010113646151e-21 1.0389328767942228e-13 1.0389316098188816e-13 1.266975340825065e-19
1.0229392996569957 3.9173458251652126e-21 1.0636805300021063e-13 1.0636790118092718e-13 1.518192834380141e-19
1.0267826658714554 3.948525005474236e-21 1.0761748886428152e-13 1.0761732275141753e-13 1.661128639725804e-19
1.0306404723013447 3.979765286760817e-21 1.0887648347448136e-13 1.0887630178332998e-13 1.8169115135512899e-19
1.03451277320114 4.011066043518767e-21 1.1014508012492608e-13 1.1014488146122443e-13 1.9866370163542562e-19
1.0383996230291617 4.0424266904898464e-21 1.1142332330402295e-13 1.1142310615515166e-13 2.1714887130397404e-19
1.0403485208654093 4.058129301218312e-21 1.1206607658429027e-13 1.1206584958604759e-13 2.269982426686292e-19
1.0423010764483396 4.073846683887874e-21 1.1271125874856672e-13 1.1271102147408949e-13 2.3727447724335907e-19
1.0462171883269815 4.1053255226394294e-21 1.1400893349928602e-13 1.1400867432078367e-13 2.591785023346645e-19
1.0471985131304309 4.1132043723627726e-21 1.1433487959489562e-13 1.1433461464531068e-13 2.649495849426911e-19
1.048180758391296 4.121086864425785e-21 1.1466143818523832e-13 1.1466116734173233e-13 2.708435060202975e-19
1.0501480137395462 4.136862749641626e-21 1.1531639595787712e-13 1.1531611294802754e-13 2.8300984958350127e-19
1.0521189612883777 4.152653128228708e-21 1.159738130896727e-13 1.1597351739168835e-13 2.956979843399377e-19
1.0531058218030118 4.160543395141305e-21 1.1630315678677118e-13 1.1630285454199962e-13 3.0224477155145405e-19
1.0540936079674168 4.168403385355142e-21 1.166321691386396e-13 1.1663186020710491e-13 3.089315346837312e-19
1.058054026499678 4.199877943321266e-21 1.1795434585300987e-13 1.1795400873231258e-13 3.3712069729044e-19
1.0590464539527713 4.207755208043116e-21 1.1828642593773037e-13 1.1828608139461853e-13 3.4454311181915763e-19
1.06003981227728 4.215635913909879e-21 1.1861912203844625e-13 1.186187699168377e-13 3.5212160855445934e-19
1.0620293250338977 4.231407632738072e-21 1.1928636564564961e-13 1.192859978862778e-13 3.6775937182424314e-19
1.0660195594769086 4.2629921954483375e-21 1.2062828235101635e-13 1.2062788130203438e-13 4.0104898197147454e-19
1.070024785945596 4.2946314241794205e-21 1.2198015148146918e-13 1.2197971427496247e-13 4.372065067044874e-19
1.0740450607676866 4.3263251639108705e-21 1.2334203029417088e-13 1.2334155382857327e-13 4.764655976094231e-19
1.07808044048254 4.358073313262991e-21 1.2471397785977583e-13 1.2471345878200592e-13 5.190777698869811e-19
1.0861967418109137 4.421684671465299e-21 1.2748693991008618e-13 1.274863244455857e-13 6.154645004730468e-19
1.0902777775684922 4.4534387452025905e-21 1.2888491114611656e-13 1.2888424130270053e-13 6.698434160083031e-19
1.0943741465085532 4.485245522667067e-21 1.3029311858781926e-13 1.3029238980102548e-13 7.287867937778493e-19
1.1026131145906286 4.549018042051461e-21 1.3314051915772666e-13 1.3313965731757516e-13 8.618401514934131e-19
1.1109141095355224 4.61300457320719e-21 1.360297189954636e-13 1.3602870114510457e-13 1.0178503589753233e-18
1.1192775983109025 4.6771591393002256e-21 1.3895986761057597e-13 1.389586670764989e-13 1.2005340770440969e-18
1.1277040513999907 4.7412593225692085e-21 1.4192479754730016e-13 1.419233833797948e-13 1.4141675053324376e-18
1.1361939428280308 4.805579796907355e-21 1.4493313816056813e-13 1.449314744966143e-13 1.663663953877907e-18
1.1447477501889525 4.870127513729549e-21 1.4798563628304775e-13 1.479836816221144e-13 1.954660933374054e-18
1.1533659546722406 4.934932752493494e-21 1.510837652808246e-13 1.5108147165942483e-13 2.293621399831757e-18
1.1707974979042381 5.0655358295870255e-21 1.5742605420645528e-13 1.5742290810892466e-13 3.1460975306243217e-18
1.1884924949847024 5.197292092256635e-21 1.6396192249916113e-13 1.6395762878189678e-13 4.293717264373608e-18
1.2064549276569216 5.33114407513926e-21 1.7072650672570415e-13 1.70720675802402e-13 5.8309233021645145e-18
1.2246888378427687 5.466353930706722e-21 1.7770225552379952e-13 1.7769437599052932e-13 7.87953327015578e-18
1.2431983285522175 5.6029242946549014e-21 1.8489476076701288e-13 1.8488416465198218e-13 1.0596115030712114e-17
1.2619875648066055 5.7411821180857224e-21 1.9232061189176005e-13 1.9230643101369817e-13 1.418087806182606e-17
1.3004222497298317 6.022590734246358e-21 2.0789171224007282e-13 2.0786667199275447e-13 2.504024731840604e-17
1.3400274889804893 6.312928650216609e-21 2.24550497397688e-13 2.2450709486323948e-13 4.340253444843046e-17
1.3808389325824078 6.615270294253443e-21 2.424711377197945e-13 2.4239725583836787e-13 7.388188142658715e-17
1.4228933163050095 6.93468299794627e-21 2.619198332568753e-13 2.617962603129103e-13 1.2357294396498347e-16
1.466228494730424 7.279681996532968e-21 2.8332408607665247e-13 2.8312090209554245e-13 2.031839811101029e-16
1.5108834753276823 7.654524243361394e-21 3.069860262774805e-13 3.066574561150638e-13 3.285701624167446e-16
1.5568984535646726 8.065191244405428e-21 3.3330696594959184e-13 3.3278384740369374e-13 5.231185458980985e-16
1.6043148490894465 8.521496293229152e-21 3.62889912257499e-13 3.6206838415945626e-13 8.215280980427866e-16
1.6531753430134553 9.035398877893829e-21 3.964931439142417e-13 3.9522205803020656e-13 1.2710858840350784e-15
1.7035239163302658 9.621670312396087e-21 4.350790182397922e-13 4.331409982909294e-13 1.938019948862824e-15
1.755405889504358 1.0302284899591895e-20 4.800434406755166e-13 4.771301162865115e-13 2.913324389005242e-15
1.8088679632656115 1.1095942035091219e-20 5.327708801847051e-13 5.284515216159183e-13 4.3193585687868616e-15
1.8639582606462262 1.20248346930006e-20 5.949558386465834e-13 5.886372389837872e-13 6.318599662796091e-15
1.9207263702978936 1.3116625069031793e-20 6.687395932622857e-13 6.596162224453093e-13 9.123370816976349e-15
1.979223391128241 1.44041031675364e-20 7.56746587643668e-13 7.437392464003294e-13 1.300734124333842e-14
2.039501978296691 1.592435596336648e-20 8.620956246379252e-13 8.437778396449356e-13 1.831778499298937e-14
2.1016163906111602 1.7722930012317445e-20 9.886860407191646e-13 9.63195123658945e-13 2.5490917060219628e-14
2.1656225393682647 1.9847672946842443e-20 1.1409373324043241e-12 1.1058724201905078e-12 3.50649122138162e-14
2.231578038680979 2.2346728048185054e-20 1.3237179426966e-12 1.2760235565870822e-12 4.769438610951763e-14
2.299542257339062 2.5274439835387968e-20 1.542738674198729e-12 1.4785735736858526e-12 6.41651005128763e-14
2.369576372248914 2.86902195719753e-20 1.8045711742090743e-12 1.7191619560134379e-12 8.540921819563634e-14
2.4417434235010123 3.265644569508803e-20 2.116597965748534e-12 2.004082525397622e-12 1.1251544035091172e-13
2.5161083711144245 3.724081382882336e-20 2.4872414051524113e-12 2.340498367834384e-12 1.4674303731802642e-13
2.5927381535095444 4.251468646664716e-20 2.925951157836882e-12 2.7364232947286248e-12 1.8952786310825715e-13
2.6717017477616296 4.8546751254857515e-20 3.442845864563369e-12 3.2003710827316615e-12 2.4247478183170756e-13
2.753070231689431 5.5405000461975e-20 4.048887281115518e-12 3.7415327303023086e-12 3.0735455081320927e-13
2.836916847834745 6.317261287969627e-20 4.757128465541935e-12 4.371021080809058e-12 3.861073847328779e-13
2.9233170693905177 7.195129532579833e-20 5.5832101180785025e-12 5.102486185406411e-12 4.807239326720924e-13
2.967498994190263 7.670088397232614e-20 6.041717056158236e-12 5.508178788473634e-12 5.335382676846023e-13
3.0123486681368425 8.174193012128928e-20 6.536113116811549e-12 5.944717268981597e-12 5.913958478299527e-13
3.0578761833420214 8.7479300719046e-20 7.100593200109725e-12 6.445703084554759e-12 6.548901155549654e-13
3.1040917844459814 9.362738037202096e-20 7.71448359282299e-12 6.990733816388808e-12 7.237497764341803e-13
3.127460860933648 9.730833412332662e-20 8.078139601161678e-12 7.317613797781507e-12 7.605258033801702e-13
3.1510058709225794 1.0134754195989121e-19 8.47679860918853e-12 7.678006663010642e-12 7.98791946177887e-13
3.162844764501044 1.039646456124858e-19 8.72836677375645e-12 7.909797931909338e-12 8.185688418471134e-13
3.1747281389236908 1.0675902885757212e-19 8.996645103598602e-12 8.157915424733359e-12 8.387296788652436e-13
3.1986289994194426 1.1340067188156248e-19 9.628284867785747e-12 8.747958586680586e-12 8.803262811051611e-13
3.2227097969389145 1.2522048025746444e-19 1.0711887365657327e-11 9.787552343588382e-12 9.243350220689467e-13
3.2348180950136065 1.3509534899198605e-19 1.1600045545997743e-11 1.0652241963155738e-11 9.478035828420025e-13
3.240889293275058 1.4212631448968315e-19 1.2226668108803504e-11 1.1266485320851872e-11 9.601827879516324e-13
3.2469718861334385 1.5015657921105153e-19 1.2941729767804535e-11 1.1968738195989546e-11 9.729915718149855e-13
3.2714166318528037 1.9116795717212337e-19 1.6600470209670865e-11 1.5574602274236844e-11 1.0258679354340178e-12
3.2744851364798273 1.9390983406462744e-19 1.6854360978475532e-11 1.582227761051823e-11 1.032083367957299e-12
3.2775565192852394 1.967148314494674e-19 1.7114204915785876e-11 1.6075876495750236e-11 1.0383284200356414e-12
3.283707930232385 1.9509858468820968e-19 1.700544784492898e-11 1.5955983586961912e-11 1.0494642579670687e-12
3.2898708863219004 1.883681728741868e-19 1.644961782220171e-11 1.5390049029701074e-11 1.059568792500633e-12
3.29141343181113 1.8678609106204967e-19 1.63191075161387e-11 1.5257002169684582e-11 1.0621053464541178e-12
3.292184975758714 1.8600950398268385e-19 1.6255068213996126e-11 1.5191693026324266e-11 1.0633751876718586e-12
3.295272960557952 1.8099642758419279e-19 1.5831819539424984e-11 1.4763510523333812e-11 1.0683090160911628e-12
3.3076538914384823 1.636445802301735e-19 1.4367827946663957e-11 1.3279716977977783e-11 1.0881109686861704e-12
3.310756385682612 1.6012845538961117e-19 1.4072302845479567e-11 1.297920363800854e-11 1.093099207471025e-12
3.313861789986515 1.5689186096583427e-19 1.380079926239635e-11 1.2702696704999602e-11 1.0981025573967504e-12
3.3200813396944477 1.526207940058389e-19 1.3450296727437503e-11 1.23414185438035e-11 1.1088781836340024e-12
3.345076488085796 1.4708434647489113e-19 1.3059962832233055e-11 1.1903026216092246e-11 1.1569366161408098e-12
3.3482140837626964 1.4786680686620985e-19 1.3141754395102654e-11 1.1978305839489612e-11 1.1634485556130439e-12
3.3513546224236106 1.4865367835208158e-19 1.322408031112888e-11 1.2054092065591007e-11 1.1699882455378699e-12
3.3576445397418455 1.5205694294344984e-19 1.3552218814367343e-11 1.2368552248778438e-11 1.1836665655889042e-12
3.3702598118196083 1.629796748867165e-19 1.4580293350082792e-11 1.3367938406510728e-11 1.2123549435720695e-12
3.382922481734668 1.6690872238399468e-19 1.4987890519399988e-11 1.3747700849668814e-11 1.2401896697311758e-12
3.389271646505754 1.689131947860589e-19 1.519635350148662e-11 1.394206505619507e-11 1.2542884452915559e-12
3.395632727569191 1.7106443811465835e-19 1.54187752837764e-11 1.4149957132891975e-11 1.2688181508844255e-12
3.421196662673239 1.808773019585367e-19 1.6425989619141202e-11 1.509707866671879e-11 1.3289109524224101e-12
3.4276182099114902 1.8056967331397772e-19 1.642883193341874e-11 1.5086564893406218e-11 1.3422670400125205e-12
3.4340518103208963 1.7630053927137684e-19 1.6070519531124973e-11 1.4715646526949182e-11 1.3548730041757919e-12
3.4469541582030403 1.705729979409393e-19 1.560684881253505e-11 1.4227834045473996e-11 1.3790147670610585e-12
3.472904465399547 1.7184836552658138e-19 1.5841914884012658e-11 1.4407205199009803e-11 1.4347096850028614e-12
3.4990501388274233 1.7213970857118134e-19 1.5988240119010927e-11 1.4496656464196984e-11 1.491583654813935e-12
3.5253949054701885 1.6469512118221752e-19 1.541196236204931e-11 1.3865318608322394e-11 1.5466437537269183e-12
3.5519380250092896 1.5774153887250142e-19 1.487239412449285e-11 1.3270564745663174e-11 1.6018293788296747e-12
3.578680990867387 1.5726744273329242e-19 1.4939334257981635e-11 1.327703863817773e-11 1.662295619803899e-12
3.605625307711299 1.5935809940283888e-19 1.525190768207071e-11 1.352602234947589e-11 1.7258853325948214e-12
3.660119384959845 1.6579919861839853e-19 1.6108203645672076e-11 1.4249147023608411e-11 1.859056622063669e-12
3.715437065384467 1.7271642780524498e-19 1.7033856706981632e-11 1.5035030195518036e-11 1.9988265114635963e-12
3.8285932144167436 1.8828373403020626e-19 1.9134691335802086e-11 1.683762852537243e-11 2.297062810429657e-12
3.94519561050918 2.0467648741269805e-19 2.1434133406866267e-11 1.8815090911701345e-11 2.6190424951649217e-12
4.06534921144712 2.2156863292608264e-19 2.3909779355700077e-11 2.0946151484153033e-11 2.9636278715470484e-12
4.189162171576248 2.3877704635668313e-19 2.6551507385922904e-11 2.3220805202345585e-11 3.330702183577321e-12
4.316745939156006 2.561288698036632e-19 2.934840173772683e-11 2.563038473599368e-11 3.718017001733148e-12
4.448215356677963 2.7342773484319467e-19 3.2284777879829174e-11 2.8165590057641504e-11 4.119187822187674e-12
4.58368876423945 2.905402260588059e-19 3.535011444945694e-11 3.081619567910635e-11 4.533918770350595e-12
4.723288106065518 3.0735274947101426e-19 3.853461041144202e-11 3.3570527338570195e-11 4.9640830728718345e-12
4.867139040275056 3.2364408002621356e-19 4.181295427423407e-11 3.641631889443241e-11 5.396635379801655e-12
4.940699165968905 3.3159086086391414e-19 4.348709491038873e-11 3.787210113188014e-11 5.614993778508598e-12
5.015371051989984 3.393412009392774e-19 4.51761372823818e-11 3.9342218346447304e-11 5.833918935934494e-12
5.091171501069577 3.469994042245095e-19 4.6893849911953447e-11 4.083540796989978e-11 6.058441942053658e-12
5.129500256944802 3.5074103944956926e-19 4.7756344198732024e-11 4.158574952768447e-11 6.170594671047557e-12
5.168117569889187 3.544380794255282e-19 4.862304944045162e-11 4.233913776459202e-11 6.2839116758595976e-12
5.20702561229733 3.582158243179495e-19 4.9511252620318856e-11 4.3102693997523734e-11 6.408558622795121e-12
5.246226572918644 3.6193172858344975e-19 5.040146184757584e-11 4.386803218592574e-11 6.533429661650097e-12
5.265937586045735 3.6376582488118753e-19 5.084719921151663e-11 4.425127110951281e-11 6.595928102003827e-12
5.285722656980489 3.6558366917988426e-19 5.129329427859446e-11 4.463483713891121e-11 6.6584571396832506e-12
5.305582063971359 3.673850048330092e-19 5.1739698733105595e-11 4.501869052250819e-11 6.721008210597422e-12
5.3255160863122235 3.6918554962184e-19 5.218862175646618e-11 4.540447761820182e-11 6.784144138264345e-12
5.365609099470188 3.728579063936447e-19 5.310456057999588e-11 4.618971202841452e-11 6.91484855158135e-12
5.406003951863644 3.7646464985810395e-19 5.402191732777552e-11 4.697618371043227e-11 7.045733617343244e-12
5.446702915881641 3.8000401836969355e-19 5.494033585675296e-11 4.7763605310233396e-11 7.176730546519564e-12
5.487708281020852 3.8350164953148115e-19 5.586344137216948e-11 4.855503102163189e-11 7.308410350537587e-12
5.529022354014368 3.8716788063419537e-19 5.68220764374476e-11 4.937639955864536e-11 7.445676878802235e-12
5.570647458961463 3.907722934767223e-19 5.778283843648133e-11 5.01997476712193e-11 7.583090765262032e-12
5.612585937458331 3.943141082404692e-19 5.874552006488483e-11 5.102493793209513e-11 7.720582132789684e-12
5.654840148729818 3.9783201823711337e-19 5.971583354960715e-11 5.185697386585774e-11 7.858859683749418e-12
5.67608639626678 3.9973904643160654e-19 6.022752304314748e-11 5.229615735113796e-11 7.931365692009531e-12
5.686739436050992 4.0068855781658005e-19 6.048388839145458e-11 5.251625265005842e-11 7.967635741396168e-12
5.6974124697621304 4.0163543827526705e-19 6.074060601338075e-11 5.2736690340618965e-11 8.003915672761786e-12
5.718818669136295 4.0352142916878494e-19 6.125511539864926e-11 5.317861467637535e-11 8.076500722273907e-12
5.740305295436557 4.0544475703580023e-19 6.177832265297035e-11 5.3628600185595606e-11 8.149722467374755e-12
5.7835210386641895 4.0964213155061113e-19 6.288779536682065e-11 5.4586834603887746e-11 8.30096076293291e-12
5.827062130521658 4.1393230038247253e-19 6.402482481418856e-11 5.5570926884563876e-11 8.453897929624684e-12
5.8489554468988025 4.164881543711509e-19 6.466218862754647e-11 5.612521653398624e-11 8.536972093560251e-12
5.870931020387893 4.1907033998079855e-19 6.530754151716111e-11 5.668734171000113e-11 8.620199807159979e-12
5.892989160043636 4.216822031394999e-19 6.596147332159287e-11 5.725790136509076e-11 8.703571956502108e-12
5.915130176081913 4.244650319241345e-19 6.664624080697466e-11 5.78560855684459e-11 8.790155238528755e-12
5.95966208400165 4.314294570990256e-19 6.824971831355942e-11 5.925951141783765e-11 8.990206895721782e-12
6.004529249263818 4.402943189274117e-19 7.017646368806517e-11 6.095957188422042e-11 9.216891803844768e-12
6.027089341400364 4.460208477842045e-19 7.135628330570545e-11 6.200703937222151e-11 9.349243933483934e-12
6.049734195844842 4.52415370711862e-19 7.265124788528897e-11 6.316150640853322e-11 9.489741476755758e-12
6.095279466722835 4.6986348299024095e-19 7.602120502904296e-11 6.618147925582532e-11 9.83972577321765e-12
6.141167624020661 4.948316809055728e-19 8.066365220767929e-11 7.036395077602256e-11 1.029970143165673e-11
6.164241091010745 5.105159367503228e-19 8.35330527563592e-11 7.294190550696321e-11 1.0591147249396007e-11
6.187401249150058 5.273674561539039e-19 8.661458715609501e-11 7.572470879199958e-11 1.0889878364095439e-11
6.1990139391386085 5.355103561819891e-19 8.811704404726903e-11 7.707526021078803e-11 1.1041783836480992e-11
6.204828454712694 5.397139427211606e-19 8.889203521821885e-11 7.77735830747849e-11 1.111845214343395e-11
6.210648424152782 5.42781223339736e-19 8.948107516006222e-11 7.829790664811997e-11 1.1183168511942214e-11
6.233982942956859 5.528785497524554e-19 9.148813688530761e-11 8.008189585771508e-11 1.1406241027592524e-11
6.239830258556775 5.539929074889979e-19 9.175852283855253e-11 8.032326158832358e-11 1.1435261250228925e-11
6.245683058788269 5.539585283555953e-19 9.183889037304442e-11 8.037458258586064e-11 1.146430778718377e-11
6.257405133728602 5.53348827996539e-19 9.19099863568482e-11 8.03959661635014e-11 1.1514020193346784e-11
6.269149208991335 5.509285946327878e-19 9.167973587034784e-11 8.015291849916574e-11 1.152681737118212e-11
6.280915325867298 5.454356289209706e-19 9.093600590522787e-11 7.944196482819403e-11 1.1494041077033827e-11
6.304513850009849 5.320840619345626e-19 8.904330811638696e-11 7.765593496060621e-11 1.138737315578071e-11
6.32820103803542 5.1627346210430765e-19 8.6722043383699e-11 7.548507012713102e-11 1.1236973256567947e-11
6.3519772230701035 5.020498139166914e-19 8.464965172411105e-11 7.35490335996705e-11 1.1100618124440541e-11
6.375842739491607 4.897893268623296e-19 8.289271162864784e-11 7.191397918572552e-11 1.0978732442922304e-11
6.399797922933955 4.807059382864074e-19 8.166109164718313e-11 7.075255944380694e-11 1.0908532203376194e-11
6.42384311029221 4.729690322662406e-19 8.0648643093951e-11 6.979994470840961e-11 1.0848698385541398e-11
6.447978639727206 4.677198962091762e-19 8.005323151247376e-11 6.922422302290247e-11 1.0829008489571286e-11
6.472204850670314 4.632980497585717e-19 7.959433519962305e-11 6.877708880977382e-11 1.0817246389849235e-11
6.496522083828205 4.607529379924446e-19 7.945449383542622e-11 6.861662629204125e-11 1.083786754338495e-11
6.520930681187647 4.586307782251111e-19 7.938568801601311e-11 6.852242461708319e-11 1.0863263398929913e-11
6.57002334288761 4.569926506709323e-19 7.969765838184366e-11 6.873925216511128e-11 1.0958406216732395e-11
