Dust emission spectrum from A.P. Jones, M. Kohler, N. Ysard, M. Bocchio, and L. Verstraete (2017), A&A, 602A, 46J 
inside the DustPedia framework.

lambda    nu*dP/dnu     j_nu    j_nu(carb.) j_nu(sil)
 (um)   (erg s-1 H-1) (Jy cm2 sr-1 H-1)
0.9927057738263894 8.598134261370857e-26 2.265657214298868e-18 2.2656571945643386e-18 1.9734529474478608e-26
1.0001793341362166 8.740101150670146e-26 2.320404872343124e-18 2.3204048485771854e-18 2.376593847941416e-26
1.0077091589558085 8.881886368245534e-26 2.3757998552972875e-18 2.375799826713615e-18 2.858367211791105e-26
1.0114953028030835 8.952693751656965e-26 2.4037374624897198e-18 2.403737431157794e-18 3.1331926095680435e-26
1.0152956718711033 9.023435256592271e-26 2.4318337107632104e-18 2.4318336764300086e-18 3.43332016700546e-26
1.0229392996569957 9.164624124119359e-26 2.4884788529494303e-18 2.4884788117635574e-18 4.11858720296551e-26
1.0267826658714554 9.234900443100971e-26 2.5169824028474218e-18 2.516982357758743e-18 4.508867878768716e-26
1.0306404723013447 9.305080427199732e-26 2.545638655452745e-18 2.545638606107575e-18 4.934516968590003e-26
1.03451277320114 9.375157461017901e-26 2.57444644023295e-18 2.5744463862471384e-18 5.398581176904231e-26
1.0383996230291617 9.445124968037795e-26 2.6034045723981896e-18 2.6034045133546394e-18 5.904354951747904e-26
1.0403485208654093 9.480065604793374e-26 2.6179396446828926e-18 2.617939582943045e-18 6.17398479749922e-26
1.0423010764483396 9.514976411942259e-26 2.6325118532184074e-18 2.6325117886644134e-18 6.455399340816453e-26
1.0462171883269815 9.584705297908515e-26 2.6617670703417246e-18 2.6617669997861027e-18 7.055562176165703e-26
1.0471985131304309 9.602117612663871e-26 2.6691038463262683e-18 2.669103774188693e-18 7.213757599236154e-26
1.048180758391296 9.619521763691182e-26 2.676449772510964e-18 2.6764496987574725e-18 7.375349161168432e-26
1.0501480137395462 9.654305173875209e-26 2.6911689981138957e-18 2.6911689210238997e-18 7.708999672859646e-26
1.0521189612883777 9.689054728837902e-26 2.7059245919178296e-18 2.705924511346978e-18 8.057085212988025e-26
1.0531058218030118 9.70638996452049e-26 2.713308543291443e-18 2.7133084609240683e-18 8.23673753032868e-26
1.0540936079674168 9.723629298090432e-26 2.7206771324500597e-18 2.720677048247431e-18 8.420262898344912e-26
1.058054026499678 9.792493432570453e-26 2.750239822910937e-18 2.7502397309679353e-18 9.194300138058717e-26
1.0590464539527713 9.809685675967756e-26 2.7576524793190492e-18 2.7576523853370295e-18 9.398201936860544e-26
1.06003981227728 9.826868207829345e-26 2.765073889218118e-18 2.765073793153822e-18 9.606429652950425e-26
1.0620293250338977 9.861203747582795e-26 2.77994288907411e-18 2.779942788711974e-18 1.0036213666974703e-25
1.0660195594769086 9.92975401652938e-26 2.809785043615524e-18 2.809784934099057e-18 1.0951646687261543e-25
1.070024785945596 9.998138062724727e-26 2.839764987880957e-18 2.8397648684141163e-18 1.194668400976716e-25
1.0740450607676866 1.0066349760484361e-25 2.8698814122122264e-18 2.8698812819333837e-18 1.302788428842632e-25
1.07808044048254 1.0134383036186506e-25 2.9001329962738534e-18 2.9001328542507087e-18 1.4202314423041205e-25
1.0861967418109137 1.0269770440926008e-25 2.9610017546973506e-18 2.961001586078372e-18 1.6861897896068967e-25
1.0902777775684922 1.0336840150070716e-25 2.991537103117534e-18 2.9915369194767896e-18 1.83640744765152e-25
1.0943741465085532 1.0403702924730564e-25 3.0221999934539155e-18 3.0221997935178786e-18 1.999360369385236e-25
1.1026131145906286 1.053678467314264e-25 3.0839028745701287e-18 3.0839026378068543e-18 2.367632753040639e-25
1.1109141095355224 1.0668970284881342e-25 3.1460992652221587e-18 3.1460989852092446e-18 2.800129126571963e-25
1.1192775983109025 1.0800093096519342e-25 3.2087415932970865e-18 3.208741262558984e-18 3.307381015437738e-25
1.1277040513999907 1.0929548201808292e-25 3.271649598327697e-18 3.2716492081746524e-18 3.9015304608024925e-25
1.1361939428280308 1.1057959443027038e-25 3.3350081186074488e-18 3.3350076589518414e-18 4.596556079046907e-25
1.1447477501889525 1.1185285759434376e-25 3.3988055250118245e-18 3.3988049841587777e-18 5.408530465825904e-25
1.1533659546722406 1.1311555758479941e-25 3.4630511111050798e-18 3.4630504755132845e-18 6.355917955186291e-25
1.1707974979042381 1.1561335627024345e-25 3.593016633084085e-18 3.593015758606523e-18 8.74477561440017e-25
1.1884924949847024 1.1806376846177372e-25 3.724624691255928e-18 3.724623494079866e-18 1.1971760630242292e-24
1.2064549276569216 1.204859171309331e-25 3.8584850552682825e-18 3.8584834243331964e-18 1.6309350861312568e-24
1.2246888378427687 1.228537689265193e-25 3.9937757625254366e-18 3.993773551470225e-18 2.2110552117376737e-24
1.2431983285522175 1.251619688831052e-25 4.130306082458929e-18 4.1303030993473956e-18 2.9831115325862665e-24
1.2619875648066055 1.274098807913899e-25 4.268031518746963e-18 4.268027513103539e-18 4.0056434245061656e-24
1.3004222497298317 1.3168870920880066e-25 4.545716693719261e-18 4.5457095723222335e-18 7.121397027624173e-24
1.3400274889804893 1.356754983471349e-25 4.8259694234755825e-18 4.82595699321393e-18 1.2430261651239818e-23
1.3808389325824078 1.3935782499319703e-25 5.10791681567561e-18 5.107895503947213e-18 2.131172839679899e-23
1.4228933163050095 1.427555770013581e-25 5.391813430514136e-18 5.391777522310821e-18 3.590820331489836e-23
1.466228494730424 1.4595076787611766e-25 5.680381085379932e-18 5.680321598471411e-18 5.948690852241765e-23
1.5108834753276823 1.4888743865001082e-25 5.9711566258920854e-18 5.9710596882176524e-18 9.693767443276233e-23
1.5568984535646726 1.5152160574923752e-25 6.261873420933583e-18 6.261717874426955e-18 1.555465066275324e-22
1.6043148490894465 1.5386279925922178e-25 6.552283284713353e-18 6.5520370644164155e-18 2.4622029693552805e-22
1.6531753430134553 1.5592358876756003e-25 6.8422694732489976e-18 6.841885428818549e-18 3.8404443045023866e-22
1.7035239163302658 1.5773260234498516e-25 7.132456584409166e-18 7.131866197239448e-18 5.903871697187583e-22
1.755405889504358 1.594225401547977e-25 7.428424416817609e-18 7.427529448621947e-18 8.949681956626835e-22
1.8088679632656115 1.6097313311886524e-25 7.729113719826898e-18 7.727775437820357e-18 1.3382820065416896e-21
1.8639582606462262 1.6237556304151523e-25 8.033897492271418e-18 8.031922662395686e-18 1.9748298757315916e-21
1.9207263702978936 1.6365899193945946e-25 8.344009768313713e-18 8.341132914469747e-18 2.876853843965944e-21
1.979223391128241 1.6487499542709557e-25 8.662017254806961e-18 8.65787840363512e-18 4.138851171840603e-21
2.039501978296691 1.6608444316960252e-25 8.99130062819014e-18 8.985418004589666e-18 5.882623600474341e-21
2.1016163906111602 1.674271297201323e-25 9.34003947862606e-18 9.331775839994655e-18 8.263638631407361e-21
2.1656225393682647 1.6899653011205422e-25 9.714713194239171e-18 9.703236135534237e-18 1.1477058704936646e-20
2.231578038680979 1.7082531070438796e-25 1.0118909952210436e-17 1.0103145290076842e-17 1.5764662133597478e-20
2.299542257339062 1.729859922456272e-25 1.055897507798807e-17 1.053755273233495e-17 2.1422345653122135e-20
2.369576372248914 1.7560375033433324e-25 1.104520880857543e-17 1.1016400424908406e-17 2.8808383667027153e-20
2.4417434235010123 1.788235254915876e-25 1.1590284926213099e-17 1.1551934352276265e-17 3.835057393683448e-20
2.5161083711144245 1.8287000237536432e-25 1.2213531201519848e-17 1.21629758589433e-17 5.0555342576549286e-20
2.5927381535095444 1.8808654751341127e-25 1.2944516288556989e-17 1.2878501405034798e-17 6.601488352219112e-20
2.6717017477616296 1.9487476770228519e-25 1.3820158316452292e-17 1.3734748302349151e-17 8.541001410314053e-20
2.753070231689431 2.038157515785298e-25 1.4894449912037643e-17 1.4784934561513886e-17 1.0951535052376103e-19
2.836916847834745 2.161659421017222e-25 1.6278084910166797e-17 1.6138877728001282e-17 1.39207182165519e-19
2.9233170693905177 2.346230497431905e-25 1.8206062577874556e-17 1.8030628671863027e-17 1.7543390601152826e-19
2.967498994190263 2.487357192846256e-25 1.9592875073251046e-17 1.939688837440904e-17 1.959866988420076e-19
3.0123486681368425 2.649334218887e-25 2.1184168410497372e-17 2.096551276157322e-17 2.1865564892415516e-19
3.0578761833420214 2.977510280558633e-25 2.4168105000396248e-17 2.392441469444465e-17 2.436903059515946e-19
3.1040917844459814 3.392952363958407e-25 2.795643244420951e-17 2.768535949080185e-17 2.7107295340765317e-19
3.127460860933648 3.8147080693976376e-25 3.1668144974321326e-17 3.1382355290647504e-17 2.857896836738262e-19
3.1510058709225794 4.371167878447361e-25 3.6560837170788284e-17 3.625966668153753e-17 3.0117048925076155e-19
3.162844764501044 4.881911355947604e-25 4.098615699658568e-17 4.067701121047563e-17 3.091457861100496e-19
3.1747281389236908 5.474182867559496e-25 4.613125561242814e-17 4.5813961350563323e-17 3.1729426186480525e-19
3.1986289994194426 7.118600987324699e-25 6.044048684089567e-17 6.010632412790135e-17 3.341627129943015e-19
3.2227097969389145 1.0970060488247654e-24 9.384251849453504e-17 9.349043856822689e-17 3.520799263081687e-19
3.2348180950136065 1.4613637626224757e-24 1.2548090169038276e-16 1.2511924902135949e-16 3.616526690232816e-19
3.240889293275058 1.7335438206308094e-24 1.4913117970464693e-16 1.4876447737912374e-16 3.6670232552318144e-19
3.2469718861334385 2.0483633440774173e-24 1.765448107875866e-16 1.761728832561788e-16 3.71927531407786e-19
3.2714166318528037 3.726265652132828e-24 3.2357808738760233e-16 3.231845314461088e-16 3.9355594149351055e-19
3.2744851364798273 3.8312875526302175e-24 3.330099462766193e-16 3.3261383165793106e-16 3.961146186882434e-19
3.2775565192852394 3.939314301022516e-24 3.427206361544921e-16 3.4232194913968807e-16 3.986870148040449e-19
3.283707930232385 3.83619238861793e-24 3.343754117540665e-16 3.339721046946246e-16 4.0330705944193224e-19
3.2898708863219004 3.508012719868233e-24 3.0634404781213705e-16 3.059365179922309e-16 4.0752981990609064e-19
3.29141343181113 3.4306209659614e-24 2.997261309571803e-16 2.993175402888315e-16 4.0859066834873575e-19
3.292184975758714 3.3925935966724516e-24 2.964732401061127e-16 2.960641182383357e-16 4.0912186777696977e-19
3.295272960557952 3.152508243755087e-24 2.757509762918602e-16 2.753397847204608e-16 4.1119157139939877e-19
3.3076538914384823 2.320708141845383e-24 2.0375581794128164e-16 2.0333630390217365e-16 4.1951403910795008e-19
3.310756385682612 2.151404119883434e-24 1.8906827174688598e-16 1.8864665797725982e-16 4.216137696260793e-19
3.313861789986515 1.9951913144322103e-24 1.7550454594041618e-16 1.75080824768906e-16 4.2372117151018004e-19
3.3200813396944477 1.7763091011176748e-24 1.5654409771165562e-16 1.5611585207987706e-16 4.2824563177859883e-19
3.345076488085796 1.3873325396357039e-24 1.2318449813204836e-16 1.227361103396692e-16 4.483877923791869e-19
3.3482140837626964 1.4023200750798528e-24 1.2463206855272042e-16 1.2418095292894973e-16 4.511156237706623e-19
3.3513546224236106 1.4174706014227416e-24 1.2609674566869544e-16 1.2564288887124896e-16 4.538567974464913e-19
3.3576445397418455 1.5265608880107862e-24 1.360561825543941e-16 1.3559659776592328e-16 4.595847884708217e-19
3.3702598118196083 1.9277667519361066e-24 1.7245957063849554e-16 1.7198796879624636e-16 4.716018422491999e-19
3.382922481734668 2.020199507460703e-24 1.81407709631299e-16 1.8092439107052644e-16 4.833185607725691e-19
3.389271646505754 2.068065876974242e-24 1.8605450077874156e-16 1.8556523615564664e-16 4.892646230948719e-19
3.395632727569191 2.119649108241316e-24 1.9105311215253312e-16 1.9055771941401208e-16 4.953927385210183e-19
3.421196662673239 2.367025109050318e-24 2.1495637898457756e-16 2.1443557726957651e-16 5.208017150010307e-19
3.4276182099114902 2.3184350840743782e-24 2.1093896691372624e-16 2.104124550582219e-16 5.265118555042996e-19
3.4340518103208963 2.1032815703590782e-24 1.917227689467339e-16 1.9119083702215535e-16 5.319319245784896e-19
3.4469541582030403 1.7971023674352282e-24 1.6442875066850673e-16 1.6388637621987217e-16 5.423744486345757e-19
3.472904465399547 1.7134140383726286e-24 1.5795180404420548e-16 1.5738542925984772e-16 5.663747843577832e-19
3.4990501388274233 1.5842265607834556e-24 1.4714207934334322e-16 1.465510524725115e-16 5.910268708316993e-19
3.5253949054701885 1.1181965389693136e-24 1.046394261606677e-16 1.0402430423463442e-16 6.15121926033246e-19
3.5519380250092896 6.801377048094485e-25 6.412563283682698e-17 6.348617403684276e-17 6.394587999842058e-19
3.578680990867387 5.0816252960627645e-25 4.827197387601803e-17 4.760581948689731e-17 6.661543891207123e-19
3.605625307711299 4.403565667106936e-25 4.214581955879842e-17 4.145147443301694e-17 6.943451257814792e-19
3.660119384959845 3.947480865244301e-25 3.8351708690160627e-17 3.7597804676098326e-17 7.53904014062299e-19
3.715437065384467 3.644071689782487e-25 3.593902200415838e-17 3.512184247038134e-17 8.171795337770324e-19
3.8285932144167436 3.590925764375537e-25 3.649346368926471e-17 3.5538562692993144e-17 9.549009962715617e-19
3.94519561050918 3.6992105544236405e-25 3.873887691053122e-17 3.7631150185429783e-17 1.107726725101442e-18
4.06534921144712 3.881377133032557e-25 4.1884480497755334e-17 4.0608302046440595e-17 1.2761784513147412e-18
4.189162171576248 4.112288019783784e-25 4.572778137444087e-17 4.4266491983053544e-17 1.46128939138734e-18
4.316745939156006 4.3829853859618755e-25 5.0222224467081576e-17 4.855899763270095e-17 1.6632268343806269e-18
4.448215356677963 4.6908341410258985e-25 5.538667772711123e-17 5.3506469654549163e-17 1.8802080725620817e-18
4.58368876423945 5.037194440795497e-25 6.128769237972862e-17 5.917434695497783e-17 2.113345424750796e-18
4.723288106065518 5.426299142942005e-25 6.803268355630303e-17 6.566774343533467e-17 2.36494012096836e-18
4.867139040275056 5.865048652617805e-25 7.577305634887669e-17 7.314296887081342e-17 2.6300874780632746e-18
4.940699165968905 6.111374226321376e-25 8.014874424479758e-17 7.737998072162602e-17 2.768763523171574e-18
5.015371051989984 6.366540077043925e-25 8.475707863890912e-17 8.184579276180954e-17 2.9112858770995924e-18
5.091171501069577 6.653754669958794e-25 8.991951255401268e-17 8.685902227862884e-17 3.060490275383858e-18
5.129500256944802 6.80117527313234e-25 9.260372490465688e-17 8.946720503033693e-17 3.1365198743199294e-18
5.168117569889187 6.953167076404827e-25 9.538596616698687e-17 9.217186033774541e-17 3.214105829241447e-18
5.20702561229733 7.12510255059842e-25 9.84805048744129e-17 9.518243631072856e-17 3.298068563684323e-18
5.246226572918644 7.300838317620857e-25 1.0166915328509111e-16 9.828589642216306e-17 3.3832568629280654e-18
5.265937586045735 7.3901630206493135e-25 1.0329972350736141e-16 9.987341537681135e-17 3.426308130550052e-18
5.285722656980489 7.480476349234785e-25 1.0495498214844172e-16 1.0148531938986607e-16 3.469662758575648e-18
5.305582063971359 7.571791684709153e-25 1.0663533227621982e-16 1.0312201260978111e-16 3.513319666438722e-18
5.3255160863122235 7.667407877065067e-25 1.0838762512741267e-16 1.048300670343585e-16 3.55755809305419e-18
5.365609099470188 7.887776218458077e-25 1.1234223087449524e-16 1.0869310742427635e-16 3.6491234502189204e-18
5.406003951863644 8.114861476348368e-25 1.16446624129749e-16 1.1270459746265362e-16 3.742026667095369e-18
5.446702915881641 8.348942600477858e-25 1.207075947477897e-16 1.1687133363478509e-16 3.836261113004572e-18
5.487708281020852 8.596746047797215e-25 1.2522601126207854e-16 1.2129386017805623e-16 3.9321510840222774e-18
5.529022354014368 8.910740499615649e-25 1.307770616080131e-16 1.267447764558191e-16 4.032285152193995e-18
5.570647458961463 9.239514274827019e-25 1.3662313564349343e-16 1.324892386501346e-16 4.133896993358822e-18
5.612585937458331 9.584039824083882e-25 1.427844938900898e-16 1.3854751192985094e-16 4.23698196023887e-18
5.654840148729818 9.955455894305456e-25 1.4943451503203813e-16 1.4509256019907392e-16 4.3419548329642254e-18
5.67608639626678 1.0193222342526718e-24 1.5357832540972228e-16 1.491815020937536e-16 4.396823315968629e-18
5.686739436050992 1.0315170633562702e-24 1.55707373511977e-16 1.5128296001087667e-16 4.424413501100359e-18
5.6974124697621304 1.0439224320802477e-24 1.5787571292964089e-16 1.5342360531376903e-16 4.452107615871859e-18
5.718818669136295 1.0693841015599053e-24 1.6233399718440558e-16 1.5782618965836876e-16 4.507807526036852e-18
5.740305295436557 1.0970209574816386e-24 1.6715499088914581e-16 1.6259071061677624e-16 4.564280272369586e-18
5.7835210386641895 1.1661331288446735e-24 1.790234351619507e-16 1.7434215383829473e-16 4.681281323655978e-18
5.827062130521658 1.2443809061867298e-24 1.9247415446224059e-16 1.876731733684212e-16 4.800981093819398e-18
5.8489554468988025 1.2975105901532261e-24 2.0144600427689517e-16 1.9658067425042144e-16 4.865330026473711e-18
5.870931020387893 1.354134359765985e-24 2.1102706988111697e-16 2.060968255122142e-16 4.930244368902813e-18
5.892989160043636 1.414528166638063e-24 2.2126701395427767e-16 2.16271288480346e-16 4.995725473931612e-18
5.915130176081913 1.4825628051129066e-24 2.3278063041640283e-16 2.2771709400149064e-16 5.0635364149122186e-18
5.95966208400165 1.669157848012836e-24 2.6405140185315453e-16 2.5883515765545043e-16 5.216244197704053e-18
6.004529249263818 1.9337013398382582e-24 3.082036629255135e-16 3.0281647409297907e-16 5.387188832534325e-18
6.027089341400364 2.1157203429084362e-24 3.3848180176829207e-16 3.329967542828802e-16 5.48504748541197e-18
6.049734195844842 2.32965686143307e-24 3.7410859374942234e-16 3.6852004352350824e-16 5.58855022591418e-18
6.095279466722835 2.9432229414731016e-24 4.761965183077588e-16 4.703567638153081e-16 5.8397544924506275e-18
6.141167624020661 3.881081895694748e-24 6.326641003480585e-16 6.265022637287689e-16 6.161836619289745e-18
6.164241091010745 4.479083400601256e-24 7.328889914469861e-16 7.26526940486521e-16 6.3620509604652075e-18
6.187401249150058 5.1580912542581816e-24 8.471625226162136e-16 8.40594319557327e-16 6.568203058886588e-18
6.1990139391386085 5.489786576994016e-24 9.033322325715984e-16 8.96659012453226e-16 6.673220118372631e-18
6.204828454712694 5.664308880042769e-24 9.329237297687666e-16 9.261974073033991e-16 6.726322465367659e-18
6.210648424152782 5.792164641500164e-24 9.54876656264001e-16 9.481046248433134e-16 6.77203142068757e-18
6.233982942956859 6.227145009837369e-24 1.0304431150742638e-15 1.0235097220069416e-15 6.9333930673222155e-18
6.239830258556775 6.283283999910141e-24 1.0407080137904404e-15 1.0337507377313456e-15 6.957276059094831e-18
6.245683058788269 6.289301965992589e-24 1.0426818691506694e-15 1.0357006495115463e-15 6.9812196391229e-18
6.257405133728602 6.279999285030576e-24 1.043093649801291e-15 1.036069639621482e-15 7.024010179808986e-18
6.269149208991335 6.1980090949976924e-24 1.0314074133874786e-15 1.0243634450147924e-15 7.043968372686012e-18
6.280915325867298 5.9886010914744974e-24 9.984303102745866e-16 9.913946882230826e-16 7.035622051504248e-18
6.304513850009849 5.470848518490134e-24 9.155366325366583e-16 9.085433887816897e-16 6.993243754968468e-18
6.32820103803542 4.82859380030915e-24 8.110924767000071e-16 8.041689414422028e-16 6.923535257804352e-18
6.3519772230701035 4.2402441083050094e-24 7.149393885699031e-16 7.08076902605727e-16 6.862485964175941e-18
6.375842739491607 3.745263115703572e-24 6.338541866811447e-16 6.270439357034592e-16 6.810250977685584e-18
6.399797922933955 3.350974537362575e-24 5.692549581942205e-16 5.624641963088627e-16 6.790761885357721e-18
6.42384311029221 3.0235093056011933e-24 5.155557895837215e-16 5.08778002085524e-16 6.777787498197344e-18
6.447978639727206 2.7871118714370644e-24 4.770319024348959e-16 4.702413651039665e-16 6.790537330929314e-18
6.472204850670314 2.590911253446838e-24 4.451170448198238e-16 4.3830855274279426e-16 6.808492077029647e-18
6.496522083828205 2.466032151350796e-24 4.2525466516000313e-16 4.184072009722856e-16 6.8474641877174e-18
