Dust emission spectrum from A.P. Jones, M. Kohler, N. Ysard, M. Bocchio, and L. Verstraete (2017), A&A, 602A, 46J 
inside the DustPedia framework.

lambda    nu*dP/dnu     j_nu    j_nu(carb.) j_nu(sil)
 (um)   (erg s-1 H-1) (Jy cm2 sr-1 H-1)
0.9927057738263894 7.888715402068112e-24 2.0787213154539165e-16 2.0787213148158055e-16 6.381112830691025e-26
1.0001793341362166 8.018896796643249e-24 2.128932706496304e-16 2.1289327057277644e-16 7.685394018459137e-26
1.0077091589558085 8.14889316824851e-24 2.1797328188271037e-16 2.1797328179026758e-16 9.244275246954452e-26
1.0114953028030835 8.213806030434807e-24 2.2053511281256478e-16 2.2053511271122855e-16 1.0133618561732038e-25
1.0152956718711033 8.278653560340845e-24 2.2311135654304866e-16 2.2311135643199957e-16 1.1104905726567038e-25
1.0229392996569957 8.408063706205852e-24 2.283049303907531e-16 2.283049302575248e-16 1.332283013130387e-25
1.0267826658714554 8.472469273218408e-24 2.309180938197046e-16 2.309180936738432e-16 1.458613443114568e-25
1.0306404723013447 8.536781151578247e-24 2.335451075637599e-16 2.335451074041197e-16 1.5964020546510813e-25
1.03451277320114 8.600993165928159e-24 2.361858596035521e-16 2.3618585942888833e-16 1.7466369245818147e-25
1.0383996230291617 8.665099175746569e-24 2.388402365321899e-16 2.3884023634115126e-16 1.910386579801482e-25
1.0403485208654093 8.697110519861135e-24 2.4017249851752867e-16 2.4017249831776e-16 1.9976868651205245e-25
1.0423010764483396 8.72909307653318e-24 2.4150812358272175e-16 2.415081233738411e-16 2.0888061301604756e-25
1.0462171883269815 8.792968800968778e-24 2.4418940465564485e-16 2.441894044273305e-16 2.283143834349006e-25
1.0471985131304309 8.808918559641054e-24 2.448618040098136e-16 2.4486180377637647e-16 2.3343711852093404e-25
1.048180758391296 8.824860461463932e-24 2.4553503131181637e-16 2.4553503107314646e-16 2.3866992646734814e-25
1.0501480137395462 8.856720320048939e-24 2.468839623464463e-16 2.4688396209697146e-16 2.4947481266457137e-25
1.0521189612883777 8.888547629266687e-24 2.4823618288458563e-16 2.48236182623838e-16 2.6074758601666294e-25
1.0531058218030118 8.904424396920576e-24 2.489128386307413e-16 2.4891283836417554e-16 2.6656580163742167e-25
1.0540936079674168 8.920212648838108e-24 2.49588068675671e-16 2.495880684031615e-16 2.7250955805344437e-25
1.058054026499678 8.983276333914102e-24 2.5229697097952265e-16 2.5229697068194346e-16 2.9757917470934184e-25
1.0590464539527713 8.999019465982426e-24 2.529761825356207e-16 2.5297618223143715e-16 3.0418348538336604e-25
1.06003981227728 9.01475329954339e-24 2.536561846474209e-16 2.536561843364928e-16 3.109280409999446e-25
1.0620293250338977 9.046192706860818e-24 2.5501855282927425e-16 2.55018552504425e-16 3.2484927379227296e-25
1.0660195594769086 9.108955942028586e-24 2.5775269081449297e-16 2.5775269045999003e-16 3.5450301568824465e-25
1.070024785945596 9.171560258486896e-24 2.604992603912254e-16 2.6049926000448746e-16 3.867379142938331e-25
1.0740450607676866 9.233999920984628e-24 2.632581359097126e-16 2.632581354879458e-16 4.217668865406225e-25
1.07808044048254 9.29626924088417e-24 2.6602919064206666e-16 2.660291901822473e-16 4.598193726732727e-25
1.0861967418109137 9.42016424186575e-24 2.71604151330832e-16 2.716041507848294e-16 5.460025865813823e-25
1.0902777775684922 9.481528433318328e-24 2.7440052947265125e-16 2.744005288779652e-16 5.946861549365925e-25
1.0943741465085532 9.542695640693159e-24 2.7720836428614648e-16 2.77208363638645e-16 6.475014008157912e-25
1.1026131145906286 9.664417512996839e-24 2.828578724337512e-16 2.8285787166687267e-16 7.668785451491812e-25
1.1109141095355224 9.785287208442175e-24 2.885516040858494e-16 2.885516031787516e-16 9.070977765262675e-25
1.1192775983109025 9.905150680021524e-24 2.94285138941099e-16 2.9428513786951747e-16 1.0715814885198762e-24
1.1277040513999907 1.0023451368643345e-23 3.0004186850700358e-16 3.0004186724272726e-16 1.2642763225451436e-24
1.1361939428280308 1.0140761209510651e-23 3.0583871406675797e-16 3.0583871257703108e-16 1.4897268586442303e-24
1.1447477501889525 1.0257041429197148e-23 3.116745502047268e-16 3.116745484515672e-16 1.7531596411036206e-24
1.1533659546722406 1.0372317484808278e-23 3.175501792807932e-16 3.1755017722021285e-16 2.0605803346483166e-24
1.1707974979042381 1.0600230342787712e-23 3.2943256008528863e-16 3.2943255724932307e-16 2.8359655939002227e-24
1.1884924949847024 1.0823640238411214e-23 3.414595197705411e-16 3.4145951588675846e-16 3.883782645658609e-24
1.2064549276569216 1.1044296125111941e-23 3.536865764850554e-16 3.536865711923029e-16 5.292752536987576e-24
1.2246888378427687 1.125979296406194e-23 3.6603751454968953e-16 3.66037507371817e-16 7.177872631508036e-24
1.2431983285522175 1.1469629696569436e-23 3.7849421611077655e-16 3.7849420642309136e-16 9.687685109488475e-24
1.2619875648066055 1.1673732131213846e-23 3.9105174863955173e-16 3.910517356264706e-16 1.3013081097941224e-23
1.3004222497298317 1.2061360149992177e-23 4.163418907527391e-16 4.1634186760032534e-16 2.315241366193978e-23
1.3400274889804893 1.2421194330393212e-23 4.4182114509839037e-16 4.4182110465519383e-16 4.0443196525832945e-23
1.3808389325824078 1.2751938807361337e-23 4.673999660210473e-16 4.673998966259927e-16 6.939505472859909e-23
1.4228933163050095 1.305523528068872e-23 4.930903184557879e-16 4.930902014362268e-16 1.170195610463671e-22
1.466228494730424 1.3338388389878705e-23 5.19127992417478e-16 5.191277983953194e-16 1.9402215863254045e-22
1.5108834753276823 1.3595975265856904e-23 5.452689530446191e-16 5.452686365998782e-16 3.164447409107221e-22
1.5568984535646726 1.382362013720925e-23 5.712832773269922e-16 5.712827691085789e-16 5.082184134216928e-22
1.6043148490894465 1.4021787645560403e-23 5.971211056482785e-16 5.971203004431683e-16 8.052051102361661e-22
1.6531753430134553 1.4191129958020927e-23 6.227379453626169e-16 6.227366882720064e-16 1.2570906104966448e-21
1.7035239163302658 1.4333676465000464e-23 6.481496124560305e-16 6.481476781067392e-16 1.9343492912213108e-21
1.755405889504358 1.4460869452095817e-23 6.738161092029725e-16 6.738131740602699e-16 2.9351427026650367e-21
1.8088679632656115 1.4569972436030017e-23 6.995762067304984e-16 6.995718132972351e-16 4.393433263293169e-21
1.8639582606462262 1.4659154745988875e-23 7.252947694014023e-16 7.252882795854957e-16 6.489815906733171e-21
1.9207263702978936 1.4729873630794632e-23 7.509896523549548e-16 7.509801882662559e-16 9.464088698914773e-21
1.979223391128241 1.4785423311613773e-23 7.767799569186602e-16 7.767663264235251e-16 1.363049513525607e-20
2.039501978296691 1.482973008686183e-23 8.028359483960094e-16 8.028165535291591e-16 1.9394866850667777e-20
2.1016163906111602 1.4873654939907148e-23 8.297372388955775e-16 8.297099626435361e-16 2.7276252041364787e-20
2.1656225393682647 1.492353765754211e-23 8.578749403335145e-16 8.578370126764214e-16 3.792765709287664e-20
2.231578038680979 1.4979913395278833e-23 8.873415427357032e-16 8.87289382779381e-16 5.215995632254922e-20
2.299542257339062 1.504662179587789e-23 9.18437975746576e-16 9.183670077452057e-16 7.096800137049192e-20
2.369576372248914 1.5132026429684704e-23 9.517814471190823e-16 9.516858875592366e-16 9.555955984557069e-20
2.4417434235010123 1.5245989743433983e-23 9.881550239139827e-16 9.880276429901148e-16 1.2738092386803056e-19
2.5161083711144245 1.5405331604544347e-23 1.028892086060418e-15 1.0287239366328592e-15 1.6814942755892982e-19
2.5927381535095444 1.5637498238911024e-23 1.0762058921382015e-15 1.0759860122098987e-15 2.1987992830249083e-19
2.6717017477616296 1.5975188602087586e-23 1.132930846918699e-15 1.1326459495042462e-15 2.8489741445239007e-19
2.753070231689431 1.6467551585527895e-23 1.2034159301472698e-15 1.2030500722375841e-15 3.6585790968567414e-19
2.836916847834745 1.7225816034355872e-23 1.2971668586081282e-15 1.2967010797868718e-15 4.657788212564917e-19
2.9233170693905177 1.84947369158119e-23 1.4351375025563564e-15 1.434549555598993e-15 5.8794695736338795e-19
2.967498994190263 1.9562131977876503e-23 1.5409061839260908e-15 1.5402487803547438e-15 6.574035713472079e-19
3.0123486681368425 2.080657813558766e-23 1.6637012126602565e-15 1.662967126151576e-15 7.340865086800206e-19
3.0578761833420214 2.3570269332378488e-23 1.913171376206522e-15 1.9123525253796957e-15 8.188508268262795e-19
3.1040917844459814 2.712656231366812e-23 2.235109207018029e-15 2.2341975319133734e-15 9.116751046556824e-19
3.127460860933648 3.087847897402315e-23 2.563404934129882e-15 2.562443327151046e-15 9.616069788359383e-19
3.1510058709225794 3.587399644957566e-23 3.000532991023552e-15 2.99951916681222e-15 1.0138242113317676e-18
3.162844764501044 4.0520325832293676e-23 3.401889782557985e-15 3.400848870052565e-15 1.0409125054200422e-18
3.1747281389236908 4.592226806493499e-23 3.869896087980726e-15 3.868827490219284e-15 1.0685977614416653e-18
3.1986289994194426 6.098477120425613e-23 5.177912440982487e-15 5.176786504020692e-15 1.1259369617936376e-18
3.2227097969389145 9.647743228555206e-23 8.253085963620243e-15 8.251899088092501e-15 1.186875527740569e-18
3.2348180950136065 1.3013036346640627e-22 1.117372399857451e-14 1.1172504555814673e-14 1.2194427598361991e-18
3.240889293275058 1.5528928478221138e-22 1.3359035958280563e-14 1.335779933577013e-14 1.2366225104345072e-18
3.2469718861334385 1.8439442333968216e-22 1.589262894833367e-14 1.589137454846874e-14 1.2543998649359808e-18
3.2714166318528037 3.39628205532204e-22 2.949232701809438e-14 2.949099900514373e-14 1.3280129506547545e-18
3.2744851364798273 3.493329377866681e-22 3.0363511286206986e-14 3.0362174557161006e-14 1.3367290459907083e-18
3.2775565192852394 3.5931627412799253e-22 3.1260542480157786e-14 3.1259196987545676e-14 1.3454926120989464e-18
3.283707930232385 3.497188749659991e-22 3.048267160997471e-14 3.048131036303082e-14 1.3612469438929427e-18
3.2898708863219004 3.1927711133034763e-22 2.7881496011901253e-14 2.7880120351609114e-14 1.3756602921341272e-18
3.29141343181113 3.1209810848849777e-22 2.7267354646419504e-14 2.726597536479482e-14 1.379281624685146e-18
3.292184975758714 3.0857058949606576e-22 2.6965482266747418e-14 2.6964101171751638e-14 1.3810949957740824e-18
3.295272960557952 2.8630563040308064e-22 2.5043251594313475e-14 2.5041863431343645e-14 1.388162969822165e-18
3.3076538914384823 2.0916974081268506e-22 1.8364890810424895e-14 1.8363474219010534e-14 1.4165914143635648e-18
3.310756385682612 1.9346972779814408e-22 1.7002378461614853e-14 1.700095469622505e-14 1.4237653898040188e-18
3.313861789986515 1.7898367153721506e-22 1.5744078162663237e-14 1.574264719645217e-14 1.430966211069245e-18
3.3200813396944477 1.5866977704269042e-22 1.3983386712159874e-14 1.3981940292310225e-14 1.446419849649137e-18
3.345076488085796 1.2244169697588052e-22 1.0871884397933006e-14 1.0870369194530761e-14 1.5152034022491386e-18
3.3482140837626964 1.2380240901345417e-22 1.100301607411427e-14 1.1001491555764675e-14 1.5245183495927982e-18
3.3513546224236106 1.2517814102275298e-22 1.1135720342970725e-14 1.113418646327614e-14 1.5338796945854858e-18
3.3576445397418455 1.3522350945000032e-22 1.2051923137732772e-14 1.20503696986679e-14 1.5534390648730953e-18
3.3702598118196083 1.7226694825674211e-22 1.5411140326869972e-14 1.5409545850806196e-14 1.5944760637765577e-18
3.382922481734668 1.807103483499055e-22 1.6227234131957746e-14 1.6225599617694656e-14 1.6345142630910876e-18
3.389271646505754 1.8508442631807064e-22 1.665120580728837e-14 1.6649550968683594e-14 1.6548386047741103e-18
3.395632727569191 1.8979823660897056e-22 1.7107333305413488e-14 1.7105657519745887e-14 1.6757856676000233e-18
3.421196662673239 2.124322127161738e-22 1.9291582100483557e-14 1.9289819430066512e-14 1.762670417047791e-18
3.4276182099114902 2.0787894067783055e-22 1.891352028396695e-14 1.8911738058895646e-14 1.7822250713000383e-18
3.4340518103208963 1.8791318997086565e-22 1.712906042184229e-14 1.7127259621479474e-14 1.8008003628165145e-18
3.4469541582030403 1.5947817507983193e-22 1.459171027897234e-14 1.458987366193607e-14 1.8366170362721812e-18
3.472904465399547 1.515187837918972e-22 1.3967823719505023e-14 1.39659048199373e-14 1.918899567722697e-18
3.4990501388274233 1.393405786124438e-22 1.2941875222569285e-14 1.2939871735509364e-14 2.00348705992587e-18
3.5253949054701885 9.597373419342203e-23 8.981101373961354e-15 8.979015101831221e-15 2.0862721301331797e-18
3.5519380250092896 5.52107007062668e-23 5.205447510288985e-15 5.2032775321056615e-15 2.169978183324186e-18
3.578680990867387 3.905629780383998e-23 3.71008186837721e-15 3.707820050626151e-15 2.26181775105988e-18
3.605625307711299 3.253099547876476e-23 3.1134893156183117e-15 3.111130454570155e-15 2.3588610481570597e-18
3.660119384959845 2.778964639406283e-23 2.699900162889609e-15 2.697336017356647e-15 2.5641455329610975e-18
3.715437065384467 2.4440715552119342e-23 2.4104229795693802e-15 2.4076403534020776e-15 2.7826261673026813e-18
3.8285932144167436 2.2788744902352073e-23 2.315949393519485e-15 2.3126898624917676e-15 3.2595310277171835e-18
3.94519561050918 2.2527116370766424e-23 2.3590849328453577e-15 2.355294065418023e-15 3.7908674273347935e-18
4.06534921144712 2.2840281874349624e-23 2.4647265852828614e-15 2.460347517674761e-15 4.379067608100378e-18
4.189162171576248 2.3489672611122302e-23 2.61200239027778e-15 2.606973989494494e-15 5.02840078328526e-18
4.316745939156006 2.4386896250206008e-23 2.794360623368799e-15 2.788620374852814e-15 5.7402485159847485e-18
4.448215356677963 2.5502899689916855e-23 3.0112360483573766e-15 3.0047267677409087e-15 6.509280616467067e-18
4.58368876423945 2.6842418823449106e-23 3.2659249646110193e-15 3.2585846709569452e-15 7.340293654075057e-18
4.723288106065518 2.8435220907031184e-23 3.565089824319514e-15 3.5568474446964225e-15 8.242379623091679e-18
4.867139040275056 3.033956138638377e-23 3.919696886921069e-15 3.9104972995108175e-15 9.19958741025063e-18
4.940699165968905 3.1480670795697017e-23 4.128590622698197e-15 4.118887811463665e-15 9.702811234533402e-18
5.015371051989984 3.266349401389275e-23 4.348456614196768e-15 4.338234750629725e-15 1.0221863567042431e-17
5.091171501069577 3.409544900048769e-23 4.6076934099721444e-15 4.596926473451618e-15 1.0766936520526853e-17
5.129500256944802 3.483084145748298e-23 4.742512185016747e-15 4.731466695636831e-15 1.1045489379916263e-17
5.168117569889187 3.5596929804211295e-23 4.883310734004023e-15 4.871980549692863e-15 1.1330184311158046e-17
5.20702561229733 3.652966011794798e-23 5.048993113796067e-15 5.037355294538666e-15 1.1637819257401047e-17
5.246226572918644 3.74861913758088e-23 5.2202078326579454e-15 5.208257301343057e-15 1.1950531314889094e-17
5.265937586045735 3.7973619591612e-23 5.307953821081729e-15 5.295845030116297e-15 1.2108790965432874e-17
5.285722656980489 3.8467286783259994e-23 5.397160834615886e-15 5.384892515259115e-15 1.2268319356772419e-17
5.305582063971359 3.896729350807593e-23 5.487856063882552e-15 5.475426947760787e-15 1.2429116121764751e-17
5.3255160863122235 3.950321651883475e-23 5.584233801070998e-15 5.571641638405977e-15 1.2592162665019524e-17
5.365609099470188 4.082863426204225e-23 5.815048157455604e-15 5.802118421638212e-15 1.2929735817391982e-17
5.406003951863644 4.2203897693221474e-23 6.056174126714031e-15 6.042901218186985e-15 1.3272908527044717e-17
5.446702915881641 4.363139325561649e-23 6.308152765451951e-15 6.294531077430327e-15 1.3621688021625603e-17
5.487708281020852 4.5171369831209814e-23 6.579966926737378e-15 6.565989675369692e-15 1.3977251367684205e-17
5.529022354014368 4.729538927107283e-23 6.941232366428853e-15 6.926883576694727e-15 1.4348789734125908e-17
5.570647458961463 4.954273312111167e-23 7.325800194709649e-15 7.311073621635107e-15 1.4726573074542153e-17
5.612585937458331 5.1922215993763674e-23 7.735451300704638e-15 7.720340680494495e-15 1.5110620210145208e-17
5.654840148729818 5.453394522987728e-23 8.185716198965668e-15 8.170213756138164e-15 1.5502442827504153e-17
5.67608639626678 5.630428652106067e-23 8.483203590308648e-15 8.467496348188337e-15 1.5707242120309423e-17
5.686739436050992 5.721645973258664e-23 8.636817540979272e-15 8.621007237146364e-15 1.5810303832906562e-17
5.6974124697621304 5.814720653750261e-23 8.793787167387567e-15 8.777873359736955e-15 1.5913807650611408e-17
5.718818669136295 6.006620245515536e-23 9.11813325633858e-15 9.102011112570306e-15 1.6122143768276742e-17
5.740305295436557 6.217913763115376e-23 9.474343323476947e-15 9.45800978010881e-15 1.6333543368138e-17
5.7835210386641895 6.764615932365039e-23 1.0384961646386405e-14 1.0368189813006082e-14 1.6771833380322917e-17
5.827062130521658 7.39358566064207e-23 1.1436001158496438e-14 1.141878010409522e-14 1.7221054401214622e-17
5.8489554468988025 7.833853089731582e-23 1.2162508845744952e-14 1.214504650484439e-14 1.746234090056572e-17
5.870931020387893 8.306047637471181e-23 1.2944069268956653e-14 1.2926363264865964e-14 1.7706004090683754e-17
5.892989160043636 8.812733942823808e-23 1.3785284523083467e-14 1.376733246736018e-14 1.795205572328915e-17
5.915130176081913 9.388595752282573e-23 1.4741252312576807e-14 1.472304547458869e-14 1.8206837988119216e-17
5.95966208400165 1.0996664441972716e-22 1.739610585702559e-14 1.737732683771018e-14 1.877901931541487e-17
6.004529249263818 1.3311792439396467e-22 2.1217046838625636e-14 2.1197627998953877e-14 1.9418839671756958e-17
6.027089341400364 1.4920018381370433e-22 2.3869670304346368e-14 2.3849886005913597e-14 1.9784298432770126e-17
6.049734195844842 1.681970898483414e-22 2.7009976360725097e-14 2.6989805631024414e-14 2.017072970067485e-17
6.095279466722835 2.2304582444038338e-22 3.608752960060633e-14 3.606642398439715e-14 2.1105616209184586e-17
6.141167624020661 3.0741551822636097e-22 5.011251179405924e-14 5.00902112174763e-14 2.2300576582932528e-17
6.164241091010745 3.6129122021854834e-22 5.911619282844318e-14 5.909315132181892e-14 2.304150662427029e-17
6.187401249150058 4.2264592478106766e-22 6.941517126425582e-14 6.939136621508082e-14 2.3805049174989814e-17
6.1990139391386085 4.526060934626056e-22 7.447533108053111e-14 7.445113692950275e-14 2.4194151028360592e-17
6.204828454712694 4.6838635195272425e-22 7.71442291885082e-14 7.711983821939414e-14 2.4390969114093264e-17
6.210648424152782 4.799095658632982e-22 7.91162665296695e-14 7.909170565888726e-14 2.456087078225881e-17
6.233982942956859 5.190637612159687e-22 8.589260057130344e-14 8.586743781118305e-14 2.5162760120393826e-17
6.239830258556775 5.240730618434775e-22 8.680286221027097e-14 8.677760883465818e-14 2.525337561279231e-17
6.245683058788269 5.245160072735213e-22 8.695771546995329e-14 8.693237122555547e-14 2.5344244397811176e-17
6.257405133728602 5.234601985567127e-22 8.694555273911492e-14 8.692004524616155e-14 2.5507492953386092e-17
6.269149208991335 5.1578625889946625e-22 8.583171837899678e-14 8.580613075816753e-14 2.5587620829258257e-17
6.280915325867298 4.9651325465269955e-22 8.277957995967994e-14 8.2754015331597e-14 2.5564628082970368e-17
6.304513850009849 4.489747832390765e-22 7.513512021971029e-14 7.510969521579832e-14 2.54250039119561e-17
6.32820103803542 3.900459824045715e-22 6.551873588438027e-14 6.54935501468651e-14 2.5185737515182176e-17
6.3519772230701035 3.36008149008763e-22 5.665368654986644e-14 5.6628708503848754e-14 2.4978046017677525e-17
6.375842739491607 2.9054581839860534e-22 4.917242867195974e-14 4.91476262259413e-14 2.480244601845107e-17
6.399797922933955 2.5412764409167043e-22 4.3170552267836284e-14 4.3145805633664035e-14 2.4746634172233048e-17
6.42384311029221 2.2385091377058224e-22 3.817009406395145e-14 3.814537936756928e-14 2.4714696382167424e-17
6.447978639727206 2.0180437740035284e-22 3.4540101191325216e-14 3.451532411205652e-14 2.477707926869283e-17
6.472204850670314 1.834436094177258e-22 3.151550529045381e-14 3.149064659184787e-14 2.4858698605943773e-17
6.496522083828205 1.7153040329439277e-22 2.957954306384908e-14 2.955452548625366e-14 2.5017577595421333e-17
