Dust emission spectrum from A.P. Jones, M. Kohler, N. Ysard, M. Bocchio, and L. Verstraete (2017), A&A, 602A, 46J 
inside the DustPedia framework.

lambda    nu*dP/dnu     j_nu    j_nu(carb.) j_nu(sil)
 (um)   (erg s-1 H-1) (Jy cm2 sr-1 H-1)
0.9927057738263894 2.413274169528783e-20 6.35911450794472e-13 6.359113625508245e-13 8.824364733787641e-20
1.0001793341362166 2.4537431382785952e-20 6.514429793645576e-13 6.514428731981488e-13 1.0616640870837654e-19
1.0077091589558085 2.4943875143569768e-20 6.672192426207857e-13 6.672191150627541e-13 1.2755803163234625e-19
1.0114953028030835 2.5147739098407445e-20 6.751997135674568e-13 6.751995738182689e-13 1.3974918802696759e-19
1.0152956718711033 2.535202307928933e-20 6.832420536870539e-13 6.832419006330143e-13 1.5305403978737127e-19
1.0229392996569957 2.5761628438140728e-20 6.995078763474549e-13 6.995076929456639e-13 1.834017908563253e-19
1.0267826658714554 2.5966485971409052e-20 7.077194676489101e-13 7.077192669800882e-13 2.0066882181856062e-19
1.0306404723013447 2.617173118421541e-20 7.159934952083645e-13 7.159932757205514e-13 2.1948781331775597e-19
1.03451277320114 2.6377359065555916e-20 7.243302145209387e-13 7.243299745298268e-13 2.399911120181239e-19
1.0383996230291617 2.658336481686744e-20 7.327298870915787e-13 7.32729624769883e-13 2.623216957537466e-19
1.0403485208654093 2.6686507953602994e-20 7.369534142733957e-13 7.369531400533936e-13 2.7422000212287315e-19
1.0423010764483396 2.6789743857318308e-20 7.411927806837263e-13 7.411924940497556e-13 2.8663397076760484e-19
1.0462171883269815 2.6996491829079622e-20 7.497191695718995e-13 7.497188564772755e-13 3.1309462410317066e-19
1.0471985131304309 2.704823597851242e-20 7.518607207161617e-13 7.51860400649914e-13 3.200662476118801e-19
1.048180758391296 2.7100002864649938e-20 7.540062623061944e-13 7.540059351199309e-13 3.2718626330633035e-19
1.0501480137395462 2.7203604602574994e-20 7.583093347981692e-13 7.583089929146347e-13 3.418835346089969e-19
1.0521189612883777 2.73072965631796e-20 7.626284232782261e-13 7.626280660670822e-13 3.57211143752317e-19
1.0531058218030118 2.7359108205792576e-20 7.647920833899783e-13 7.647917182701388e-13 3.651198393524883e-19
1.0540936079674168 2.7410719376990464e-20 7.66953522257674e-13 7.669531490600443e-13 3.731976296418384e-19
1.058054026499678 2.761737786552492e-20 7.756391457717656e-13 7.756387385208668e-13 4.0725089868470926e-19
1.0590464539527713 2.766909567685672e-20 7.778205420050068e-13 7.778201257876312e-13 4.162173757106701e-19
1.06003981227728 2.772083466258729e-20 7.800059438243335e-13 7.800055184519293e-13 4.253724042536722e-19
1.0620293250338977 2.7824375962561304e-20 7.843887833572771e-13 7.843883390940328e-13 4.442632442294557e-19
1.0660195594769086 2.803171056957762e-20 7.932027417219691e-13 7.93202257243977e-13 4.844779915240829e-19
1.070024785945596 2.823937884442488e-20 8.020813357327198e-13 8.020808075754627e-13 5.281572570218281e-19
1.0740450607676866 2.8447378206378924e-20 8.11024888695401e-13 8.110243131121029e-13 5.755832981432528e-19
1.07808044048254 2.86557063411563e-20 8.200337326384817e-13 8.200331055785294e-13 6.270599520373098e-19
1.0861967418109137 2.907302505364664e-20 8.382395565060517e-13 8.382388130083283e-13 7.434977233398473e-19
1.0902777775684922 2.928129403841864e-20 8.474163890657084e-13 8.47415579876788e-13 8.091889205853064e-19
1.0943741465085532 2.9489873026161134e-20 8.566593520732342e-13 8.566584716791229e-13 8.803941113703715e-19
1.1026131145906286 2.9907957914179694e-20 8.753451858910608e-13 8.753441447649032e-13 1.0411261576024614e-18
1.1109141095355224 3.0327276530147886e-20 8.943001982383778e-13 8.9429896864768e-13 1.2295906977854042e-18
1.1192775983109025 3.0747505821173057e-20 9.135180589354243e-13 9.13516608657866e-13 1.450277558475171e-18
1.1277040513999907 3.1167159893797935e-20 9.329573763230994e-13 9.329556679705953e-13 1.7083525042106051e-18
1.1361939428280308 3.1588020172989773e-20 9.526739926152143e-13 9.52671982864268e-13 2.00975094609045e-18
1.1447477501889525 3.2010104426769134e-20 9.72671795087067e-13 9.726694338039177e-13 2.361283149146623e-18
1.1533659546722406 3.243358086203179e-20 9.929593297294517e-13 9.92956558972913e-13 2.7707565386269505e-18
1.1707974979042381 3.328601686240251e-20 1.0344584405643747e-12 1.0344546399936684e-12 3.800570706558136e-18
1.1884924949847024 3.4144375151544666e-20 1.0771719759066044e-12 1.0771667889802937e-12 5.186926310572122e-18
1.2064549276569216 3.501446941567921e-20 1.1213161685255644e-12 1.1213091246128822e-12 7.043912681879266e-18
1.2246888378427687 3.5890988497442576e-20 1.1667575297579966e-12 1.1667480110691966e-12 9.518688799822928e-18
1.2431983285522175 3.6773395939651315e-20 1.2135106396741442e-12 1.2134978392812777e-12 1.2800392866731394e-17
1.2619875648066055 3.7663183431021934e-20 1.261657675067953e-12 1.2616405441846188e-12 1.71308833341711e-17
1.3004222497298317 3.946049378286121e-20 1.3621230431133252e-12 1.362092793818916e-12 3.0249294409006976e-17
1.3400274889804893 4.1290200063799055e-20 1.4686899655769112e-12 1.4686375341441887e-12 5.2431432722415046e-17
1.3808389325824078 4.3161238816769124e-20 1.5819995579604385e-12 1.5819103066541575e-12 8.925130628088548e-17
1.4228933163050095 4.509155719058546e-20 1.7030876745409534e-12 1.702938395090337e-12 1.4927945061616314e-16
1.466228494730424 4.711650474825378e-20 1.833767004284389e-12 1.833521552552797e-12 2.454517315919567e-16
1.5108834753276823 4.92368086467309e-20 1.9746507754748492e-12 1.9742538538530075e-12 3.9692162184251234e-16
1.5568984535646726 5.145628720169138e-20 2.126513612200269e-12 2.1258816708817795e-12 6.319413184889621e-16
1.6043148490894465 5.379359675445678e-20 2.2908128965274393e-12 2.2898204684181246e-12 9.924281093142852e-16
1.6531753430134553 5.626958013234707e-20 2.4692327405704156e-12 2.4676972345254307e-12 1.535506044984124e-15
1.7035239163302658 5.890892049779277e-20 2.6637823229845202e-12 2.6614411425936787e-12 2.3411803908417614e-15
1.755405889504358 6.17663958864586e-20 2.8780560320784956e-12 2.8745366576078132e-12 3.5193744706819322e-15
1.8088679632656115 6.485625806852411e-20 3.11406869172329e-12 3.10885079002512e-12 5.217901698169725e-15
1.8639582606462262 6.819414652670455e-20 3.3740593258383725e-12 3.3664262869541255e-12 7.633038884247645e-15
1.9207263702978936 7.180787143355846e-20 3.6610611710541995e-12 3.650039892935976e-12 1.1021278118223774e-14
1.979223391128241 7.573265863180578e-20 3.97875732534092e-12 3.963044106148435e-12 1.5713219192485555e-14
2.039501978296691 8.000532500700265e-20 4.3312420794248e-12 4.309113700893708e-12 2.2128378531091e-14
2.1016163906111602 8.468899481068261e-20 4.724434781024735e-12 4.693641065407421e-12 3.079371561731228e-14
2.1656225393682647 8.983319881281156e-20 5.164033611866939e-12 5.1216742517737955e-12 4.235936009314264e-14
2.231578038680979 9.546544270847636e-20 5.654936111819191e-12 5.5973200064853135e-12 5.761610533387852e-14
2.299542257339062 1.0162885509303358e-19 6.203372505492154e-12 6.1258593327380314e-12 7.751317275412088e-14
2.369576372248914 1.0837757536655651e-19 6.816784651874805e-12 6.71360801174059e-12 1.0317664013421487e-13
2.4417434235010123 1.1577026083372576e-19 7.503544655862483e-12 7.367622967971167e-12 1.3592168789131775e-13
2.5161083711144245 1.2388449932827859e-19 8.274004365269428e-12 8.096734816695838e-12 1.772695485735898e-13
2.5927381535095444 1.328193694111878e-19 9.140911529871096e-12 8.911956757301517e-12 2.2895477256957815e-13
2.6717017477616296 1.4266371749606249e-19 1.011744714339479e-11 9.824531064367263e-12 2.9291607902752754e-13
2.753070231689431 1.535236324868605e-19 1.1219201836363356e-11 1.084790924578807e-11 3.71292590575287e-13
2.836916847834745 1.656175775849264e-19 1.2471608451968489e-11 1.2005180313070215e-11 4.664281388982713e-13
2.9233170693905177 1.7936376836515107e-19 1.3918103931534596e-11 1.3337376449735125e-11 5.807274817994665e-13
2.967498994190263 1.871538931750209e-19 1.4742083923438363e-11 1.4097555299881204e-11 6.445286235571604e-13
3.0123486681368425 1.9543416669507664e-19 1.5626983832085194e-11 1.4912561690570528e-11 7.144221415146673e-13
3.0578761833420214 2.0658598331994373e-19 1.676834424077882e-11 1.597721931061851e-11 7.911249301603061e-13
3.1040917844459814 2.1906816809583344e-19 1.8050251772184845e-11 1.7175942513676927e-11 8.743092585079205e-13
3.127460860933648 2.287015491569711e-19 1.8985866500915423e-11 1.8067130809547752e-11 9.187356913676755e-13
3.1510058709225794 2.403135520822941e-19 2.0100039376056443e-11 1.913507715167308e-11 9.649622243833615e-13
3.162844764501044 2.498275481864489e-19 2.0974307736184484e-11 1.9985454488202685e-11 9.88853247981795e-13
3.1747281389236908 2.6041712310736225e-19 2.1945501570857636e-11 2.093229348776824e-11 1.0132080830894003e-12
3.1986289994194426 2.8816405461932713e-19 2.4466571145440936e-11 2.3403113244465567e-11 1.0634579009753732e-12
3.2227097969389145 3.4897659689484985e-19 2.9852928143239554e-11 2.873630649571425e-11 1.1166216475253025e-12
3.2348180950136065 4.0483535342181867e-19 3.476143755771908e-11 3.361646525553958e-11 1.1449723021795004e-12
3.240889293275058 4.462318832158462e-19 3.838788865549989e-11 3.7227961939526095e-11 1.1599267159737856e-12
3.2469718861334385 4.9409817923306315e-19 4.258544745755583e-11 4.141004738506215e-11 1.1754000724936753e-12
3.2714166318528037 7.438166987470881e-19 6.459088192216838e-11 6.335160577568665e-11 1.2392761464817354e-12
3.2744851364798273 7.595762148512541e-19 6.602126074482813e-11 6.477447618815038e-11 1.2467845566777421e-12
3.2775565192852394 7.757444049389171e-19 6.74898207246231e-11 6.623549197652762e-11 1.2543287480954726e-12
3.283707930232385 7.611767184830942e-19 6.634671905808395e-11 6.507893791729462e-11 1.2677811407893388e-12
3.2898708863219004 7.134500778342118e-19 6.2303418547418e-11 6.102343085626653e-11 1.2799876911514468e-12
3.29141343181113 7.021773270883578e-19 6.134775470162388e-11 6.006470278485408e-11 1.2830519167698132e-12
3.292184975758714 6.966356818509394e-19 6.08778599283018e-11 5.95932740090775e-11 1.28458591922433e-12
3.295272960557952 6.619638254928913e-19 5.7902202638535036e-11 5.6611656521453177e-11 1.2905461170818548e-12
3.3076538914384823 5.410213295035202e-19 4.7501123268784514e-11 4.618665585866178e-11 1.3144674101227302e-12
3.310756385682612 5.16181823266927e-19 4.536274906711723e-11 4.4042255729947277e-11 1.3204933371699671e-12
3.313861789986515 4.9317714037180725e-19 4.338171956897207e-11 4.205518205008896e-11 1.3265375188831132e-12
3.3200813396944477 4.612937265745804e-19 4.065329066952802e-11 3.931373590339702e-11 1.3395547661310044e-12
3.345076488085796 4.075165960605994e-19 3.618435085461734e-11 3.478674020528165e-11 1.3976106493356903e-12
3.3482140837626964 4.1023639607499474e-19 3.646001476198525e-11 3.505453751405873e-11 1.4054772479265294e-12
3.3513546224236106 4.1297785053474894e-19 3.673809032329556e-11 3.5324712953482685e-11 1.4133773698128763e-12
3.3576445397418455 4.30183476560552e-19 3.8340509100212734e-11 3.691060795070299e-11 1.4299011495097419e-12
3.3702598118196083 4.911026498553095e-19 4.3934439707714814e-11 4.2469882223517365e-11 1.4645574841974496e-12
3.382922481734668 5.069217405857582e-19 4.5520015019488204e-11 4.4021832435040177e-11 1.4981825844480368e-12
3.389271646505754 5.150524444587934e-19 4.633693079876918e-11 4.4821716513024035e-11 1.515214285745131e-12
3.395632727569191 5.239586746781262e-19 4.722665418882913e-11 4.56938876266801e-11 1.5327665621490401e-12
3.421196662673239 5.665963119493242e-19 5.145424570992744e-11 4.9848885422066733e-11 1.6053602878607028e-12
3.4276182099114902 5.603052505530896e-19 5.097844296778835e-11 4.93569481657382e-11 1.6214948020501358e-12
3.4340518103208963 5.290237314257401e-19 4.822268975150124e-11 4.65859666046015e-11 1.636723146899744e-12
3.4469541582030403 4.844897071034036e-19 4.4329159370290965e-11 4.266327232242079e-11 1.6658870478701666e-12
3.472904465399547 4.748254494715586e-19 4.377198661297692e-11 4.203881860144515e-11 1.7331680115317641e-12
3.4990501388274233 4.587108423925573e-19 4.260480718969797e-11 4.080293388803277e-11 1.801873301665203e-12
3.5253949054701885 3.936879720600689e-19 3.684082542474505e-11 3.497243803793406e-11 1.8683873868109848e-12
3.5519380250092896 3.3190874979893985e-19 3.129345494953863e-11 2.935840183855761e-11 1.935053110981022e-12
3.578680990867387 3.1003360115053893e-19 2.945107721150198e-11 2.7442979249893985e-11 2.0080979616079894e-12
3.605625307711299 3.038760854824783e-19 2.9083491958898333e-11 2.699857590842974e-11 2.0849160504685943e-12
3.660119384959845 3.0506390233990453e-19 2.9638451239711233e-11 2.7392660678270482e-11 2.2457905614407465e-12
3.715437065384467 3.08399613922707e-19 3.0415374488704667e-11 2.8000738129528325e-11 2.4146363591763392e-12
3.8285932144167436 3.235580850584463e-19 3.2882203652299133e-11 3.010728979681205e-11 2.774913855487083e-12
3.94519561050918 3.4114181767608325e-19 3.5725057250891523e-11 3.2561183248428685e-11 3.1638740024628376e-12
4.06534921144712 3.597116654225267e-19 3.8816986133561926e-11 3.523684369865594e-11 3.5801424349059914e-12
4.189162171576248 3.787570266599676e-19 4.211698797802325e-11 3.809340986960354e-11 4.023578108419723e-12
4.316745939156006 3.9796655459884744e-19 4.5600803734069855e-11 4.110933887459735e-11 4.491464859472505e-12
4.448215356677963 4.1708094926797107e-19 4.9246525092806946e-11 4.427043505763529e-11 4.9760900351716494e-12
4.58368876423945 4.359568068993413e-19 5.3042992455689334e-11 4.756589624466069e-11 5.477096211028638e-12
4.723288106065518 4.545045989447684e-19 5.6983897754905475e-11 5.0987151459524576e-11 5.9967462953809065e-12
4.867139040275056 4.725328947338084e-19 6.10485330643956e-11 5.452925191090253e-11 6.519281153493078e-12
4.940699165968905 4.814374476714933e-19 6.313900185837107e-11 5.635593786738533e-11 6.7830639909857196e-12
5.015371051989984 4.900802297916228e-19 6.524386569967183e-11 5.819633421136842e-11 7.047531488303428e-12
5.091171501069577 4.988447587031438e-19 6.741438446059893e-11 6.009562312271236e-11 7.31876133788654e-12
5.129500256944802 5.0311241821201955e-19 6.850298970572638e-11 6.104874484505464e-11 7.45424486067176e-12
5.168117569889187 5.073426601737065e-19 6.959903204773895e-11 6.200789718767859e-11 7.591134860060363e-12
5.20702561229733 5.118528570448816e-19 7.074638915752449e-11 6.300467742228026e-11 7.741711735244251e-12
5.246226572918644 5.16289543158518e-19 7.189684036172209e-11 6.40042810422087e-11 7.892559319513403e-12
5.265937586045735 5.184797725135993e-19 7.247312000447407e-11 6.450506088264945e-11 7.96805912182464e-12
5.285722656980489 5.206509784917539e-19 7.30500460158004e-11 6.500645012926946e-11 8.043595886530913e-12
5.305582063971359 5.228029574156423e-19 7.362757640518587e-11 6.55084171372066e-11 8.119159267979271e-12
5.3255160863122235 5.249907193848176e-19 7.421347370636225e-11 6.601804453419641e-11 8.195429172165852e-12
5.365609099470188 5.297330356181318e-19 7.544761583118648e-11 6.709429220100231e-11 8.353323630184142e-12
5.406003951863644 5.344150061907556e-19 7.66874746248852e-11 6.817603830365488e-11 8.511436321230318e-12
5.446702915881641 5.390363694369541e-19 7.793296319056217e-11 6.926327904426266e-11 8.669684146299474e-12
5.487708281020852 5.436983986127978e-19 7.91987822012098e-11 7.037002529860673e-11 8.828756902603082e-12
5.529022354014368 5.491967055567574e-19 8.060197847823292e-11 7.160739990569255e-11 8.994578572540385e-12
5.570647458961463 5.546916583050231e-19 8.202131780822461e-11 7.286073955307109e-11 9.160578255153521e-12
5.612585937458331 5.601886183083714e-19 8.345775874923936e-11 7.413108721225211e-11 9.326671536987258e-12
5.654840148729818 5.658434763879731e-19 8.49348803066325e-11 7.544116575701236e-11 9.49371454962015e-12
5.67608639626678 5.693378625655772e-19 8.578048490159556e-11 7.619918113760408e-11 9.581303763991483e-12
5.686739436050992 5.710984927259379e-19 8.620724705190035e-11 7.658212808959331e-11 9.625118962307022e-12
5.6974124697621304 5.728685386597257e-19 8.663673293775274e-11 7.696778683943292e-11 9.66894609831981e-12
5.718818669136295 5.764383091448974e-19 8.750413880028056e-11 7.774750800362425e-11 9.7566307966563e-12
5.740305295436557 5.802349814432992e-19 8.841141308673837e-11 7.856632844629473e-11 9.845084640443613e-12
5.7835210386641895 5.894895169219717e-19 9.049776196297992e-11 8.046997738071525e-11 1.0027784582264663e-11
5.827062130521658 5.995341931681719e-19 9.273272864243832e-11 8.252019183618343e-11 1.0212536806254917e-11
5.8489554468988025 6.063182567874117e-19 9.413440713076008e-11 8.382151449292264e-11 1.0312892637837437e-11
5.870931020387893 6.133796760410977e-19 9.558853213203363e-11 8.517509817047621e-11 1.0413433961557417e-11
5.892989160043636 6.207418367924111e-19 9.70992984819752e-11 8.658514871442372e-11 1.0514149767551465e-11
5.915130176081913 6.289370114322405e-19 9.875086135204619e-11 8.813211664357339e-11 1.0618744708472789e-11
5.95966208400165 6.513853255200395e-19 1.0304550199066442e-10 9.218508948240921e-11 1.0860412508255176e-11
6.004529249263818 6.826516935809351e-19 1.0880467843164841e-10 9.767042443785576e-11 1.113425399379259e-11
6.027089341400364 7.0405604069738685e-19 1.1263783420142454e-10 1.0134369526383686e-10 1.1294138937587653e-11
6.049734195844842 7.288379293315339e-19 1.1704064118942117e-10 1.0557677742858657e-10 1.1463863760834576e-11
6.095279466722835 7.995398600688201e-19 1.2936094383067125e-10 1.174742895962604e-10 1.1886654234410847e-11
6.141167624020661 9.058955491949328e-19 1.476721203117327e-10 1.3522980307063546e-10 1.2442317241097255e-11
6.164241091010745 9.734300799305926e-19 1.5927727298596953e-10 1.464828813331072e-10 1.2794391652862322e-11
6.187401249150058 1.0485635535282579e-18 1.7221559319973156e-10 1.590603262998008e-10 1.3155266899930802e-11
6.1990139391386085 1.0849632620311735e-18 1.7852830378798387e-10 1.651895309786223e-10 1.333877280936158e-11
6.204828454712694 1.1039864360025891e-18 1.818289159898156e-10 1.6839752579695243e-10 1.3431390192863172e-11
6.210648424152782 1.1177155603436952e-18 1.842628038002054e-10 1.70753234487975e-10 1.3509569312230407e-11
6.233982942956859 1.1633703357860282e-18 1.925098822812953e-10 1.7873083535110564e-10 1.3779046930189608e-11
6.239830258556775 1.1686409074186248e-18 1.9356342282336576e-10 1.7974931868119327e-10 1.3814104142172465e-11
6.245683058788269 1.1683380214547048e-18 1.936947659052219e-10 1.7984557276265994e-10 1.384919314256204e-11
6.257405133728602 1.1653053140242438e-18 1.935545718987243e-10 1.7964532482815246e-10 1.3909247070571848e-11
6.269149208991335 1.1540682223524041e-18 1.920478821255459e-10 1.7812317571884912e-10 1.3924706406696767e-11
6.280915325867298 1.1286105988368256e-18 1.8816398239983477e-10 1.7427887064085539e-10 1.3885111758979355e-11
6.304513850009849 1.066927578695671e-18 1.7854840602113934e-10 1.6479215198920067e-10 1.3756254031938662e-11
6.32820103803542 9.924722322433034e-19 1.6671246209500293e-10 1.5313789519947826e-10 1.3574566895524718e-11
6.3519772230701035 9.248055552466212e-19 1.5592968266121079e-10 1.4251983644449806e-10 1.340984621671277e-11
6.375842739491607 8.67490417873724e-19 1.4681543493419964e-10 1.3355282990954104e-10 1.326260502465862e-11
6.399797922933955 8.2257275228138735e-19 1.3973654902200201e-10 1.2655874778089294e-10 1.3177801241109093e-11
6.42384311029221 7.849111203433971e-19 1.3383966493902356e-10 1.2073414456432476e-10 1.3105520374698787e-11
6.447978639727206 7.578227064659454e-19 1.2970617041913548e-10 1.1662443597005116e-10 1.30817344490843e-11
6.472204850670314 7.350963470803591e-19 1.2628912442869625e-10 1.1322159891344701e-10 1.306752551524921e-11
6.496522083828205 7.204626155843713e-19 1.2424010294545785e-10 1.1114766652032728e-10 1.3092436425130564e-11
