Dust emission spectrum from A.P. Jones, M. Kohler, N. Ysard, M. Bocchio, and L. Verstraete (2017), A&A, 602A, 46J 
inside the DustPedia framework.

lambda    nu*dP/dnu     j_nu    j_nu(carb.) j_nu(sil)
 (um)   (erg s-1 H-1) (Jy cm2 sr-1 H-1)
0.9927057738263894 5.361279202690193e-22 1.4127275213668126e-14 1.4127273831940425e-14 1.3817277010127164e-21
1.0001793341362166 5.451493030929205e-22 1.4473140267424478e-14 1.447313860450072e-14 1.662923756580718e-21
1.0077091589558085 5.542048373560586e-22 1.4824325799786926e-14 1.4824323801100412e-14 1.9986865161302616e-21
1.0114953028030835 5.587449693097351e-22 1.5001922906822344e-14 1.500192071672229e-14 2.190100054242271e-21
1.0152956718711033 5.632931157852628e-22 1.518086126906804e-14 1.5180858870022413e-14 2.3990456251224787e-21
1.0229392996569957 5.724083590419107e-22 1.5542657041203585e-14 1.554265416540167e-14 2.87580191482481e-21
1.0267826658714554 5.769650888782408e-22 1.5725247767545997e-14 1.5725244620393734e-14 3.14715226893107e-21
1.0306404723013447 5.815289572358625e-22 1.5909186431935418e-14 1.590918298897638e-14 3.442959041399559e-21
1.03451277320114 5.860998128664966e-22 1.609447716616297e-14 1.6094473400848158e-14 3.765314814716365e-21
1.0383996230291617 5.906775088354831e-22 1.6281124204485113e-14 1.6281120088004172e-14 4.116480944762862e-21
1.0403485208654093 5.929688772376739e-22 1.637495769015245e-14 1.6374953386528624e-14 4.303623828249566e-21
1.0423010764483396 5.952619026371229e-22 1.6469131888701073e-14 1.646912738980079e-14 4.49890027919071e-21
1.0462171883269815 5.998528563096463e-22 1.665850467331377e-14 1.6658499758103008e-14 4.9152107609573255e-21
1.0471985131304309 6.010016039821322e-22 1.670606169957064e-14 1.6706056674657896e-14 5.024912750253637e-21
1.048180758391296 6.021507512551164e-22 1.675370440240734e-14 1.6753699265450894e-14 5.1369564447470965e-21
1.0501480137395462 6.044502365497603e-22 1.6849247130773914e-14 1.6849241762513942e-14 5.36825997298795e-21
1.0521189612883777 6.067512962772727e-22 1.694513344927315e-14 1.694512783976055e-14 5.6095125999370074e-21
1.0531058218030118 6.079008795833709e-22 1.6993162814156797e-14 1.699315708015226e-14 5.734004539280639e-21
1.0540936079674168 6.090458313444344e-22 1.7041137780501882e-14 1.7041131919336288e-14 5.8611655889054895e-21
1.058054026499678 6.136292747937612e-22 1.723389124192419e-14 1.7233884844608135e-14 6.397316053148335e-21
1.0590464539527713 6.1477603560355895e-22 1.7282293386437585e-14 1.7282286847927956e-14 6.53850962673757e-21
1.06003981227728 6.159231528009839e-22 1.7330781196577106e-14 1.733077451389603e-14 6.682681070982606e-21
1.0620293250338977 6.182184493379646e-22 1.7428014126092555e-14 1.7428007145895205e-14 6.980197349192207e-21
1.0660195594769086 6.228132429833454e-22 1.7623511440336065e-14 1.762350382666989e-14 7.613666174948552e-21
1.070024785945596 6.274135490130287e-22 1.782038833862407e-14 1.7820380036745704e-14 8.301878368754927e-21
1.0740450607676866 6.320192660976025e-22 1.8018650127315336e-14 1.801864107800483e-14 9.049310510057714e-21
1.07808044048254 6.366302984050758e-22 1.8218302270988406e-14 1.821829241020545e-14 9.860782953722108e-21
1.0861967418109137 6.4586086027008665e-22 1.862159579467319e-14 1.862158409767387e-14 1.1696999311698205e-20
1.0902777775684922 6.504640986244881e-22 1.8824780658601428e-14 1.8824767925266062e-14 1.2733335366064643e-20
1.0943741465085532 6.550720467159465e-22 1.9029366271029392e-14 1.9029352414082e-14 1.3856947395087722e-20
1.1026131145906286 6.643018168487259e-22 1.9442765000064574e-14 1.9442748605782926e-14 1.639428164230872e-20
1.1109141095355224 6.735497226450029e-22 1.986184449784134e-14 1.986182512688581e-14 1.937095553592261e-20
1.1192775983109025 6.828081340356118e-22 2.0286444203223962e-14 2.0286421344826818e-14 2.2858397141676338e-20
1.1277040513999907 6.920433276746901e-22 2.0715616356746235e-14 2.0715589417902975e-14 2.6938843261567017e-20
1.1361939428280308 7.012948556658024e-22 2.1150593373336284e-14 2.11505616664925e-14 3.1706843782718816e-20
1.1447477501889525 7.10562708987856e-22 2.1591441766593014e-14 2.159140449563419e-14 3.7270958826963864e-20
1.1533659546722406 7.198503523713833e-22 2.2038335095862156e-14 2.2038291340133956e-14 4.3755728197864206e-20
1.1707974979042381 7.385135142496772e-22 2.2951425562406456e-14 2.2951365483757183e-14 6.007864926877532e-20
1.1884924949847024 7.572583307562055e-22 2.3889658217262692e-14 2.3889576139683576e-14 8.207757911434195e-20
1.2064549276569216 7.762129072082185e-22 2.4857725894342965e-14 2.4857614316132295e-14 1.1157821067127074e-19
1.2246888378427687 7.952531041143119e-22 2.5852382063952044e-14 2.585223112517164e-14 1.5093878040924986e-19
1.2431983285522175 8.143640134835003e-22 2.687375940344922e-14 2.687355620879608e-14 2.031946531355007e-19
1.2619875648066055 8.335741008167239e-22 2.7923427236558254e-14 2.792315500370058e-14 2.72232857674339e-19
1.3004222497298317 8.721769420329665e-22 3.0106372133924115e-14 3.010589036559354e-14 4.817683305807683e-19
1.3400274889804893 9.111917389936247e-22 3.241103607414638e-14 3.241019912322472e-14 8.369509216660417e-19
1.3808389325824078 9.507841378221335e-22 3.4849326084820785e-14 3.4847898080009773e-14 1.4280048110136752e-18
1.4228933163050095 9.91322927301294e-22 3.744181758551441e-14 3.743942348500289e-14 2.3941005115141036e-18
1.466228494730424 1.0335684511197806e-21 4.022632265401691e-14 4.0222376669880725e-14 3.9459841361783584e-18
1.5108834753276823 1.077497957796418e-21 4.3213243027206875e-14 4.3206846269794405e-14 6.396757412466159e-18
1.5568984535646726 1.1231597665938237e-21 4.641637907095122e-14 4.640616934622663e-14 1.0209724724582286e-17
1.6043148490894465 1.1709363811868243e-21 4.9864599596860195e-14 4.984852541456198e-14 1.6074182298205994e-17
1.6531753430134553 1.2212573846484306e-21 5.359145584069813e-14 5.356652195804612e-14 2.4933882651998036e-17
1.7035239163302658 1.2746417530562936e-21 5.763758937080803e-14 5.759947414471094e-14 3.8115226097090154e-17
1.755405889504358 1.3322824808084997e-21 6.207879827361013e-14 6.202135078200892e-14 5.744749160121683e-17
1.8088679632656115 1.3944573401886379e-21 6.695477158791913e-14 6.68693711023202e-14 8.540048559892379e-17
1.8639582606462262 1.461478853305337e-21 7.230996508739118e-14 7.218469777793763e-14 1.2526730945356071e-16
1.9207263702978936 1.533927233723226e-21 7.820593094453166e-14 7.802456096085235e-14 1.8136998367931915e-16
1.979223391128241 1.6125440816587963e-21 8.471802909399719e-14 8.445872497108909e-14 2.593041229080858e-16
2.039501978296691 1.698108014369123e-21 9.19303419691162e-14 9.156413822855041e-14 3.662037405658282e-16
2.1016163906111602 1.791978681858067e-21 9.996678352778377e-14 9.945571063025135e-14 5.110728975324049e-16
2.1656225393682647 1.895210045529881e-21 1.089455625092181e-13 1.0824048481526865e-13 7.05077693949424e-16
2.231578038680979 2.0083707947205903e-21 1.1896669842793356e-13 1.1800482447289282e-13 9.618739550407516e-16
2.299542257339062 2.1323699451224814e-21 1.3015875340720385e-13 1.288608063476585e-13 1.2979470595453677e-15
2.369576372248914 2.2683790386265283e-21 1.4267759140066052e-13 1.4094462022190466e-13 1.7329711787558824e-15
2.4417434235010123 2.4176807418136593e-21 1.5669978869506617e-13 1.5440971563612025e-13 2.2900730589459355e-15
2.5161083711144245 2.5820069515459274e-21 1.724472141719383e-13 1.6945103109794959e-13 2.9961830739887264e-15
2.5927381535095444 2.7636273440100722e-21 1.9019871247032732e-13 1.8631647964863849e-13 3.882232821688858e-15
2.6717017477616296 2.9646648793735543e-21 2.102485533209849e-13 2.0526547569538713e-13 4.983077625597698e-15
2.753070231689431 3.1877456685689304e-21 2.3295411578884304e-13 2.2661659737595768e-13 6.337518412885361e-15
2.836916847834745 3.438285892034478e-21 2.5891548479745427e-13 2.5092702411803036e-13 7.98846067942393e-15
2.9233170693905177 3.726862140464984e-21 2.891936040499203e-13 2.7921295124896e-13 9.980652800960337e-15
2.967498994190263 3.893746794424739e-21 3.067098474213837e-13 2.9561184626641095e-13 1.1098001154972785e-14
3.0123486681368425 4.07209517179936e-21 3.2560614394363146e-13 3.132818371914827e-13 1.2324306752148782e-14
3.0578761833420214 4.3206486700321725e-21 3.5070203253024054e-13 3.3702969402239673e-13 1.3672338507843807e-14
3.1040917844459814 4.602544352545905e-21 3.792293744829155e-13 3.640916075742906e-13 1.513776690862486e-14
3.127460860933648 4.827913632043698e-21 4.007936283501882e-13 3.848718390589151e-13 1.5921789291273128e-14
3.1510058709225794 5.1031355021696635e-21 4.268307952097357e-13 4.1009221396605105e-13 1.673858124368453e-14
3.162844764501044 5.333014349902548e-21 4.477339866973532e-13 4.3057288301899657e-13 1.716110367835667e-14
3.1747281389236908 5.5904520524842365e-21 4.711106275796528e-13 4.535185293998809e-13 1.759209817977193e-14
3.1986289994194426 6.271478240052079e-21 5.324799054136699e-13 5.139977419725503e-13 1.8482163441119598e-14
3.2227097969389145 7.782971271270207e-21 6.657881478858452e-13 6.463632873194202e-13 1.9424860566424852e-14
3.2348180950136065 9.179108363098541e-21 7.881698065705299e-13 7.682419820752149e-13 1.9927824495314937e-14
3.240889293275058 1.0215581713502117e-20 8.788135230117375e-13 8.586203975890697e-13 2.0193125422668015e-14
3.2469718861334385 1.1414503949625767e-20 9.837958904348945e-13 9.633282569169494e-13 2.0467633517945368e-14
3.2714166318528037 1.7691808148500314e-20 1.5363052389577905e-12 1.514703562947627e-12 2.160167601016366e-14
3.2744851364798273 1.8087748001461176e-20 1.5721607703646494e-12 1.5504255492184013e-12 2.1735221146247623e-14
3.2775565192852394 1.8494139722002148e-20 1.6089915265226277e-12 1.587122101918916e-12 2.186942460371172e-14
3.283707930232385 1.8125252994066546e-20 1.579857921364862e-12 1.5577486966131938e-12 2.2109224751668838e-14
3.2898708863219004 1.6921041312798566e-20 1.477662911425765e-12 1.4553356381141364e-12 2.232727331162849e-14
3.29141343181113 1.6636642363063868e-20 1.4535084164280598e-12 1.4311263947038028e-12 2.2382021724256924e-14
3.292184975758714 1.649683703348452e-20 1.441631774467996e-12 1.4192223430581315e-12 2.2409431409864618e-14
3.295272960557952 1.5620925050468357e-20 1.3663676666925363e-12 1.3438516513437603e-12 2.251601534877604e-14
3.3076538914384823 1.2567622951701088e-20 1.1034245314730693e-12 1.0804805160881717e-12 2.2944015384897477e-14
3.310756385682612 1.1941107201192313e-20 1.0494004731180163e-12 1.0263485959089109e-12 2.3051877209105092e-14
3.313861789986515 1.1361089130003575e-20 9.993642086986052e-13 9.762041244251525e-13 2.316008427345291e-14
3.3200813396944477 1.055563654675951e-20 9.302562250820651e-13 9.068633135775123e-13 2.3392911504552758e-14
3.345076488085796 9.184206828104948e-21 8.154871860485004e-13 7.910564819008053e-13 2.4430704147695385e-14
3.3482140837626964 9.250468464082111e-21 8.221411361415542e-13 7.975698378634392e-13 2.4571298278114985e-14
3.3513546224236106 9.317290049716835e-21 8.288566637934934e-13 8.041441479970885e-13 2.4712515796405033e-14
3.3576445397418455 9.74613364051944e-21 8.686333759814397e-13 8.436255757263586e-13 2.5007800255081314e-14
3.3702598118196083 1.1274196534852393e-20 1.0085987279020677e-12 9.829715746381877e-13 2.5627153263880124e-14
3.382922481734668 1.1664062400675859e-20 1.0473969710856976e-12 1.0211680667580201e-12 2.6228904327677728e-14
3.389271646505754 1.1864715517859631e-20 1.0674146056637713e-12 1.0408807447249415e-12 2.653386093882984e-14
3.395632727569191 1.2084133131808988e-20 1.089195015118891e-12 1.0623468778896515e-12 2.6848137229239636e-14
3.421196662673239 1.313590534172697e-20 1.1929094609708996e-12 1.1647606399873153e-12 2.814882098358425e-14
3.4276182099114902 1.2973965181428442e-20 1.1804146818446664e-12 1.15197586415948e-12 2.843881768518685e-14
3.4340518103208963 1.2182834240699405e-20 1.110515466479939e-12 1.0818024950521048e-12 2.871297142783425e-14
3.4469541582030403 1.1056148851343103e-20 1.0115999932858112e-12 9.823610881429836e-13 2.923890514282755e-14
3.472904465399547 1.0800771357446873e-20 9.956737150339023e-13 9.652228905161928e-13 3.0450824517709535e-14
3.4990501388274233 1.0381409605291967e-20 9.64219533778169e-13 9.325291538490354e-13 3.1690379929133655e-14
3.5253949054701885 8.723301287142814e-21 8.163155662729945e-13 7.834219504285573e-13 3.289361584443712e-14
3.5519380250092896 7.148489926412757e-21 6.739832788528158e-13 6.398811041195162e-13 3.4102174733299647e-14
3.578680990867387 6.5789952074010225e-21 6.24959666011131e-13 5.895329943157857e-13 3.5426671695345175e-14
3.605625307711299 6.405556046843709e-21 6.130654785975041e-13 5.762443719840988e-13 3.6821106613405414e-14
3.660119384959845 6.399717577824446e-21 6.217638859380101e-13 5.820155421692105e-13 3.9748343768799613e-14
3.715437065384467 6.4488786805502925e-21 6.360094216924663e-13 5.931786915389123e-13 4.2830730153554016e-14
3.8285932144167436 6.763307774559216e-21 6.873339714755143e-13 6.378908722366239e-13 4.944309923889045e-14
3.94519561050918 7.142530608001873e-21 7.479801703155467e-13 6.913454919933151e-13 5.6634678322231685e-14
4.06534921144712 7.551317095041586e-21 8.148731307450169e-13 7.504809881705254e-13 6.439214257449172e-14
4.189162171576248 7.977832786842906e-21 8.871182946416765e-13 8.143936893341346e-13 7.272460530754157e-14
4.316745939156006 8.415456668995925e-21 9.64281001659238e-13 8.826863145506448e-13 8.159468710859303e-14
4.448215356677963 8.859114726041418e-21 1.0460334292941956e-12 9.551615086204991e-13 9.087192067369619e-14
4.58368876423945 9.306155679850343e-21 1.1322826888025775e-12 1.0317215615337408e-12 1.0056112726883661e-13
4.723288106065518 9.75513192456145e-21 1.2230578996679755e-12 1.112341394846956e-12 1.1071650482101946e-13
4.867139040275056 1.0202924207737812e-20 1.3181591436094342e-12 1.1971024999372991e-12 1.2105664367213529e-13
4.940699165968905 1.0428748614490201e-20 1.367697467937889e-12 1.2413715553531394e-12 1.2632591258474978e-13
5.015371051989984 1.0651174505726372e-20 1.417979662821442e-12 1.2863359441784253e-12 1.3164371864301656e-13
5.091171501069577 1.0879913595713684e-20 1.4703225106470724e-12 1.3331958845749745e-12 1.371266260720979e-13
5.129500256944802 1.0992675357575716e-20 1.4967452593091471e-12 1.3568652473933604e-12 1.398800119157872e-13
5.168117569889187 1.110530402104518e-20 1.52346426022202e-12 1.3807953281292544e-12 1.4266893209276578e-13
5.20702561229733 1.1225419568287699e-20 1.5515355444522549e-12 1.405815826472732e-12 1.457197179795223e-13
5.246226572918644 1.1344587344098567e-20 1.5798111661499189e-12 1.4310249987459711e-12 1.4878616740394806e-13
5.265937586045735 1.1403804296414254e-20 1.5940241473159686e-12 1.4436993136161562e-12 1.5032483369981206e-13
5.285722656980489 1.1462770673205094e-20 1.6082864716242177e-12 1.456419577398136e-12 1.518668942260816e-13
5.305582063971359 1.152148213563791e-20 1.6225975660811803e-12 1.469185393988883e-12 1.5341217209229767e-13
5.3255160863122235 1.1581346717276405e-20 1.6371565026787657e-12 1.4821831758790146e-12 1.5497332679975099e-13
5.365609099470188 1.1711215314842284e-20 1.6679784241877565e-12 1.5097747328764106e-12 1.582036913113456e-13
5.406003951863644 1.1840575886516185e-20 1.699098738475777e-12 1.5376491204780846e-12 1.6144961799769243e-13
5.446702915881641 1.1969431298894456e-20 1.7305200571216856e-12 1.565810365998115e-12 1.6470969112357073e-13
5.487708281020852 1.2100431500494036e-20 1.7626306080602972e-12 1.5946335569912777e-12 1.6799705106901894e-13
5.529022354014368 1.2254420361394109e-20 1.7985004575564212e-12 1.6270767587150119e-12 1.7142369884140893e-13
5.570647458961463 1.2409593370703425e-20 1.834985593328663e-12 1.660119437292341e-12 1.7486615603632244e-13
5.612585937458331 1.2566111943821377e-20 1.8721186128170706e-12 1.6937956324954674e-12 1.7832298032160325e-13
5.654840148729818 1.2728112685527086e-20 1.9105296298111596e-12 1.7287190108103689e-12 1.8181061900079099e-13
5.67608639626678 1.2827264241058551e-20 1.9326467092853184e-12 1.7490099570761505e-12 1.8363675220916763e-13
5.686739436050992 1.2877347518087725e-20 1.943834019883669e-12 1.7592825424320079e-12 1.8455147745166075e-13
5.6974124697621304 1.2927782341456622e-20 1.9551096815589776e-12 1.7696424035052838e-12 1.854672780536937e-13
5.718818669136295 1.3029747916136684e-20 1.9779338952638793e-12 1.7906318816585504e-12 1.8730201360532827e-13
5.740305295436557 1.3138168025481613e-20 2.001885507858407e-12 1.8127304001013667e-12 1.8915510775704023e-13
5.7835210386641895 1.3400723423524037e-20 2.0572638591541444e-12 1.8642794015199075e-12 1.9298445763423677e-13
5.827062130521658 1.368650653071584e-20 2.116955314039644e-12 1.920087290803433e-12 1.9686802323621154e-13
5.8489554468988025 1.3877358324425676e-20 2.154539936390137e-12 1.9555698891791086e-12 1.9897004721102868e-13
5.870931020387893 1.4076428712026917e-20 2.193657877496599e-12 1.9925782197496974e-12 2.0107965774690145e-13
5.892989160043636 1.4284383419580293e-20 2.2344290767574717e-12 2.0312324003187147e-12 2.0319667643875752e-13
5.915130176081913 1.4515471666851615e-20 2.27910792969329e-12 2.0737152287283113e-12 2.0539270096497875e-13
5.95966208400165 1.5143190902828845e-20 2.3955677955696513e-12 2.1851414806620054e-12 2.1042631490764615e-13
6.004529249263818 1.601417425044309e-20 2.5524247519665226e-12 2.3363175142585295e-12 2.1610723770799323e-13
6.027089341400364 1.66082614435512e-20 2.6570592264212857e-12 2.4376546983541478e-12 2.1940452806713676e-13
6.049734195844842 1.7296380763453827e-20 2.7775441059546667e-12 2.5546436968563884e-12 2.2290040909827845e-13
6.095279466722835 1.925519475165042e-20 3.1153795965875728e-12 2.883835434545962e-12 2.315441620416113e-13
6.141167624020661 2.220212644686156e-20 3.619219777325276e-12 3.376394201147774e-12 2.4282557617750075e-13
6.164241091010745 2.4073824927562845e-20 3.9390740679364115e-12 3.689137596349575e-12 2.499364715868364e-13
6.187401249150058 2.616206158624993e-20 4.296844898188161e-12 4.039612228117174e-12 2.57232670070987e-13
6.1990139391386085 2.717592677149844e-20 4.4717386110375755e-12 4.210794483323517e-12 2.6094412771405866e-13
6.204828454712694 2.7706267834936756e-20 4.5632812888456826e-12 4.300463139009982e-12 2.628181498356997e-13
6.210648424152782 2.8091105729437446e-20 4.631004601888611e-12 4.366596599458838e-12 2.6440800242977326e-13
6.233982942956859 2.937881781101331e-20 4.8614895742038365e-12 4.591567469800996e-12 2.6992210440284024e-13
6.239830258556775 2.953269264246027e-20 4.8915360028701456e-12 4.6208704805759035e-12 2.7066552229424157e-13
6.245683058788269 2.953219378115836e-20 4.896041433271874e-12 4.6246315198298965e-12 2.7140991344197747e-13
6.257405133728602 2.946442551559225e-20 4.8939743072292036e-12 4.6212741769264654e-12 2.7270013030273735e-13
6.269149208991335 2.917077003415973e-20 4.85429240362624e-12 4.581179662596081e-12 2.7311274103016083e-13
6.280915325867298 2.84842102803466e-20 4.748938604145818e-12 4.476497686185302e-12 2.7244091796051505e-13
6.304513850009849 2.681170959407299e-20 4.486891243898486e-12 4.21677404201351e-12 2.7011720188497676e-13
6.32820103803542 2.4780096427965044e-20 4.162485107638653e-12 3.895734285421628e-12 2.6675082221702507e-13
6.3519772230701035 2.293135754442423e-20 3.866412009105302e-12 3.602694739827155e-12 2.6371726927814705e-13
6.375842739491607 2.1367846142193295e-20 3.616327696924284e-12 3.3553020333131316e-12 2.6102566361115233e-13
6.399797922933955 2.0141335000761436e-20 3.421558321615402e-12 3.161989719103075e-12 2.5956860251232773e-13
6.42384311029221 1.9115506295239414e-20 3.259493834888386e-12 3.0011358186837925e-12 2.5835801620459435e-13
6.447978639727206 1.8380087677965974e-20 3.1458687689559725e-12 2.887760171438275e-12 2.581085975176984e-13
6.472204850670314 1.7765427802705673e-20 3.052090152829521e-12 2.7940407862611223e-12 2.580493665683981e-13
