Dust emission spectrum from A.P. Jones, M. Kohler, N. Ysard, M. Bocchio, and L. Verstraete (2017), A&A, 602A, 46J 
inside the DustPedia framework.

lambda    nu*dP/dnu     j_nu    j_nu(carb.) j_nu(sil)
 (um)   (erg s-1 H-1) (Jy cm2 sr-1 H-1)
0.9927057738263894 1.4331940619729727e-23 3.7765477570963803e-16 3.7765475711635438e-16 1.8593283744801057e-23
1.0001793341362166 1.4573202201720992e-23 3.8690318122831e-16 3.8690315884713792e-16 2.2381172141842683e-23
1.0077091589558085 1.48152129572975e-23 3.9628947433943216e-16 3.962894474342986e-16 2.690513359538653e-23
1.0114953028030835 1.4936484787560386e-23 4.01034471162623e-16 4.010344416780029e-16 2.9484620066129813e-23
1.0152956718711033 1.5057926693004392e-23 4.058141129731817e-16 4.0581408067248286e-16 3.2300698736785256e-23
1.0229392996569957 1.5301180480702307e-23 4.154743668229724e-16 4.1547432809559436e-16 3.872737800545747e-23
1.0267826658714554 1.5422713682415764e-23 4.2034777940453655e-16 4.203477370187088e-16 4.2385827733702877e-23
1.0306404723013447 1.5544389071227673e-23 4.2525583743957665e-16 4.252557910650806e-16 4.6374496128280966e-23
1.03451277320114 1.5666201462729166e-23 4.301986047209956e-16 4.301985539993065e-16 5.072168903919233e-23
1.0383996230291617 1.5788145776362044e-23 4.3517614687960193e-16 4.351760914216017e-16 5.545800026217e-23
1.0403485208654093 1.5849165845413575e-23 4.3767797957941034e-16 4.3767792159710676e-16 5.798230371036024e-23
1.0423010764483396 1.5910217038317226e-23 4.4018853150365253e-16 4.401884708871681e-16 6.061648441013003e-23
1.0462171883269815 1.6032410384417598e-23 4.452358282602546e-16 4.452357620274125e-16 6.623284185536994e-23
1.0471985131304309 1.606297723724037e-23 4.465031158421242e-16 4.465030481291988e-16 6.771292534318899e-23
1.048180758391296 1.609355134965017e-23 4.477725910579635e-16 4.477725218333123e-16 6.922465127673424e-23
1.0501480137395462 1.615472106298451e-23 4.503181090186185e-16 4.50318036673002e-16 7.234561650891522e-23
1.0521189612883777 1.6215918948506096e-23 4.528723914904729e-16 4.528723158894383e-16 7.560103452824464e-23
1.0531058218030118 1.6246486760229472e-23 4.541516618035411e-16 4.541515845225549e-16 7.728098624659989e-23
1.0540936079674168 1.6276925381425006e-23 4.554293187682062e-16 4.554292397711964e-16 7.899700967767251e-23
1.058054026499678 1.639874121611278e-23 4.605616684730907e-16 4.605615822401981e-16 8.62328926678628e-23
1.0590464539527713 1.642921017206947e-23 4.61850192358906e-16 4.618501042203117e-16 8.813859434420046e-23
1.06003981227728 1.6459684992565172e-23 4.631408932648182e-16 4.631408031802658e-16 9.008455248163854e-23
1.0620293250338977 1.652065196235321e-23 4.657288310959974e-16 4.657287369955115e-16 9.410048580743304e-23
1.0660195594769086 1.6642653391234068e-23 4.709308861722527e-16 4.709307835202259e-16 1.0265202681392392e-22
1.070024785945596 1.6764741401902548e-23 4.761679161192427e-16 4.761678041754281e-16 1.1194381474536653e-22
1.0740450607676866 1.6886912024294648e-23 4.814400063708342e-16 4.8143988433433e-16 1.220365041080199e-22
1.07808044048254 1.7009161421841657e-23 4.867472455135597e-16 4.86747112518141e-16 1.3299541855358226e-22
1.0861967418109137 1.7253690418977065e-23 4.974620211762924e-16 4.97461863377682e-16 1.5779861039667455e-22
1.0902777775684922 1.7375527670407086e-23 5.028571106607717e-16 5.028569388607216e-16 1.71800050080079e-22
1.0943741465085532 1.7497422141553753e-23 5.082873806013993e-16 5.082871936186612e-16 1.8698273809695687e-22
1.1026131145906286 1.7741370529668424e-23 5.192538831576972e-16 5.192536618822148e-16 2.2127548245896896e-22
1.1109141095355224 1.7985512676672316e-23 5.303624127335539e-16 5.30362151216175e-16 2.6151737884509684e-22
1.1192775983109025 1.822963174310361e-23 5.416080869102595e-16 5.416077782324055e-16 3.086778540252497e-22
1.1277040513999907 1.8472806997219949e-23 5.529647747236294e-16 5.5296441085018785e-16 3.638734416465826e-22
1.1361939428280308 1.8716093289973738e-23 5.644651112374695e-16 5.644646828491682e-16 4.283883012734305e-22
1.1447477501889525 1.895947843548011e-23 5.761102706160184e-16 5.761097669185921e-16 5.036974262399718e-22
1.1533659546722406 1.9203046726139904e-23 5.879043848739161e-16 5.879037933803655e-16 5.914935506112902e-22
1.1707974979042381 1.9691476819423133e-23 6.119691186613106e-16 6.119683060721491e-16 8.125891615355426e-22
1.1884924949847024 2.018054377006969e-23 6.366470644489821e-16 6.366459536996924e-16 1.1107492898513962e-21
1.2064549276569216 2.0673627186959058e-23 6.620597945267249e-16 6.620582836948122e-16 1.5108319127709604e-21
1.2246888378427687 2.1167227213432665e-23 6.88112051779536e-16 6.881100068085223e-16 2.0449710134875758e-21
1.2431983285522175 2.1660847715298545e-23 7.148012440845407e-16 7.147984895241826e-16 2.75456035816759e-21
1.2619875648066055 2.215509573869062e-23 7.421610186450954e-16 7.421573259950971e-16 3.6926499982948e-21
1.3004222497298317 2.3141834324049503e-23 7.988249200872801e-16 7.988183773099294e-16 6.542777350347995e-21
1.3400274889804893 2.4129769958827354e-23 8.58294485264071e-16 8.582831046925997e-16 1.1380571471380574e-20
1.3808389325824078 2.512203167635029e-23 9.208040384515841e-16 9.207845961776744e-16 1.9442273909979796e-20
1.4228933163050095 2.6127105556622915e-23 9.868089331411534e-16 9.867762949826178e-16 3.263815853580888e-20
1.466228494730424 2.716386240066102e-23 1.0572132811082437e-15 1.0571594148654236e-15 5.3866242820211426e-20
1.5108834753276823 2.8229696684426546e-23 1.132156896058774e-15 1.132069455835267e-15 8.744022350653546e-20
1.5568984535646726 2.932371737579878e-23 1.211849660188852e-15 1.2117099056346149e-15 1.3975455423708962e-19
1.6043148490894465 3.0453745172099775e-23 1.2968798592562317e-15 1.2966595215785907e-15 2.203376776407873e-19
1.6531753430134553 3.1628443211269585e-23 1.3879255421286436e-15 1.3875832725496262e-15 3.4226957901742023e-19
1.7035239163302658 3.2858531580631235e-23 1.4858186984939513e-15 1.4852947284435548e-15 5.239700503960741e-19
1.755405889504358 3.4172277059570556e-23 1.59228536341905e-15 1.5914944666506188e-15 7.908967684311889e-19
1.8088679632656115 3.5572631573107586e-23 1.7080174151734338e-15 1.7068399142898404e-15 1.1775008835936154e-18
1.8639582606462262 3.706296722463926e-23 1.833773961208913e-15 1.832044135313639e-15 1.7298258952743989e-18
1.9207263702978936 3.865298329538302e-23 1.9706883585745737e-15 1.9681799070448643e-15 2.5084515297093082e-18
1.979223391128241 4.035577840200513e-23 2.120166541590014e-15 2.1165745312756926e-15 3.592010314321243e-18
2.039501978296691 4.2184646232462915e-23 2.2837469237416377e-15 2.278665897891588e-15 5.081025850049328e-18
2.1016163906111602 4.416720159568536e-23 2.4638982180110395e-15 2.456795492895622e-15 7.102725115417493e-18
2.1656225393682647 4.6321868513175795e-23 2.662798265315763e-15 2.6529829058354438e-15 9.815359480318979e-18
2.231578038680979 4.865347036831548e-23 2.882009015464223e-15 2.8685959352337857e-15 1.3413080230438906e-17
2.299542257339062 5.117463373278932e-23 3.1236730511822662e-15 3.1055419976083974e-15 1.813105357386811e-17
2.369576372248914 5.390442885565234e-23 3.3905065881800357e-15 3.3662556634122967e-15 2.425092476774022e-17
2.4417434235010123 5.68642529693318e-23 3.685605080310419e-15 3.653500052371003e-15 3.210502793941546e-17
2.5161083711144245 6.00871209025361e-23 4.0131017467055356e-15 3.971019845555696e-15 4.2081901149838775e-17
2.5927381535095444 6.362114439729766e-23 4.378542489269383e-15 4.3239127404371125e-15 5.462974883226992e-17
2.6717017477616296 6.751241950767231e-23 4.787856000671103e-15 4.717599918060694e-15 7.02560826104095e-17
2.753070231689431 7.182358906601215e-23 5.2487250939204846e-15 5.1591962412782605e-15 8.952885264222205e-17
2.836916847834745 7.669886165822272e-23 5.775704398420769e-15 5.6626248588425584e-15 1.1307953957821268e-16
2.9233170693905177 8.244038473129881e-23 6.3971327838629865e-15 6.2555598587384965e-15 1.4157292512448984e-16
2.967498994190263 8.590867186574773e-23 6.7670131190464325e-15 6.609414475885312e-15 1.575986431611191e-16
3.0123486681368425 8.964580653228187e-23 7.168109819200294e-15 6.992902585733196e-15 1.7520723346709882e-16
3.0578761833420214 9.536524604364506e-23 7.740686219692972e-15 7.546102117290108e-15 1.945841024028643e-16
3.1040917844459814 1.0202523793860764e-22 8.4064300528743e-15 8.190751101037578e-15 2.1567895183672065e-16
3.127460860933648 1.0782490208438162e-22 8.951182027382202e-15 8.724205000811e-15 2.2697702657120354e-16
3.1510058709225794 1.151004051578786e-22 9.627100327164058e-15 9.38834419398791e-15 2.387561331761483e-16
3.162844764501044 1.2145139528402257e-22 1.0196469357234189e-14 9.951616566967747e-15 2.448527902664447e-16
3.1747281389236908 1.2863738180807486e-22 1.0840346559608818e-14 1.0589272493286231e-14 2.5107406632258577e-16
3.1986289994194426 1.479839542979856e-22 1.2564578711936642e-14 1.2300649566849477e-14 2.639291450871679e-16
3.2227097969389145 1.9203311405721955e-22 1.64273215054591e-14 1.6149768067624694e-14 2.775534378344089e-16
3.2348180950136065 2.3314678898319764e-22 2.001929297557572e-14 1.9734468187924687e-14 2.848247876510349e-16
3.240889293275058 2.637768580100789e-22 2.269187172869617e-14 2.240321147549291e-14 2.8866025320325835e-16
3.2469718861334385 2.9923500207262013e-22 2.5790535148307735e-14 2.549790629256376e-14 2.926288557439795e-16
3.2714166318528037 4.857476265681467e-22 4.218091317993489e-14 4.1871881875536995e-14 3.090313043978881e-16
3.2744851364798273 4.974661359865158e-22 4.323903359996537e-14 4.2928068626598554e-14 3.109649733668119e-16
3.2775565192852394 5.095010917262901e-22 4.432663274228149e-14 4.401372437309017e-14 3.129083691913285e-16
3.283707930232385 4.98281305054083e-22 4.3431871936651883e-14 4.311548674274304e-14 3.163851939088392e-16
3.2898708863219004 4.6212369939814945e-22 4.035585272018794e-14 4.0036302125611025e-14 3.195505945769149e-16
3.29141343181113 4.535844166235477e-22 3.962871550251446e-14 3.930837002610267e-14 3.2034547641179394e-16
3.292184975758714 4.493866635301931e-22 3.9271170094746546e-14 3.895042664699148e-14 3.207434477550761e-16
3.295272960557952 4.2308167517053e-22 3.7007099096592493e-14 3.668480737114853e-14 3.222917254439655e-16
3.3076538914384823 3.314452938325617e-22 2.910056018243653e-14 2.8772049179867207e-14 3.2851100256932466e-16
3.310756385682612 3.1265596649309624e-22 2.7476624540165344e-14 2.7146545785641198e-14 3.3007875452414496e-16
3.313861789986515 2.9526599653995243e-22 2.5972709624157464e-14 2.5641057934521122e-14 3.316516896363473e-16
3.3200813396944477 2.7102513624391733e-22 2.3885136536083035e-14 2.3550102230065618e-14 3.350343060174038e-16
3.345076488085796 2.290145901576886e-22 2.0334740624550972e-14 1.9984633679720414e-14 3.501069448305568e-16
3.3482140837626964 2.308481047758102e-22 2.0516768839700194e-14 2.0164620144776462e-14 3.5214869492372894e-16
3.3513546224236106 2.326984205051197e-22 2.0700615249790432e-14 2.0346415534957852e-14 3.541997148325799e-16
3.3576445397418455 2.4519736979206806e-22 2.1853447424398563e-14 2.1494959753934305e-14 3.584876704642567e-16
3.3702598118196083 2.9026832416506755e-22 2.5967638722468404e-14 2.560015676866576e-14 3.6748195380264286e-16
3.382922481734668 3.013103147226736e-22 2.70567406240145e-14 2.6680512716760037e-14 3.7622790725446934e-16
3.389271646505754 3.070040022505213e-22 2.7619756706864238e-14 2.7239095081565155e-14 3.8066162529907527e-16
3.395632727569191 3.1322551246009625e-22 2.823236578563951e-14 2.7847134923530923e-14 3.852308621085977e-16
3.421196662673239 3.431765205176628e-22 3.1164849887291676e-14 3.0760700503551625e-14 4.0414938374005723e-16
3.4276182099114902 3.380857022580736e-22 3.076016630894453e-14 3.035179092993321e-14 4.083753790113295e-16
3.4340518103208963 3.1427119660703607e-22 2.864711261812549e-14 2.8234738236494235e-14 4.1237438163126366e-16
3.4469541582030403 2.8027254039020734e-22 2.564398361392254e-14 2.5223929701947702e-14 4.200539119748402e-16
3.472904465399547 2.716812209917147e-22 2.5045049252270292e-14 2.4607310970565795e-14 4.3773828170449556e-16
3.4990501388274233 2.5815078703694276e-22 2.3976901113153595e-14 2.3521057363858946e-14 4.558437492946489e-16
3.5253949054701885 2.075374315308692e-22 1.9421091897016664e-14 1.8947644606854752e-14 4.734472901619114e-16
3.5519380250092896 1.5949505218260306e-22 1.503772116033123e-14 1.4546569348933018e-14 4.911518113982128e-16
3.578680990867387 1.4134316911355516e-22 1.3426636891723433e-14 1.2916078833160973e-14 5.10558058562461e-16
3.605625307711299 1.3495513302114824e-22 1.2916338973502203e-14 1.2385335896505491e-14 5.310030769967061e-16
3.660119384959845 1.3230198474231158e-22 1.2853785366362225e-14 1.2279800059634804e-14 5.739853067274204e-16
3.715437065384467 1.312593677048138e-22 1.2945226399969084e-14 1.2325888152642017e-14 6.193382473270644e-16
3.8285932144167436 1.3547617926014143e-22 1.3768023493100675e-14 1.3051069033239227e-14 7.16954459861448e-16
3.94519561050918 1.4148184314161218e-22 1.4816263161835485e-14 1.3992652014237999e-14 8.236111475974902e-16
4.06534921144712 1.4826201439942077e-22 1.5999160189359448e-14 1.5059929986558007e-14 9.392302028014402e-16
4.189162171576248 1.5550154037753776e-22 1.7291445559172444e-14 1.622737879010448e-14 1.0640667690679633e-15
4.316745939156006 1.630512039394954e-22 1.8683142750383935e-14 1.7485442120288527e-14 1.19770063009541e-15
4.448215356677963 1.708214180736565e-22 2.016961279655168e-14 1.883128386801096e-14 1.3383289285407134e-15
4.58368876423945 1.787777348899434e-22 2.1751939396147604e-14 2.0265787044905115e-14 1.4861523512424854e-15
4.723288106065518 1.8691833402418542e-22 2.3435043912164697e-14 2.1792926148420678e-14 1.6421177637440182e-15
4.867139040275056 1.9523191532401628e-22 2.522284092961951e-14 2.342066506201931e-14 1.802175867600192e-15
4.940699165968905 1.9953410514659515e-22 2.6168268165661525e-14 2.4284041421895058e-14 1.884226743766471e-15
5.015371051989984 2.0380653355854693e-22 2.7132549521255537e-14 2.5165171281623116e-14 1.9673782396324188e-15
5.091171501069577 2.0832736085788344e-22 2.8153569930345494e-14 2.6100164650120176e-14 2.053405280225314e-15
5.129500256944802 2.105721742685319e-22 2.8671173606672567e-14 2.6574422633879452e-14 2.0967509727931263e-15
5.168117569889187 2.128320647869787e-22 2.9197043459392246e-14 2.7056315386456133e-14 2.1407280729361177e-15
5.20702561229733 2.153082761131915e-22 2.975910533875157e-14 2.757041503183974e-14 2.188690306911842e-15
5.246226572918644 2.1778067622970927e-22 3.0327444590424025e-14 2.8090443373781614e-14 2.2370012166424144e-15
5.265937586045735 2.1901536351123805e-22 3.061397486274577e-14 2.8352693222736557e-14 2.2612816400092127e-15
5.285722656980489 2.2024900193759362e-22 3.0902082952159755e-14 2.861644071240255e-14 2.285642239757204e-15
5.305582063971359 2.2148156399978295e-22 3.119177224311197e-14 2.888169160983776e-14 2.310080633274208e-15
5.3255160863122235 2.227533256140955e-22 3.1488743444527455e-14 2.9153957713184344e-14 2.3347857313431187e-15
5.365609099470188 2.25606863323919e-22 3.2132222852743336e-14 2.974632336590778e-14 2.385899486835562e-15
5.406003951863644 2.2847489815718615e-22 3.278568668896694e-14 3.034831445366619e-14 2.4373722353007576e-15
5.446702915881641 2.31358454160235e-22 3.34494125335708e-14 3.0960227491097845e-14 2.4891850424729585e-15
5.487708281020852 2.3433553363198417e-22 3.413489710007569e-14 3.159335936756398e-14 2.541537732511707e-15
5.529022354014368 2.3801677000657084e-22 3.493215159417135e-14 3.23360330437224e-14 2.596118550448959e-15
5.570647458961463 2.417723090679888e-22 3.575046262619132e-14 3.3099386961178346e-14 2.6510756650129685e-15
5.612585937458331 2.4560845771628033e-22 3.659112438370611e-14 3.388473453139754e-14 2.706389852308563e-15
5.654840148729818 2.496486390455037e-22 3.7473043625769446e-14 3.471073110571146e-14 2.762312520057985e-15
5.67608639626678 2.5222159775253047e-22 3.8001496792030445e-14 3.520992249246174e-14 2.7915742995686975e-15
5.686739436050992 2.535284324148064e-22 3.8270085609125594e-14 3.546384112456349e-14 2.806244484562114e-15
5.6974124697621304 2.5484929731343413e-22 3.854167059404998e-14 3.572073012846852e-14 2.820940465581455e-15
5.718818669136295 2.5753455275432943e-22 3.9094104074228675e-14 3.62436954702551e-14 2.850408603973563e-15
5.740305295436557 2.60426202552669e-22 3.9681593335207394e-14 3.6801397208781656e-14 2.8801961264257312e-15
5.7835210386641895 2.676221941495628e-22 4.108505567430359e-14 3.81432777008283e-14 2.941777973475292e-15
5.827062130521658 2.755940777425579e-22 4.2627411610525016e-14 3.9623060228643796e-14 3.0043513818812173e-15
5.8489554468988025 2.8104272340526515e-22 4.3633504104503326e-14 4.059534946365088e-14 3.038154640852443e-15
5.870931020387893 2.8677206559716185e-22 4.4690298484991356e-14 4.161817969874545e-14 3.072118786245905e-15
5.892989160043636 2.9280432076215402e-22 4.580180109239897e-14 4.269555948797977e-14 3.106241604419196e-15
5.915130176081913 2.995640477997151e-22 4.703524711156944e-14 4.3893629371600205e-14 3.141617739969238e-15
5.95966208400165 3.1817469622764007e-22 5.033345089149644e-14 4.711111785178609e-14 3.222333039710355e-15
6.004529249263818 3.4437359854169356e-22 5.488810619238021e-14 5.157488197225602e-14 3.3132242201241725e-15
6.027089341400364 3.6238884458407773e-22 5.797648515631669e-14 5.461069046396344e-14 3.3657946923532476e-15
6.049734195844842 3.8338614022581027e-22 6.156616974684766e-14 5.814467646166639e-14 3.4214932851812693e-15
6.095279466722835 4.435224302602056e-22 7.17593744276799e-14 6.820078609581995e-14 3.558588331859919e-15
6.141167624020661 5.3470674620272005e-22 8.716377845869307e-14 8.342702517398583e-14 3.7367532847072395e-15
6.164241091010745 5.927564937362582e-22 9.698964498176174e-14 9.314095685610987e-14 3.8486881256518746e-15
6.187401249150058 6.579266799616086e-22 1.0805757370668031e-13 1.0409395114411282e-13 3.9636225625675086e-15
6.1990139391386085 6.89626581650574e-22 1.1347652789523215e-13 1.0945442418911727e-13 4.022103706114904e-15
6.204828454712694 7.062431512550802e-22 1.163197503430572e-13 1.1226810902007774e-13 4.051641322979384e-15
6.210648424152782 7.183225338392681e-22 1.1842022139996961e-13 1.1434343952694605e-13 4.0767818730235615e-15
6.233982942956859 7.589305472018708e-22 1.2558479944634132e-13 1.214204732396401e-13 4.1643262067012324e-15
6.239830258556775 7.638900275687829e-22 1.265240395558759e-13 1.2234764594259441e-13 4.1763936132815006e-15
6.245683058788269 7.640022075576686e-22 1.2666131378631378e-13 1.224728337329643e-13 4.188480053349509e-15
6.257405133728602 7.62148982182393e-22 1.2659121879392074e-13 1.2238163048013796e-13 4.209588313782794e-15
6.269149208991335 7.532511923959823e-22 1.2534813229093256e-13 1.2113101478241354e-13 4.217117508519026e-15
6.280915325867298 7.320570115299334e-22 1.220498573867367e-13 1.178420008061984e-13 4.207856580538298e-15
6.304513850009849 6.802605624002823e-22 1.1384037822332745e-13 1.0966623376745976e-13 4.174144455867691e-15
6.32820103803542 6.169543490488883e-22 1.0363411205739959e-13 9.95098416716794e-14 4.124270385720188e-15
6.3519772230701035 5.592032634680599e-22 9.428618472391753e-14 9.020664512866881e-14 4.079539595248704e-15
6.375842739491607 5.104511043575581e-22 8.638954316358383e-14 8.234946030739286e-14 4.040082856190932e-15
6.399797922933955 4.719225483183948e-22 8.016899189133722e-14 7.614919549402924e-14 4.019796397307972e-15
6.42384311029221 4.397565549713714e-22 7.498539445632761e-14 7.098206540301947e-14 4.003329053308122e-15
6.447978639727206 4.165585089788354e-22 7.129663507592168e-14 6.729482221251017e-14 4.001812863411518e-15
6.472204850670314 3.971850207304667e-22 6.823615530599393e-14 6.423289203711487e-14 4.003263268879061e-15
6.496522083828205 3.8474545868645802e-22 6.634739174666465e-14 6.233056205273724e-14 4.0168296939274145e-15
