Dust emission spectrum from A.P. Jones, M. Kohler, N. Ysard, M. Bocchio, and L. Verstraete (2017), A&A, 602A, 46J 
inside the DustPedia framework.

lambda    nu*dP/dnu     j_nu    j_nu(carb.) j_nu(sil)
 (um)   (erg s-1 H-1) (Jy cm2 sr-1 H-1)
0.9927057738263894 8.083339622505182e-20 2.1300059029825877e-12 2.130005732105279e-12 1.7087730820062917e-19
1.0001793341362166 8.218762951185507e-20 2.181995067082461e-12 2.1819948615155748e-12 2.055668860821376e-19
1.0077091589558085 8.354781798102983e-20 2.234805599173002e-12 2.234805352206699e-12 2.469663027858022e-19
1.0114953028030835 8.423009438163502e-20 2.261520822118018e-12 2.261520551559834e-12 2.7055818435656304e-19
1.0152956718711033 8.491379951449316e-20 2.2884437500393513e-12 2.288443453735437e-12 2.963039145027504e-19
1.0229392996569957 8.628475244790704e-20 2.342897852553509e-12 2.342897497529455e-12 3.5502405389758535e-19
1.0267826658714554 8.697044758807373e-20 2.370389236956847e-12 2.370388848525247e-12 3.8843160032004266e-19
1.0306404723013447 8.765746560494921e-20 2.3980903188187823e-12 2.3980898939789207e-12 4.2483986159556777e-19
1.03451277320114 8.834579030358261e-20 2.4260019770583197e-12 2.4260015125537922e-12 4.645045283629139e-19
1.0383996230291617 8.903540619145377e-20 2.454125110769347e-12 2.4541246030675366e-12 5.07701811025009e-19
1.0403485208654093 8.938069368613118e-20 2.4682662676075525e-12 2.468265736890067e-12 5.307174860470358e-19
1.0423010764483396 8.972629849520309e-20 2.4824606400240082e-12 2.482460085294031e-12 5.547299767865805e-19
1.0462171883269815 9.041845317724659e-20 2.5110095066871534e-12 2.51100890077616e-12 6.059109928740522e-19
1.0471985131304309 9.059168752072918e-20 2.51818016983948e-12 2.518179550444222e-12 6.193952578153811e-19
1.048180758391296 9.076499972863324e-20 2.5253642420415124e-12 2.525363608875167e-12 6.33166344750599e-19
1.0501480137395462 9.111185695226623e-20 2.5397726752416863e-12 2.5397720136494036e-12 6.615922825879789e-19
1.0521189612883777 9.145902330770599e-20 2.5542349305192775e-12 2.5542342392827585e-12 6.91236519553486e-19
1.0531058218030118 9.163249458216157e-20 2.5614799250976567e-12 2.5614792185657094e-12 7.065319471568989e-19
1.0540936079674168 9.180529774909726e-20 2.5687175700207865e-12 2.5687168478665948e-12 7.2215419158819145e-19
1.058054026499678 9.249724442703162e-20 2.5978021520712305e-12 2.597801364061229e-12 7.880100009113559e-19
1.0590464539527713 9.26704137615882e-20 2.6051068781462746e-12 2.605106072796564e-12 8.053497104104705e-19
1.06003981227728 9.28436558383903e-20 2.6124250687899787e-12 2.612424245736184e-12 8.230537948505539e-19
1.0620293250338977 9.319035759700402e-20 2.6271019092934488e-12 2.6271010497091493e-12 8.595842996908043e-19
1.0660195594769086 9.388462736508104e-20 2.656617891608382e-12 2.6566169542614636e-12 9.37346919160421e-19
1.070024785945596 9.458004467739302e-20 2.686351176009682e-12 2.686350154205744e-12 1.0218039371450647e-18
1.0740450607676866 9.527660133560538e-20 2.716302867452241e-12 2.716301753951962e-12 1.1135002784333977e-18
1.07808044048254 9.597429001220307e-20 2.7464740997502586e-12 2.7464728867277717e-12 1.2130224863498625e-18
1.0861967418109137 9.737198199376124e-20 2.807449408926503e-12 2.807447970809673e-12 1.438116829746422e-18
1.0902777775684922 9.806957324949659e-20 2.8381861652447515e-12 2.838184600146669e-12 1.5650980815198052e-18
1.0943741465085532 9.876823528519622e-20 2.8691453628767027e-12 2.8691436601470602e-12 1.7027296427278982e-18
1.1026131145906286 1.001687624548861e-19 2.931736236995928e-12 2.931734223617989e-12 2.0133779396532666e-18
1.1109141095355224 1.0157355474978157e-19 2.9952326928600555e-12 2.995230315279367e-12 2.3775806879448845e-18
1.1192775983109025 1.0298153316946459e-19 3.059613707671272e-12 3.059610903671564e-12 2.803999708763439e-18
1.1277040513999907 1.043877294890533e-19 3.1247409952105524e-12 3.1247376926112627e-12 3.3025992903719463e-18
1.1361939428280308 1.0579810123211712e-19 3.1908014164842747e-12 3.1907975316576806e-12 3.884826594063617e-18
1.1447477501889525 1.0721270701497183e-19 3.257808059544715e-12 3.257803495730752e-12 4.563813962662089e-18
1.1533659546722406 1.0863210523947212e-19 3.3257894915932566e-12 3.3257841369790434e-12 5.3546142128745375e-18
1.1707974979042381 1.114896162242426e-19 3.464859583987072e-12 3.464852240927202e-12 7.343059869549279e-18
1.1884924949847024 1.1436743745970143e-19 3.6080144398913806e-12 3.6080044206478778e-12 1.0019243502878812e-17
1.2064549276569216 1.172849218663574e-19 3.7559752127534254e-12 3.755961609784864e-12 1.3602968560733265e-17
1.2246888378427687 1.202242556628637e-19 3.908294572722395e-12 3.908276195065605e-12 1.837765678978598e-17
1.2431983285522175 1.231835093948732e-19 4.065017534099842e-12 4.064992826642179e-12 2.4707457662589302e-17
1.2619875648066055 1.2616754362252721e-19 4.226415168737984e-12 4.226382110869321e-12 3.305786866262325e-17
1.3004222497298317 1.3219439138744425e-19 4.563172160744394e-12 4.5631138179828234e-12 5.834276157204508e-17
1.3400274889804893 1.3832691803534703e-19 4.920280264415886e-12 4.920179191417712e-12 1.0107299817309046e-16
1.3808389325824078 1.4459167883261794e-19 5.299754554521431e-12 5.299582595443957e-12 1.7195907747183826e-16
1.4228933163050095 1.5104384199944218e-19 5.704857442321149e-12 5.704569985019042e-12 2.874573021060441e-16
1.466228494730424 1.5779481200842342e-19 6.14134943273841e-12 6.1408770455491325e-12 4.723871892783018e-16
1.5108834753276823 1.648379998802891e-19 6.610856658617893e-12 6.610093189396916e-12 7.634692209779553e-16
1.5568984535646726 1.7217415514945826e-19 7.115373154679709e-12 7.114158326033781e-12 1.2148286459293423e-15
1.6043148490894465 1.7984989127520325e-19 7.658949674863654e-12 7.657042954786859e-12 1.9067200767964157e-15
1.6531753430134553 1.8791491528361867e-19 8.246119131660082e-12 8.243170735242593e-12 2.948396417490087e-15
1.7035239163302658 1.96426483250269e-19 8.882141947715484e-12 8.877649196134329e-12 4.492751581154922e-15
1.755405889504358 2.0553632188736588e-19 9.577134014854321e-12 9.5703843386699e-12 6.749676184423347e-15
1.8088679632656115 2.152541287847739e-19 1.0335411927475254e-11 1.0325410775455335e-11 1.0001152019916997e-14
1.8639582606462262 2.2558655960293316e-19 1.1161404225713277e-11 1.114678295730513e-11 1.4621268408149893e-14
1.9207263702978936 2.365726995151691e-19 1.2061451022508574e-11 1.204035261439474e-11 2.109840811383316e-14
1.979223391128241 2.4826730321272933e-19 1.3043188620945008e-11 1.3013127184020662e-11 3.006143692434945e-14
2.039501978296691 2.6072109385032684e-19 1.4114637651673291e-11 1.4072330127461857e-11 4.230752421143398e-14
2.1016163906111602 2.7406264208580897e-19 1.5288776084120026e-11 1.5229939140646776e-11 5.883694347325272e-14
2.1656225393682647 2.8836513833456166e-19 1.6576580668726714e-11 1.6495698306485477e-11 8.088236224123713e-14
2.231578038680979 3.0361977007234243e-19 1.7985046246393004e-11 1.7875104885740643e-11 1.0994136065235806e-13
2.299542257339062 3.198614999218527e-19 1.9524179745647012e-11 1.937637045301456e-11 1.4780929263245132e-13
2.369576372248914 3.3715411801178056e-19 2.1206481222759582e-11 2.1009867994764045e-11 1.9661322799553836e-13
2.4417434235010123 3.5557129014831834e-19 2.3046031292980355e-11 2.2787197360044547e-11 2.588339329358103e-13
2.5161083711144245 3.752439909491682e-19 2.506181512609807e-11 2.472447848478232e-11 3.3733664131576163e-13
2.5927381535095444 3.9637309892262697e-19 2.727923981370282e-11 2.684385662944511e-11 4.353831842577121e-13
2.6717017477616296 4.191265028287278e-19 2.9723676861866426e-11 2.9167063989254393e-11 5.566128726120249e-13
2.753070231689431 4.437351765045966e-19 3.2427284493320385e-11 3.17222510238932e-11 7.050334694271839e-13
2.836916847834745 4.708041389602734e-19 3.545327110987222e-11 3.456824354668824e-11 8.850275631839863e-13
2.9233170693905177 5.016182065900822e-19 3.892410600482912e-11 3.7823030929410646e-11 1.1010750754184716e-12
2.967498994190263 5.1953511128647255e-19 4.0923702316978077e-11 3.970215765095304e-11 1.221544666025012e-12
3.0123486681368425 5.385797416353768e-19 4.3065023159211384e-11 4.171155646687303e-11 1.3534666923383565e-12
3.0578761833420214 5.664881106426653e-19 4.59811817573955e-11 4.4482991030276806e-11 1.4981907271186985e-12
3.1040917844459814 5.982851873286974e-19 4.929606321502426e-11 4.764099896218383e-11 1.6550642528404005e-12
3.127460860933648 6.251184846035945e-19 5.189477788710744e-11 5.015596339817521e-11 1.7388144889322231e-12
3.1510058709225794 6.583081470248814e-19 5.506147931369112e-11 5.32355439791938e-11 1.825935334497322e-12
3.162844764501044 6.870054077810958e-19 5.7677637809861073e-11 5.580668498168635e-11 1.8709528281747154e-12
3.1747281389236908 7.191894623638013e-19 6.060651192103911e-11 5.868967376451484e-11 1.916838156524273e-12
3.1986289994194426 8.049558060069546e-19 6.834477854159123e-11 6.633328664195482e-11 2.0114918996364257e-12
3.2227097969389145 9.988420415083254e-19 8.544515579816746e-11 8.333354420941778e-11 2.111611588749667e-12
3.2348180950136065 1.1790370205626143e-18 1.0123874168129301e-10 9.907374478350353e-11 2.1649968977894636e-12
3.240889293275058 1.3132010969845058e-18 1.1297045188709043e-10 1.1077729515867298e-10 2.1931567284174624e-12
3.2469718861334385 1.4685504818887523e-18 1.2657176653092366e-10 1.2434947275384753e-10 2.2222937770761393e-12
3.2714166318528037 2.280598820197639e-18 1.9804057821685047e-10 1.9569802165972273e-10 2.3425565571277678e-12
3.2744851364798273 2.3314932442755886e-18 2.0265000456243515e-10 2.0029331707205364e-10 2.356687490381692e-12
3.2775565192852394 2.3837221757000808e-18 2.0738400595744488e-10 2.0501312068555206e-10 2.3708852718928203e-12
3.283707930232385 2.334607802489734e-18 2.0349225642538794e-10 2.0109606581961915e-10 2.396190605768794e-12
3.2898708863219004 2.176939770268357e-18 1.901055082526274e-10 1.8768636633070364e-10 2.4191419219237505e-12
3.29141343181113 2.13968190108931e-18 1.869395028059823e-10 1.8451459964131764e-10 2.424903164664664e-12
3.292184975758714 2.1213633788894237e-18 1.8538249762620196e-10 1.8295471032567397e-10 2.427787300527998e-12
3.295272960557952 2.007129722111785e-18 1.7556432453844283e-10 1.731253332319095e-10 2.438991306533355e-12
3.3076538914384823 1.6083226894245182e-18 1.4120909871787224e-10 1.3872514510100892e-10 2.483953616863357e-12
3.310756385682612 1.526297023750959e-18 1.341330240032472e-10 1.316377451143313e-10 2.4952788889159006e-12
3.313861789986515 1.4502818326575896e-18 1.2757225469309903e-10 1.2506561663558836e-10 2.506638057510628e-12
3.3200813396944477 1.344465382456447e-18 1.184862026934228e-10 1.159550955912355e-10 2.5311071021873204e-12
3.345076488085796 1.1624033448723682e-18 1.0321250931137024e-10 1.0057225794516697e-10 2.6402513662032506e-12
3.3482140837626964 1.1705159383090586e-18 1.040303317750616e-10 1.0137529062485038e-10 2.655041150211249e-12
3.3513546224236106 1.178696659542966e-18 1.0485565820536087e-10 1.0218576478520046e-10 2.66989342016039e-12
3.3576445397418455 1.233384250615503e-18 1.0992653753898074e-10 1.0722557736754451e-10 2.7009601714362033e-12
3.3702598118196083 1.4294179908732972e-18 1.278768879696501e-10 1.2511077022863692e-10 2.7661177410131898e-12
3.382922481734668 1.477939187319521e-18 1.3271439872935073e-10 1.2988508090973043e-10 2.8293178196203294e-12
3.389271646505754 1.5029071254062026e-18 1.3520973294302234e-10 1.323484067152367e-10 2.8613262277856674e-12
3.395632727569191 1.530364690139882e-18 1.3793836708291848e-10 1.3504405401149877e-10 2.894313071419698e-12
3.421196662673239 1.6628989190674758e-18 1.5101264827880374e-10 1.479819257044965e-10 3.0307225743072145e-12
3.4276182099114902 1.6408462306345138e-18 1.4928967005885e-10 1.4622864996794215e-10 3.0610200909078434e-12
3.4340518103208963 1.5372370625380232e-18 1.401254831073413e-10 1.3703587715025332e-10 3.0896059570879886e-12
3.4469541582030403 1.3889413938730141e-18 1.2708341065303586e-10 1.2393907998929884e-10 3.1443306637370403e-12
3.472904465399547 1.3511859243658332e-18 1.2455965083338855e-10 1.212890377424485e-10 3.2706130909400044e-12
3.4990501388274233 1.2923251399341376e-18 1.2003043818653528e-10 1.1663091289433785e-10 3.3995252921974515e-12
3.5253949054701885 1.073966403657142e-18 1.0050042571058552e-10 9.697617100235049e-11 3.524254708235008e-12
3.5519380250092896 8.6623838108120845e-19 8.167182025284665e-11 7.802260866361575e-11 3.649211589230904e-12
3.578680990867387 7.883671932134157e-19 7.48895054993398e-11 7.110338523736195e-11 3.786120261977843e-12
3.605625307711299 7.616121358132279e-19 7.289267397450598e-11 6.89626053938832e-11 3.930068580622781e-12
3.660119384959845 7.518728049945867e-19 7.304812302724554e-11 6.881674547253656e-11 4.231377554708984e-12
3.715437065384467 7.488231847916235e-19 7.385138165889507e-11 6.930398328501516e-11 4.547398373879908e-12
3.8285932144167436 7.694977314433183e-19 7.820166543120311e-11 7.298070876041026e-11 5.220956670792841e-12
3.94519561050918 7.970299522077318e-19 8.346657958049804e-11 7.751956040974037e-11 5.94701917075767e-12
4.06534921144712 8.269315687369822e-19 8.923533574971425e-11 8.251255752036586e-11 6.722778229348374e-12
4.189162171576248 8.577536090698168e-19 9.538040458251868e-11 8.783266199545504e-11 7.54774258706366e-12
4.316745939156006 8.887421378147008e-19 1.0183608478742047e-10 9.341948827006407e-11 8.416596517356419e-12
4.448215356677963 9.193807044499721e-19 1.0855519776437553e-10 9.924047836964035e-11 9.314719394735164e-12
4.58368876423945 9.494387782161553e-19 1.1551849438535403e-10 1.0527725391904159e-10 1.0241240466312437e-11
4.723288106065518 9.788384667147115e-19 1.2272269903393814e-10 1.1152253045668883e-10 1.1200168577249302e-11
4.867139040275056 1.0073602245893925e-18 1.3014514897051992e-10 1.1798322323330337e-10 1.2161925737216559e-11
4.940699165968905 1.0216045172158157e-18 1.3398020827624333e-10 1.2133372064776993e-10 1.2646487628473417e-11
5.015371051989984 1.0352994099657573e-18 1.378283218881848e-10 1.246966747201028e-10 1.3131647168082018e-11
5.091171501069577 1.0495944391701157e-18 1.418432524656993e-10 1.282145801714283e-10 1.3628672294271e-11
5.129500256944802 1.0565065170968341e-18 1.4385225338289658e-10 1.2997558213386116e-10 1.3876671249035398e-11
5.168117569889187 1.0633723729576442e-18 1.4587712343925402e-10 1.3175000363031214e-10 1.4127119808941887e-11
5.20702561229733 1.0710625887451624e-18 1.4803826856198772e-10 1.3363530518491368e-10 1.4402963377074057e-11
5.246226572918644 1.0786135119296397e-18 1.502042884788616e-10 1.355251737583944e-10 1.4679114720467218e-11
5.265937586045735 1.082336238597243e-18 1.5128899575921575e-10 1.3647173801692006e-10 1.4817257742295697e-11
5.285722656980489 1.0860235670036366e-18 1.5237476701508936e-10 1.3741934716490925e-10 1.4955419850180115e-11
5.305582063971359 1.089675331973465e-18 1.5346155300712553e-10 1.3836797142559542e-10 1.509358158153012e-11
5.3255160863122235 1.0934543445764276e-18 1.5457234243192046e-10 1.3933933164075128e-10 1.52330107911692e-11
5.365609099470188 1.102162406953442e-18 1.5697628856838626e-10 1.4145458823960876e-10 1.552170032877746e-11
5.406003951863644 1.1107855460530713e-18 1.5939548364072055e-10 1.4358489686606427e-10 1.5810586774656305e-11
5.446702915881641 1.1193266712637275e-18 1.6183034989072898e-10 1.4573083610185353e-10 1.609951378887542e-11
5.487708281020852 1.128091920628068e-18 1.6432549103090885e-10 1.4793572817539176e-10 1.6389762855517106e-11
5.529022354014368 1.1394655395499655e-18 1.672318423731017e-10 1.5053949548658967e-10 1.669234688651199e-11
5.570647458961463 1.15094730428854e-18 1.7018863221061507e-10 1.5319359406523375e-10 1.6995038145381307e-11
5.612585937458331 1.1625579366796884e-18 1.7319966282859582e-10 1.5590198479826538e-10 1.7297678030330462e-11
5.654840148729818 1.1747693861054964e-18 1.7633656896373342e-10 1.5873471476164268e-10 1.7601854202090712e-11
5.67608639626678 1.1829267243982357e-18 1.782281395526352e-10 1.604667329441048e-10 1.7761406608530387e-11
5.686739436050992 1.1870603161403853e-18 1.7918660833890408e-10 1.6134540978537133e-10 1.784119855353279e-11
5.6974124697621304 1.1912320640595134e-18 1.801538175621715e-10 1.62232819932772e-10 1.7920997629399516e-11
5.718818669136295 1.1996948357079818e-18 1.821153482625024e-10 1.6403474120785874e-10 1.8080607054643676e-11
5.740305295436557 1.2088805657994671e-18 1.841992339199751e-10 1.6595765583838636e-10 1.8241578081588746e-11
5.7835210386641895 1.2323936638330517e-18 1.8919567733213968e-10 1.7062163658961686e-10 1.8574040742522812e-11
5.827062130521658 1.2584965222315564e-18 1.9465748213099055e-10 1.7574743637742453e-10 1.891004575356606e-11
5.8489554468988025 1.2769209671978407e-18 1.9824934653444053e-10 1.791566365564345e-10 1.9092709978005987e-11
5.870931020387893 1.2962673617472777e-18 2.0200912941853658e-10 1.8273348210570487e-10 1.927564731283168e-11
5.892989160043636 1.3166113316799087e-18 2.0595041143052728e-10 1.8649157448903108e-10 1.9458836941496178e-11
5.915130176081913 1.339541268402608e-18 2.1032448666065108e-10 1.9067535136376794e-10 1.9649135296883138e-11
5.95966208400165 1.4038976974407138e-18 2.220887350522079e-10 2.019991397846111e-10 2.0089595267596803e-11
6.004529249263818 1.4954453631476212e-18 2.3835208112625233e-10 2.1776293737280137e-10 2.0589143753450954e-11
6.027089341400364 1.5589107774201337e-18 2.4940107538589373e-10 2.2851989220149822e-10 2.088118318439547e-11
6.049734195844842 1.632911908071714e-18 2.622216120144033e-10 2.4103032957707813e-10 2.1191282437325217e-11
6.095279466722835 1.845864928737816e-18 2.986503128748396e-10 2.7668534455695405e-10 2.196496831788556e-11
6.141167624020661 2.1690386459511723e-18 3.535799863133834e-10 3.3059669463714884e-10 2.2983291676234547e-11
6.164241091010745 2.374610712929138e-18 3.885451318553768e-10 3.6491592284017916e-10 2.3629209015197646e-11
6.187401249150058 2.604552778914816e-18 4.277705441234722e-10 4.0347940261981087e-10 2.4291141503661254e-11
6.1990139391386085 2.71596103991173e-18 4.469053788069724e-10 4.222776641242526e-10 2.4627714682719773e-11
6.204828454712694 2.7742936971300883e-18 4.5693207736599275e-10 4.3213450474552455e-10 2.4797572620468163e-11
6.210648424152782 2.8162829406991976e-18 4.642828724584902e-10 4.3934206660901e-10 2.494080584948021e-11
6.233982942956859 2.956011899630827e-18 4.891490571104804e-10 4.637151542495889e-10 2.5433902860891583e-11
6.239830258556775 2.9721724097968634e-18 4.922845514044372e-10 4.667869753060594e-10 2.549757609837777e-11
6.245683058788269 2.9710415557871866e-18 4.925588212274029e-10 4.669975192049425e-10 2.5561302022460114e-11
6.257405133728602 2.9613343479228973e-18 4.918709243518299e-10 4.662008516059735e-10 2.5670072745856305e-11
6.269149208991335 2.926419329253029e-18 4.869838918610218e-10 4.612872849381389e-10 2.5696606922882813e-11
6.280915325867298 2.847688767453409e-18 4.747717766176863e-10 4.491501426274774e-10 2.5621633990208932e-11
6.304513850009849 2.657172318853418e-18 4.4467299517627263e-10 4.192928503386501e-10 2.5380144837622598e-11
6.32820103803542 2.4267378502870665e-18 4.076360312530259e-10 3.825947398232051e-10 2.5041291429820844e-11
6.3519772230701035 2.217035665409317e-18 3.7381011153601e-10 3.4907636020274085e-10 2.4733751333269168e-11
6.375842739491607 2.0398595443744478e-18 3.452290192969106e-10 3.2077053095490955e-10 2.4458488342001018e-11
6.399797922933955 1.8998604015702683e-18 3.2274341133070784e-10 2.9844514201137636e-10 2.429826931933137e-11
6.42384311029221 1.7827146738783337e-18 3.039808310135429e-10 2.798196811797907e-10 2.4161149833752228e-11
6.447978639727206 1.6977211190398357e-18 2.905757546079042e-10 2.664624096165231e-10 2.4113344991381046e-11
6.472204850670314 1.6264241774474728e-18 2.794187267224305e-10 2.553355496095144e-10 2.4083177112916136e-11
6.496522083828205 1.5797795874679364e-18 2.724249313324218e-10 2.4829990849559806e-10 2.412502283682375e-11
6.520930681187647 1.5401243377570362e-18 2.6658444218725703e-10 2.4240697973184783e-10 2.4177462455409284e-11
