Dust emission spectrum from A.P. Jones, M. Kohler, N. Ysard, M. Bocchio, and L. Verstraete (2017), A&A, 602A, 46J 
inside the DustPedia framework.

lambda    nu*dP/dnu     j_nu    j_nu(carb.) j_nu(sil)
 (um)   (erg s-1 H-1) (Jy cm2 sr-1 H-1)
0.9927057738263894 2.645828864468065e-23 6.971909337952705e-16 6.971909337921009e-16 3.1694610198872008e-27
1.0001793341362166 2.68951632350882e-23 7.140382787031843e-16 7.1403827869936625e-16 3.818025504130948e-27
1.0077091589558085 2.7331408507253017e-23 7.310829443704015e-16 7.310829443658082e-16 4.593396456971281e-27
1.0114953028030835 2.754924142232328e-23 7.396784197801457e-16 7.396784197751096e-16 5.035834935819728e-27
1.0152956718711033 2.7766852706603954e-23 7.483221914224382e-16 7.483221914169191e-16 5.519106370243807e-27
1.0229392996569957 2.8201111745251276e-23 7.657473918982475e-16 7.657473918916245e-16 6.622887813479111e-27
1.0267826658714554 2.84172325876728e-23 7.745148396724596e-16 7.745148396652079e-16 7.251720352590883e-27
1.0306404723013447 2.8633036248363953e-23 7.833286822943694e-16 7.833286822864317e-16 7.937688023542289e-27
1.03451277320114 2.8848501903444056e-23 7.921885401945168e-16 7.921885401858309e-16 8.685728615869686e-27
1.0383996230291617 2.906360884493545e-23 8.010940290715553e-16 8.01094029062054e-16 9.501183046029169e-27
1.0403485208654093 2.917102135951348e-23 8.055637637607498e-16 8.055637637508138e-16 9.935977260436243e-27
1.0423010764483396 2.927833648473396e-23 8.100447599832356e-16 8.100447599728456e-16 1.0389826190960441e-26
1.0462171883269815 2.949266435849181e-23 8.190403394375063e-16 8.190403394261484e-16 1.1357899907530099e-26
1.0471985131304309 2.954618147741306e-23 8.212961953476726e-16 8.212961953360595e-16 1.1613108130558817e-26
1.048180758391296 2.95996720227721e-23 8.235548231801971e-16 8.235548231683234e-16 1.1873810148794695e-26
1.0501480137395462 2.9706572129412246e-23 8.28080369483687e-16 8.280803694712749e-16 1.2412148379374553e-26
1.0521189612883777 2.9813362156850696e-23 8.326169279224465e-16 8.326169279094726e-16 1.29738423157992e-26
1.0531058218030118 2.986663306336911e-23 8.348870274778153e-16 8.348870274645515e-16 1.326376621952718e-26
1.0540936079674168 2.99196067138026e-23 8.371523358477684e-16 8.371523358342085e-16 1.3559957035194563e-26
1.058054026499678 3.013119934821296e-23 8.462402852770785e-16 8.462402852622691e-16 1.4809357482315674e-26
1.0590464539527713 3.018402046776685e-23 8.485189192419521e-16 8.485189192268137e-16 1.5138530438642272e-26
1.06003981227728 3.0236810154792237e-23 8.50800198843098e-16 8.508001988276235e-16 1.5474706927592058e-26
1.0620293250338977 3.0342294002009673e-23 8.553706688167649e-16 8.553706688005962e-16 1.6168640477669316e-26
1.0660195594769086 3.055287101678686e-23 8.645430680314774e-16 8.645430680138303e-16 1.7646974456070122e-26
1.070024785945596 3.0762910883133433e-23 8.737570605963093e-16 8.737570605770551e-16 1.9254248469936915e-26
1.0740450607676866 3.097239424384106e-23 8.830122203883313e-16 8.830122203673301e-16 2.1001125072076195e-26
1.07808044048254 3.118130189702394e-23 8.92308117577957e-16 8.92308117555058e-16 2.289909677981488e-26
1.0861967418109137 3.1596944654772156e-23 9.110097358458522e-16 9.110097358186533e-16 2.719881466662041e-26
1.0902777775684922 3.180280211360704e-23 9.20390188149609e-16 9.203901881199807e-16 2.96282678996502e-26
1.0943741465085532 3.200799399172469e-23 9.298089337241293e-16 9.29808933691865e-16 3.2264355274199246e-26
1.1026131145906286 3.241630808183845e-23 9.48759500906802e-16 9.487595008685776e-16 3.822421346833596e-26
1.1109141095355224 3.282174284392777e-23 9.678577996502525e-16 9.678577996050253e-16 4.522705918268499e-26
1.1192775983109025 3.322378039993526e-23 9.870889547257511e-16 9.870889546723062e-16 5.344464759558208e-26
1.1277040513999907 3.3620552255655564e-23 1.0063971927455545e-15 1.0063971926824798e-15 6.307513676336994e-26
1.1361939428280308 3.401397642156785e-23 1.0258392436371476e-15 1.025839243562801e-15 7.43468102560723e-26
1.1447477501889525 3.4403921745172605e-23 1.045411282505135e-15 1.0454112824176129e-15 8.752233391883638e-26
1.1533659546722406 3.4790472803866755e-23 1.0651159581561587e-15 1.065115958053255e-15 1.0290367363055458e-25
1.1707974979042381 3.5554642083967673e-23 1.1049624758962831e-15 1.104962475754561e-15 1.4172170652285557e-25
1.1884924949847024 3.6303588609877465e-23 1.1452899079816114e-15 1.145289907787392e-15 1.9421927824239226e-25
1.2064549276569216 3.7043174259486276e-23 1.1862841540609481e-15 1.186284153796081e-15 2.6486743611941347e-25
1.2246888378427687 3.7765316438079443e-23 1.227688875745575e-15 1.2276888753861076e-15 3.5946733854526084e-25
1.2431983285522175 3.846832563636053e-23 1.269442793012164e-15 1.2694427925266438e-15 4.855202287536248e-25
1.2619875648066055 3.9151939670216713e-23 1.3115286781106293e-15 1.3115286774579536e-15 6.5267604967567395e-25
1.3004222497298317 4.044961503834185e-23 1.3962661752782997e-15 1.3962661741152627e-15 1.1630366173724927e-24
1.3400274889804893 4.165326976144954e-23 1.4816043331731055e-15 1.4816043311381893e-15 2.0349164947580894e-24
1.3808389325824078 4.275844660003921e-23 1.567235915250326e-15 1.5672359117528288e-15 3.497496698764771e-24
1.4228933163050095 4.377053844359753e-23 1.6531933953009715e-15 1.6531933893930028e-15 5.907968841695733e-24
1.466228494730424 4.471393213049824e-23 1.7402592533300792e-15 1.7402592435170026e-15 9.813076355842424e-24
1.5108834753276823 4.5570280316684303e-23 1.8276040190090905e-15 1.827604002974823e-15 1.603426790092103e-23
1.5568984535646726 4.6324741131623565e-23 1.9144442390863587e-15 1.9144442132862845e-15 2.5800073846908895e-23
1.6043148490894465 4.697870494076852e-23 2.0005991350922927e-15 2.0005990941365736e-15 4.0955719138805415e-23
1.6531753430134553 4.753417301574767e-23 2.085903893904302e-15 2.0859038298371952e-15 6.406710677266216e-23
1.7035239163302658 4.7997762590373744e-23 2.1703944063248597e-15 2.1703943075404904e-15 9.878436856198992e-23
1.755405889504358 4.8407654698737715e-23 2.255594496084544e-15 2.2555943458767412e-15 1.502078030419178e-22
1.8088679632656115 4.875443493471624e-23 2.3409407809566997e-15 2.3409405556347976e-15 2.253219013389057e-22
1.8639582606462262 4.903173098486444e-23 2.4259555638942723e-15 2.4259552303181225e-15 3.335761499181066e-22
1.9207263702978936 4.924418275031934e-23 2.5106713479775535e-15 2.5106708604119294e-15 4.875656241059891e-22
1.979223391128241 4.940257628514077e-23 2.5954570437154425e-15 2.595456339853886e-15 7.038615573275782e-22
2.039501978296691 4.9519816969251753e-23 2.6808504934373356e-15 2.6808494894807164e-15 1.0039566202713213e-21
2.1016163906111602 4.963203233128584e-23 2.768757621023192e-15 2.7687562055614255e-15 1.4154617661392642e-21
2.1656225393682647 4.9760174668965677e-23 2.8604482298170352e-15 2.860446256534464e-15 1.9732825715942224e-21
2.231578038680979 4.99057523367184e-23 2.9561884706093354e-15 2.9561857496213306e-15 2.7209880045929275e-21
2.299542257339062 5.008131408286463e-23 3.056937387872386e-15 3.0569336755437956e-15 3.712328591535581e-21
2.369576372248914 5.031459498371688e-23 3.1647114976530215e-15 3.1647064847092325e-15 5.012943789005844e-21
2.4417434235010123 5.063834387133016e-23 3.2820784180763944e-15 3.2820717161343277e-15 6.701942066499842e-21
2.5161083711144245 5.110863913078329e-23 3.41344644054717e-15 3.413437566649134e-15 8.873898036192732e-21
2.5927381535095444 5.181724491077429e-23 3.566173017917922e-15 3.566161377319639e-15 1.1640598283105464e-20
2.6717017477616296 5.287371585888427e-23 3.749706196264658e-15 3.749691064154443e-15 1.513211021565746e-20
2.753070231689431 5.444298932275626e-23 3.978585419669862e-15 3.978565921298926e-15 1.9498370935165075e-20
2.836916847834745 5.689873778338798e-23 4.284682757672611e-15 4.284657846325026e-15 2.491134758609537e-20
2.9233170693905177 6.106392796069222e-23 4.738382247268747e-15 4.73835068625467e-15 3.156101407819618e-20
2.967498994190263 6.46000383858714e-23 5.0885352753589575e-15 5.088499915975838e-15 3.5359383119122876e-20
3.0123486681368425 6.872959156918368e-23 5.4956420077416765e-15 5.495602445334003e-15 3.956240767211191e-20
3.0578761833420214 7.796719366203072e-23 6.328506522088838e-15 6.328462303641607e-15 4.421844723153686e-20
3.1040917844459814 8.987048257472101e-23 7.40493176832439e-15 7.404882437270511e-15 4.933105388107781e-20
3.127460860933648 1.0246131711327478e-22 8.505919157046957e-15 8.505867070305572e-15 5.2086741382358443e-20
3.1510058709225794 1.1923660683458473e-22 9.973055916637568e-15 9.973000943994225e-15 5.49726433438458e-20
3.162844764501044 1.3485123747738847e-22 1.1321455035635888e-14 1.1321398564302028e-14 5.64713338622082e-20
3.1747281389236908 1.5300976342643403e-22 1.2894221253826734e-14 1.2894163249660746e-14 5.800416598959873e-20
3.1986289994194426 2.0365892178126393e-22 1.7291662229515583e-14 1.7291601047234675e-14 6.118228091363946e-20
3.2227097969389145 3.230495088396547e-22 2.76350158145558e-14 2.7634951250142492e-14 6.456441331019678e-20
3.2348180950136065 4.362686429997621e-22 3.746047637352842e-14 3.746041000033053e-14 6.637319789997254e-20
3.240889293275058 5.209144160838748e-22 4.481258591287143e-14 4.48125185853972e-14 6.732747424992951e-20
3.2469718861334385 6.188364369700482e-22 5.333641709085977e-14 5.333634877582771e-14 6.831503206347979e-20
3.2714166318528037 1.1411675719275409e-21 9.909567776031048e-14 9.909560535219571e-14 7.24081147309481e-20
3.2744851364798273 1.1738198179954916e-21 1.0202671273284024e-13 1.0202663983916522e-13 7.289367501417168e-20
3.2775565192852394 1.2074099053266128e-21 1.0504475125159773e-13 1.0504467786962173e-13 7.338197598553858e-20
3.283707930232385 1.1751056838325386e-21 1.0242615778391893e-13 1.0242608352238994e-13 7.426152898970038e-20
3.2898708863219004 1.072660782141615e-21 9.367219339584897e-14 9.367211832802917e-14 7.506781976660977e-20
3.29141343181113 1.0485017367392316e-21 9.160538922045107e-14 9.160531395000226e-14 7.527044882715572e-20
3.292184975758714 1.0366308402922939e-21 9.05894841978183e-14 9.058940882589608e-14 7.537192218751872e-20
3.295272960557952 9.617007795207362e-22 8.412029671256527e-14 8.412022094483844e-14 7.576772683654216e-20
3.3076538914384823 7.021206065703386e-22 6.164547618271748e-14 6.164539882206906e-14 7.736064842445961e-20
3.310756385682612 6.49289514227758e-22 5.706043099195544e-14 5.706035322912833e-14 7.776282711702703e-20
3.313861789986515 6.0054463722009715e-22 5.2826169154740585e-14 5.28260909881483e-14 7.816659227205653e-20
3.3200813396944477 5.321853936355247e-22 4.6900892535863025e-14 4.690081350342274e-14 7.9032440285693e-20
3.345076488085796 4.1023922557388018e-22 3.6426099491379695e-14 3.642601660621699e-14 8.288516271248602e-20
3.3482140837626964 4.148119666486627e-22 3.68666714415402e-14 3.686658803460755e-14 8.340693264324869e-20
3.3513546224236106 4.19435260626815e-22 3.7312534969442317e-14 3.7312451038032147e-14 8.393141016680737e-20
3.3576445397418455 4.532235964394014e-22 4.0393981569559595e-14 4.03938965425218e-14 8.502703779911031e-20
3.3702598118196083 5.778492662498266e-22 5.16948620734993e-14 5.169477474729012e-14 8.732620918712365e-20
3.382922481734668 6.062332957921759e-22 5.443788758770978e-14 5.443779801504848e-14 8.957266129595332e-20
3.389271646505754 6.209381564218918e-22 5.586298772869611e-14 5.5862897014958315e-14 9.071373778844986e-20
3.395632727569191 6.367833150395437e-22 5.739602542330851e-14 5.739593353344253e-14 9.188986596714699e-20
3.421196662673239 7.128654296221329e-22 6.473736626999231e-14 6.473726949748698e-14 9.677250531920225e-20
3.4276182099114902 6.975323239741928e-22 6.346382041004623e-14 6.346372253504885e-14 9.787499738501677e-20
3.4340518103208963 6.303446043071483e-22 5.745850419245946e-14 5.745840526849109e-14 9.892396839138024e-20
3.4469541582030403 5.346570339893357e-22 4.891929904942626e-14 4.8919198099310325e-14 1.0095011592892557e-19
3.472904465399547 5.078394797747525e-22 4.681539907976884e-14 4.681529347849157e-14 1.0560127727267735e-19
3.4990501388274233 4.668236579380896e-22 4.335832097254245e-14 4.335821058064861e-14 1.1039189383557312e-19
3.5253949054701885 3.2085878292779804e-22 3.0025561476985046e-14 3.0025446382960635e-14 1.1509402440928979e-19
3.5519380250092896 1.8366991121594247e-22 1.7317006845115162e-14 1.7316886985087983e-14 1.1986002717831227e-19
3.578680990867387 1.2927375557472105e-22 1.2280124937178362e-14 1.2279999844528591e-14 1.2509264977117011e-19
3.605625307711299 1.0727130323316072e-22 1.0266764099085599e-14 1.0266633469052911e-14 1.3063003268393022e-19
3.660119384959845 9.121919308667172e-23 8.86239107835432e-15 8.862248699876168e-15 1.4237847815178067e-19
3.715437065384467 7.985115018444093e-23 7.875180533858467e-15 7.875025600171482e-15 1.5493368698702077e-19
3.8285932144167436 7.40778561638876e-23 7.528302536673356e-15 7.528120012115155e-15 1.8252455819755964e-19
3.94519561050918 7.29659392374742e-23 7.64113990592303e-15 7.640926351792366e-15 2.1355413066212476e-19
4.06534921144712 7.376990122651989e-23 7.960612646855596e-15 7.960364393248385e-15 2.482536072127485e-19
4.189162171576248 7.568514126291944e-23 8.416029169927697e-15 8.415742197453494e-15 2.8697247420268347e-19
4.316745939156006 7.841231160752692e-23 8.984836516108376e-15 8.984506604072669e-15 3.2991203570866256e-19
4.448215356677963 8.185149094035282e-23 9.664554349827002e-15 9.664177453845926e-15 3.7689598107247957e-19
4.58368876423945 8.601576788581796e-23 1.0465563686200723e-14 1.046513533353281e-14 4.2835266791430204e-19
4.723288106065518 9.100186187985251e-23 1.1409435250836061e-14 1.1408950260711401e-14 4.849901246590404e-19
4.867139040275056 9.700247411659288e-23 1.2532161918105096e-14 1.253161585371134e-14 5.460643937594149e-19
4.940699165968905 1.0062400165554233e-22 1.3196520250458718e-14 1.3195941685319193e-14 5.785651395231598e-19
5.015371051989984 1.0437631791025617e-22 1.3895509457417847e-14 1.3894897082369012e-14 6.123750488313228e-19
5.091171501069577 1.0895474739437818e-22 1.4724254593247184e-14 1.4723606449772343e-14 6.481434748431089e-19
5.129500256944802 1.113053914002892e-22 1.5155165734892802e-14 1.5154499187812615e-14 6.665470801882173e-19
5.168117569889187 1.1375639083308035e-22 1.5605497650278213e-14 1.5604812223305598e-14 6.85426972612421e-19
5.20702561229733 1.167633521196635e-22 1.6138594196946037e-14 1.6137888425014577e-14 7.057719314627863e-19
5.246226572918644 1.1984756870135604e-22 1.6689591390806682e-14 1.6688864845677462e-14 7.265451292175865e-19
5.265937586045735 1.2141942257888072e-22 1.697201096346023e-14 1.6971273869602293e-14 7.370938579349637e-19
5.285722656980489 1.2301153353452875e-22 1.725915931475354e-14 1.7258411563253508e-14 7.477515000251804e-19
5.305582063971359 1.246242302528414e-22 1.7551124959653902e-14 1.755036644097468e-14 7.5851867922056485e-19
5.3255160863122235 1.263566591711777e-22 1.7861966424877645e-14 1.7861196970248958e-14 7.694546286846618e-19
5.365609099470188 1.3066972596195006e-22 1.8610731485982813e-14 1.8609939366613678e-14 7.92119369135631e-19
5.406003951863644 1.3514743906423802e-22 1.9393384698777666e-14 1.9392569431524044e-14 8.152672536175788e-19
5.446702915881641 1.3979775797824052e-22 2.0211722518874673e-14 2.021088361431471e-14 8.38904559960501e-19
5.487708281020852 1.4482258877324311e-22 2.1095836764153884e-14 2.109497365478365e-14 8.631093702341624e-19
5.529022354014368 1.5180299901940582e-22 2.227912501312129e-14 2.2278236560255893e-14 8.884528653923173e-19
5.570647458961463 1.5919518382335075e-22 2.3539922712761568e-14 2.3539008365270088e-14 9.143474914704564e-19
5.612585937458331 1.670287726757962e-22 2.488420249638947e-14 2.4883261695060554e-14 9.408013289060724e-19
5.654840148729818 1.7563943590535028e-22 2.6364030139523674e-14 2.636306222351562e-14 9.67916008055988e-19
5.67608639626678 1.8150154268241e-22 2.7346311154374488e-14 2.7345329056629207e-14 9.820977452807857e-19
5.686739436050992 1.8452317706060484e-22 2.7853750822800314e-14 2.7852761574890088e-14 9.892479102302632e-19
5.6974124697621304 1.8760712505461081e-22 2.837242280506925e-14 2.8371426367248078e-14 9.96437821180052e-19
5.718818669136295 1.9396796293557308e-22 2.9444607137059e-14 2.9443596199527777e-14 1.0109375312219604e-18
5.740305295436557 2.009791162854089e-22 3.0623537428780966e-14 3.0622511746779444e-14 1.0256820015249584e-18
5.7835210386641895 2.1916407304039892e-22 3.364581988906258e-14 3.364476356624685e-14 1.0563228157286219e-18
5.827062130521658 2.4011201856024915e-22 3.7139237285653746e-14 3.713814941036977e-14 1.0878752839646547e-18
5.8489554468988025 2.5480460996133183e-22 3.9559885628356576e-14 3.9558780815848944e-14 1.1048125076113155e-18
5.870931020387893 2.705713093412445e-22 4.216558733067487e-14 4.216446536838971e-14 1.1219622851577325e-18
5.892989160043636 2.874985635684124e-22 4.4971850103288674e-14 4.497071077643378e-14 1.1393268548900017e-18
5.915130176081913 3.0674910059842674e-22 4.816338894427369e-14 4.816223162917298e-14 1.1573151007100962e-18
5.95966208400165 3.605679485010552e-22 5.703982542955247e-14 5.703862789691406e-14 1.1975326383964777e-18
6.004529249263818 4.3813388769012385e-22 6.983212260130433e-14 6.98308801106383e-14 1.2424906660318715e-18
6.027089341400364 4.920492863375618e-22 7.872010568721372e-14 7.871883758950201e-14 1.268097711725059e-18
6.049734195844842 5.557620888187887e-22 8.924720929903002e-14 8.924591411143896e-14 1.295187591031144e-18
6.095279466722835 7.3979585753409265e-22 1.1969470835937262e-13 1.196933479350354e-13 1.3604243372547798e-18
6.141167624020661 1.0230115675328084e-21 1.6676347225158013e-13 1.6676202876655682e-13 1.4434850232942036e-18
6.164241091010745 1.203872902032304e-21 1.9698342676146063e-13 1.9698193198533392e-13 1.4947761267362604e-18
6.187401249150058 1.409900584195792e-21 2.315614200426079e-13 2.315598722232683e-13 1.5478193396081755e-18
6.1990139391386085 1.5105013416150882e-21 2.4854965308518213e-13 2.485480782044459e-13 1.5748807361670988e-18
6.204828454712694 1.563494031871037e-21 2.575107951516445e-13 2.575092065625419e-13 1.5885891025077324e-18
6.210648424152782 1.6021803278168381e-21 2.641300254478721e-13 2.6412842496146356e-13 1.600486408612716e-18
6.233982942956859 1.7336201153750407e-21 2.868725409831296e-13 2.868708980240795e-13 1.6429590500775744e-18
6.239830258556775 1.750426012597501e-21 2.8992520135704807e-13 2.8992355178325243e-13 1.6495737955320301e-18
6.245683058788269 1.7518899643794827e-21 2.904398472966644e-13 2.9043819108497885e-13 1.656211685688419e-18
6.257405133728602 1.7482944040033756e-21 2.9038773860149806e-13 2.9038607034299344e-13 1.6682585047105437e-18
6.269149208991335 1.722463393604981e-21 2.8663422176752915e-13 2.866325470438911e-13 1.6747236381300866e-18
6.280915325867298 1.6576638783571144e-21 2.763686936428693e-13 2.7636701939188747e-13 1.6742509818615242e-18
6.304513850009849 1.4978577012075184e-21 2.506637848128721e-13 2.506621178185731e-13 1.6669942989674546e-18
6.32820103803542 1.2997686834304366e-21 2.183311838144685e-13 2.1832953082857952e-13 1.652985888944461e-18
6.3519772230701035 1.1181086245482296e-21 1.8852214070024134e-13 1.8852049961470902e-13 1.6410855323046039e-18
6.375842739491607 9.652844625995107e-22 1.6336625199749653e-13 1.6336462063643346e-13 1.6313610631016113e-18
6.399797922933955 8.428082410374173e-22 1.4317410194203098e-13 1.431724722162517e-13 1.6297257792590935e-18
6.42384311029221 7.4098540545988015e-22 1.263496411518145e-13 1.263480114158159e-13 1.6297359985997908e-18
6.447978639727206 6.6679406473994375e-22 1.1412604011161778e-13 1.141244039329774e-13 1.6361786403460438e-18
6.472204850670314 6.049950810580133e-22 1.0393780267572496e-13 1.0393615870594559e-13 1.6439697793861438e-18
6.496522083828205 5.648431613288285e-22 9.740432188089485e-14 9.740266480914755e-14 1.6570717472791792e-18
