Dust emission spectrum from A.P. Jones, M. Kohler, N. Ysard, M. Bocchio, and L. Verstraete (2017), A&A, 602A, 46J 
inside the DustPedia framework.

lambda    nu*dP/dnu     j_nu    j_nu(carb.) j_nu(sil)
 (um)   (erg s-1 H-1) (Jy cm2 sr-1 H-1)
0.9927057738263894 3.2435321285321335e-24 8.54689138762918e-17 8.54689138762918e-17 1.406055463409378e-32
1.0001793341362166 3.297140738402027e-24 8.753561660556351e-17 8.753561660556351e-17 1.6945835516990566e-32
1.0077091589558085 3.3506735386628575e-24 8.962656555440864e-17 8.962656555440861e-17 2.0397625404791285e-32
1.0114953028030835 3.377404918251676e-24 9.068102800339877e-17 9.068102800339876e-17 2.2368306839694663e-32
1.0152956718711033 3.404109455902284e-24 9.174142546147422e-17 9.174142546147419e-17 2.4521649557370097e-32
1.0229392996569957 3.457401382880288e-24 9.387913907797558e-17 9.387913907797553e-17 2.944262433269911e-32
1.0267826658714554 3.48392416592769e-24 9.495474122891962e-17 9.495474122891958e-17 3.224769491119841e-32
1.0306404723013447 3.510408381783566e-24 9.603604550232599e-17 9.603604550232594e-17 3.5308820602229355e-32
1.03451277320114 3.536851474909228e-24 9.712300542229083e-17 9.712300542229079e-17 3.8648262751453655e-32
1.0383996230291617 3.56325090390637e-24 9.821557393071757e-17 9.821557393071752e-17 4.229011370251718e-32
1.0403485208654093 3.576433454156454e-24 9.876394654349473e-17 9.876394654349466e-17 4.423250657838666e-32
1.0423010764483396 3.5896041420044875e-24 9.931370339844885e-17 9.93137033984488e-17 4.62604381406005e-32
1.0462171883269815 3.615908677537586e-24 1.0041734563641362e-16 1.0041734563641358e-16 5.058742457318199e-32
1.0471985131304309 3.622476908785204e-24 1.0069411186668771e-16 1.0069411186668765e-16 5.172841819760529e-32
1.048180758391296 3.629041901191651e-24 1.0097121883479287e-16 1.0097121883479279e-16 5.289409538299463e-32
1.0501480137395462 3.642162014410079e-24 1.0152645190678287e-16 1.015264519067828e-16 5.530154761429e-32
1.0521189612883777 3.655268707688481e-24 1.0208303867624318e-16 1.0208303867624313e-16 5.781397630870453e-32
1.0531058218030118 3.661806867218281e-24 1.0236155659337832e-16 1.0236155659337828e-16 5.911099481165148e-32
1.0540936079674168 3.668308602298803e-24 1.0263948802536277e-16 1.026394880253627e-16 6.043618388867499e-32
1.058054026499678 3.694278707001091e-24 1.0375449814582483e-16 1.0375449814582478e-16 6.602764363270339e-32
1.0590464539527713 3.700761834345449e-24 1.0403406780763386e-16 1.0403406780763378e-16 6.750118795318662e-32
1.06003981227728 3.707241126428451e-24 1.0431396272879467e-16 1.0431396272879461e-16 6.900624638596052e-32
1.0620293250338977 3.7201880539109606e-24 1.0487472514725457e-16 1.0487472514725451e-16 7.211348698554069e-32
1.0660195594769086 3.7460342298056204e-24 1.0600011776987093e-16 1.0600011776987086e-16 7.873523951223421e-32
1.070024785945596 3.7718148396657194e-24 1.071306242747914e-16 1.0713062427479133e-16 8.593771742522869e-32
1.0740450607676866 3.797527507069315e-24 1.0826619245523279e-16 1.082661924552327e-16 9.376927153187079e-32
1.07808044048254 3.823169874575072e-24 1.094067696476919e-16 1.0940676964769181e-16 1.0228204791600456e-31
1.0861967418109137 3.874189083297939e-24 1.1170143227310692e-16 1.117014322731068e-16 1.2158053545361316e-31
1.0902777775684922 3.899458308005511e-24 1.1285241951215242e-16 1.1285241951215228e-16 1.3249216246782296e-31
1.0943741465085532 3.924646198278602e-24 1.1400811615402508e-16 1.1400811615402494e-16 1.443374185322873e-31
1.1026131145906286 3.9747690205175246e-24 1.163334165817242e-16 1.1633341658172403e-16 1.7113737583034847e-31
1.1109141095355224 4.0245398560438486e-24 1.1867688770207935e-16 1.1867688770207915e-16 2.026577508006068e-31
1.1192775983109025 4.073895176295473e-24 1.210367057217731e-16 1.2103670572177286e-16 2.39682074415306e-31
1.1277040513999907 4.122605839080581e-24 1.2340603187293562e-16 1.234060318729353e-16 2.8311552206178825e-31
1.1361939428280308 4.170906990308757e-24 1.2579182213774244e-16 1.257918221377421e-16 3.3400222096837626e-31
1.1447477501889525 4.21878251745648e-24 1.2819360754426965e-16 1.2819360754426923e-16 3.935451840492558e-31
1.1533659546722406 4.266242756387191e-24 1.3061171277589166e-16 1.306117127758912e-16 4.631292968479336e-31
1.1707974979042381 4.360070488786606e-24 1.3550169541839863e-16 1.35501695418398e-16 6.39027170016828e-31
1.1884924949847024 4.4520349060524644e-24 1.40450871198349e-16 1.4045087119834809e-16 8.774301518458807e-31
1.2064549276569216 4.542854554308313e-24 1.4548203494195646e-16 1.4548203494195525e-16 1.1989767509862356e-30
1.2246888378427687 4.6315380575839536e-24 1.5056375233108606e-16 1.5056375233108448e-16 1.6305240939380184e-30
1.2431983285522175 4.717877895731016e-24 1.5568850460666315e-16 1.556885046066609e-16 2.2069056375865708e-30
1.2619875648066055 4.801841641746159e-24 1.6085417667535592e-16 1.608541766753529e-16 2.9730695260194176e-30
1.3004222497298317 4.961245404885607e-24 1.7125550242024334e-16 1.7125550242023804e-16 5.3214324201676545e-30
1.3400274889804893 5.109124455700898e-24 1.8173125364801389e-16 1.8173125364800454e-16 9.353978116669929e-30
1.3808389325824078 5.244929237152064e-24 1.9224368813725027e-16 1.9224368813723412e-16 1.6155109120732115e-29
1.4228933163050095 5.369318236577083e-24 2.027967158187128e-16 2.0279671581868533e-16 2.7427480216162885e-29
1.466228494730424 5.485280012760369e-24 2.1348624118883545e-16 2.134862411887897e-16 4.5798111815264846e-29
1.5108834753276823 5.590561331925435e-24 2.242104346898859e-16 2.242104346898106e-16 7.524829545000211e-29
1.5568984535646726 5.6833384482913376e-24 2.34873078301604e-16 2.348730783014822e-16 1.2178518556278968e-28
1.6043148490894465 5.7637787712351775e-24 2.454518667369587e-16 2.4545186673676414e-16 1.9451055954968914e-28
1.6531753430134553 5.832124688022546e-24 2.5592643827949624e-16 2.5592643827918996e-16 3.06259219469928e-28
1.7035239163302658 5.889184974093999e-24 2.6630104062703774e-16 2.663010406265622e-16 4.755299302973318e-28
1.755405889504358 5.9396411281870165e-24 2.767624649620834e-16 2.7676246496135477e-16 7.285815379753737e-28
1.8088679632656115 5.9823355244477916e-24 2.8724142148910177e-16 2.8724142148799973e-16 1.1020749346135335e-27
1.8639582606462262 6.016483503518359e-24 2.9767910161980636e-16 2.9767910161815956e-16 1.646775239122525e-27
1.9207263702978936 6.042651750953677e-24 3.0807928509743443e-16 3.080792850950021e-16 2.432316720316883e-27
1.979223391128241 6.0621611290623994e-24 3.184870099030733e-16 3.1848700989951965e-16 3.553619962023788e-27
2.039501978296691 6.076592809901607e-24 3.28968034008641e-16 3.2896803400350164e-16 5.1393550332444705e-27
2.1016163906111602 6.090377983247294e-24 3.397559935380331e-16 3.3975599353066906e-16 7.364010462625031e-27
2.1656225393682647 6.106085828491379e-24 3.510064527589429e-16 3.5100645274847946e-16 1.0463539908363316e-26
2.231578038680979 6.123899578718882e-24 3.6275179677951593e-16 3.627517967647583e-16 1.4757542760501774e-26
2.299542257339062 6.145357351515388e-24 3.7510941942538716e-16 3.7510941940470653e-16 2.0680843144470895e-26
2.369576372248914 6.173861173018748e-24 3.883264775457135e-16 3.883264775168844e-16 2.8828953396307585e-26
2.4417434235010123 6.213428342892307e-24 4.027177333897143e-16 4.027177333496926e-16 4.0021689363255146e-26
2.5161083711144245 6.2709393650975275e-24 4.1882382350083964e-16 4.188238234454426e-16 5.539698491643127e-26
2.5927381535095444 6.357654043473655e-24 4.3754727496865173e-16 4.375472748921082e-16 7.654355166485256e-26
2.6717017477616296 6.487015043196728e-24 4.600471161825795e-16 4.600471160768968e-16 1.0568257001380153e-25
2.753070231689431 6.679261911595562e-24 4.881071812220066e-16 4.881071810760808e-16 1.459257327835272e-25
2.836916847834745 6.98025022437923e-24 5.256383347992297e-16 5.2563833459757405e-16 2.0165554773162374e-25
2.9233170693905177 7.4909744533358e-24 5.812777125519799e-16 5.81277712272971e-16 2.7900882616571175e-25
2.967498994190263 7.924699040092261e-24 6.242273475325395e-16 6.2422734720442385e-16 3.2811574389360777e-25
3.0123486681368425 8.431234874173104e-24 6.7416446822619535e-16 6.741644678400228e-16 3.8617213362966265e-25
3.0578761833420214 9.564648763580466e-24 7.763514272963426e-16 7.763514268411786e-16 4.551640777896516e-25
3.1040917844459814 1.1025156322466476e-23 9.084243008831754e-16 9.084243003464104e-16 5.367651058437699e-25
3.127460860933648 1.257020853156188e-23 1.043527260521958e-15 1.0435272599383706e-15 5.835877225912272e-25
3.1510058709225794 1.4628766001762383e-23 1.223563008039795e-15 1.2235630074049724e-15 6.348226524879725e-25
3.162844764501044 1.6544998977063264e-23 1.3890377684881964e-15 1.389037767825231e-15 6.629654341565311e-25
3.1747281389236908 1.8773402570870915e-23 1.582045491837872e-15 1.5820454911454765e-15 6.923951123854237e-25
3.1986289994194426 2.4989021586893027e-23 2.121693058901286e-15 2.1216930581449954e-15 7.562911581110968e-25
3.2227097969389145 3.9640835214478167e-23 3.3910440290997094e-15 3.3910440282660104e-15 8.336976129089679e-25
3.2348180950136065 5.35353478557838e-23 4.596845695145016e-15 4.5968456942636714e-15 8.813435684089243e-25
3.240889293275058 6.392332001565502e-23 5.499116902106003e-15 5.499116901196348e-15 9.096553299819391e-25
3.2469718861334385 7.594061796277817e-23 6.5451874385935926e-15 6.545187437652406e-15 9.411858879592782e-25
3.2714166318528037 1.4004294546686706e-22 1.2160922670759662e-14 1.216092266967608e-14 1.0835836463769708e-24
3.2744851364798273 1.4405022594311838e-22 1.2520636298760902e-14 1.252063629766194e-14 1.0989621365140757e-24
3.2775565192852394 1.4817260703019798e-22 1.289102779356238e-14 1.2891027792447798e-14 1.114581377265201e-24
3.283707930232385 1.442083169242637e-22 1.2569681200812706e-14 1.2569681199678196e-14 1.1345109855817336e-24
3.2898708863219004 1.3163608286247763e-22 1.1495377492171689e-14 1.1495377491026228e-14 1.1454623968759574e-24
3.29141343181113 1.286712333337147e-22 1.124173475159622e-14 1.124173475044801e-14 1.1482131006330237e-24
3.292184975758714 1.2721441085433098e-22 1.1117060590801768e-14 1.1117060589652177e-14 1.1495903865496728e-24
3.295272960557952 1.1801879731295576e-22 1.0323144640241894e-14 1.032314463908872e-14 1.1531734128507286e-24
3.3076538914384823 8.616226436575314e-23 7.564959304859733e-15 7.564959303693161e-15 1.1665736438300351e-24
3.310756385682612 7.967862242017003e-23 7.002263915423964e-15 7.002263914254012e-15 1.1699536656500128e-24
3.313861789986515 7.369644454426922e-23 6.482616951871501e-15 6.482616950698156e-15 1.1733458451014787e-24
3.3200813396944477 6.530711146288698e-23 5.755441342770498e-15 5.755441341584823e-15 1.1856733497326089e-24
3.345076488085796 5.034135126011691e-23 4.469926216749044e-15 4.469926215479787e-15 1.269256506319331e-24
3.3482140837626964 5.0902556215692576e-23 4.5239963318799715e-15 4.523996330596232e-15 1.2837402918297293e-24
3.3513546224236106 5.1469965937236714e-23 4.578715916823831e-15 4.578715915525437e-15 1.2983936511560062e-24
3.3576445397418455 5.561670997816076e-23 4.95689186411932e-15 4.956891862786006e-15 1.333315362943567e-24
3.3702598118196083 7.091164248454044e-23 6.343812810274919e-15 6.343812808859411e-15 1.4155088778987345e-24
3.382922481734668 7.439529030161362e-23 6.680468523593993e-15 6.680468522108712e-15 1.4852831072271084e-24
3.389271646505754 7.62000631973135e-23 6.8553738424558424e-15 6.8553738409343435e-15 1.5214961961444962e-24
3.395632727569191 7.814480553414522e-23 7.0435282131391456e-15 7.043528211578899e-15 1.560248342162649e-24
3.421196662673239 8.74827744338438e-23 7.944563132821371e-15 7.944563131092606e-15 1.7287651305960234e-24
3.4276182099114902 8.560105242183496e-23 7.788269634385118e-15 7.788269632624786e-15 1.7603336407899305e-24
3.4340518103208963 7.735521566949907e-23 7.051246181031383e-15 7.051246179245804e-15 1.7855767520896387e-24
3.4469541582030403 6.561159237470446e-23 6.0032374109778244e-15 6.003237409150861e-15 1.8269623890697897e-24
3.472904465399547 6.232033611463685e-23 5.745026769651914e-15 5.74502676767974e-15 1.9721739610923896e-24
3.4990501388274233 5.728648420675356e-23 5.320736700868561e-15 5.320736698744457e-15 2.1241057758021783e-24
3.5253949054701885 3.937203995448343e-23 3.684385994799693e-15 3.6843859925522425e-15 2.2474497158646824e-24
3.5519380250092896 2.2534326356963314e-23 2.1246108368550304e-15 2.1246108344887147e-15 2.36631568784153e-24
3.578680990867387 1.585783239727599e-23 1.5063859033539492e-15 1.5063859008190366e-15 2.5349128997260512e-24
3.605625307711299 1.3157095785332282e-23 1.2592445004930494e-15 1.2592444977575955e-15 2.735453758488798e-24
3.660119384959845 1.1186340899826385e-23 1.0868077696746986e-15 1.086807766471503e-15 3.2031955694844785e-24
3.715437065384467 9.790346951173516e-24 9.655559068531167e-16 9.655559031046226e-16 3.7484940027738895e-24
3.8285932144167436 9.080151601886676e-24 9.227876166749298e-16 9.227876115333797e-16 5.141550144309715e-24
3.94519561050918 8.941751438417081e-24 9.363981942665466e-16 9.363981872353132e-16 7.031233540198218e-24
4.06534921144712 9.038098887258102e-24 9.753138218866577e-16 9.7531381230867e-16 9.57798787347521e-24
4.189162171576248 9.27034105322121e-24 1.0308425064314729e-15 1.0308424934414508e-15 1.299002180852248e-23
4.316745939156006 9.601616830773268e-24 1.1001965857939499e-15 1.100196568260256e-15 1.753369412903074e-23
4.448215356677963 1.0019517173660572e-23 1.1830470914015852e-15 1.1830470678565834e-15 2.3545001877194524e-23
4.58368876423945 1.0525475709081954e-23 1.2806377140896045e-15 1.280637682634652e-15 3.1454952637798334e-23
4.723288106065518 1.1131160631676703e-23 1.395578660373411e-15 1.3955786185629172e-15 4.181049373699879e-23
4.867139040275056 1.1859989075671445e-23 1.5322423968756055e-15 1.5322423415840552e-15 5.529155077389976e-23
4.940699165968905 1.2300053148706598e-23 1.6131131518131657e-15 1.6131130883344032e-15 6.34787626794198e-23
5.015371051989984 1.2755716103594081e-23 1.6981550729354876e-15 1.6981550001590583e-15 7.277642914232817e-23
5.091171501069577 1.331229024797806e-23 1.799036347823652e-15 1.7990362644398327e-15 8.338381906537692e-23
5.129500256944802 1.35979184794846e-23 1.8514710349027645e-15 1.851470945697423e-15 8.92053414432427e-23
5.168117569889187 1.3895724796071682e-23 1.9062638948540683e-15 1.9062637994475016e-15 9.540656685101222e-23
5.20702561229733 1.426162691065338e-23 1.9711887773091744e-15 1.971188675236832e-15 1.0207234189871808e-22
5.246226572918644 1.463686011483496e-23 2.0382826052125597e-15 2.0382824960489176e-15 1.0916364163689793e-22
5.265937586045735 1.4828069093798078e-23 2.0726679956280735e-15 2.0726678827516575e-15 1.1287641651427224e-22
5.285722656980489 1.502172433634297e-23 2.107626220515981e-15 2.1076261038111935e-15 1.1670478670106706e-22
5.305582063971359 1.52178654035933e-23 2.143167960000863e-15 2.1431678393488806e-15 1.2065198287825354e-22
5.3255160863122235 1.5428660600717188e-23 2.181018550494448e-15 2.181018425756983e-15 1.2473746489774262e-22
5.365609099470188 1.5954231360360177e-23 2.272293094112482e-15 2.2722929606913612e-15 1.3342112090766934e-22
5.406003951863644 1.6499835239063828e-23 2.3676930504433535e-15 2.3676929077869114e-15 1.426564431123336e-22
5.446702915881641 1.7066442562465307e-23 2.4674372925962905e-15 2.467437140121515e-15 1.524747758566089e-22
5.487708281020852 1.7678826475536054e-23 2.5752173101508272e-15 2.5752171471990726e-15 1.6295175461910403e-22
5.529022354014368 1.853102648340873e-23 2.7196765433635923e-15 2.7196763688889974e-15 1.7447459518992277e-22
5.570647458961463 1.9433567932137338e-23 2.873608837710412e-15 2.8736086509690348e-15 1.8674137671734344e-22
5.612585937458331 2.0390080882251254e-23 3.0377454941643412e-15 3.0377452943692905e-15 1.9979505001188493e-22
5.654840148729818 2.1441753593382868e-23 3.2184744562992886e-15 3.218474242533841e-15 2.1376544694363794e-22
5.67608639626678 2.2158565434080568e-23 3.338566803011861e-15 3.338566581554303e-15 2.214575582356053e-22
5.686739436050992 2.252806917750739e-23 3.4006092642931534e-15 3.4006090388947203e-15 2.253984336357082e-22
5.6974124697621304 2.2905207801914302e-23 3.4640274989807026e-15 3.4640272695769344e-15 2.2940376789548444e-22
5.718818669136295 2.368312596653524e-23 3.595131532590945e-15 3.595131294979322e-15 2.3761162290525735e-22
5.740305295436557 2.4540799179350405e-23 3.739324244683205e-15 3.739323998466549e-15 2.4621665564513023e-22
5.7835210386641895 2.676683608069394e-23 4.1092143127175875e-15 4.109214047380707e-15 2.6533688005391674e-22
5.827062130521658 2.933177025487105e-23 4.5368806694305185e-15 4.5368803833257725e-15 2.8610474541643256e-22
5.8489554468988025 3.113185278199967e-23 4.833399739673626e-15 4.8333994413678715e-15 2.9830575524069576e-22
5.870931020387893 3.306373102758193e-23 5.1526218412283544e-15 5.152621530235254e-15 3.109931007716147e-22
5.892989160043636 3.513801811470129e-23 5.496450709065762e-15 5.496450384881168e-15 3.2418459223659853e-22
5.915130176081913 3.7497388912626916e-23 5.887552149526362e-15 5.887551811162599e-15 3.3836376369327594e-22
5.95966208400165 4.4095824107857324e-23 6.97571184499521e-15 6.975711472102103e-15 3.7289310681784493e-22
6.004529249263818 5.360851923031366e-23 8.544412547274487e-15 8.54441213066681e-15 4.166076779182342e-22
6.027089341400364 6.022192158887549e-23 9.634555244352331e-15 9.634554799881404e-15 4.444709267456242e-22
6.049734195844842 6.803782307260495e-23 1.0925872703762348e-14 1.0925872228077436e-14 4.756849109933162e-22
6.095279466722835 9.061686185867141e-23 1.4661286275336285e-14 1.4661285714969642e-14 5.603666451137597e-22
6.141167624020661 1.2536856586861675e-22 2.0436618723552192e-14 2.0436618040070104e-14 6.834820911158901e-22
6.164241091010745 1.4756139959556202e-22 2.4144700076712124e-14 2.4144699312217806e-14 7.64494327490238e-22
6.187401249150058 1.7284367418916796e-22 2.8387765129876338e-14 2.838776427588674e-14 8.539895898237353e-22
6.1990139391386085 1.8518845688580784e-22 3.047235076609214e-14 3.0472349866007054e-14 9.000851001539673e-22
6.204828454712694 1.9169135736819775e-22 3.157197459878393e-14 3.157197367472034e-14 9.240635955420587e-22
6.210648424152782 1.9643824355302608e-22 3.238414388678452e-14 3.238414294278378e-14 9.440007444735003e-22
6.233982942956859 2.1256540619823946e-22 3.5174475457680177e-14 3.5174474442825926e-14 1.014854251325936e-21
6.239830258556775 2.1462683273434507e-22 3.5548904809059675e-14 3.5548903784396356e-14 1.0246633191465829e-21
6.245683058788269 2.148052690263783e-22 3.561183110985968e-14 3.561183007529975e-14 1.0345599420461273e-21
6.257405133728602 2.1436147509613284e-22 3.560495523746307e-14 3.56049541855873e-14 1.0518757665087431e-21
6.269149208991335 2.1118859492908513e-22 3.514378231689651e-14 3.514378125942122e-14 1.0574752892458219e-21
6.280915325867298 2.0323298074384929e-22 3.388336690366358e-14 3.388336585515969e-14 1.0485038933955154e-21
6.304513850009849 1.8361451365554658e-22 3.0727557699486414e-14 3.0727556682499575e-14 1.0169868330228438e-21
6.32820103803542 1.592972455948222e-22 2.675826603031328e-14 2.67582650618268e-14 9.684864751330814e-22
6.3519772230701035 1.3699642244361074e-22 2.3098702809648214e-14 2.3098701887059962e-14 9.225882534834613e-22
6.375842739491607 1.1823545989463135e-22 2.0010354133504965e-14 2.0010353251236867e-14 8.822680983494256e-22
6.399797922933955 1.0319829603231066e-22 1.7531061796675018e-14 1.75310609416151e-14 8.550599158740921e-22
6.42384311029221 9.069652437049487e-23 1.546518085712726e-14 1.5465180025078774e-14 8.320484856804412e-22
6.447978639727206 8.158552947606489e-23 1.3963881656841604e-14 1.3963880835543428e-14 8.212981765094539e-22
6.472204850670314 7.399571159419535e-23 1.2712420168900255e-14 1.2712419355286889e-14 8.136133613560866e-22
6.496522083828205 6.906224361870962e-23 1.190943162244892e-14 1.1909430805824245e-14 8.166246773841812e-22
