Dust emission spectrum from A.P. Jones, M. Kohler, N. Ysard, M. Bocchio, and L. Verstraete (2017), A&A, 602A, 46J 
inside the DustPedia framework.

lambda    nu*dP/dnu     j_nu    j_nu(carb.) j_nu(sil)
 (um)   (erg s-1 H-1) (Jy cm2 sr-1 H-1)
0.9927057738263894 8.454808565545461e-26 2.227890079375176e-18 2.227890079366495e-18 8.68096339983769e-30
1.0001793341362166 8.593824809922912e-26 2.2815700433260273e-18 2.281570043315568e-18 1.0458353076454598e-29
1.0077091589558085 8.732623981583286e-26 2.335873927185741e-18 2.3358739271731574e-18 1.25835423433927e-29
1.0114953028030835 8.801925045717417e-26 2.3632570890187845e-18 2.363257089004988e-18 1.3796332111907658e-29
1.0152956718711033 8.871151354505604e-26 2.3907928969079368e-18 2.3907928968928147e-18 1.5121145039322474e-29
1.0229392996569957 9.009284394170428e-26 2.4462993126032594e-18 2.4462993125851114e-18 1.81473213375863e-29
1.0267826658714554 9.078022874257203e-26 2.474225246707614e-18 2.474225246687743e-18 1.9871541662951154e-29
1.0306404723013447 9.146656174154913e-26 2.5022977186744603e-18 2.5022977186527073e-18 2.1752564149567989e-29
1.03451277320114 9.21517766463855e-26 2.5305155069115057e-18 2.5305155068877016e-18 2.3803955544166464e-29
1.0383996230291617 9.283580754252836e-26 2.5588773749036704e-18 2.55887737487763e-18 2.604039175771009e-29
1.0403485208654093 9.317735849542577e-26 2.5731119483884857e-18 2.5731119483612527e-18 2.72329119724705e-29
1.0423010764483396 9.351858890572525e-26 2.5873820715056035e-18 2.587382071477126e-18 2.8477742848221616e-29
1.0462171883269815 9.420005561434561e-26 2.6160283312345362e-18 2.616028331203403e-18 3.113316404137285e-29
1.0471985131304309 9.437020928459477e-26 2.6232118657651796e-18 2.6232118657333467e-18 3.183323335700092e-29
1.048180758391296 9.45402757357408e-26 2.630404147959994e-18 2.630404147927446e-18 3.2548387190941257e-29
1.0501480137395462 9.488014296142041e-26 2.6448148745633337e-18 2.644814874529308e-18 3.4025193180839163e-29
1.0521189612883777 9.52196492697331e-26 2.659260348957329e-18 2.6592603489217627e-18 3.5566132385153106e-29
1.0531058218030118 9.538900247266244e-26 2.6664887387708587e-18 2.666488738734497e-18 3.636152737347656e-29
1.0540936079674168 9.555740371420458e-26 2.673701713130826e-18 2.6737017130936516e-18 3.7174131225086295e-29
1.058054026499678 9.623002125930159e-26 2.7026378771583954e-18 2.7026378771177926e-18 4.06020568714453e-29
1.0590464539527713 9.639792386993048e-26 2.7098928807919997e-18 2.709892880750494e-18 4.15052403416811e-29
1.06003981227728 9.65657238085628e-26 2.717156227695919e-18 2.717156227653491e-18 4.24276591504486e-29
1.0620293250338977 9.690101176117091e-26 2.731707867364415e-18 2.731707867320084e-18 4.4331770153312044e-29
1.0660195594769086 9.757031271210571e-26 2.7609103398030096e-18 2.76091033975462e-18 4.8388483533946106e-29
1.070024785945596 9.823786208706364e-26 2.7902439383107988e-18 2.7902439382579983e-18 5.279939417577404e-29
1.0740450607676866 9.890359835382415e-26 2.819707294800833e-18 2.819707294743239e-18 5.759382986508142e-29
1.07808044048254 9.956746048286195e-26 2.8492990295559103e-18 2.8492990294931073e-18 6.280340484270518e-29
1.0861967418109137 1.0088814109622366e-25 2.9088280456942353e-18 2.9088280456196282e-18 7.460688127674432e-29
1.0902777775684922 1.0154215767637547e-25 2.9386846251792918e-18 2.9386846250980144e-18 8.12770232990289e-29
1.0943741465085532 1.02194014585606e-25 2.968661758665571e-18 2.9686617585770555e-18 8.851513027149248e-29
1.1026131145906286 1.034910178231076e-25 3.0289719042126e-18 3.0289719041077185e-18 1.0488180907510169e-28
1.1109141095355224 1.0477869337453856e-25 3.089746821243864e-18 3.089746821119748e-18 1.2411620052607291e-28
1.1192775983109025 1.0605539048293238e-25 3.1509389742725686e-18 3.1509389741258775e-18 1.4669125417314428e-28
1.1277040513999907 1.0731514694206747e-25 3.2123702728114945e-18 3.2123702726383407e-18 1.7315275787394962e-28
1.1361939428280308 1.0856408965506501e-25 3.27422181510332e-18 3.27422181489919e-18 2.041296242872056e-28
1.1447477501889525 1.0980180285567152e-25 3.3364813579960565e-18 3.3364813577557113e-18 2.4034567014649593e-28
1.1533659546722406 1.1102856003106151e-25 3.3991573430712048e-18 3.3991573427885707e-18 2.8263321906483357e-28
1.1707974979042381 1.1345321204617536e-25 3.525883955880294e-18 3.525883955490907e-18 3.8938748972431755e-28
1.1884924949847024 1.1582882062369049e-25 3.6541175237323946e-18 3.6541175231985746e-18 5.338209718760385e-28
1.2064549276569216 1.1817412131486577e-25 3.784451260949946e-18 3.784451260221673e-18 7.282721872834709e-28
1.2246888378427687 1.2046333841536865e-25 3.9160667632749135e-18 3.916066762286154e-18 9.887589427427855e-28
1.2431983285522175 1.226911138180799e-25 4.048768633064219e-18 4.048768631728214e-18 1.3360047278793716e-27
1.2619875648066055 1.2485663488269926e-25 4.182501778465315e-18 4.182501776668631e-18 1.7966839916456735e-27
1.3004222497298317 1.2896478267421655e-25 4.4516904222559204e-18 4.4516904190516815e-18 3.204238318001242e-27
1.3400274889804893 1.3277185738409671e-25 4.722687086759779e-18 4.722687081148662e-18 5.611114272702828e-27
1.3808389325824078 1.362639070045868e-25 4.9945146746683496e-18 4.994514665015751e-18 9.652599031508625e-27
1.4228933163050095 1.3945839073189798e-25 5.267280199770984e-18 5.267280183450887e-18 1.6320097230579785e-26
1.466228494730424 1.4243327485265864e-25 5.543480806407971e-18 5.5434807792748034e-18 2.713316650510014e-26
1.5108834753276823 1.4513028853566376e-25 5.820475467003379e-18 5.820475422625301e-18 4.4378077017746716e-26
1.5568984535646726 1.4750238322019425e-25 6.095772602486044e-18 6.0957725310072956e-18 7.147874898484188e-26
1.6043148490894465 1.4955423206200485e-25 6.368801943133012e-18 6.3688018295488175e-18 1.1358419445046582e-25
1.6531753430134553 1.5129243715658968e-25 6.639044370849849e-18 6.6390441929813004e-18 1.7786854816292363e-25
1.7035239163302658 1.5273828725380894e-25 6.9066203588788006e-18 6.906620084325227e-18 2.745535723033626e-25
1.755405889504358 1.5401353919372792e-25 7.176387567004615e-18 7.176387149057967e-18 4.179466472314716e-25
1.8088679632656115 1.5508835050631683e-25 7.446556294574694e-18 7.446555666897227e-18 6.2767746519981785e-25
1.8639582606462262 1.5594259814995722e-25 7.715612033905096e-18 7.715611103549822e-18 9.303552756898654e-25
1.9207263702978936 1.5659118658838607e-25 7.983663928521961e-18 7.983662567000994e-18 1.3615209667353438e-24
1.979223391128241 1.5706857187490684e-25 8.251892145585715e-18 8.251890177547935e-18 1.968037779023127e-24
2.039501978296691 1.5741593146790799e-25 8.52201408201238e-18 8.522011271182868e-18 2.8108295124105997e-24
2.1016163906111602 1.577482591217837e-25 8.800096915863376e-18 8.800092947508633e-18 3.968354742026134e-24
2.1656225393682647 1.5813225444135795e-25 9.090183672041387e-18 9.090178131975893e-18 5.540065495521031e-24
2.231578038680979 1.5857278236558999e-25 9.393126223581643e-18 9.393118573129197e-18 7.65045244644704e-24
2.299542257339062 1.5910980555387342e-25 9.711979852804215e-18 9.711969399235594e-18 1.0453568621024482e-23
2.369576372248914 1.5983156990707316e-25 1.0053162648661765e-17 1.0053148510505598e-17 1.4138156164526878e-23
2.4417434235010123 1.6084226448832453e-25 1.0424845771675082e-17 1.042482683917894e-17 1.8932496142740618e-23
2.5161083711144245 1.6232023734039519e-25 1.0841052428739402e-17 1.0841027318208742e-17 2.5110530660132105e-23
2.5927381535095444 1.6455733473925435e-25 1.132518581522646e-17 1.1325152817834069e-17 3.2997392387792943e-23
2.6717017477616296 1.6790210189223132e-25 1.1907306713821065e-17 1.1907263740698913e-17 4.297312215131155e-23
2.753070231689431 1.728792410148922e-25 1.263367122602041e-17 1.2633615748011836e-17 5.547800857452985e-23
2.836916847834745 1.8067745804870093e-25 1.3605672451795641e-17 1.360560143210949e-17 7.101968614751483e-23
2.9233170693905177 1.9391476205680275e-25 1.5047218492147613e-17 1.504712832896209e-17 9.016318552556999e-23
2.967498994190263 2.0515757543910573e-25 1.6160231258582775e-17 1.6160130131871913e-17 1.011267108615276e-22
3.0123486681368425 2.1828882317744824e-25 1.745445010053517e-17 1.7454336826720234e-17 1.1327381493550683e-22
3.0578761833420214 2.4766880880460786e-25 2.0102989452616786e-17 2.0102862705756515e-17 1.2674686027974183e-22
3.1040917844459814 2.855337998813639e-25 2.352672696415033e-17 2.3526585400458788e-17 1.4156369154312063e-22
3.127460860933648 3.2558582014017054e-25 2.7028802115938435e-17 2.7028652556976284e-17 1.4955896214903668e-22
3.1510058709225794 3.789532828879237e-25 3.169598985047971e-17 3.16958319117594e-17 1.5793872031787894e-22
3.162844764501044 4.286241053701966e-25 3.5985198407630634e-17 3.5985036114594386e-17 1.6229303623808878e-22
3.1747281389236908 4.863920715054566e-25 4.0988541160079846e-17 4.0988374411708846e-17 1.667483709958226e-22
3.1986289994194426 6.475353549535716e-25 5.497899400426233e-17 5.4978818012747687e-17 1.7599151465036953e-22
3.2227097969389145 1.0273762685940913e-24 8.788609378195699e-17 8.788590794677025e-17 1.8583518672820524e-22
3.2348180950136065 1.3875857279372063e-24 1.1914590519324878e-16 1.191457140916934e-16 1.911015553630702e-22
3.240889293275058 1.656884756010591e-24 1.425364478000863e-16 1.42536253920028e-16 1.9388005832126628e-22
3.2469718861334385 1.9684179830841405e-24 1.696544616360496e-16 1.6965426488051832e-16 1.967555312208099e-22
3.2714166318528037 3.6302040087635565e-24 3.152363732602301e-16 3.1523616458105148e-16 2.0867917861146085e-22
3.2744851364798273 3.7340752849363694e-24 3.245603972418745e-16 3.245601871466224e-16 2.100952519764831e-22
3.2775565192852394 3.8409299512635864e-24 3.341611904336279e-16 3.341609789141555e-16 2.115194723818243e-22
3.283707930232385 3.738123613433406e-24 3.258274079626414e-16 3.2582719387463576e-16 2.140880056319396e-22
3.2898708863219004 3.412167404048588e-24 2.979741688075007e-16 2.97973952361994e-16 2.1644550666127648e-22
3.29141343181113 3.335299709380844e-24 2.913981134593742e-16 2.9139789642132047e-16 2.1703805389090456e-22
3.292184975758714 3.2975297808178756e-24 2.8816576775490017e-16 2.8816555042009567e-16 2.1733480451651493e-22
3.295272960557952 3.0591237549306e-24 2.6758260305607897e-16 2.6758238456322844e-16 2.1849285048108973e-22
3.3076538914384823 2.2332435537248402e-24 1.960765159333922e-16 1.9607629277836584e-16 2.2315502635310455e-22
3.310756385682612 2.0651630127051014e-24 1.8148928789301627e-16 1.8148906356055161e-16 2.243324646789552e-22
3.313861789986515 1.9100851326962826e-24 1.6801828551303597e-16 1.6801805999835162e-16 2.255146843277553e-22
3.3200813396944477 1.692602491476914e-24 1.4916712955309042e-16 1.491669015044895e-16 2.2804860094319408e-22
3.345076488085796 1.304611576847602e-24 1.158395105426072e-16 1.158392712217593e-16 2.3932084789186675e-22
3.3482140837626964 1.3191528196362218e-24 1.1724052701666848e-16 1.172402861693079e-16 2.408473605604185e-22
3.3513546224236106 1.3338548125766134e-24 1.186583699807378e-16 1.186581275987648e-16 2.4238197302665826e-22
3.3576445397418455 1.44132830638635e-24 1.2845974812707982e-16 1.2845950253981047e-16 2.4558726932347164e-22
3.3702598118196083 1.8377580495728224e-24 1.6440731942723761e-16 1.644070671132084e-16 2.52314029278986e-22
3.382922481734668 1.92801126559058e-24 1.7312948871755564e-16 1.7312922982520588e-16 2.588923497396634e-22
3.389271646505754 1.9747682806874146e-24 1.7766093948348961e-16 1.7766067724852368e-16 2.6223496591073263e-22
3.395632727569191 2.02514765620864e-24 1.82535288875285e-16 1.82535023194912e-16 2.6568037300779987e-22
3.421196662673239 2.267037245791826e-24 2.0587619265859735e-16 2.0587591266787936e-16 2.7999071801009674e-22
3.4276182099114902 2.2182442703567584e-24 2.018232720706774e-16 2.018229888425214e-16 2.832281559721966e-22
3.4340518103208963 2.004520121284868e-24 1.8272025651637645e-16 1.827199702049588e-16 2.863114176504767e-22
3.4469541582030403 1.7001439885173113e-24 1.5555738896913413e-16 1.5555709669608503e-16 2.922730491176761e-22
3.472904465399547 1.6148083098906921e-24 1.4886179290036793e-16 1.48861486949508e-16 3.0595085988905773e-22
3.4990501388274233 1.4843142883770605e-24 1.3786228320955967e-16 1.3786196315543036e-16 3.200541292802098e-22
3.5253949054701885 1.0200258008829545e-24 9.545273192479177e-17 9.545239800409768e-17 3.3392069411207652e-22
3.5519380250092896 5.837037821646431e-25 5.5033523587762057e-17 5.5033175592455376e-17 3.4799530669016935e-22
3.578680990867387 4.1070450911497828e-25 3.901412674035966e-17 3.9013763287690777e-17 3.634526688833258e-22
3.605625307711299 3.4072526186263104e-25 3.26102674313499e-17 3.260988760777956e-17 3.7982357034526375e-22
3.660119384959845 2.896603249067247e-25 2.8141918299665976e-17 2.814150368535707e-17 4.1461430890160826e-22
3.715437065384467 2.5350184816049593e-25 2.5001178008324767e-17 2.5000726128119842e-17 4.518802049263662e-22
3.8285932144167436 2.351146314059851e-25 2.3893970042906932e-17 2.389343595966338e-17 5.340832435529246e-22
3.94519561050918 2.315442711018356e-25 2.4247781751234286e-17 2.4247154734352114e-17 6.270168821707309e-22
4.06534921144712 2.340572665706818e-25 2.5257445182550916e-17 2.5256713654579437e-17 7.315279714779684e-22
4.189162171576248 2.4009203286084795e-25 2.669773113066914e-17 2.6696882291055498e-17 8.48839613645597e-22
4.316745939156006 2.4869313461863327e-25 2.8496381644900545e-17 2.8495401875734056e-17 9.797691664909419e-22
4.448215356677963 2.5953860796546313e-25 3.064482948011954e-17 3.0643705448739516e-17 1.124031380026501e-21
4.58368876423945 2.726649679921819e-25 3.3175226562019146e-17 3.317394338112545e-17 1.2831808936900627e-21
4.723288106065518 2.8837356232152246e-25 3.6155078801621545e-17 3.615361913470472e-17 1.4596669168216494e-21
4.867139040275056 3.0726963501808193e-25 3.969747012777444e-17 3.9695818516571625e-17 1.651611202796937e-21
4.940699165968905 3.1867489364425656e-25 4.1793206571978724e-17 4.179145216279128e-17 1.754409187447976e-21
5.015371051989984 3.304843728402239e-25 4.399703707002386e-17 4.399517524493563e-17 1.8618250882357164e-21
5.091171501069577 3.449036631489895e-25 4.6610629346577e-17 4.660865344206528e-17 1.9759045117461784e-21
5.129500256944802 3.5230349794104065e-25 4.796908607128858e-17 4.796705126425763e-17 2.0348070309550298e-21
5.168117569889187 3.6001843129388565e-25 4.938858153347626e-17 4.938648618141005e-17 2.0953520662291802e-21
5.20702561229733 3.6949402507724664e-25 5.107008338375436e-17 5.10679228660776e-17 2.160517676769746e-21
5.246226572918644 3.792111621653064e-25 5.2807740832378555e-17 5.280551362397074e-17 2.2272084078167017e-21
5.265937586045735 3.8416272185876414e-25 5.369827815565428e-17 5.369601702227287e-17 2.261133381417464e-21
5.285722656980489 3.891776044298444e-25 5.460364637030901e-17 5.4601350921395835e-17 2.2954489131608116e-21
5.305582063971359 3.9425683368071784e-25 5.552412191504789e-17 5.55217917568962e-17 2.3301581516892863e-21
5.3255160863122235 3.9971496368328824e-25 5.650430541345515e-17 5.650193997180468e-17 2.365441650439413e-21
5.365609099470188 4.1331943731244156e-25 5.886732377474529e-17 5.886488516848734e-17 2.4386062579543024e-21
5.406003951863644 4.274422026787332e-25 6.13370932548814e-17 6.133457974735264e-17 2.513507528726286e-21
5.446702915881641 4.4210836226868285e-25 6.39192764653607e-17 6.391668628945139e-17 2.590175909320171e-21
5.487708281020852 4.579583226608364e-25 6.670930344136791e-17 6.67066345796047e-17 2.6688617632021195e-21
5.529022354014368 4.800080845671614e-25 7.0447620880096e-17 7.044486955337749e-17 2.7513267185343038e-21
5.570647458961463 5.033598156383567e-25 7.443096500950053e-17 7.442812922011867e-17 2.8357893818501614e-21
5.612585937458331 5.281074053682992e-25 7.867825048643195e-17 7.867532819862851e-17 2.9222878034517385e-21
5.654840148729818 5.553156380740863e-25 8.335461876012585e-17 8.335160761147123e-17 3.0111486546629697e-21
5.67608639626678 5.738568389627255e-25 8.646134597213712e-17 8.645828834153464e-17 3.057630602487431e-21
5.686739436050992 5.834144121382427e-25 8.806633356844863e-17 8.80632524809968e-17 3.081087451831135e-21
5.6974124697621304 5.931694122756166e-25 8.970689868638658e-17 8.970379399718782e-17 3.104689198764278e-21
5.718818669136295 6.132907343242008e-25 9.309838830947848e-17 9.309523597912465e-17 3.1523303538502256e-21
5.740305295436557 6.354740338174435e-25 9.682828355156688e-17 9.682508272994441e-17 3.200821622460456e-21
5.7835210386641895 6.93043157392407e-25 1.0639519938413412e-16 1.0639189771500745e-16 3.301669126653805e-21
5.827062130521658 7.593744217991931e-25 1.1745595663625524e-16 1.1745255089924328e-16 3.405737011989348e-21
5.8489554468988025 8.059214281901327e-25 1.2512395097357834e-16 1.2512048943290812e-16 3.461540670219212e-21
5.870931020387893 8.558758739405166e-25 1.3337891957103884e-16 1.3337540145904994e-16 3.518111988856474e-21
5.892989160043636 9.095121769679255e-25 1.4227008574247806e-16 1.422665102821262e-16 3.575460351897317e-21
5.915130176081913 9.70518715924603e-25 1.523833983590609e-16 1.5237976349613297e-16 3.6348629279507835e-21
5.95966208400165 1.1411254324758156e-24 1.8051963778874988e-16 1.8051587053630359e-16 3.767252446261479e-21
6.004529249263818 1.3870712764942386e-24 2.2107883950168317e-16 2.210749245024071e-16 3.91499927598709e-21
6.027089341400364 1.5580521506895046e-24 2.492637086853258e-16 2.4925970979327095e-16 3.998892054782003e-21
6.049734195844842 1.760119087331095e-24 2.8264921220539606e-16 2.8264512461833485e-16 4.087587061155606e-21
6.095279466722835 2.3438459509455086e-24 3.7922077378595e-16 3.792164735783253e-16 4.3002076246844235e-21
6.141167624020661 3.2422388914573496e-24 5.285248305769541e-16 5.285202609522887e-16 4.56962466544301e-21
6.164241091010745 3.8159490784694e-24 6.243837904775519e-16 6.24379055089725e-16 4.735387826824716e-21
6.187401249150058 4.46951042033445e-24 7.340703248365723e-16 7.340654179719175e-16 4.906864654830333e-21
6.1990139391386085 4.788623722325261e-24 7.879574364805238e-16 7.879524420962976e-16 4.9943842262220715e-21
6.204828454712694 4.956722797773183e-24 8.163827958290153e-16 8.163777571060015e-16 5.038723013774007e-21
6.210648424152782 5.079425365864246e-24 8.373768719120522e-16 8.373717945500831e-16 5.077361969135076e-21
6.233982942956859 5.496283025601582e-24 9.095029894572195e-16 9.094977735604388e-16 5.215896780688047e-21
6.239830258556775 5.549559453414938e-24 9.191803197592247e-16 9.191750818371858e-16 5.2379220386662665e-21
6.245683058788269 5.554158275154102e-24 9.208049101808959e-16 9.207996501507122e-16 5.2600301834839785e-21
6.257405133728602 5.542657884601024e-24 9.20622914118729e-16 9.206176137245608e-16 5.30039416838183e-21
6.269149208991335 5.4606089650283646e-24 9.086970480062642e-16 9.086917248324969e-16 5.3231737674571776e-21
6.280915325867298 5.2549247441344174e-24 8.761104743184534e-16 8.761051502460812e-16 5.324072372282995e-21
6.304513850009849 4.7477304516014545e-24 7.945241282335062e-16 7.945188222688645e-16 5.305964641648009e-21
6.32820103803542 4.1190871514110504e-24 6.919117112661786e-16 6.919064446401154e-16 5.2666260632398324e-21
6.3519772230701035 3.542584543520684e-24 5.973083536726612e-16 5.9730311966137e-16 5.234011291315944e-21
6.375842739491607 3.057596389084864e-24 5.174723944698108e-16 5.174671862198655e-16 5.208249945300453e-21
6.399797922933955 2.668881272150638e-24 4.533827040653111e-16 4.533774957940772e-16 5.208271233844169e-21
6.42384311029221 2.3457102908457657e-24 3.999804197365234e-16 3.999752062070308e-16 5.2135294923880835e-21
6.447978639727206 2.110195696735742e-24 3.6117339890083133e-16 3.6116815958515905e-16 5.23931567225032e-21
6.472204850670314 1.914005454610302e-24 3.288250226987723e-16 3.288197532413447e-16 5.269457427683109e-21
6.496522083828205 1.7864828580740097e-24 3.0806985594579884e-16 3.0806453934647e-16 5.316599328910376e-21
6.520930681187647 1.6790585026733572e-24 2.90632946549515e-16 2.9062757976254773e-16 5.366786967297178e-21
6.57002334288761 1.5691516701352216e-24 2.736536650472021e-16 2.7364817288673226e-16 5.492160469896348e-21
