Dust emission spectrum from A.P. Jones, M. Kohler, N. Ysard, M. Bocchio, and L. Verstraete (2017), A&A, 602A, 46J 
inside the DustPedia framework.

lambda    nu*dP/dnu     j_nu    j_nu(carb.) j_nu(sil)
 (um)   (erg s-1 H-1) (Jy cm2 sr-1 H-1)
0.9927057738263894 1.1117929120442378e-19 2.92963747181329e-12 2.9296373480293085e-12 1.2378398232402675e-19
1.0001793341362166 1.1304185769531813e-19 3.0011423535392623e-12 3.0011422046260568e-12 1.4891320597887818e-19
1.0077091589558085 1.1491260477963526e-19 3.0737766560868557e-12 3.0737764771838003e-12 1.7890305494966488e-19
1.0114953028030835 1.1585097543535141e-19 3.1105200004008877e-12 3.1105198044078107e-12 1.9599307750501112e-19
1.0152956718711033 1.1679130809658074e-19 3.1475489331615957e-12 3.1475487185182413e-12 2.1464335376985618e-19
1.0229392996569957 1.186768359598735e-19 3.222443087915205e-12 3.2224428307348248e-12 2.5718038091204686e-19
1.0267826658714554 1.1961989516208356e-19 3.260253567523227e-12 3.2602532861423295e-12 2.8138089752476903e-19
1.0306404723013447 1.2056476990169133e-19 3.2983523479320833e-12 3.298352040176944e-12 3.0775514005957473e-19
1.03451277320114 1.2151143765306838e-19 3.3367406298428744e-12 3.3367402933545436e-12 3.364883315038879e-19
1.0383996230291617 1.2245987684213424e-19 3.375419641190454e-12 3.375419273409895e-12 3.67780559417571e-19
1.0403485208654093 1.2293475424956658e-19 3.3948685618437098e-12 3.394868177390533e-12 3.8445317639698353e-19
1.0423010764483396 1.2341006686859826e-19 3.414390638218565e-12 3.414390236370676e-12 4.0184788936712094e-19
1.0462171883269815 1.243619881280079e-19 3.4536549065686214e-12 3.453654467645066e-12 4.389235552785882e-19
1.0471985131304309 1.2460023674719957e-19 3.4635169508494543e-12 3.4635165021578603e-12 4.486915931223854e-19
1.048180758391296 1.2483859212135466e-19 3.473397427561713e-12 3.4733969688943077e-12 4.586674055911199e-19
1.0501480137395462 1.253156220335885e-19 3.4932137623818517e-12 3.493213283122621e-12 4.792592315266901e-19
1.0521189612883777 1.257930757039215e-19 3.5131040804952504e-12 3.513103579761654e-12 5.007335966322032e-19
1.0531058218030118 1.2603164807589535e-19 3.5230682952095972e-12 3.5230677833959513e-12 5.118136455868386e-19
1.0540936079674168 1.2626930114523655e-19 3.53302238932289e-12 3.53302186619245e-12 5.231304415318814e-19
1.058054026499678 1.2722091914817065e-19 3.57302295434666e-12 3.5730223835100933e-12 5.708365671903092e-19
1.0590464539527713 1.274590738994794e-19 3.5830692517671728e-12 3.5830686683696737e-12 5.833974994565293e-19
1.06003981227728 1.276973282938251e-19 3.59313405573966e-12 3.5931334595172736e-12 5.962223859114434e-19
1.0620293250338977 1.2817413513212722e-19 3.6133192726204693e-12 3.6133186499352867e-12 6.226851820138028e-19
1.0660195594769086 1.2912893509752768e-19 3.6539127749898324e-12 3.6539120959732e-12 6.790166330136941e-19
1.070024785945596 1.3008530617840033e-19 3.694804928734124e-12 3.694804188536599e-12 7.401975243294475e-19
1.0740450607676866 1.3104323666256292e-19 3.73599723874408e-12 3.73599643212148e-12 8.066226009457417e-19
1.07808044048254 1.3200271601149999e-19 3.777491248710217e-12 3.777490369993461e-12 8.78716756426677e-19
1.0861967418109137 1.339248319166299e-19 3.861348844978979e-12 3.861347803203273e-12 1.0417757050819525e-18
1.0902777775684922 1.3488414983242287e-19 3.903619800518995e-12 3.903618666757729e-12 1.133761265894651e-18
1.0943741465085532 1.3584493027646059e-19 3.9461963722200316e-12 3.946195138758091e-12 1.2334619395488028e-18
1.1026131145906286 1.3777086360739293e-19 4.032273368875142e-12 4.032271910378739e-12 1.4584964025826562e-18
1.1109141095355224 1.3970261467870284e-19 4.119594315611778e-12 4.119592593285924e-12 1.7223258544368465e-18
1.1192775983109025 1.4163869364769662e-19 4.208130091712807e-12 4.208128060487865e-12 2.0312249416910694e-18
1.1277040513999907 1.4357226069653548e-19 4.2976902646452014e-12 4.297687872233381e-12 2.3924118216021804e-18
1.1361939428280308 1.4551150290862658e-19 4.3885315916676814e-12 4.388528777488833e-12 2.8141788486442782e-18
1.1447477501889525 1.4745649311100205e-19 4.4806717884862125e-12 4.480668482447084e-12 3.306039127331189e-18
1.1533659546722406 1.4940799071275847e-19 4.574149827780413e-12 4.574145948883453e-12 3.878896958630835e-18
1.1707974979042381 1.533364344072961e-19 4.765369478552389e-12 4.765364159220041e-12 5.319332348267945e-18
1.1884924949847024 1.5729234924402296e-19 4.962190986895567e-12 4.9621837289285856e-12 7.257966980638007e-18
1.2064549276569216 1.6130224623390189e-19 5.165602099358772e-12 5.165592245331705e-12 9.85402706542576e-18
1.2246888378427687 1.6534149636614877e-19 5.374982521877451e-12 5.374969209053372e-12 1.3312824079326891e-17
1.2431983285522175 1.6940729170431884e-19 5.590387987526223e-12 5.59037008937734e-12 1.789814888110657e-17
1.2619875648066055 1.735061343150811e-19 5.812183838121554e-12 5.812159890912451e-12 2.3947209101630074e-17
1.3004222497298317 1.8178064195062142e-19 6.274822675949816e-12 6.274780412296185e-12 4.226365363088242e-17
1.3400274889804893 1.9019317261675292e-19 6.7651598614647424e-12 6.765086643912623e-12 7.321755211993767e-17
1.3808389325824078 1.9877711832075925e-19 7.285826865421528e-12 7.285702297802629e-12 1.2456761889787072e-16
1.4228933163050095 2.0760409255094619e-19 7.841112466206785e-12 7.840904231362862e-12 2.0823484392104883e-16
1.466228494730424 2.1682159982560758e-19 8.438662793446893e-12 8.43832059489459e-12 3.421985523031941e-16
1.5108834753276823 2.264130289316381e-19 9.080333909642074e-12 9.079780850481967e-12 5.530591601051785e-16
1.5568984535646726 2.363695883577417e-19 9.768352411100311e-12 9.76747238595702e-12 8.800251432910002e-16
1.6043148490894465 2.467427157626468e-19 1.0507596247437113e-11 1.050621501427767e-11 1.3812331594427903e-15
1.6531753430134553 2.575848279600552e-19 1.1303387890529767e-11 1.1301252064223338e-11 2.1358263064298026e-15
1.7035239163302658 2.6895470511988614e-19 1.2161770800208619e-11 1.215851623886186e-11 3.2545613467586016e-15
1.755405889504358 2.8103633192771015e-19 1.3095119097196457e-11 1.3090229613587994e-11 4.889483608464802e-15
1.8088679632656115 2.9381315748857085e-19 1.4107418192163114e-11 1.4100173330701461e-11 7.244861461650483e-15
1.8639582606462262 3.0725856204056912e-19 1.520231089468507e-11 1.519171920846735e-11 1.0591686217717548e-14
1.9207263702978936 3.21384059075395e-19 1.6385483599320922e-11 1.6370199855654023e-11 1.528374366689731e-14
1.979223391128241 3.362155787723279e-19 1.766371630286763e-11 1.7641939716988188e-11 2.177658587943988e-14
2.039501978296691 3.5176630479233973e-19 1.9043545180361392e-11 1.901289749586595e-11 3.064768449543142e-14
2.1016163906111602 3.681485930791773e-19 2.0537426635145213e-11 2.0494804994813998e-11 4.2621640331211986e-14
2.1656225393682647 3.853909374010639e-19 2.2154078678585058e-11 2.2095487277518277e-11 5.859140106677993e-14
2.231578038680979 4.0340270041075386e-19 2.389573057472033e-11 2.3816088756933196e-11 7.964181778713688e-14
2.299542257339062 4.221468269012106e-19 2.5767622953958012e-11 2.5660549504246014e-11 1.0707344971200155e-13
2.369576372248914 4.416201102816306e-19 2.7777233247239117e-11 2.7634806095295134e-11 1.4242715194398155e-13
2.4417434235010123 4.618291786017451e-19 2.993304014401054e-11 2.9745540145814375e-11 1.8749999819617183e-13
2.5161083711144245 4.828554887665607e-19 3.2248977422608607e-11 3.200460985101244e-11 2.443675715961627e-13
2.5927381535095444 5.048763666693539e-19 3.474666550298035e-11 3.4431272751585535e-11 3.1539275139480883e-13
2.6717017477616296 5.280262494818722e-19 3.744664560283366e-11 3.704343373865895e-11 4.032118641747132e-13
2.753070231689431 5.52532796105606e-19 4.037799822935757e-11 3.986727008507434e-11 5.107281442832359e-13
2.836916847834745 5.79142049493861e-19 4.361151143908151e-11 4.297039508846101e-11 6.411163506205079e-13
2.9233170693905177 6.095570327604511e-19 4.72998432820959e-11 4.650222153168186e-11 7.976217504140484e-13
2.967498994190263 6.278310966336091e-19 4.94541607406558e-11 4.856927049431767e-11 8.848902463381192e-13
3.0123486681368425 6.472726707397435e-19 5.175614751325562e-11 5.0775692595719915e-11 9.804549175357008e-13
3.0578761833420214 6.7844512139591775e-19 5.5068602241154314e-11 5.398330884300492e-11 1.0852933981493939e-12
3.1040917844459814 7.145998024882243e-19 5.887987498769492e-11 5.768094198496889e-11 1.1989330027260506e-12
3.127460860933648 7.475566009928063e-19 6.205908915197614e-11 6.079948725264122e-11 1.2596018993349049e-12
3.1510058709225794 7.891552641914502e-19 6.600564864789023e-11 6.46829361733652e-11 1.3227124745250448e-12
3.162844764501044 8.265409777380734e-19 6.939236665248393e-11 6.803704338428293e-11 1.355323268201007e-12
3.1747281389236908 8.686984248385103e-19 7.320571865405162e-11 7.18171559304006e-11 1.388562723651025e-12
3.1986289994194426 9.823493986650694e-19 8.340638281159178e-11 8.194925266147743e-11 1.4571301501143506e-12
3.2227097969389145 1.2444434790188593e-18 1.0645493734545985e-10 1.0492528022287626e-10 1.529657122583566e-12
3.2348180950136065 1.4898277468161538e-18 1.2792497926619046e-10 1.2635664968194345e-10 1.5683295842470315e-12
3.240889293275058 1.673048105604704e-18 1.4392692859685757e-10 1.4233819995545422e-10 1.5887286414033581e-12
3.2469718861334385 1.885379751960876e-18 1.6249754348274435e-10 1.608877078848111e-10 1.6098355979332753e-12
3.2714166318528037 2.996874264026984e-18 2.6023985754744383e-10 2.585429032677095e-10 1.6969542797343184e-12
3.2744851364798273 3.0662607586530437e-18 2.6651492911519104e-10 2.648077383493455e-10 1.7071907658455812e-12
3.2775565192852394 3.137481042692678e-18 2.7296108325126195e-10 2.712436075742475e-10 1.7174756770144205e-12
3.283707930232385 3.0688642266120302e-18 2.6749251222001823e-10 2.6575670529098335e-10 1.7358069290349015e-12
3.2898708863219004 2.8510698850733047e-18 2.4897523439465953e-10 2.472228014703819e-10 1.752432924277656e-12
3.29141343181113 2.79959043301932e-18 2.4459432186745964e-10 2.428377154834224e-10 1.7566063840372651e-12
3.292184975758714 2.774277566022193e-18 2.4243960719581296e-10 2.406809115359878e-10 1.7586956598251759e-12
3.295272960557952 2.6166990606648537e-18 2.288835634513199e-10 2.2711675157936615e-10 1.7668118719538055e-12
3.3076538914384823 2.0663306661140455e-18 1.8142173391800488e-10 1.7962235122734058e-10 1.7993826906642792e-12
3.310756385682612 1.953048181543433e-18 1.7163648656711794e-10 1.698288998188738e-10 1.8075867482441229e-12
3.313861789986515 1.8480316491306726e-18 1.6255982727976992e-10 1.607440119191995e-10 1.8158153605704275e-12
3.3200813396944477 1.7014654190853809e-18 1.499482092675828e-10 1.4811466846514043e-10 1.833540802442378e-12
3.345076488085796 1.4463639587923044e-18 1.284260357843966e-10 1.265134305831175e-10 1.912605201279082e-12
3.3482140837626964 1.4568665891294152e-18 1.2947992390268384e-10 1.275566049420326e-10 1.9233189606512317e-12
3.3513546224236106 1.4674609658110028e-18 1.3054383773383238e-10 1.2860975974882495e-10 1.9340779850074534e-12
3.3576445397418455 1.541280203061503e-18 1.373680554258559e-10 1.3541147260254493e-10 1.9565828233109397e-12
3.3702598118196083 1.80795806759817e-18 1.6174138897106506e-10 1.597376058288485e-10 2.0037831422165067e-12
3.382922481734668 1.871989418937211e-18 1.680988989895749e-10 1.6604933354018397e-10 2.04956544939095e-12
3.389271646505754 1.904966969518634e-18 1.7138123231951386e-10 1.6930847989303224e-10 2.0727524264815918e-12
3.395632727569191 1.9413173774417784e-18 1.749793044490174e-10 1.7288265626415618e-10 2.0966481848612007e-12
3.421196662673239 2.117695449344056e-18 1.9231403327434634e-10 1.9011856967817008e-10 2.1954635961762757e-12
3.4276182099114902 2.086214743009334e-18 1.898107847286424e-10 1.8759337352983332e-10 2.2174111988091e-12
3.4340518103208963 1.9428489000035038e-18 1.770986709545483e-10 1.7486055207728135e-10 2.2381188772669417e-12
3.4469541582030403 1.737037165228766e-18 1.5893298908228434e-10 1.566552274801181e-10 2.277761602166262e-12
3.472904465399547 1.6802477569430985e-18 1.5489435624238426e-10 1.5252511530980643e-10 2.3692409325778434e-12
3.4990501388274233 1.5944386497117881e-18 1.480905724670861e-10 1.4562794718868822e-10 2.462625278397873e-12
3.5253949054701885 1.2897920006967292e-18 1.206971137148449e-10 1.1814413411150678e-10 2.552979603338149e-12
3.5519380250092896 9.997733710511953e-19 9.426194086685353e-11 9.16184421623466e-11 2.643498704506929e-12
3.578680990867387 8.876287319499036e-19 8.431867456557059e-11 8.157599884975788e-11 2.7426757158126994e-12
3.605625307711299 8.454811061237562e-19 8.091963838585312e-11 7.807268612028464e-11 2.8469522655684905e-12
3.660119384959845 8.210306747246708e-19 7.97671485629301e-11 7.670192726494821e-11 3.065221297981892e-12
3.715437065384467 8.055292047785671e-19 7.944391406102424e-11 7.614976643042274e-11 3.2941476306014905e-12
3.8285932144167436 8.106095294097998e-19 8.237972982110031e-11 7.859765474596428e-11 3.78207507513603e-12
3.94519561050918 8.243746031584237e-19 8.633016642357066e-11 8.202212971778757e-11 4.308036705783117e-12
4.06534921144712 8.408471019257738e-19 9.073698029103308e-11 8.586698163367508e-11 4.869998657358063e-12
4.189162171576248 8.582257577960474e-19 9.543290653186036e-11 8.996530147170544e-11 5.46760506015491e-12
4.316745939156006 8.757002723713551e-19 1.0034168899074948e-10 9.424468380320466e-11 6.097005187544854e-12
4.448215356677963 8.928421731204313e-19 1.0542168027492818e-10 9.867407245588744e-11 6.747607819040743e-12
4.58368876423945 9.095334775271394e-19 1.1066320475598894e-10 1.0324442257708342e-10 7.418782178905508e-12
4.723288106065518 9.258440082572914e-19 1.1607847407048252e-10 1.0796504178511075e-10 8.113432285371783e-12
4.867139040275056 9.418130844560645e-19 1.2167683534346488e-10 1.1286670358088906e-10 8.810131762575834e-12
4.940699165968905 9.501278341929552e-19 1.2460626687630056e-10 1.1544511717451525e-10 9.161149701785323e-12
5.015371051989984 9.579837476483522e-19 1.275353690570478e-10 1.180227684779772e-10 9.5126005790706e-12
5.091171501069577 9.668800188059137e-19 1.3066514216668705e-10 1.2079249524745201e-10 9.872646919235056e-12
5.129500256944802 9.711353150309498e-19 1.322282457762701e-10 1.2217594774621054e-10 1.0052298030059555e-11
5.168117569889187 9.75400282220108e-19 1.3380880582438593e-10 1.2357508218293882e-10 1.0233723641447071e-11
5.20702561229733 9.807345610066072e-19 1.3555346611482046e-10 1.2511992064962488e-10 1.0433545465195545e-11
5.246226572918644 9.859713708690412e-19 1.3730323844818737e-10 1.266696482060153e-10 1.0633590242172078e-11
5.265937586045735 9.885535377794238e-19 1.3818004669112995e-10 1.2744638527185263e-10 1.073366141927731e-11
5.285722656980489 9.911117374854993e-19 1.390581426349173e-10 1.2822439621254445e-10 1.0833746422372876e-11
5.305582063971359 9.936461292906881e-19 1.3993753337914534e-10 1.2900370222643945e-10 1.0933831152705893e-11
5.3255160863122235 9.963676571185705e-19 1.408480230090277e-10 1.2981318896130218e-10 1.1034834047725509e-11
5.365609099470188 1.0033685013597498e-18 1.4290549415965586e-10 1.3166153263329234e-10 1.1243961526363512e-11
5.406003951863644 1.0103565491474416e-18 1.449841253094874e-10 1.335308936636043e-10 1.1453231645883107e-11
5.446702915881641 1.0173387345188456e-18 1.470851071374014e-10 1.3542257598418368e-10 1.166253115321767e-11
5.487708281020852 1.0247180878128632e-18 1.492673601051523e-10 1.373945717462641e-10 1.1872788358888145e-11
5.529022354014368 1.0356172946434728e-18 1.5199072035568214e-10 1.3989873930972145e-10 1.2091981045960703e-11
5.570647458961463 1.0467775609485875e-18 1.547852283617166e-10 1.4247397695252228e-10 1.2311251409194323e-11
5.612585937458331 1.0582300791434347e-18 1.5765673874817004e-10 1.451262541911482e-10 1.2530484557021824e-11
5.654840148729818 1.0705976993580138e-18 1.6070007209764437e-10 1.4794924150249104e-10 1.2750830595153315e-11
5.67608639626678 1.0795237440343333e-18 1.626487123283233e-10 1.4978230154018552e-10 1.286641078813779e-11
5.686739436050992 1.0840733457296662e-18 1.636407378552568e-10 1.507165255672371e-10 1.2924212288019724e-11
5.6974124697621304 1.0886828404202611e-18 1.6464497198619719e-10 1.516629530326782e-10 1.2982018953518979e-11
5.718818669136295 1.098088279694238e-18 1.6669133143469263e-10 1.5359369098361358e-10 1.3097640451079012e-11
5.740305295436557 1.108484541762014e-18 1.6890171715984713e-10 1.5568746886326845e-10 1.3214248296578704e-11
5.7835210386641895 1.1361826350186723e-18 1.7442546932348795e-10 1.6097038417982966e-10 1.3455085143658327e-11
5.827062130521658 1.1674959075319073e-18 1.8058199585281171e-10 1.6688350777411321e-10 1.3698488078698483e-11
5.8489554468988025 1.190296387085697e-18 1.8480038074704417e-10 1.7096957021214942e-10 1.3830810534894802e-11
5.870931020387893 1.2143939802066453e-18 1.8925005593135003e-10 1.7528672509835983e-10 1.396333083299021e-11
5.892989160043636 1.2398930563870585e-18 1.9394978529233125e-10 1.7985375139890925e-10 1.4096033893422014e-11
5.915130176081913 1.2688732331761359e-18 1.9922873426920084e-10 1.8499484773456162e-10 1.423388653463917e-11
5.95966208400165 1.3514475903436884e-18 2.1379142253451775e-10 1.992384656107003e-10 1.4552956923817472e-11
6.004529249263818 1.4704570360697707e-18 2.343693078938469e-10 2.1945447670132643e-10 1.4914831192520443e-11
6.027089341400364 1.5535752707752423e-18 2.48547478686045e-10 2.3342109334313053e-10 1.5126385342914454e-11
6.049734195844842 1.6509189512605265e-18 2.651132780431968e-10 2.4976225596619745e-10 1.5351022076999302e-11
6.095279466722835 1.9324430012554567e-18 3.126581462991271e-10 2.9674666408630143e-10 1.5911482212825648e-11
6.141167624020661 2.3619413942524256e-18 3.8502550768825096e-10 3.6837634929174966e-10 1.664915839650132e-11
6.164241091010745 2.635430521001734e-18 4.312217129750903e-10 4.1410465031844435e-10 1.7117062656645944e-11
6.187401249150058 2.9424225705318644e-18 4.8326212247541e-10 4.656655541411838e-10 1.759656833422614e-11
6.1990139391386085 3.0912017093536438e-18 5.086504005714121e-10 4.908100177197051e-10 1.7840382851707174e-11
6.204828454712694 3.169195007012146e-18 5.219731637028945e-10 5.040097353035645e-10 1.796342839933012e-11
6.210648424152782 3.225282980993464e-18 5.317092346322838e-10 5.13642047696054e-10 1.8067186936229913e-11
6.233982942956859 3.412135121639353e-18 5.646265083343841e-10 5.462021205949143e-10 1.842438773946953e-11
6.239830258556775 3.4338552851137587e-18 5.687536507128525e-10 5.50283137908642e-10 1.8470512804210518e-11
6.245683058788269 3.4323104926046552e-18 5.690310211348967e-10 5.505143450996331e-10 1.8516676035263684e-11
6.257405133728602 3.419278165479132e-18 5.679343546769408e-10 5.493388848366714e-10 1.859546984026946e-11
6.269149208991335 3.372552018129285e-18 5.612245965145267e-10 5.426099052449485e-10 1.861469126957817e-11
6.280915325867298 3.267137246974271e-18 5.447029791064304e-10 5.261425984312234e-10 1.8560380675207137e-11
6.304513850009849 3.012102623798661e-18 5.040699415688696e-10 4.856844962862551e-10 1.838544528261455e-11
6.32820103803542 2.703057614207192e-18 4.5405138341306606e-10 4.359114044517761e-10 1.8139978961290018e-11
6.3519772230701035 2.421566729654026e-18 4.0829570016716e-10 3.9037850408018153e-10 1.7917196086978473e-11
6.375842739491607 2.1841379071176856e-18 3.696469150353579e-10 3.519291202006841e-10 1.7717794834673778e-11
6.399797922933955 1.995606980613359e-18 3.3900859456105025e-10 3.214068628179537e-10 1.7601731743096576e-11
6.42384311029221 1.8380877000567844e-18 3.134228010383036e-10 2.9592039901989646e-10 1.750240201840711e-11
6.447978639727206 1.7232689135697817e-18 2.949484219387467e-10 2.7748064987691724e-10 1.7467772061829455e-11
6.472204850670314 1.627004872403795e-18 2.7951848977782505e-10 2.6207257140841383e-10 1.7445918369411263e-11
