Dust emission spectrum from A.P. Jones, M. Kohler, N. Ysard, M. Bocchio, and L. Verstraete (2017), A&A, 602A, 46J 
inside the DustPedia framework.

lambda    nu*dP/dnu     j_nu    j_nu(carb.) j_nu(sil)
 (um)   (erg s-1 H-1) (Jy cm2 sr-1 H-1)
0.9927057738263894 1.8637588011721445e-19 4.91111030047516e-12 4.911110179429873e-12 1.2104528791732857e-19
1.0001793341362166 1.8949815217762505e-19 5.030976507397341e-12 5.030976361778809e-12 1.4561853281809488e-19
1.0077091589558085 1.9263412985367194e-19 5.1527357912154385e-12 5.152735616270578e-12 1.7494486272856388e-19
1.0114953028030835 1.9420713960140025e-19 5.214329786009457e-12 5.214329594352685e-12 1.916567721524377e-19
1.0152956718711033 1.957834359635481e-19 5.276402457006291e-12 5.2764022471118756e-12 2.098944150027574e-19
1.0229392996569957 1.989441721888394e-19 5.401949482101961e-12 5.4019492306116405e-12 2.51490319423537e-19
1.0267826658714554 2.0052503100912907e-19 5.465332057341952e-12 5.465331782186548e-12 2.7515540472889523e-19
1.0306404723013447 2.0210893023289281e-19 5.529197833789022e-12 5.529197532842899e-12 3.0094612273043864e-19
1.03451277320114 2.0369583190421676e-19 5.5935488178900776e-12 5.5935484888464784e-12 3.29043598396202e-19
1.0383996230291617 2.0528569965098397e-19 5.658387061345173e-12 5.658386701701681e-12 3.596434923911395e-19
1.0403485208654093 2.060817348784769e-19 5.690989559298023e-12 5.690989183350794e-12 3.75947231249092e-19
1.0423010764483396 2.0687849872156145e-19 5.723714662886593e-12 5.723714269929501e-12 3.929570898768255e-19
1.0462171883269815 2.08474196021136e-19 5.789533770079638e-12 5.789533340867173e-12 4.2921246452806697e-19
1.0471985131304309 2.0887356947667995e-19 5.806065601100646e-12 5.806065162336261e-12 4.387643866022389e-19
1.048180758391296 2.092731216265621e-19 5.8226283232104e-12 5.822627874690914e-12 4.485194863317527e-19
1.0501480137395462 2.1007276014767185e-19 5.855846581144529e-12 5.8558461124888085e-12 4.686557224773141e-19
1.0521189612883777 2.108731079295406e-19 5.8891888268766616e-12 5.889188337221689e-12 4.896549718004967e-19
1.0531058218030118 2.1127302245804266e-19 5.905891880480731e-12 5.905891379990855e-12 5.004898770174024e-19
1.0540936079674168 2.1167139561517221e-19 5.92257795920999e-12 5.922577447653697e-12 5.115562912476666e-19
1.058054026499678 2.1326657121085167e-19 5.989630946178688e-12 5.989630387971759e-12 5.582069289741906e-19
1.0590464539527713 2.136657838495999e-19 6.006471542936255e-12 6.0064709724463025e-12 5.70489953272881e-19
1.06003981227728 2.1406516320864652e-19 6.023343153293287e-12 6.023342570262194e-12 5.830310918297131e-19
1.0620293250338977 2.1486442059434308e-19 6.057179563830501e-12 6.057178954922097e-12 6.089084041698731e-19
1.0660195594769086 2.1646491999325216e-19 6.125226200488039e-12 6.1252255364945074e-12 6.6399353374046375e-19
1.070024785945596 2.1806804751854693e-19 6.193773304926406e-12 6.193772581105593e-12 7.238208107864428e-19
1.0740450607676866 2.196737831975374e-19 6.262823388312473e-12 6.262822599536227e-12 7.887762466432624e-19
1.07808044048254 2.212821090063085e-19 6.332379026160706e-12 6.3323781668853706e-12 8.592753341948557e-19
1.0861967418109137 2.2450403273494793e-19 6.472947362247684e-12 6.472946343521046e-12 1.018726638126961e-18
1.0902777775684922 2.2611206660086364e-19 6.543804749601734e-12 6.543803640924696e-12 1.1086770378779051e-18
1.0943741465085532 2.2772254422729737e-19 6.615174199535027e-12 6.6151729933631706e-12 1.2061718552317973e-18
1.1026131145906286 2.3095080348930983e-19 6.7594609632706695e-12 6.759459537043191e-12 1.4262274784056448e-18
1.1109141095355224 2.341887776012254e-19 6.9058317856462665e-12 6.90583010142651e-12 1.684219759484186e-18
1.1192775983109025 2.374339645731479e-19 7.054237690162324e-12 7.054235703877804e-12 1.9862845198197376e-18
1.1277040513999907 2.4067489342846563e-19 7.2043592642056785e-12 7.2043569247254645e-12 2.339480216467767e-18
1.1361939428280308 2.439252832014416e-19 7.356626726673375e-12 7.356623974757637e-12 2.7519157373149337e-18
1.1447477501889525 2.47185249917967e-19 7.51106955326548e-12 7.511066320371769e-12 3.2328937114514016e-18
1.1533659546722406 2.504560599140498e-19 7.6677528280593e-12 7.667749034982118e-12 3.793077184494365e-18
1.1707974979042381 2.570401138733528e-19 7.988258747181503e-12 7.988253545538257e-12 5.201643246042783e-18
1.1884924949847024 2.636698587134726e-19 8.318142635114464e-12 8.318135537728464e-12 7.097385997536003e-18
1.2064549276569216 2.703896529285011e-19 8.65905708955215e-12 8.65904745354335e-12 9.636008802474012e-18
1.2246888378427687 2.771581103158861e-19 9.009958367895046e-12 9.009945349614381e-12 1.3018280664590331e-17
1.2431983285522175 2.8397040397893175e-19 9.370935095211827e-12 9.3709175930557e-12 1.7502156125738394e-17
1.2619875648066055 2.908372912912774e-19 9.742593889484655e-12 9.742570472102487e-12 2.341738216932967e-17
1.3004222497298317 3.0469672049340944e-19 1.0517719986702096e-11 1.0517678658122859e-11 4.132857924054218e-17
1.3400274889804893 3.187818289876319e-19 1.1339050736469406e-11 1.133897913884013e-11 7.159762927775521e-17
1.3808389325824078 3.331461590080656e-19 1.22108885364572e-11 1.2210766724870504e-11 1.2181158669785415e-16
1.4228933163050095 3.4790644482607393e-19 1.3140268710887596e-11 1.314006508319552e-11 2.0362769207782084e-16
1.466228494730424 3.6330550852420593e-19 1.4139793636350773e-11 1.4139459008869005e-11 3.346274817690458e-16
1.5108834753276823 3.793096368529847e-19 1.52122789665524e-11 1.5211738143709145e-11 5.408228432577504e-16
1.5568984535646726 3.9589645791395844e-19 1.636105620049926e-11 1.6360195645725984e-11 8.605547732767611e-16
1.6043148490894465 4.131423480789033e-19 1.7593763499414416e-11 1.759241282574626e-11 1.350673668165398e-15
1.6531753430134553 4.311227791199685e-19 1.8918614265557174e-11 1.8916525693955667e-11 2.088571601505329e-15
1.7035239163302658 4.4992076583878815e-19 2.0344813190557912e-11 2.034163063569203e-11 3.1825548658773217e-15
1.755405889504358 4.698255326421242e-19 2.189190722299542e-11 2.18871259181768e-11 4.7813048186186964e-15
1.8088679632656115 4.907861038777326e-19 2.3565060426454552e-11 2.355797585601916e-11 7.08457043538194e-15
1.8639582606462262 5.127300509737141e-19 2.5368476595685395e-11 2.5358119248283224e-11 1.0357347402166814e-14
1.9207263702978936 5.356438410086974e-19 2.7309330142806753e-11 2.7294384548733273e-11 1.494559407348408e-14
1.979223391128241 5.595325627599648e-19 2.9396093086754816e-11 2.937479830322835e-11 2.1294783526459452e-14
2.039501978296691 5.843743401529241e-19 3.163622836336093e-11 3.1606258752397546e-11 2.996961096337964e-14
2.1016163906111602 6.103074047951989e-19 3.404642523833184e-11 3.400474659277095e-11 4.167864556090451e-14
2.1656225393682647 6.373234275769242e-19 3.663633985132135e-11 3.657904477260072e-11 5.72950787206289e-14
2.231578038680979 6.652094433276196e-19 3.940396436942826e-11 3.932608461000132e-11 7.787975942693684e-14
2.299542257339062 6.938371590565383e-19 4.235145965031297e-11 4.2246755178010855e-11 1.0470447230210915e-13
2.369576372248914 7.231305152846177e-19 4.548380955397935e-11 4.534453357262358e-11 1.3927598135577198e-13
2.4417434235010123 7.530270254558952e-19 4.880676498340893e-11 4.8623413382983404e-11 1.83351600425517e-13
2.5161083711144245 7.835865381247155e-19 5.233421834179635e-11 5.2095257350994746e-11 2.3896099080158987e-13
2.5927381535095444 8.150293963716691e-19 5.609205674974481e-11 5.5783641996213234e-11 3.0841475353158725e-13
2.6717017477616296 8.475059785840836e-19 6.01035574603767e-11 5.970926657334618e-11 3.942908870305219e-13
2.753070231689431 8.813279517350351e-19 6.440569451345102e-11 6.390626612125066e-11 4.994283922003661e-13
2.836916847834745 9.176790228304712e-19 6.910458191829237e-11 6.847765013121978e-11 6.269317870726092e-13
2.9233170693905177 9.593642183639254e-19 7.444385798251801e-11 7.366388344449368e-11 7.799745380243099e-13
2.967498994190263 9.85047829099907e-19 7.759206885218982e-11 7.672675661524103e-11 8.65312236948793e-13
3.0123486681368425 1.0123904744770228e-18 8.095109388469097e-11 7.999233132466598e-11 9.5876256002497e-13
3.0578761833420214 1.0590403710606303e-18 8.596107645562805e-11 8.489979494418107e-11 1.0612815114469795e-12
3.1040917844459814 1.113757515394707e-18 9.176871172466734e-11 9.059630486084004e-11 1.1724068638272673e-12
3.127460860933648 1.165934700131517e-18 9.679112645751442e-11 9.555939298357357e-11 1.2317334739408603e-12
3.1510058709225794 1.2325203955978256e-18 1.0308910283522144e-10 1.0179565509420748e-10 1.2934477410139745e-12
3.162844764501044 1.2935716828858317e-18 1.0860199666776845e-10 1.0727665963998568e-10 1.325337027782811e-12
3.1747281389236908 1.36260339463985e-18 1.1482737609844745e-10 1.1346953503113044e-10 1.3578410673170251e-12
3.1986289994194426 1.549770383936186e-18 1.315832656774704e-10 1.3015837422348642e-10 1.424891453983997e-12
3.2227097969389145 1.9855735425440547e-18 1.6985432494931877e-10 1.6835851116677915e-10 1.4958137825396217e-12
3.2348180950136065 2.3950138746810517e-18 2.056493449766712e-10 2.0411571435249633e-10 1.5336306241748534e-12
3.240889293275058 2.7011374145393794e-18 2.3237013358452988e-10 2.3081655522802032e-10 1.5535783565096073e-12
3.2469718861334385 3.056040594830791e-18 2.6339472932551867e-10 2.618205109994245e-10 1.574218326094157e-12
3.2714166318528037 4.9150963437289746e-18 4.268126920364095e-10 4.251532825109082e-10 1.6594095255013724e-12
3.2744851364798273 5.030935189489982e-18 4.372815754910037e-10 4.3561215595947946e-10 1.6694195315242519e-12
3.2775565192852394 5.149846787160262e-18 4.4803705216809097e-10 4.463575752768804e-10 1.6794768912105598e-12
3.283707930232385 5.033993527706019e-18 4.387797816366635e-10 4.37082379068503e-10 1.6974025681603922e-12
3.2898708863219004 4.668165844544474e-18 4.076566805407231e-10 4.0594301982394526e-10 1.7136607167777405e-12
3.29141343181113 4.58168579632105e-18 4.0029224173062637e-10 3.985744998910029e-10 1.7177418396235947e-12
3.292184975758714 4.5391612721117686e-18 3.9666992563656864e-10 3.949501407459417e-10 1.7197848906269495e-12
3.295272960557952 4.274646329087918e-18 3.73904779117838e-10 3.721770575845578e-10 1.7277215332802487e-12
3.3076538914384823 3.35060076835037e-18 2.9417934458877826e-10 2.924197728592571e-10 1.759571729521245e-12
3.310756385682612 3.160339102316856e-18 2.777348275420832e-10 2.7596723326801947e-10 1.767594274063746e-12
3.313861789986515 2.9839333744737177e-18 2.624780231426058e-10 2.6070238231252174e-10 1.7756408300841382e-12
3.3200813396944477 2.737439881416633e-18 2.4124745856823693e-10 2.394544844679302e-10 1.7929741003067401e-12
3.345076488085796 2.3061535601958915e-18 2.0476876366120845e-10 2.0289847444515314e-10 1.870289216055296e-12
3.3482140837626964 2.3232501906746403e-18 2.0648030515629214e-10 2.0459953922052293e-10 1.880765935769194e-12
3.3513546224236106 2.3404990990882726e-18 2.082084237509532e-10 2.0631713683196427e-10 1.891286918988972e-12
3.3576445397418455 2.463159116126904e-18 2.1953138521777327e-10 2.176180913752645e-10 1.9132938425087503e-12
3.3702598118196083 2.907913252392252e-18 2.601442682097779e-10 2.581848183454282e-10 1.9594498643497528e-12
3.382922481734668 3.0131498285203104e-18 2.7057159807690105e-10 2.6856737882923203e-10 2.004219247669023e-12
3.389271646505754 3.0673720026785504e-18 2.759575374339753e-10 2.739306442161757e-10 2.026893217799683e-12
3.395632727569191 3.1272083255575867e-18 2.8186876810134244e-10 2.798185078137591e-10 2.0502602875833263e-12
3.421196662673239 3.418286101541612e-18 3.104244225848104e-10 3.082775331559703e-10 2.146889428840003e-12
3.4276182099114902 3.3646201413424587e-18 3.061243774074654e-10 3.03956025962055e-10 2.1683514454103797e-12
3.4340518103208963 3.1236194548039256e-18 2.8473076522448457e-10 2.8254216425361887e-10 2.18860097086568e-12
3.4469541582030403 2.777172939523009e-18 2.541018726094419e-10 2.518745060005739e-10 2.2273666088680556e-12
3.472904465399547 2.6781964391064195e-18 2.468906812176052e-10 2.4457385923914686e-10 2.3168219784583506e-12
3.4990501388274233 2.530579505528289e-18 2.3503881301102487e-10 2.3263067279563045e-10 2.4081402153944298e-12
3.5253949054701885 2.01653150742644e-18 1.887044829941112e-10 1.8620798752408985e-10 2.4964954700213327e-12
3.5519380250092896 1.5270102210947167e-18 1.43971575290677e-10 1.4138656343543946e-10 2.5850118552375646e-12
3.578680990867387 1.3350991998498282e-18 1.268253165910867e-10 1.24143321994925e-10 2.6819945961616867e-12
3.605625307711299 1.2602879748302465e-18 1.2062013739473823e-10 1.1783617334541114e-10 2.783964049327076e-12
3.660119384959845 1.2107083264010139e-18 1.1762623969048668e-10 1.146288357648858e-10 2.997403925600864e-12
3.715437065384467 1.1759343267671586e-18 1.1597447372845917e-10 1.1275320841688948e-10 3.2212653115696906e-12
3.8285932144167436 1.1662981526195692e-18 1.1852726031188325e-10 1.1482886284720631e-10 3.698397464676917e-12
3.94519561050918 1.1706398082995634e-18 1.2259175511395118e-10 1.1837903280837124e-10 4.2127223055799136e-12
4.06534921144712 1.1790914492048211e-18 1.27237398265146e-10 1.2247514729721535e-10 4.762250967930677e-12
4.189162171576248 1.1887824803424177e-18 1.3219012165816582e-10 1.2684348620260063e-10 5.34663545556517e-12
4.316745939156006 1.1985307309569192e-18 1.3733305977611425e-10 1.3137094953774813e-10 5.962110238366138e-12
4.448215356677963 1.2078369975663651e-18 1.4261446156452486e-10 1.360161431401671e-10 6.598318424357788e-12
4.58368876423945 1.216658238934579e-18 1.480311644815303e-10 1.4077652128794755e-10 7.254643193582715e-12
4.723288106065518 1.2252490375223261e-18 1.5361663235216915e-10 1.4568270803868428e-10 7.933924313484865e-12
4.867139040275056 1.233940560372099e-18 1.5941802557853805e-10 1.5080281611630703e-10 8.615209462231027e-12
4.940699165968905 1.239114252011247e-18 1.625059235397419e-10 1.5354746233590398e-10 8.958461203837925e-12
5.015371051989984 1.243749463098818e-18 1.6557905828798916e-10 1.562769219831319e-10 9.302136304857332e-12
5.091171501069577 1.2502957243979382e-18 1.6896622683403656e-10 1.593120101380774e-10 9.654216695959177e-12
5.129500256944802 1.2533473911319753e-18 1.7065379490639164e-10 1.6082390184240693e-10 9.829893063984688e-12
5.168117569889187 1.2564721977648465e-18 1.7236722953553176e-10 1.6235992486340787e-10 1.0007304672123885e-11
5.20702561229733 1.261339399931502e-18 1.7433761835864465e-10 1.6413491287832503e-10 1.0202705480319606e-11
5.246226572918644 1.26611635864276e-18 1.7631533879188833e-10 1.6591701448293798e-10 1.0398324308950409e-11
5.265937586045735 1.2684722989577606e-18 1.7730710052397594e-10 1.66810919091531e-10 1.0496181432444953e-11
5.285722656980489 1.2708072746994933e-18 1.7830088433317363e-10 1.6770683225714087e-10 1.059405207603272e-11
5.305582063971359 1.2731218533039448e-18 1.7929676027583122e-10 1.6860483782293843e-10 1.0691922452892753e-11
5.3255160863122235 1.2757595565019585e-18 1.803432799974873e-10 1.695525893172473e-10 1.0790690680240051e-11
5.365609099470188 1.28362772454179e-18 1.8282161941907426e-10 1.7182642816139358e-10 1.0995191257680662e-11
5.406003951863644 1.2915552785752743e-18 1.853355753581217e-10 1.7413574403801818e-10 1.1199831320103559e-11
5.446702915881641 1.2995561216504314e-18 1.878876178585911e-10 1.7648311773844887e-10 1.1404500120142235e-11
5.487708281020852 1.3082918574186296e-18 1.905746313317821e-10 1.789645259021383e-10 1.1610105429643861e-11
5.529022354014368 1.3228754712754948e-18 1.9414970844924384e-10 1.8232525992433084e-10 1.1824448524912984e-11
5.570647458961463 1.3379840063075464e-18 1.9784543315292728e-10 1.8580656557515275e-10 1.2038867577774555e-11
5.612585937458331 1.353671843803043e-18 2.0167210556134946e-10 1.8941885532273648e-10 1.2253250238612983e-11
5.654840148729818 1.3709626794481814e-18 2.057857975620666e-10 1.9331707639477358e-10 1.2468721167293e-11
5.67608639626678 1.384143200843402e-18 2.0854484261165361e-10 1.9596309843868028e-10 1.258174417297336e-11
5.686739436050992 1.3908871782345186e-18 2.0995424803707928e-10 1.9731598121017367e-10 1.2638266826905659e-11
5.6974124697621304 1.3977373186295895e-18 2.113842646596639e-10 1.986894701274968e-10 1.2694794532167082e-11
5.718818669136295 1.4117675623778036e-18 2.143082837698567e-10 2.0150042584128873e-10 1.2807857928568014e-11
5.740305295436557 1.4274560216740553e-18 2.1750395621004053e-10 2.0458207035987126e-10 1.2921885850169219e-11
5.7835210386641895 1.4702798617926756e-18 2.257156966017578e-10 2.1255830236877108e-10 1.3157394232986822e-11
5.827062130521658 1.519205361641577e-18 2.349825250312759e-10 2.2158711310166385e-10 1.3395411929612017e-11
5.8489554468988025 1.5554523136018588e-18 2.4149294487172047e-10 2.2796813809224588e-10 1.3524806779474616e-11
5.870931020387893 1.593896266868206e-18 2.48391347923389e-10 2.3473695282936293e-10 1.365439509402616e-11
5.892989160043636 1.634712455832365e-18 2.5570925507660254e-10 2.4192509294926647e-10 1.3784162127336096e-11
5.915130176081913 1.6813053878618083e-18 2.639856650654073e-10 2.5006670025736073e-10 1.3918964808046552e-11
5.95966208400165 1.8151107391810156e-18 2.871403299394707e-10 2.7290935410706656e-10 1.4230975832404145e-11
6.004529249263818 2.00924488249115e-18 3.202441968364733e-10 3.0565935312696074e-10 1.458484370951252e-11
6.027089341400364 2.145337176977266e-18 3.432200269273456e-10 3.284283096582353e-10 1.479171726911021e-11
6.049734195844842 2.3050699891737386e-18 3.7016030404293865e-10 3.5514892007993476e-10 1.5011383963003855e-11
6.095279466722835 2.7681635844144887e-18 4.4787292271673555e-10 4.3231347867977406e-10 1.5559444036961565e-11
6.141167624020661 3.4764974083146355e-18 5.667118510520412e-10 5.504310517608187e-10 1.6280799291222486e-11
6.164241091010745 3.9277669581521746e-18 6.426799653278456e-10 6.259416140591899e-10 1.6738351268655975e-11
6.187401249150058 4.4351869131959395e-18 7.284330478945462e-10 7.112257999099265e-10 1.7207247984620026e-11
6.1990139391386085 4.681132259896198e-18 7.702699542120236e-10 7.52824286054512e-10 1.7445668157511715e-11
6.204828454712694 4.810137055751063e-18 7.922398120909591e-10 7.746738207425196e-10 1.7565991348439412e-11
6.210648424152782 4.902866605320099e-18 8.082699923018681e-10 7.906025380521945e-10 1.7667454249673594e-11
6.233982942956859 5.211952088029504e-18 8.624530401528577e-10 8.44436288092105e-10 1.801675206075273e-11
6.239830258556775 5.247968551525142e-18 8.692274498129536e-10 8.511655931947537e-10 1.806185661819994e-11
6.245683058788269 5.245387167886828e-18 8.696148040282565e-10 8.515078055307189e-10 1.8106998497537737e-11
6.257405133728602 5.2237883761593305e-18 8.676594113738128e-10 8.494753623675261e-10 1.8184049006286602e-11
6.269149208991335 5.146466418188746e-18 8.564207530372382e-10 8.382179078716974e-10 1.8202845165540586e-11
6.280915325867298 4.97198633380286e-18 8.289384752988325e-10 8.107887391172587e-10 1.8149736181573715e-11
6.304513850009849 4.549901825667399e-18 7.614178644802912e-10 7.434391932827786e-10 1.797867119751244e-11
6.32820103803542 4.037971146239542e-18 6.782860918300696e-10 6.605474560634819e-10 1.7738635766587644e-11
6.3519772230701035 3.571483769927104e-18 6.02180996551094e-10 5.846602146348819e-10 1.752078191621223e-11
6.375842739491607 3.1783356080281464e-18 5.379064887001796e-10 5.205806963257733e-10 1.7325792374406128e-11
6.399797922933955 2.865419913107755e-18 4.867701842129966e-10 4.695578870588344e-10 1.7212297154162177e-11
6.42384311029221 2.604163318443573e-18 4.4405071727675085e-10 4.269355521981451e-10 1.7115165078605648e-11
6.447978639727206 2.4133049169288344e-18 4.130524674936953e-10 3.9597116619120827e-10 1.7081301302486908e-11
6.472204850670314 2.2533302960870098e-18 3.871208328972618e-10 3.7006090177887433e-10 1.7059931118387543e-11
6.496522083828205 2.147455372317034e-18 3.7031772469004764e-10 3.5322815108868876e-10 1.708957360135879e-11
