Dust emission spectrum from A.P. Jones, M. Kohler, N. Ysard, M. Bocchio, and L. Verstraete (2017), A&A, 602A, 46J 
inside the DustPedia framework.

lambda    nu*dP/dnu     j_nu    j_nu(carb.) j_nu(sil)
 (um)   (erg s-1 H-1) (Jy cm2 sr-1 H-1)
0.9927057738263894 6.353339216115842e-23 1.6741409696928563e-15 1.6741409535525835e-15 1.6140272714149114e-23
1.0001793341362166 6.460208368523956e-23 1.7151173328841195e-15 1.7151173134539368e-15 1.9430183311628534e-23
1.0077091589558085 6.567353049444118e-23 1.7566894888836086e-15 1.7566894655237508e-15 2.335985791557293e-23
1.0114953028030835 6.621021428246234e-23 1.777699281188645e-15 1.7776992555879552e-15 2.56006898047893e-23
1.0152956718711033 6.674750014894657e-23 1.798858376612112e-15 1.798858348564911e-15 2.8047200730360826e-23
1.0229392996569957 6.782324332899502e-23 1.8416107903265003e-15 1.841610756695503e-15 3.36309977985135e-23
1.0267826658714554 6.836046059151705e-23 1.8631719683338204e-15 1.863171931523903e-15 3.680991822839694e-23
1.0306404723013447 6.889814194756742e-23 1.8848818642976484e-15 1.884881824021655e-15 4.0275993495388375e-23
1.03451277320114 6.943626073961159e-23 1.906740607050788e-15 1.9067405629969266e-15 4.405386117452104e-23
1.0383996230291617 6.997479073380813e-23 1.9287483306517702e-15 1.928748282481618e-15 4.817015254472139e-23
1.0403485208654093 7.024420185246212e-23 1.9398081037085422e-15 1.9398080533444305e-15 5.0364111451138437e-23
1.0423010764483396 7.051370613207129e-23 1.9509051748573444e-15 1.950905122203701e-15 5.265364343607888e-23
1.0462171883269815 7.105298158403615e-23 1.9732112856015906e-15 1.9732112280661755e-15 5.75354156280187e-23
1.0471985131304309 7.118785377826322e-23 1.9788111539133852e-15 1.9788110950914184e-15 5.882196593762907e-23
1.048180758391296 7.132274653351311e-23 1.9844203633386214e-15 1.984420303202578e-15 6.013604304015761e-23
1.0501480137395462 7.159259219892205e-23 1.9956668154815902e-15 1.9956667526325603e-15 6.284902946974613e-23
1.0521189612883777 7.186251554265441e-23 2.0069506622269696e-15 2.006950596547982e-15 6.567898751278316e-23
1.0531058218030118 7.199731959306297e-23 2.012601420919655e-15 2.012601353780237e-15 6.71394178704603e-23
1.0540936079674168 7.213153317722311e-23 2.0182444931582644e-15 2.018244424527034e-15 6.863123053003961e-23
1.058054026499678 7.266853805837045e-23 2.040909280328094e-15 2.040909205406131e-15 7.49219621099522e-23
1.0590464539527713 7.280282509912655e-23 2.0465986145497103e-15 2.0465985379709003e-15 7.657881049721633e-23
1.06003981227728 7.293712574877453e-23 2.0522972090118546e-15 2.052297130741168e-15 7.827068734444734e-23
1.0620293250338977 7.320576645224078e-23 2.063722189474192e-15 2.0637221077118375e-15 8.176235513918419e-23
1.0660195594769086 7.374319563236812e-23 2.08668339428475e-15 2.0866833050868418e-15 8.9197909021553e-23
1.070024785945596 7.428080339648307e-23 2.1097930778074835e-15 2.109792980529818e-15 9.72776649709365e-23
1.0740450607676866 7.481856807758553e-23 2.1330514329741117e-15 2.1330513269196484e-15 1.0605446288032679e-22
1.07808044048254 7.535646855488501e-23 2.1564586631307304e-15 2.1564585475455155e-15 1.1558521533190302e-22
1.0861967418109137 7.643174089414958e-23 2.2036959852604434e-15 2.2036958481020565e-15 1.3715838640368108e-22
1.0902777775684922 7.69671306123968e-23 2.2274701321167594e-15 2.227469982778997e-15 1.4933776291886283e-22
1.0943741465085532 7.750254330033639e-23 2.25139248544051e-15 2.251392322894891e-15 1.625456195227939e-22
1.1026131145906286 7.857336599182192e-23 2.2996828421906034e-15 2.2996826498094422e-15 1.9238116158913738e-22
1.1109141095355224 7.964407198812834e-23 2.348569258986722e-15 2.348569031588962e-15 2.2739776022059727e-22
1.1192775983109025 8.071365867111502e-23 2.3980281596707527e-15 2.3980278912300685e-15 2.6844068435402937e-22
1.1277040513999907 8.177798407970241e-23 2.447941157550696e-15 2.4479408410670392e-15 3.164836562574271e-22
1.1361939428280308 8.284171383846726e-23 2.498451813230872e-15 2.4984514405840816e-15 3.7264678948465124e-22
1.1447477501889525 8.390475480660885e-23 2.549563331190974e-15 2.5495628929740693e-15 4.382169038938353e-22
1.1533659546722406 8.496745295406677e-23 2.6012923301002284e-15 2.6012918154291606e-15 5.146710679728827e-22
1.1707974979042381 8.709505675787845e-23 2.706728683310465e-15 2.706727976059448e-15 7.07251016199022e-22
1.1884924949847024 8.922032699091666e-23 2.8146842778433827e-15 2.8146833108042224e-15 9.67039159852952e-22
1.2064549276569216 9.135807763025033e-23 2.9256844750684974e-15 2.925683159322254e-15 1.315746243224324e-21
1.2246888378427687 9.349219918445601e-23 3.039278992827718e-15 3.0392772113784035e-15 1.78144931334622e-21
1.2431983285522175 9.562015700081925e-23 3.155435469659442e-15 3.155433069328127e-15 2.400331315415294e-21
1.2619875648066055 9.774411281912002e-23 3.274274739861111e-15 3.2742715210776656e-15 3.2187834452037205e-21
1.3004222497298317 1.0196190332673816e-22 3.5195874335805893e-15 3.519581726798446e-15 5.706782141660192e-21
1.3400274889804893 1.061517526152469e-22 3.7758115401117585e-15 3.7758016072034345e-15 9.932908324323413e-21
1.3808389325824078 1.103227195161018e-22 4.043685915698449e-15 4.043668935221089e-15 1.6980477360930507e-20
1.4228933163050095 1.1450708812303609e-22 4.324880810961088e-15 4.324852285940033e-15 2.852502105496446e-20
1.466228494730424 1.1878251019514054e-22 4.622996740648415e-15 4.622949629755775e-15 4.7110892639887255e-20
1.5108834753276823 1.231293675355639e-22 4.9381247032543445e-15 4.938048174092242e-15 7.652916210433e-20
1.5568984535646726 1.2753453551437786e-22 5.2705692646252304e-15 5.270446859745805e-15 1.2240487942523068e-19
1.6043148490894465 1.3202209825940518e-22 5.622191925551087e-15 5.621998798559971e-15 1.9312699111763175e-19
1.6531753430134553 1.3661776377399886e-22 5.9950874781869805e-15 5.994787250981271e-15 3.002272057096635e-19
1.7035239163302658 1.413543395931356e-22 6.391853524110221e-15 6.391393561924033e-15 4.599621861872752e-19
1.755405889504358 1.4633963266595957e-22 6.818815578953873e-15 6.818120753246074e-15 6.948257078004044e-19
1.8088679632656115 1.5156544258142365e-22 7.277404117137281e-15 7.276368821531945e-15 1.035295605334174e-18
1.8639582606462262 1.5702237085981525e-22 7.769036225966148e-15 7.767514069341004e-15 1.522156625144003e-18
1.9207263702978936 1.6272470018096577e-22 8.29637572470302e-15 8.294166583526088e-15 2.2091411769328514e-18
1.979223391128241 1.686969354079187e-22 8.862810043155303e-15 8.859643952648951e-15 3.1660905063499194e-18
2.039501978296691 1.7495986385003954e-22 9.471788589714468e-15 9.467306169129948e-15 4.482420584522472e-18
2.1016163906111602 1.8159132337334814e-22 1.0130198923663916e-14 1.0123927453109433e-14 6.271470554485139e-18
2.1656225393682647 1.8862277003001418e-22 1.084292151755734e-14 1.0834247070171063e-14 8.674447386276265e-18
2.231578038680979 1.9602119980567753e-22 1.1611399161979988e-14 1.1599534271909207e-14 1.1864890070781039e-17
2.299542257339062 2.037812480442901e-22 1.2438701489804338e-14 1.2422648108128196e-14 1.6053381676140866e-17
2.369576372248914 2.119214085501641e-22 1.3329534272402946e-14 1.3308041661399308e-14 2.149261100363288e-17
2.4417434235010123 2.2046575631988475e-22 1.4289288421062574e-14 1.426080705541775e-14 2.848136564482615e-17
2.5161083711144245 2.2948538999931227e-22 1.5326882127427257e-14 1.528951240030865e-14 3.736972711860703e-17
2.5927381535095444 2.391178322155071e-22 1.6456597853056794e-14 1.6408035354615545e-14 4.8562498441248396e-17
2.6717017477616296 2.4949588860308604e-22 1.7693787248364022e-14 1.7631267983048807e-14 6.251926531521244e-17
2.753070231689431 2.6083402083792705e-22 1.906123166947189e-14 1.898147583468504e-14 7.975583478685099e-17
2.836916847834745 2.7372715327053564e-22 2.0612654333212475e-14 2.0511806891771384e-14 1.0084744144109329e-16
2.9233170693905177 2.895330812953856e-22 2.2466920459001574e-14 2.2340517766154498e-14 1.2640269284707651e-16
2.967498994190263 2.998993910347775e-22 2.362302977629337e-14 2.3482231925633392e-14 1.4079785065998683e-16
3.0123486681368425 3.11206833754271e-22 2.488420649138691e-14 2.4727581506834494e-14 1.5662498455241806e-16
3.0578761833420214 3.3146931915070632e-22 2.6904979512417078e-14 2.673092763671039e-14 1.74051875706686e-16
3.1040917844459814 3.559182020194604e-22 2.932609156591015e-14 2.913305245626908e-14 1.9303910964108226e-16
3.127460860933648 3.796837849715372e-22 3.151979372507087e-14 3.131657930909196e-14 2.032144159789035e-16
3.1510058709225794 4.103990950261333e-22 3.4326145564601246e-14 3.4112318197897356e-14 2.1382736670388305e-16
3.162844764501044 4.38516080052029e-22 3.6815680564628224e-14 3.6596358424299405e-14 2.1932214032881553e-16
3.1747281389236908 4.7063723163662105e-22 3.966087169286283e-14 3.9435941271218456e-14 2.2493042164436124e-16
3.1986289994194426 5.585639708470448e-22 4.74248779920264e-14 4.718835548185088e-14 2.36522510175534e-16
3.2227097969389145 7.636546776661478e-22 6.532623798118283e-14 6.5077425170294e-14 2.488128108888451e-16
3.2348180950136065 9.568803247355968e-22 8.216311983960662e-14 8.190774647134379e-14 2.5537336826287487e-16
3.240889293275058 1.1013002054449005e-21 9.474130211903403e-14 9.448246819702042e-14 2.588339220135852e-16
3.2469718861334385 1.26860537045444e-21 1.0933885130221831e-13 1.0907643668290075e-13 2.6241461931754e-16
3.2714166318528037 2.151763222551913e-21 1.8685286908243025e-13 1.8657565149776116e-13 2.7721758466907254e-16
3.2744851364798273 2.207026661332161e-21 1.9183155005338366e-13 1.9155258630775262e-13 2.789637456310362e-16
3.2775565192852394 2.2638083816095473e-21 1.9695149698405863e-13 1.9667077819567427e-13 2.8071878838438065e-16
3.283707930232385 2.2094842502626393e-21 1.9258606740832995e-13 1.9230220663970384e-13 2.838607686261362e-16
3.2898708863219004 2.0365574326613883e-21 1.7784634701860993e-13 1.7755962374086015e-13 2.867232777498219e-16
3.29141343181113 1.995715307621077e-21 1.7436144464232677e-13 1.7407400249219817e-13 2.8744215012860987e-16
3.292184975758714 1.9756377001061884e-21 1.7264776741922876e-13 1.7235996534547375e-13 2.8780207375499855e-16
3.295272960557952 1.849876853980663e-21 1.6180936228013611e-13 1.6152015958093992e-13 2.8920269919619235e-16
3.3076538914384823 1.4119294775917512e-21 1.2396597417603274e-13 1.236711443023456e-13 2.9482987368714585e-16
3.310756385682612 1.3221610016174109e-21 1.1619327732833372e-13 1.1589702875252203e-13 2.9624857581169753e-16
3.313861789986515 1.2390873748165033e-21 1.0899479439622502e-13 1.086971223443995e-13 2.976720518255322e-16
3.3200813396944477 1.1229013945664514e-21 9.896002082124099e-14 9.865928847124324e-14 3.0073234999777855e-16
3.345076488085796 9.184947478263042e-22 8.15552950106799e-14 8.124092857222213e-14 3.1436643845773824e-16
3.3482140837626964 9.265922759891007e-22 8.235146462901404e-14 8.203525139926705e-14 3.1621322974700114e-16
3.3513546224236106 9.347692049817154e-22 8.315611948579273e-14 8.28380509704125e-14 3.180685153802288e-16
3.3576445397418455 9.929025288095774e-22 8.849337670013779e-14 8.817142978527398e-14 3.219469148638099e-16
3.3702598118196083 1.2047902009542857e-21 1.0778150445709598e-13 1.0745142211508942e-13 3.3008234200650524e-16
3.382922481734668 1.2547034126314315e-21 1.1266851195213954e-13 1.123305151454137e-13 3.3799680672585806e-16
3.389271646505754 1.2804820653729924e-21 1.1519915979546496e-13 1.1485715006744326e-13 3.4200972802169517e-16
3.395632727569191 1.3086524444095147e-21 1.1795448655079627e-13 1.1760834122443192e-13 3.461453263643863e-16
3.421196662673239 1.4449047611928756e-21 1.3121596989235563e-13 1.3085269741463646e-13 3.6327247771919706e-16
3.4276182099114902 1.4195538884220676e-21 1.2915575370602332e-13 1.2878865139616925e-13 3.67102309854123e-16
3.4340518103208963 1.3054268258078873e-21 1.1899502626198795e-13 1.186242978965981e-13 3.707283653898336e-16
3.4469541582030403 1.1420668987774761e-21 1.044952345223621e-13 1.0411753887697579e-13 3.776956453863398e-16
3.472904465399547 1.096804859777214e-21 1.0110942387912578e-13 1.0071568971747408e-13 3.937341616517115e-16
3.4990501388274233 1.0279070136274842e-21 9.5471430097698e-14 9.506126645591705e-14 4.101636417809994e-16
3.5253949054701885 7.8248391556391325e-22 7.322386096815421e-14 7.279770890342454e-14 4.261520647296626e-16
3.5519380250092896 5.495968833732188e-22 5.181781233747275e-14 5.137556843662102e-14 4.4224390085172114e-16
3.578680990867387 4.582532212395941e-22 4.353093003810798e-14 4.307104570868876e-14 4.598843294192036e-16
3.605625307711299 4.2254962932110023e-22 4.044154618841928e-14 3.996306993548341e-14 4.784762529358624e-16
3.660119384959845 3.989226554210694e-22 3.8757288490788764e-14 3.823969340632017e-14 5.175950844685942e-16
3.715437065384467 3.8270442606608383e-22 3.774355709862218e-14 3.718463810641922e-14 5.58918992202948e-16
3.8285932144167436 3.792370929082902e-22 3.854068835666315e-14 3.7892658304411627e-14 6.480300522515223e-16
3.94519561050918 3.83151466334598e-22 4.012439214814618e-14 3.9378745372494626e-14 7.456467756515573e-16
4.06534921144712 3.8973528946008724e-22 4.2056877162884883e-14 4.1205115592701476e-14 8.517615701833999e-16
4.189162171576248 3.9760517377908526e-22 4.4212862456245307e-14 4.3246189154014354e-14 9.66673302230944e-16
4.316745939156006 4.0620826008109923e-22 4.654517554066302e-14 4.54551042795968e-14 1.090071261066216e-15
4.448215356677963 4.153310656504228e-22 4.903990887686053e-14 4.7819529171201043e-14 1.2203797056594737e-15
4.58368876423945 4.249616470258753e-22 5.1705208131674844e-14 5.034735168813246e-14 1.357856443542386e-15
4.723288106065518 4.352352133922186e-22 5.456798227533563e-14 5.306453105575619e-14 1.503451219579436e-15
4.867139040275056 4.464000127625331e-22 5.767231497064772e-14 5.6018782236277904e-14 1.6535327343698137e-15
4.940699165968905 4.527291356221344e-22 5.937399733576485e-14 5.764326912289514e-14 1.7307282128696943e-15
5.015371051989984 4.590143458150334e-22 6.110809722994192e-14 5.929895397187967e-14 1.809143258062266e-15
5.091171501069577 4.665101706817078e-22 6.304465558158037e-14 6.115422692000433e-14 1.890428661576076e-15
5.129500256944802 4.702424845783384e-22 6.402747162303204e-14 6.209600884300094e-14 1.9314627800310917e-15
5.168117569889187 4.740742864131891e-22 6.503516073689425e-14 6.306202674527465e-14 1.973133991619592e-15
5.20702561229733 4.788462188785722e-22 6.618433497270126e-14 6.416582358786437e-14 2.018511384836903e-15
5.246226572918644 4.836497976548083e-22 6.735153317310266e-14 6.52872593418592e-14 2.0642738312434495e-15
5.265937586045735 4.860641962795323e-22 6.794206967046306e-14 6.585477509847306e-14 2.0872945719899703e-15
5.285722656980489 4.884874151609294e-22 6.853733043778473e-14 6.64269247634427e-14 2.110405674342021e-15
5.305582063971359 4.909197767035554e-22 6.913739269328842e-14 6.700378757221594e-14 2.1336051210724573e-15
5.3255160863122235 4.935419370859706e-22 6.976782677956044e-14 6.761076026064602e-14 2.157066518914403e-15
5.365609099470188 5.002234832275714e-22 7.124469620485937e-14 6.903908987301099e-14 2.2056063318483696e-15
5.406003951863644 5.070426268122385e-22 7.275959343761275e-14 7.050504533593704e-14 2.2545481016757033e-15
5.446702915881641 5.140083148181941e-22 7.431444954300882e-14 7.201057363122016e-14 2.303875911788648e-15
5.487708281020852 5.214786903151382e-22 7.596210936470582e-14 7.360833368421637e-14 2.3537756804894402e-15
5.529022354014368 5.322414484483866e-22 7.811356721371817e-14 7.570775923524974e-14 2.405807978468461e-15
5.570647458961463 5.4345692225623935e-22 8.036005638099385e-14 7.790178963916305e-14 2.4582667418307815e-15
5.612585937458331 5.551610013777746e-22 8.27087366749523e-14 8.019760077695423e-14 2.511135897998064e-15
5.654840148729818 5.6792576317643145e-22 8.524743808368908e-14 8.268278805439778e-14 2.56465002929131e-15
5.67608639626678 5.768955415818854e-22 8.691917848474867e-14 8.43265353497491e-14 2.5926431349995642e-15
5.686739436050992 5.814913410275691e-22 8.777604622143621e-14 8.516936199284726e-14 2.60668422858895e-15
5.6974124697621304 5.861635004162873e-22 8.864737233124373e-14 8.602661764663582e-14 2.6207546846079142e-15
5.718818669136295 5.957444373180306e-22 9.043483596692777e-14 8.778585328617773e-14 2.6489826807500697e-15
5.740305295436557 6.063237700971163e-22 9.238660717942791e-14 8.970907683856988e-14 2.6775303408580364e-15
5.7835210386641895 6.341744773694412e-22 9.735774640344205e-14 9.462118025163472e-14 2.7365661518073357e-15
5.827062130521658 6.659050217916243e-22 1.0299861190755839e-13 1.0020199284404873e-13 2.796619063509661e-15
5.8489554468988025 6.88635352397763e-22 1.0691461109998253e-13 1.0408558245019143e-13 2.8290286497910915e-15
5.870931020387893 7.128001816621415e-22 1.1108213351360828e-13 1.082205196004797e-13 2.8616139131285905e-15
5.892989160043636 7.385125650316707e-22 1.1552153847925717e-13 1.1262716535161878e-13 2.8943731276383835e-15
5.915130176081913 7.677278986137432e-22 1.2054274099636358e-13 1.176144145989403e-13 2.928326397423321e-15
5.95966208400165 8.502559564658258e-22 1.3450571945971493e-13 1.3150011391685147e-13 3.00560554286344e-15
6.004529249263818 9.691370845908316e-22 1.544662524631808e-13 1.513737266506249e-13 3.0925258125558957e-15
6.027089341400364 1.052002126460695e-21 1.6830370631072638e-13 1.651610016888352e-13 3.1427046218912143e-15
6.049734195844842 1.149368708684235e-21 1.8457169312091072e-13 1.813758426131619e-13 3.195850507748835e-15
6.095279466722835 1.4309160514502407e-21 2.3151397472807373e-13 2.2818763833951063e-13 3.326336388563217e-15
6.141167624020661 1.862211416106524e-21 3.0356337276361897e-13 3.0006786254411535e-13 3.495510219503728e-15
6.164241091010745 2.137592569660077e-21 3.497630926658896e-13 3.4616149068740525e-13 3.601601978484456e-15
6.187401249150058 2.4486757174769977e-21 4.021693676269047e-13 3.9845878419746354e-13 3.710583429441082e-15
6.1990139391386085 2.6001545633268632e-21 4.2784967935992043e-13 4.240836344337224e-13 3.766044926198157e-15
6.204828454712694 2.67972466419904e-21 4.413563563396366e-13 4.3756229401137076e-13 3.794062328265635e-15
6.210648424152782 2.7375092393034045e-21 4.512965066961261e-13 4.474785531581723e-13 3.817953537953594e-15
6.233982942956859 2.932190772301335e-21 4.852072319865744e-13 4.813058946358615e-13 3.901337350712805e-15
6.239830258556775 2.956144713103602e-21 4.896298643981649e-13 4.857168902560216e-13 3.912974142143151e-15
6.245683058788269 2.9567255974662768e-21 4.901854274451608e-13 4.862607963473599e-13 3.924631097801025e-15
6.257405133728602 2.947943046011251e-21 4.896466594510511e-13 4.857015857282345e-13 3.945073722816381e-15
6.269149208991335 2.905363554901297e-21 4.834800115942894e-13 4.795272376587009e-13 3.952773935588509e-15
6.280915325867298 2.803652537276106e-21 4.674299773748147e-13 4.634852649861633e-13 3.944712388651474e-15
6.304513850009849 2.5549169618985753e-21 4.275607456140954e-13 4.2364642435155e-13 3.9143212625457195e-15
6.32820103803542 2.2497507541795743e-21 3.7790627802412993e-13 3.740375291695488e-13 3.868748854581004e-15
6.3519772230701035 1.9706939740196737e-21 3.322749136268998e-13 3.2844691278056116e-13 3.8280008463385965e-15
6.375842739491607 1.7354036124416238e-21 2.937024212572753e-13 2.899102270551571e-13 3.792194202118242e-15
6.399797922933955 1.5478203337720868e-21 2.629397476971214e-13 2.591653307115765e-13 3.774416985544881e-15
6.42384311029221 1.3912969038308349e-21 2.3723795804798e-13 2.334777297029265e-13 3.760228345053465e-15
6.447978639727206 1.2773199553603517e-21 2.1862142476879903e-13 2.1486130875892597e-13 3.760116009873007e-15
6.472204850670314 1.181976894139138e-21 2.0306294222335942e-13 1.993001395651108e-13 3.762802658248562e-15
6.496522083828205 1.1196660715052585e-21 1.9308070256430844e-13 1.8930379259392922e-13 3.776909970379243e-15
6.520930681187647 1.0668845892507003e-21 1.8467004652220942e-13 1.8087728523880037e-13 3.792761283409029e-15
6.57002334288761 1.0110954275351866e-21 1.763309275473847e-13 1.7249059975754576e-13 3.8403277898389724e-15
