Dust emission spectrum from A.P. Jones, M. Kohler, N. Ysard, M. Bocchio, and L. Verstraete (2017), A&A, 602A, 46J 
inside the DustPedia framework.

lambda    nu*dP/dnu     j_nu    j_nu(carb.) j_nu(sil)
 (um)   (erg s-1 H-1) (Jy cm2 sr-1 H-1)
0.9927057738263894 3.7056169946383586e-22 9.76451125571551e-15 9.764511255715503e-15 6.583204064671858e-30
1.0001793341362166 3.7668569367052747e-22 1.0000608732863722e-14 1.0000608732863713e-14 7.933363236084885e-30
1.0077091589558085 3.828010104282462e-22 1.0239475573956605e-14 1.0239475573956597e-14 9.548391274085025e-30
1.0114953028030835 3.858546617028776e-22 1.0359935580727798e-14 1.035993558072779e-14 1.0470336952511961e-29
1.0152956718711033 3.889052423189632e-22 1.048107346781093e-14 1.048107346781092e-14 1.1477661786793886e-29
1.0229392996569957 3.949930076995672e-22 1.0725281619967319e-14 1.0725281619967308e-14 1.3779405284040814e-29
1.0267826658714554 3.980228115574377e-22 1.0848156066158175e-14 1.084815606615816e-14 1.509130304956018e-29
1.0306404723013447 4.0104820529022574e-22 1.0971681782593505e-14 1.0971681782593489e-14 1.6522839805825094e-29
1.03451277320114 4.040688969600267e-22 1.1095853458600477e-14 1.1095853458600458e-14 1.80844039648918e-29
1.0383996230291617 4.070845962451533e-22 1.1220665717011421e-14 1.1220665717011399e-14 1.978723704652801e-29
1.0403485208654093 4.0859048347359775e-22 1.1283310366384285e-14 1.1283310366384268e-14 2.069539175959859e-29
1.0423010764483396 4.100950144958141e-22 1.1346113115435818e-14 1.1346113115435799e-14 2.1643499404481373e-29
1.0462171883269815 4.130998647885675e-22 1.1472190147533979e-14 1.1472190147533954e-14 2.3666340654936576e-29
1.0471985131304309 4.1385017391318536e-22 1.1503807134560101e-14 1.1503807134560076e-14 2.4199720134939973e-29
1.048180758391296 4.146001127723249e-22 1.1535463038307154e-14 1.153546303830713e-14 2.474462657840148e-29
1.0501480137395462 4.1609886197954063e-22 1.1598891244291706e-14 1.1598891244291681e-14 2.5869975115209317e-29
1.0521189612883777 4.17596077053819e-22 1.1662474059777251e-14 1.166247405977723e-14 2.70443426657044e-29
1.0531058218030118 4.183429491677566e-22 1.1694291102579735e-14 1.1694291102579708e-14 2.7650579432379047e-29
1.0540936079674168 4.1908565970233925e-22 1.1726041130689943e-14 1.1726041130689915e-14 2.8269970256050103e-29
1.058054026499678 4.2205229116104896e-22 1.185341635911858e-14 1.1853416359118547e-14 3.0883260515719976e-29
1.0590464539527713 4.227928746596605e-22 1.1885353492007985e-14 1.1885353492007956e-14 3.157191524624863e-29
1.06003981227728 4.2353301976099665e-22 1.1917327773153447e-14 1.1917327773153419e-14 3.2275282073415547e-29
1.0620293250338977 4.250119775339505e-22 1.1981387414355431e-14 1.1981387414355397e-14 3.372735547821469e-29
1.0660195594769086 4.279644431482554e-22 1.2109948439362293e-14 1.2109948439362255e-14 3.682161437625321e-29
1.070024785945596 4.309094144115091e-22 1.2239093522385379e-14 1.223909352238534e-14 4.018692787562203e-29
1.0740450607676866 4.338466198565933e-22 1.2368816698235118e-14 1.2368816698235072e-14 4.384583135927179e-29
1.07808044048254 4.367757901854943e-22 1.2499111949563635e-14 1.2499111949563584e-14 4.7822625960832223e-29
1.0861967418109137 4.426037848117814e-22 1.276124516124241e-14 1.2761245161242357e-14 5.683671422905638e-29
1.0902777775684922 4.454903145761376e-22 1.2892729168544806e-14 1.2892729168544744e-14 6.193266751782594e-29
1.0943741465085532 4.483675487271455e-22 1.3024751020206788e-14 1.3024751020206717e-14 6.746409827747723e-29
1.1026131145906286 4.540931072510482e-22 1.3290382998367951e-14 1.3290382998367869e-14 7.997708571554383e-29
1.1109141095355224 4.5977843919451915e-22 1.3558090153879882e-14 1.3558090153879788e-14 9.469105537918812e-29
1.1192775983109025 4.654162870494451e-22 1.3827664123883746e-14 1.3827664123883637e-14 1.119707269988917e-28
1.1277040513999907 4.709804730040158e-22 1.4098323616605106e-14 1.4098323616604976e-14 1.3223732362677073e-28
1.1361939428280308 4.76497861391533e-22 1.437086330825643e-14 1.4370863308256274e-14 1.559765944673825e-28
1.1447477501889525 4.819666117340775e-22 1.4645229617413445e-14 1.4645229617413256e-14 1.8374804184289602e-28
1.1533659546722406 4.873879051795881e-22 1.4921459634816534e-14 1.4921459634816313e-14 2.1619556464996774e-28
1.1707974979042381 4.981056158254273e-22 1.5480060612633424e-14 1.548006061263313e-14 2.981891940390375e-28
1.1884924949847024 5.086104063570447e-22 1.604542106717961e-14 1.60454210671792e-14 4.092673379144561e-28
1.2064549276569216 5.189843683733017e-22 1.662014513372634e-14 1.662014513372578e-14 5.590122428887541e-28
1.2246888378427687 5.291142458792504e-22 1.720064161860097e-14 1.720064161860021e-14 7.598853164703861e-28
1.2431983285522175 5.389763344931163e-22 1.778605156601071e-14 1.7786051566009678e-14 1.028037987528215e-27
1.2619875648066055 5.48566931953642e-22 1.837613332009871e-14 1.8376133320097328e-14 1.3842973583133919e-27
1.3004222497298317 5.667742472828675e-22 1.956428286770481e-14 1.956428286770234e-14 2.475332335114222e-27
1.3400274889804893 5.836648285997321e-22 2.0760923311102074e-14 2.0760923311097732e-14 4.346683536857872e-27
1.3808389325824078 5.9917592015188725e-22 2.1961743147477622e-14 2.196174314747013e-14 7.498976312174835e-27
1.4228933163050095 6.133827746036495e-22 2.3167189342960098e-14 2.3167189342947385e-14 1.2716810377797347e-26
1.466228494730424 6.266268276883368e-22 2.4388218242289258e-14 2.438821824226805e-14 2.1208202257428613e-26
1.5108834753276823 6.386506922410281e-22 2.5613197105028606e-14 2.5613197104993814e-14 3.4799425998921963e-26
1.5568984535646726 6.492460511540138e-22 2.6831134551831814e-14 2.6831134551775575e-14 5.623842586169107e-26
1.6043148490894465 6.584320545434261e-22 2.8039483006128838e-14 2.8039483006039173e-14 8.967592743200199e-26
1.6531753430134553 6.662364162532935e-22 2.9235916957326576e-14 2.9235916957185635e-14 1.4093567513639598e-25
1.7035239163302658 6.727515514429803e-22 3.0420922253385514e-14 3.042092225316715e-14 2.183649054510937e-25
1.755405889504358 6.785122794534905e-22 3.161583787906542e-14 3.16158378787317e-14 3.3372586230294458e-25
1.8088679632656115 6.833863709846725e-22 3.2812748771063874e-14 3.281274877056059e-14 5.032802686609531e-25
1.8639582606462262 6.872842068501626e-22 3.400493745773524e-14 3.4004937456985975e-14 7.492593546502835e-25
1.9207263702978936 6.90270536842221e-22 3.519283623793331e-14 3.519283623683165e-14 1.1016457214686123e-24
1.979223391128241 6.924962630802237e-22 3.638159057504035e-14 3.6381590573439933e-14 1.6004149650795732e-24
2.039501978296691 6.941420210360195e-22 3.7578712796242404e-14 3.757871279394418e-14 2.2982183853302188e-24
2.1016163906111602 6.957140084908443e-22 3.8810892332679814e-14 3.881089232941593e-14 3.2638955066978804e-24
2.1656225393682647 6.975057144459031e-22 4.0095899973164657e-14 4.009589996857835e-14 4.586317709730161e-24
2.231578038680979 6.995380715479956e-22 4.143743526617385e-14 4.143743525979466e-14 6.379196731531303e-24
2.299542257339062 7.019867810098365e-22 4.284890833955547e-14 4.2848908330768465e-14 8.787007749858225e-24
2.369576372248914 7.052404595911341e-22 4.4358552261037956e-14 4.435855224904551e-14 1.1992450036731142e-23
2.4417434235010123 7.0975800265949385e-22 4.6002322439786804e-14 4.600232242356167e-14 1.622514127611549e-23
2.5161083711144245 7.163253671013391e-22 4.784197576360388e-14 4.7841975741830374e-14 2.1773496986247792e-23
2.5927381535095444 7.26228760713809e-22 4.9980608111317226e-14 4.998060808231812e-14 2.899910435130204e-23
2.6717017477616296 7.410037426326357e-22 5.255061574678458e-14 5.25506157084312e-14 3.8353375751279927e-23
2.753070231689431 7.629622804023385e-22 5.5755766579444985e-14 5.575576652904408e-14 5.040090772871413e-23
2.836916847834745 7.973425307936731e-22 6.004280458130176e-14 6.004280451544904e-14 6.585271226710401e-23
2.9233170693905177 8.556813545221775e-22 6.639837093671297e-14 6.639837085111775e-14 8.55952301566574e-23
2.967498994190263 9.052256169495725e-22 7.130448524646555e-14 7.130448514917187e-14 9.729365579283149e-23
3.0123486681368425 9.630872484637478e-22 7.700879081246925e-14 7.700879070193027e-14 1.1053897304513638e-22
3.0578761833420214 1.092559459747715e-21 8.868178193965772e-14 8.868178181407683e-14 1.2558088902048288e-22
3.1040917844459814 1.259397232427799e-21 1.037687826766783e-13 1.0376878253411434e-13 1.4256398326506332e-22
3.127460860933648 1.4358937935771483e-21 1.192020254118938e-13 1.1920202525995597e-13 1.5193784059192817e-22
3.1510058709225794 1.6710506253542793e-21 1.39768161545474e-13 1.397681613835499e-13 1.619241408877045e-22
3.162844764501044 1.889949225027539e-21 1.58670958984503e-13 1.586709588172815e-13 1.6722144146611234e-22
3.1747281389236908 2.1445089133168207e-21 1.8071900635546956e-13 1.8071900618278081e-13 1.726887298836761e-22
3.1986289994194426 2.8545465125105303e-21 2.423652923282576e-13 2.4236529214402194e-13 1.8423562995708025e-22
3.2227097969389145 4.528289003604467e-21 3.8736891653842866e-13 3.8736891634125266e-13 1.9717607589290586e-22
3.2348180950136065 6.115522655330112e-21 5.251131283847424e-13 5.251131281802223e-13 2.0452018116844412e-22
3.240889293275058 7.302187970692736e-21 6.281836625844422e-13 6.281836623758354e-13 2.0860686492753457e-22
3.2469718861334385 8.674978192344437e-21 7.476810146901385e-13 7.476810144771535e-13 2.129851782678753e-22
3.2714166318528037 1.5997679278719684e-20 1.3891920080055178e-12 1.3891920077735845e-12 2.31933165377963e-22
3.2744851364798273 1.645544775754573e-20 1.4302836052950562e-12 1.430283605060971e-12 2.340853401522408e-22
3.2775565192852394 1.6926364664588127e-20 1.4725949803306648e-12 1.4725949800944042e-12 2.362604645810783e-22
3.283707930232385 1.6473501439652892e-20 1.4358857087716702e-12 1.4358857085320283e-12 2.3964188187734968e-22
3.2898708863219004 1.5037313396155375e-20 1.3131626997552456e-12 1.313162699512982e-12 2.4226344958511426e-22
3.29141343181113 1.4698624162126977e-20 1.2841878465210823e-12 1.2841878462781598e-12 2.4292246781540997e-22
3.292184975758714 1.4532204232109245e-20 1.2699457072615468e-12 1.2699457070182945e-12 2.4325252261245167e-22
3.295272960557952 1.348174476453299e-20 1.1792528340891663e-12 1.1792528338447439e-12 2.4442245495987184e-22
3.3076538914384823 9.842621956590246e-21 8.641722116151728e-13 8.641722113661043e-13 2.490684465629808e-22
3.310756385682612 9.101965519689802e-21 7.998929045467933e-13 7.998929042965508e-13 2.502424324924687e-22
3.313861789986515 8.418593905694303e-21 7.40531241384288e-13 7.405312411328665e-13 2.514214517050115e-22
3.3200813396944477 7.460241340890605e-21 6.574625715119527e-13 6.574625712576702e-13 2.542825345013775e-22
3.345076488085796 5.7506286359785466e-21 5.106117547367678e-13 5.106117544678469e-13 2.6892077131314374e-22
3.3482140837626964 5.814736503526457e-21 5.167883220114696e-13 5.167883217403556e-13 2.7111407475733218e-22
3.3513546224236106 5.8795531561353674e-21 5.230390797739491e-13 5.230390795006237e-13 2.7332568243520604e-22
3.3576445397418455 6.353251309079256e-21 5.662395301168774e-13 5.662395298386456e-13 2.7823160170044806e-22
3.3702598118196083 8.100452626332296e-21 7.246730344901409e-13 7.246730342010183e-13 2.891226950198461e-22
3.382922481734668 8.498398266905437e-21 7.631300569277586e-13 7.631300566286772e-13 2.9908157458213094e-22
3.389271646505754 8.70456186894025e-21 7.831099246184792e-13 7.831099243142837e-13 3.0419577534313214e-22
3.395632727569191 8.926714155663588e-21 8.046032308388267e-13 8.046032305292641e-13 3.0956269416131557e-22
3.421196662673239 9.993410362370088e-21 9.0753042584491e-13 9.07530425512533e-13 3.323772151529186e-22
3.4276182099114902 9.778450431887797e-21 8.896760777509522e-13 8.896760774138344e-13 3.371177972550039e-22
3.4340518103208963 8.836493551475868e-21 8.054827443667851e-13 8.054827440254662e-13 3.413189408770566e-22
3.4469541582030403 7.494969820691107e-21 6.857642314907356e-13 6.857642311417723e-13 3.4896333597500984e-22
3.472904465399547 7.11898859899359e-21 6.562670008523793e-13 6.562670004825438e-13 3.6983544626932467e-22
3.4990501388274233 6.543943904854746e-21 6.077978599161611e-13 6.077978595246151e-13 3.915459929840965e-22
3.5253949054701885 4.497501384272093e-21 4.2087052464035173e-13 4.2087052422913144e-13 4.112203586432959e-22
3.5519380250092896 2.574063773374632e-21 2.426912480557804e-13 2.4269124762495844e-13 4.30821999326046e-22
3.578680990867387 1.8113789265694893e-21 1.720686416817852e-13 1.7206864122688312e-13 4.5490211847045725e-22
3.605625307711299 1.502857916097888e-21 1.4383611678030482e-13 1.4383611629839588e-13 4.819089460803128e-22
3.660119384959845 1.2777166418181652e-21 1.2413642550373178e-13 1.2413642496149654e-13 5.422352316832871e-22
3.715437065384467 1.1182311851841005e-21 1.1028360194655309e-13 1.1028360133650291e-13 6.100501965277205e-22
3.8285932144167436 1.037060430002059e-21 1.0539323179919542e-13 1.0539323102598726e-13 7.732081155136917e-22
3.94519561050918 1.0211932066948131e-21 1.0694140642714697e-13 1.0694140544708093e-13 9.800660425668518e-22
4.06534921144712 1.0321231331707721e-21 1.1137784286578042e-13 1.113778416232379e-13 1.2425425187972315e-21
4.189162171576248 1.0585526003244782e-21 1.177088317941521e-13 1.1770883021799724e-13 1.5761548354116118e-21
4.316745939156006 1.0962643694215338e-21 1.2561491857283322e-13 1.2561491657274932e-13 2.000083878171866e-21
4.448215356677963 1.1438331140987444e-21 1.350572502875356e-13 1.3505724775021973e-13 2.5373158562735797e-21
4.58368876423945 1.201413286809022e-21 1.4617630668877206e-13 1.4617630346987037e-13 3.2189016944566586e-21
4.723288106065518 1.27032679207086e-21 1.5926829388029934e-13 1.592682897956707e-13 4.084628616222649e-21
4.867139040275056 1.353235721103723e-21 1.748302744304398e-13 1.7483026925091908e-13 5.1795206974023926e-21
4.940699165968905 1.403300203748691e-21 1.8403839294362272e-13 1.8403838711101003e-13 5.832612671549957e-21
5.015371051989984 1.4551231570399093e-21 1.9371901591451866e-13 1.9371900934831723e-13 6.566201432653839e-21
5.091171501069577 1.5184469325383283e-21 2.0520445190058056e-13 2.0520444450485634e-13 7.395724189373134e-21
5.129500256944802 1.5509370958622385e-21 2.111731375855391e-13 2.111731297378074e-13 7.847731730965303e-21
5.168117569889187 1.584811023809601e-21 2.1740989255263664e-13 2.1740988422537097e-13 8.327265651480096e-21
5.20702561229733 1.626455279323574e-21 2.248025708064892e-13 2.248025619638458e-13 8.842643345146975e-21
5.246226572918644 1.669157474277329e-21 2.324415631827859e-13 2.3244155379418407e-13 9.388601819777029e-21
5.265937586045735 1.6909158460525529e-21 2.363562737159997e-13 2.363562640424275e-13 9.673572164551686e-21
5.285722656980489 1.712951544146357e-21 2.403360298778532e-13 2.403360199110272e-13 9.966825949373295e-21
5.305582063971359 1.7352690456406335e-21 2.4438204189400596e-13 2.4438203162541916e-13 1.0268586808986101e-20
5.3255160863122235 1.7592581300782763e-21 2.4869136188208947e-13 2.48691351301768e-13 1.0580321433920353e-20
5.365609099470188 1.8191059019694593e-21 2.590874912830111e-13 2.5908748004195257e-13 1.124105853883886e-20
5.406003951863644 1.8812325891896587e-21 2.699530791159969e-13 2.699530671748292e-13 1.1941167685915515e-20
5.446702915881641 1.9457486617426813e-21 2.813130382873238e-13 2.8131302560450784e-13 1.268281602489558e-20
5.487708281020852 2.0154831786281083e-21 2.9358889726664037e-13 2.935888837953074e-13 1.3471332902104454e-20
5.529022354014368 2.1125976545523333e-21 3.1005202500763136e-13 3.1005201067337354e-13 1.4334257884705094e-20
5.570647458961463 2.2154512098493815e-21 3.2759502518378924e-13 3.2759500993394133e-13 1.52498478618804e-20
5.612585937458331 2.324458071943157e-21 3.463013253942347e-13 3.463013091731728e-13 1.6221061874583864e-20
5.654840148729818 2.4443219962066593e-21 3.6690039709202935e-13 3.669003798350956e-13 1.7256933695971712e-20
5.67608639626678 2.526061060916677e-21 3.805942954856847e-13 3.8059427766120375e-13 1.7824481067222826e-20
5.686739436050992 2.568197010101688e-21 3.8766902197732356e-13 3.876690038624096e-13 1.8114913899710787e-20
5.6974124697621304 2.611204222557416e-21 3.949007278439734e-13 3.9490070943410183e-13 1.840987161571977e-20
5.718818669136295 2.699916508876151e-21 4.098510893426433e-13 4.0985107032902047e-13 1.901362300715998e-20
5.740305295436557 2.797734570293065e-21 4.2629568142540515e-13 4.26295661780353e-13 1.9645052043804532e-20
5.7835210386641895 3.0516870848748144e-21 4.68491539653718e-13 4.684915186134767e-13 2.1040241517400458e-20
5.827062130521658 3.3443331451157898e-21 5.172834870303091e-13 5.172834644802857e-13 2.2550023177763138e-20
5.8489554468988025 3.549766696813315e-21 5.511217577837178e-13 5.511217343532467e-13 2.343047109157382e-20
5.870931020387893 3.770250216315801e-21 5.875523725764313e-13 5.875523482318939e-13 2.4344537411514606e-20
5.892989160043636 4.0069959228756165e-21 6.267927664451466e-13 6.267927411517163e-13 2.5293430495577097e-20
5.915130176081913 4.276297756519759e-21 6.714314457221995e-13 6.714314194115079e-13 2.6310691791796823e-20
5.95966208400165 5.029567416289426e-21 7.956493321271303e-13 7.956493033552851e-13 2.8771845164465536e-20
6.004529249263818 6.1156587554942306e-21 9.747464051524448e-13 9.74746373289167e-13 3.1863277941884514e-20
6.027089341400364 6.870789124844138e-21 1.0992176212429974e-12 1.099217587422345e-12 3.3820652247036486e-20
6.049734195844842 7.763256052866843e-21 1.2466646281410503e-12 1.246664592134025e-12 3.600702526783021e-20
6.095279466722835 1.0341607821208883e-20 1.6732125754969639e-12 1.6732125335947098e-12 4.190225395792719e-20
6.141167624020661 1.431017164358976e-20 2.3327340447932876e-12 2.3327339943707623e-12 5.042252610312524e-20
6.164241091010745 1.6844560094244056e-20 2.7561872719720975e-12 2.7561872159583753e-12 5.601372079912244e-20
6.187401249150058 1.973181295113206e-20 3.24074383555596e-12 3.2407437733785292e-12 6.21774308525906e-20
6.1990139391386085 2.114158108516285e-20 3.47880038211082e-12 3.4788003167594566e-12 6.535136241110607e-20
6.204828454712694 2.1884214644794162e-20 3.6043767354239832e-12 3.6043766684228956e-12 6.700108598722928e-20
6.210648424152782 2.2426287658441857e-20 3.697121870168612e-12 3.697121801793249e-12 6.837536371309173e-20
6.233982942956859 2.426789048104199e-20 4.015753708009294e-12 4.015753634746343e-12 7.326295089832517e-20
6.239830258556775 2.4503255954615998e-20 4.058504252918044e-12 4.058504178973474e-12 7.39445691677002e-20
6.245683058788269 2.452356509132033e-20 4.065678007816952e-12 4.0656779331847976e-12 7.463215470457345e-20
6.257405133728602 2.4472738710978794e-20 4.064866440911375e-12 4.064866365073205e-12 7.583816860988285e-20
6.269149208991335 2.4110222844357165e-20 4.012169423914564e-12 4.01216934767009e-12 7.624447383217932e-20
6.280915325867298 2.3201475315731482e-20 3.868191560010938e-12 3.868191484354822e-12 7.565611687570264e-20
6.304513850009849 2.0960592104233527e-20 3.507717284846448e-12 3.5077172112931406e-12 7.355330788387109e-20
6.32820103803542 1.8183061055569753e-20 3.054335203057517e-12 3.0543351327616135e-12 7.029590376619308e-20
6.3519772230701035 1.5635836080350363e-20 2.6363281927967744e-12 2.6363281255773536e-12 6.72194217941906e-20
6.375842739491607 1.3492932398668624e-20 2.2835649798919704e-12 2.283564915369808e-12 6.452216340332588e-20
6.399797922933955 1.1775283868698415e-20 2.0003550166265304e-12 2.000354953899082e-12 6.272744901154146e-20
6.42384311029221 1.0347225370361834e-20 1.7643643219271941e-12 1.7643642607088305e-12 6.121836308534233e-20
6.447978639727206 9.306401257371386e-21 1.5928496958169647e-12 1.5928496352674791e-12 6.054948493324586e-20
6.472204850670314 8.43931944814334e-21 1.449870167513674e-12 1.4498701074235902e-12 6.009008417842998e-20
6.496522083828205 7.875594754850822e-21 1.3581061417124824e-12 1.3581060813496045e-12 6.036287811451412e-20
