Dust emission spectrum from A.P. Jones, M. Kohler, N. Ysard, M. Bocchio, and L. Verstraete (2017), A&A, 602A, 46J 
inside the DustPedia framework.

lambda    nu*dP/dnu     j_nu    j_nu(carb.) j_nu(sil)
 (um)   (erg s-1 H-1) (Jy cm2 sr-1 H-1)
0.9927057738263894 2.4859544543470358e-23 6.55063118659858e-16 6.550631186541363e-16 5.721695221500568e-27
1.0001793341362166 2.5269874932300883e-23 6.708885847610173e-16 6.708885847541257e-16 6.891856178151685e-27
1.0077091589558085 2.5679612651003514e-23 6.868993532552474e-16 6.868993532469569e-16 8.290619476360614e-27
1.0114953028030835 2.5884208831637733e-23 6.949734256686644e-16 6.949734256595758e-16 9.088694554148584e-27
1.0152956718711033 2.608859649286953e-23 7.030928533732117e-16 7.030928533632513e-16 9.960363754614279e-27
1.0229392996569957 2.6496465755182446e-23 7.194609818873085e-16 7.194609818753572e-16 1.1951022406131656e-26
1.0267826658714554 2.66994523357793e-23 7.276965475575214e-16 7.276965475444364e-16 1.3084995993663683e-26
1.0306404723013447 2.690214071303389e-23 7.359756839214924e-16 7.359756839071705e-16 1.4321910315343032e-26
1.03451277320114 2.710451134443081e-23 7.442980348337243e-16 7.442980348180538e-16 1.5670651932892473e-26
1.0383996230291617 2.730654479663235e-23 7.526632397190763e-16 7.526632397019354e-16 1.7140831924549238e-26
1.0403485208654093 2.740742903838956e-23 7.568617985317943e-16 7.568617985138697e-16 1.7924676417852804e-26
1.0423010764483396 2.7508221749208034e-23 7.610709336584533e-16 7.6107093363971e-16 1.8742841207160404e-26
1.0462171883269815 2.770952299828225e-23 7.695207474746126e-16 7.695207474541245e-16 2.0487909771978078e-26
1.0471985131304309 2.7759787367811566e-23 7.716397384979512e-16 7.716397384770036e-16 2.0947930920118614e-26
1.048180758391296 2.7810026765544597e-23 7.73761332825393e-16 7.737613328039753e-16 2.1417845605067447e-26
1.0501480137395462 2.791042946009892e-23 7.780123078180406e-16 7.780123077956522e-16 2.238817008685226e-26
1.0521189612883777 2.801072871581574e-23 7.822736251460469e-16 7.822736251226463e-16 2.3400551916254857e-26
1.0531058218030118 2.806076174038216e-23 7.844059927506311e-16 7.844059927267079e-16 2.3923087487652242e-26
1.0540936079674168 2.811051549529156e-23 7.865338583448692e-16 7.865338583204122e-16 2.4456907862325124e-26
1.058054026499678 2.8309246791242493e-23 7.950704120253044e-16 7.95070411998596e-16 2.67085702512981e-26
1.0590464539527713 2.835885723253801e-23 7.972107928957503e-16 7.972107928684484e-16 2.7301774386904946e-26
1.06003981227728 2.840843814191068e-23 7.993536585448569e-16 7.993536585169492e-16 2.7907587382174965e-26
1.0620293250338977 2.850751021149812e-23 8.036468196602018e-16 8.036468196310438e-16 2.915806488150647e-26
1.0660195594769086 2.870528731082686e-23 8.122626887270904e-16 8.122626886952685e-16 3.182187832102368e-26
1.070024785945596 2.8902559784259297e-23 8.209176230669889e-16 8.209176230322713e-16 3.471779100361037e-26
1.0740450607676866 2.909930947010231e-23 8.296112229706544e-16 8.296112229327895e-16 3.786497200486793e-26
1.07808044048254 2.929551835287039e-23 8.383430852646735e-16 8.383430852233895e-16 4.1284080222040424e-26
1.0861967418109137 2.968589534319589e-23 8.559099612458248e-16 8.55909961196796e-16 4.9028824515444026e-26
1.0902777775684922 2.987923898389413e-23 8.647212372015216e-16 8.647212371481171e-16 5.340425241392865e-26
1.0943741465085532 3.007195749396333e-23 8.735684822887818e-16 8.735684822306305e-16 5.815141520508874e-26
1.1026131145906286 3.045545071496564e-23 8.91369188226933e-16 8.913691881580503e-16 6.888271598498134e-26
1.1109141095355224 3.083623985441284e-23 9.093086676383167e-16 9.093086675568272e-16 8.148977690041908e-26
1.1192775983109025 3.121383859880514e-23 9.273729522824832e-16 9.273729521862022e-16 9.628104320376395e-26
1.1277040513999907 3.158649180518075e-23 9.455096525390053e-16 9.45509652425393e-16 1.136122905715268e-25
1.1361939428280308 3.1956001593535925e-23 9.637720711652488e-16 9.637720710313555e-16 1.3389328800626448e-25
1.1447477501889525 3.2322244977092076e-23 9.821566222951963e-16 9.821566221376008e-16 1.5759540590279394e-25
1.1533659546722406 3.268530161365716e-23 1.0006658012990316e-15 1.0006658011137713e-15 1.8526040921867995e-25
1.1707974979042381 3.340302960063648e-23 1.0380949470055047e-15 1.0380949467504466e-15 2.550580430324474e-25
1.1884924949847024 3.410646743280826e-23 1.075976079595362e-15 1.075976079245947e-15 3.4941521010910015e-25
1.2064549276569216 3.480112353930581e-23 1.1144839021894472e-15 1.114483901713103e-15 4.763442771838817e-25
1.2246888378427687 3.547940724290676e-23 1.1533776940961532e-15 1.1533776934499172e-15 6.462358337080318e-25
1.2431983285522175 3.6139733300774315e-23 1.1925999694846639e-15 1.1925999686121455e-15 8.72518340087203e-25
1.2619875648066055 3.678185796150687e-23 1.2321346517451105e-15 1.2321346505726528e-15 1.1724575553693392e-24
1.3004222497298317 3.8000834347660225e-23 1.3117375673834554e-15 1.3117375652958551e-15 2.0876003607618155e-24
1.3400274889804893 3.913159110127987e-23 1.3919083728997691e-15 1.391908369250193e-15 3.649575982031166e-24
1.3808389325824078 4.016996296966617e-23 1.4723595847440985e-15 1.472359578476767e-15 6.267331574269399e-24
1.4228933163050095 4.112103864557428e-23 1.5531229889798912e-15 1.5531229784024412e-15 1.0577450081452863e-23
1.466228494730424 4.2007749336194676e-23 1.634935041734355e-15 1.6349350241812764e-15 1.755307939744425e-23
1.5108834753276823 4.281288683712329e-23 1.7170182738652293e-15 1.7170182452108852e-15 2.865434382153565e-23
1.5568984535646726 4.352253733234028e-23 1.7986386719264463e-15 1.798638625864317e-15 4.6062129260873475e-23
1.6043148490894465 4.4138035292114695e-23 1.8796285538609665e-15 1.8796284808127275e-15 7.304823936616988e-23
1.6531753430134553 4.466129055215122e-23 1.959835502737384e-15 1.9598353885835864e-15 1.14153797187413e-22
1.7035239163302658 4.5098547885684957e-23 2.0392958084278544e-15 2.0392956325987494e-15 1.7582910470695904e-22
1.755405889504358 4.5485701208348693e-23 2.1194436692834194e-15 2.1194434022109682e-15 2.670724508847556e-22
1.8088679632656115 4.5813937434047537e-23 2.1997529992741937e-15 2.1997525990896678e-15 4.001845259480929e-22
1.8639582606462262 4.607729818055222e-23 2.2797783322157612e-15 2.2797777404390754e-15 5.917766855797579e-22
1.9207263702978936 4.6280168146345894e-23 2.359553670202002e-15 2.3595528062553843e-15 8.63946617434727e-22
1.979223391128241 4.6432703672736233e-23 2.439429213378963e-15 2.4394279676706518e-15 1.245708311003154e-21
2.039501978296691 4.6547046937127774e-23 2.5199138726003925e-15 2.519912097990729e-15 1.7746096636262346e-21
2.1016163906111602 4.6657153251036926e-23 2.6028019118134035e-15 2.6027994130366717e-15 2.4987767315321977e-21
2.1656225393682647 4.678271866239046e-23 2.6892900934152762e-15 2.689286614517246e-15 3.478898030179597e-21
2.231578038680979 4.6925164382382586e-23 2.7796320751302163e-15 2.779627284607966e-15 4.790522250221149e-21
2.299542257339062 4.7096281301075076e-23 2.8747325379840857e-15 2.8747260113975456e-15 6.526586539732718e-21
2.369576372248914 4.732211452327945e-23 2.9764890281545954e-15 2.9764802279158766e-15 8.800238718648891e-21
2.4417434235010123 4.763341202778229e-23 3.0873164808266494e-15 3.0873047334353226e-15 1.1747391327205407e-20
2.5161083711144245 4.8082825887265466e-23 3.2113582687330733e-15 3.2113427387771462e-15 1.5529955927955296e-20
2.5927381535095444 4.8756511123781053e-23 3.3555268080509157e-15 3.355506469477037e-15 2.033857387826664e-20
2.6717017477616296 4.97572946176499e-23 3.528695362268891e-15 3.5286689681602703e-15 2.639410862112869e-20
2.753070231689431 5.123997838205375e-23 3.744515748142926e-15 3.744481798174069e-15 3.3949968857231794e-20
2.836916847834745 5.35553359119066e-23 4.032912386153247e-15 4.032869090793906e-15 4.329535934123925e-20
2.9233170693905177 5.747593353517978e-23 4.459964371823666e-15 4.4599096243659566e-15 5.474745771054809e-20
2.967498994190263 6.080095485234586e-23 4.789282038713698e-15 4.789220765632564e-15 6.12730811339636e-20
3.0123486681368425 6.468315240809847e-23 5.172087327323616e-15 5.172018841963596e-15 6.848536002012864e-20
3.0578761833420214 7.336113671085938e-23 5.954638230984806e-15 5.9545617650881386e-15 7.646589666835155e-20
3.1040917844459814 8.45416254465295e-23 6.965857421476426e-15 6.965772204907663e-15 8.521656876492493e-20
3.127460860933648 9.636509128759406e-23 7.99983544177502e-15 7.999745513563625e-15 8.992821139200918e-20
3.1510058709225794 1.1211698538263194e-22 9.377564441908496e-15 9.377469583082502e-15 9.485882599397263e-20
3.162844764501044 1.2677814862895363e-22 1.0643677700358755e-14 1.0643580282430078e-14 9.741792867556889e-20
3.1747281389236908 1.4382738663506108e-22 1.2120417051189091e-14 1.2120317016857473e-14 1.0003433161872758e-19
3.1986289994194426 1.9138089422577166e-22 1.6249196210952046e-14 1.6249090754973577e-14 1.0545597846972054e-19
3.2227097969389145 3.034711676088243e-22 2.5960202032977458e-14 2.5960090811425476e-14 1.1122155197717764e-19
3.2348180950136065 4.0976594539664047e-22 3.5184805881672676e-14 3.5184691577859277e-14 1.14303813408458e-19
3.240889293275058 4.892347035202905e-22 4.20872824904334e-14 4.20871665606163e-14 1.1592981710710704e-19
3.2469718861334385 5.811679230685598e-22 5.008983455528764e-14 5.008971694285729e-14 1.1761243035859014e-19
3.2714166318528037 1.0715451478489057e-21 9.304986865119379e-14 9.304974406837832e-14 1.2458281546970625e-19
3.2744851364798273 1.102199889593285e-21 9.580161263739564e-14 9.580148722848996e-14 1.254089056919886e-19
3.2775565192852394 1.1337350314574584e-21 9.863503176450718e-14 9.86349055249353e-14 1.2623957188345313e-19
3.283707930232385 1.1034073501728568e-21 9.617669023618372e-14 9.617656250182533e-14 1.2773435838642554e-19
3.2898708863219004 1.0072300045436947e-21 8.795832321877742e-14 8.79581941154877e-14 1.2910328971087842e-19
3.29141343181113 9.845489536644409e-22 8.60179692095729e-14 8.60178397623009e-14 1.2944727200557473e-19
3.292184975758714 9.734042835814258e-22 8.506421817502984e-14 8.50640885555037e-14 1.2961952614835187e-19
3.295272960557952 9.030590924450196e-22 7.899088825041032e-14 7.899075795923413e-14 1.3029117616503157e-19
3.3076538914384823 6.593604032545964e-22 5.789117375888645e-14 5.789104076546449e-14 1.3299342198275544e-19
3.310756385682612 6.09761048397096e-22 5.358661654197007e-14 5.3586482866467455e-14 1.3367550263895984e-19
3.313861789986515 5.63997732438272e-22 4.96113657006231e-14 4.9611231340421377e-14 1.3436020171769035e-19
3.3200813396944477 4.998201182803756e-22 4.404857768566428e-14 4.404844185663065e-14 1.3582903364478593e-19
3.345076488085796 3.853365783464013e-22 3.421493525120268e-14 3.4214792885674625e-14 1.423655280516714e-19
3.3482140837626964 3.896299647368233e-22 3.462860536494038e-14 3.462846211423063e-14 1.4325070975176253e-19
3.3513546224236106 3.9397080538992598e-22 3.504724288340191e-14 3.504709874301419e-14 1.4414038772726896e-19
3.3576445397418455 4.256930479416452e-22 3.7940295403713816e-14 3.794014940466134e-14 1.4599905246970907e-19
3.3702598118196083 5.426955181677233e-22 4.854997937724752e-14 4.854982947828998e-14 1.4989895755721013e-19
3.382922481734668 5.693448802675225e-22 5.112542119637484e-14 5.1125267489703266e-14 1.5370667155897371e-19
3.389271646505754 5.831509808999406e-22 5.2463447048753386e-14 5.2463291408616625e-14 1.5564013675458e-19
3.395632727569191 5.980280129674499e-22 5.39028429694313e-14 5.3902685336532636e-14 1.5763289867684075e-19
3.421196662673239 6.694622836806899e-22 6.079580136962884e-14 6.079563546772827e-14 1.6590190058076666e-19
3.4276182099114902 6.550679190747076e-22 5.960026703232475e-14 5.960009926639388e-14 1.6776593088564684e-19
3.4340518103208963 5.919905500969273e-22 5.3962374346058865e-14 5.396220480803257e-14 1.6953802627648712e-19
3.4469541582030403 5.021561785404695e-22 4.5945581383725487e-14 4.594540842582861e-14 1.7295789687009944e-19
3.472904465399547 4.769800926082964e-22 4.397061330967566e-14 4.397043249862724e-14 1.8081104841572913e-19
3.4990501388274233 4.384747059370602e-22 4.0725286122670184e-14 4.072509723111632e-14 1.8889155387728807e-19
3.5253949054701885 3.0144206150881533e-22 2.820856910006654e-14 2.8208372288976966e-14 1.9681108957476823e-19
3.5519380250092896 1.7264643266642545e-22 1.6277676819662427e-14 1.6277471991562068e-14 2.0482810035861195e-19
3.578680990867387 1.215794752977472e-22 1.1549220797487824e-14 1.1549007170955859e-14 2.1362653196517113e-19
3.605625307711299 1.0092498835559908e-22 9.659368497628033e-15 9.65914556771599e-15 2.2292991204210236e-19
3.660119384959845 8.585872816416236e-23 8.341595674475442e-15 8.341353036828227e-15 2.4263764721616393e-19
3.715437065384467 7.518915264820802e-23 7.415399151105245e-15 7.415135498055802e-15 2.6365304944163466e-19
3.8285932144167436 6.97736138539575e-23 7.09087575384888e-15 7.090566082024052e-15 3.096718248294892e-19
3.94519561050918 6.873117298607068e-23 7.197666667121266e-15 7.197305497071202e-15 3.6117005006302035e-19
4.06534921144712 6.948332062039667e-23 7.498041771505109e-15 7.497623319837059e-15 4.1845166804972156e-19
4.189162171576248 7.127351861531549e-23 7.925465972589268e-15 7.924983966287097e-15 4.820063021701994e-19
4.316745939156006 7.381929314348666e-23 8.458547733532712e-15 8.457995675077056e-15 5.520584556560037e-19
4.448215356677963 7.702512832593333e-23 9.094685148140484e-15 9.094056956594558e-15 6.281915459251836e-19
4.58368876423945 8.090128345978925e-23 9.84328286724973e-15 9.84257188798651e-15 7.109792632224639e-19
4.723288106065518 8.553619987586447e-23 1.0724173263341904e-14 1.0723371831436062e-14 8.014319058382554e-19
4.867139040275056 9.110802005760256e-23 1.1770632345186063e-14 1.1769734208011339e-14 8.981371747235272e-19
4.940699165968905 9.447036264317335e-23 1.2389489914707133e-14 1.2388540648194372e-14 9.49266512757502e-19
5.015371051989984 9.795032262436621e-23 1.3040023461588974e-14 1.3039021247516436e-14 1.0022140725395861e-18
5.091171501069577 1.0220032874443688e-22 1.381145563579447e-14 1.3810397628713669e-14 1.0580070808037736e-18
5.129500256944802 1.0438071246310414e-22 1.4212312422634575e-14 1.4211225812789616e-14 1.0866098449596267e-18
5.168117569889187 1.0665371117478098e-22 1.463112733221045e-14 1.4630011438426457e-14 1.1158937839868481e-18
5.20702561229733 1.0944706913030908e-22 1.512736490237934e-14 1.5126217410081422e-14 1.1474922979184125e-18
5.246226572918644 1.1231118048557225e-22 1.5640097928011894e-14 1.5638918249069473e-14 1.179678942421174e-18
5.265937586045735 1.137704735434356e-22 1.5902840610552428e-14 1.590164461669985e-14 1.1959938525832167e-18
5.285722656980489 1.1524831315524636e-22 1.6169939032136973e-14 1.616872657510326e-14 1.2124570337134642e-18
5.305582063971359 1.1674499853904686e-22 1.6441474130803763e-14 1.6440245061913638e-14 1.2290688901225626e-18
5.3255160863122235 1.1835361854908666e-22 1.6730644626514293e-14 1.6729398700666423e-14 1.2459258478646154e-18
5.365609099470188 1.223657681347237e-22 1.7428034206595873e-14 1.742675336594837e-14 1.2808406475031921e-18
5.406003951863644 1.2653035572832581e-22 1.815685063441157e-14 1.8155534223411566e-14 1.316410999998867e-18
5.446702915881641 1.3085476856481806e-22 1.891876029167313e-14 1.8917407650104386e-14 1.352641568748469e-18
5.487708281020852 1.3552849789897234e-22 1.974199669254861e-14 1.9740607039816685e-14 1.3896527319267022e-18
5.529022354014368 1.4203590862277894e-22 2.0845673570353093e-14 2.0844245211816936e-14 1.4283585361576985e-18
5.570647458961463 1.4892726713844003e-22 2.202162323046014e-14 2.202015542752283e-14 1.4678029373072414e-18
5.612585937458331 1.5623028032597946e-22 2.327542655926321e-14 2.327391856685082e-14 1.5079924123877264e-18
5.654840148729818 1.6425997730877627e-22 2.4655937717880907e-14 2.4654388635550884e-14 1.5490823300257294e-18
5.67608639626678 1.6973524749584425e-22 2.5573517576145417e-14 2.5571947013928196e-14 1.5705622172196386e-18
5.686739436050992 1.725576137974647e-22 2.6047550523764188e-14 2.6045969142841726e-14 1.581380922460398e-18
5.6974124697621304 1.7543827275496415e-22 2.6532088529931716e-14 2.653049627761242e-14 1.5922523192903847e-18
5.718818669136295 1.8138009259797605e-22 2.753375087413122e-14 2.7532136720390345e-14 1.6141537408746603e-18
5.740305295436557 1.8793157027821119e-22 2.863546015543012e-14 2.863382375738136e-14 1.6363980487499353e-18
5.7835210386641895 2.049395717103406e-22 3.146209058013221e-14 3.146040802202284e-14 1.6825581093805895e-18
5.827062130521658 2.245373249681057e-22 3.473022733921981e-14 3.4728497371476134e-14 1.729967743678541e-18
5.8489554468988025 2.3829469597233535e-22 3.6996626238199455e-14 3.6994870822805277e-14 1.7554153941765175e-18
5.870931020387893 2.530591245425897e-22 3.94365043422516e-14 3.9434723198008906e-14 1.781144242700373e-18
5.892989160043636 2.68911710210291e-22 4.206440885301495e-14 4.20626016966156e-14 1.8071563993394202e-18
5.915130176081913 2.8694379846656683e-22 4.505371244359379e-14 4.505187835138036e-14 1.8340922134123713e-18
5.95966208400165 3.373815864156026e-22 5.3371873102678515e-14 5.336997867710873e-14 1.89442556980831e-18
6.004529249263818 4.1010188762171357e-22 6.53642324870352e-14 6.536227064928465e-14 1.961837750562464e-18
6.027089341400364 4.606620024352604e-22 7.369863654859437e-14 7.369663628338805e-14 2.000265206310922e-18
6.049734195844842 5.204154198351809e-22 8.357105464892008e-14 8.35690137555329e-14 2.040893387168017e-18
6.095279466722835 6.930430580581059e-22 1.1213037471074229e-13 1.121282358235264e-13 2.1388872159137397e-18
6.141167624020661 9.587419314237222e-22 1.5628673081673514e-13 1.5628446703355115e-13 2.2637831839410204e-18
6.164241091010745 1.1284230374661806e-21 1.8463796002171319e-13 1.8463561899067054e-13 2.3410310426556886e-18
6.187401249150058 1.321721172681418e-21 2.170788742676255e-13 2.1707645353947392e-13 2.4207281515876224e-18
6.1990139391386085 1.416103605391218e-21 2.3301671448786685e-13 2.3301425312766205e-13 2.4613602048488616e-18
6.204828454712694 1.4658214110044739e-21 2.4142390658591427e-13 2.4142142466324657e-13 2.481922667710702e-18
6.210648424152782 1.5021124406637498e-21 2.4763317230258643e-13 2.4763067257686766e-13 2.499725718802574e-18
6.233982942956859 1.6254035814856703e-21 2.6896530064950286e-13 2.689627376171001e-13 2.563032402742375e-18
6.239830258556775 1.6411600339018487e-21 2.7182734366593504e-13 2.718247709335525e-13 2.5727323825866926e-18
6.245683058788269 1.6425186892809802e-21 2.723075575500866e-13 2.723049750877088e-13 2.582462377760434e-18
6.257405133728602 1.63911387202678e-21 2.7225309966002897e-13 2.722504996244e-13 2.60003562893736e-18
6.269149208991335 1.6148418840307112e-21 2.6872498331474266e-13 2.687223742247344e-13 2.6090900081646585e-18
6.280915325867298 1.5540003250292842e-21 2.5908572018507507e-13 2.590831126186082e-13 2.6075664668417465e-18
6.304513850009849 1.4039718790084768e-21 2.349521617970756e-13 2.3494956688958763e-13 2.5949074879893333e-18
6.32820103803542 1.2180179627037573e-21 2.0459894679300535e-13 2.0459637478038126e-13 2.5720126240019866e-18
6.3519772230701035 1.0474836117766725e-21 1.7661419338425e-13 1.7661164102723708e-13 2.552357012886445e-18
6.375842739491607 9.040154242550776e-22 1.5299698413332112e-13 1.5299444813690088e-13 2.5359964202051583e-18
6.399797922933955 7.890220585293148e-22 1.3403704323457365e-13 1.3403451126261963e-13 2.531971954016634e-18
6.42384311029221 6.934138466640203e-22 1.1823794375723632e-13 1.1823541333959464e-13 2.5304176416663973e-18
6.447978639727206 6.237326434563175e-22 1.0675580430336252e-13 1.0675326569510827e-13 2.538608254253213e-18
6.472204850670314 5.656819364066253e-22 9.718382731415276e-14 9.71812785064438e-14 2.5488077090073826e-18
6.496522083828205 5.279420106796615e-22 9.104090668586802e-14 9.103833967103425e-14 2.567014833766445e-18
