Dust emission spectrum from A.P. Jones, M. Kohler, N. Ysard, M. Bocchio, and L. Verstraete (2017), A&A, 602A, 46J 
inside the DustPedia framework.

lambda    nu*dP/dnu     j_nu    j_nu(carb.) j_nu(sil)
 (um)   (erg s-1 H-1) (Jy cm2 sr-1 H-1)
0.9927057738263894 3.499148946136443e-22 9.220456220761924e-15 9.220456109911773e-15 1.1085015048120342e-22
1.0001793341362166 3.5580509220880294e-22 9.44625073935783e-15 9.4462506059249e-15 1.334329284660484e-22
1.0077091589558085 3.6171354606882164e-22 9.675410771767473e-15 9.675410611363419e-15 1.6040405496417006e-22
1.0114953028030835 3.646742639202526e-22 9.791256286731985e-15 9.79125611094945e-15 1.757825361066457e-22
1.0152956718711033 3.6763912362815138e-22 9.907947348336358e-15 9.907947155764817e-15 1.9257154167949655e-22
1.0229392996569957 3.735778416231644e-22 1.0143793637571214e-14 1.014379340668485e-14 2.308863640532444e-22
1.0267826658714554 3.765448943609188e-22 1.026277304046635e-14 1.02627727877689e-14 2.526974496296326e-22
1.0306404723013447 3.795154050555674e-22 1.0382597904529873e-14 1.0382597628052621e-14 2.764772454864149e-22
1.03451277320114 3.8248924626270773e-22 1.0503269759071322e-14 1.0503269456676819e-14 3.0239450652321745e-22
1.0383996230291617 3.854662930223726e-22 1.0624790176474554e-14 1.0624789845842928e-14 3.3063162800207884e-22
1.0403485208654093 3.8695598013049963e-22 1.0685869100088791e-14 1.0685868754407677e-14 3.456811168891806e-22
1.0423010764483396 3.884464229270535e-22 1.0747160775010491e-14 1.0747160413624814e-14 3.613856761790805e-22
1.0462171883269815 3.91429516189219e-22 1.0870383221689755e-14 1.0870382826820265e-14 3.948694908998207e-22
1.0471985131304309 3.92175738746653e-22 1.090132213485917e-14 1.0901321731165659e-14 4.036935092712588e-22
1.048180758391296 3.929221373786497e-22 1.09323144230621e-14 1.0932314010355923e-14 4.127061747863905e-22
1.0501480137395462 3.944154557082931e-22 1.0994459235154513e-14 1.099445880384165e-14 4.313128647278917e-22
1.0521189612883777 3.9590945697131016e-22 1.105681788134551e-14 1.1056817430624369e-14 4.507211404405017e-22
1.0531058218030118 3.966556956498179e-22 1.1088049127284675e-14 1.1088048666547935e-14 4.607367408764874e-22
1.0540936079674168 3.973987788358567e-22 1.1119240942830096e-14 1.11192404718627e-14 4.709673950295958e-22
1.058054026499678 4.003725962493887e-22 1.1244538133106263e-14 1.1244537618999705e-14 5.14106559113576e-22
1.0590464539527713 4.011164133637837e-22 1.1275995055764912e-14 1.1275994530296863e-14 5.254680442871337e-22
1.06003981227728 4.0186037226061356e-22 1.130750508655435e-14 1.1307504549484816e-14 5.370695319708493e-22
1.0620293250338977 4.0334870885127005e-22 1.1370684590744454e-14 1.1370684029732582e-14 5.610118769378199e-22
1.0660195594769086 4.063270120320077e-22 1.1497682211704587e-14 1.1497681599709804e-14 6.119947813255809e-22
1.070024785945596 4.0930740423168243e-22 1.1625532959491916e-14 1.1625532292100998e-14 6.673909181552489e-22
1.0740450607676866 4.122897870026471e-22 1.1754238868279716e-14 1.1754238140717816e-14 7.2756189978311715e-22
1.07808044048254 4.1527406507148327e-22 1.188380204606685e-14 1.1883801253169674e-14 7.92897175255417e-22
1.0861967418109137 4.2124326769037615e-22 1.2145374251161768e-14 1.2145373310391973e-14 9.407697934522825e-22
1.0902777775684922 4.242173885353273e-22 1.227707925407337e-14 1.2277078229829257e-14 1.0242441123064144e-21
1.0943741465085532 4.271928710396481e-22 1.2409642041879241e-14 1.24096409271184e-14 1.1147608426742105e-21
1.1026131145906286 4.331476143316426e-22 1.2677350960348921e-14 1.2677349641140284e-14 1.3192086381856078e-21
1.1109141095355224 4.391069201146756e-22 1.2948521945781299e-14 1.294852038665698e-14 1.5591243158721048e-21
1.1192775983109025 4.450654739973263e-22 1.322303507379906e-14 1.3223033233511617e-14 1.840287441344589e-21
1.1277040513999907 4.510007735947461e-22 1.3500251543175482e-14 1.3500249373820875e-14 2.1693546076235956e-21
1.1361939428280308 4.569385485872186e-22 1.3780967248926027e-14 1.3780964694944259e-14 2.5539817663367233e-21
1.1447477501889525 4.62878473974657e-22 1.4065209853285526e-14 1.4065206850322936e-14 3.0029625891826658e-21
1.1533659546722406 4.688225773062142e-22 1.4353079115879345e-14 1.4353075589490465e-14 3.5263888828812354e-21
1.1707974979042381 4.80741345891791e-22 1.4940416122535918e-14 1.4940411278010757e-14 4.8445251560685835e-21
1.1884924949847024 4.926740386987858e-22 1.554266743461111e-14 1.5542660812503493e-14 6.6221076178297476e-21
1.2064549276569216 5.047027874058063e-22 1.6162786564020626e-14 1.6162777556685117e-14 9.007335507870897e-21
1.2246888378427687 5.167416867123594e-22 1.6798429888729693e-14 1.6798417696943255e-14 1.2191786436765438e-20
1.2431983285522175 5.287780711111775e-22 1.744951204324018e-14 1.7449495620996836e-14 1.6422243343530604e-20
1.2619875648066055 5.408261026012667e-22 1.811682765673911e-14 1.811680564175705e-14 2.201498205500408e-20
1.3004222497298317 5.648649290679041e-22 1.949837577714612e-14 1.9498336770165762e-14 3.900698035944725e-20
1.3400274889804893 5.8890673680647e-22 2.0947377674893376e-14 2.0947309825766908e-14 6.784912646306337e-20
1.3808389325824078 6.130164567203166e-22 2.2469043756390718e-14 2.246892784469819e-14 1.1591169253363619e-19
1.4228933163050095 6.373855411950594e-22 2.407376295637366e-14 2.407356837295124e-14 1.9458342242184182e-19
1.466228494730424 6.624534373667002e-22 2.5782584294155478e-14 2.5782263152327903e-14 3.2114182757777146e-19
1.5108834753276823 6.881282119241885e-22 2.7597501638490927e-14 2.7596980334020625e-14 5.213044703047546e-19
1.5568984535646726 7.143509347358614e-22 2.9521698303834536e-14 2.952086510978554e-14 8.331940490042068e-19
1.6043148490894465 7.412641559886329e-22 3.156690741508375e-14 3.156559379748621e-14 1.3136175975365074e-18
1.6531753430134553 7.6901785047538745e-22 3.374619199238205e-14 3.374415143650929e-14 2.0405558727531338e-18
1.7035239163302658 7.977959323911283e-22 3.6075261337237845e-14 3.6072137512542265e-14 3.1238246955860686e-18
1.755405889504358 8.281912691805079e-22 3.859025354759727e-14 3.858553834898044e-14 4.7151986168236064e-18
1.8088679632656115 8.601568603627081e-22 4.130037144598197e-14 4.129335137615839e-14 7.020069823578053e-18
1.8639582606462262 8.936307798457132e-22 4.421439991794489e-14 4.420408697573257e-14 1.031294221232255e-17
1.9207263702978936 9.286772673258617e-22 4.734779371636565e-14 4.7332838734052717e-14 1.4954982312945765e-17
1.979223391128241 9.65411656067786e-22 5.0719712841773023e-14 5.0698297857236805e-14 2.1414984536224253e-17
2.039501978296691 1.0039206395975622e-21 5.434917386120777e-14 5.4318881606875126e-14 3.02922543326614e-17
2.1016163906111602 1.0446031114526471e-21 5.827391484744635e-14 5.823156954907532e-14 4.234529837102084e-17
2.1656225393682647 1.08759526580211e-21 6.252007701977183e-14 6.246155943404818e-14 5.851758572364577e-17
2.231578038680979 1.1326666533278502e-21 6.709399106980035e-14 6.701402445484582e-14 7.996661495451818e-17
2.299542257339062 1.1797397972930616e-21 7.201070419875587e-14 7.190260978979445e-14 1.0809440896140886e-16
2.369576372248914 1.2288584309684374e-21 7.729332625517988e-14 7.714874616396474e-14 1.4458009121514165e-16
2.4417434235010123 1.280093259050312e-21 8.296808579146255e-14 8.277668080742995e-14 1.9140498403261066e-16
2.5161083711144245 1.3337658410690745e-21 8.907962215684336e-14 8.88287366683508e-14 2.508854884925367e-16
2.5927381535095444 1.3905466987529852e-21 9.57003817124332e-14 9.537468798549803e-14 3.2569372693517534e-16
2.6717017477616296 1.4510471922531259e-21 1.0290558474054632e-13 1.0248672933896821e-13 4.188554015780755e-16
2.753070231689431 1.5162880121289375e-21 1.1080731334043096e-13 1.10273556801026e-13 5.337565394049757e-16
2.836916847834745 1.5892747421450707e-21 1.1967819234931548e-13 1.1900403042339454e-13 6.741619259209661e-16
2.9233170693905177 1.6769310945090751e-21 1.3012494927004493e-13 1.2928091438790626e-13 8.440348821386609e-16
2.967498994190263 1.7332771873088557e-21 1.3652998248875723e-13 1.3559040486762142e-13 9.395776211358226e-16
3.0123486681368425 1.7943101751870976e-21 1.4347366466961322e-13 1.4242910748101797e-13 1.0445571885952547e-15
3.0578761833420214 1.901534601945648e-21 1.5434535431087366e-13 1.531852753636227e-13 1.1600789472509711e-15
3.1040917844459814 2.0298379452791584e-21 1.6724970262678726e-13 1.659638595990104e-13 1.28584302777683e-15
3.127460860933648 2.15347013776644e-21 1.7877227635777619e-13 1.77419076035739e-13 1.3532003220372105e-15
3.1510058709225794 2.312610369313739e-21 1.934287895206365e-13 1.920053640701275e-13 1.4234254505090637e-15
3.162844764501044 2.458128677002058e-21 2.0637254658602845e-13 2.0491277385199662e-13 1.4597727340318365e-15
3.1747281389236908 2.623905485454374e-21 2.2111803273812076e-13 2.1962116976244713e-13 1.4968629756735893e-15
3.1986289994194426 3.076423678255206e-21 2.612037746934929e-13 2.596302718173552e-13 1.5735028761376535e-15
3.2227097969389145 4.130770455381347e-21 3.533635053982501e-13 3.517087766922935e-13 1.6547287059566556e-15
3.2348180950136065 5.12321420046367e-21 4.3990795027892765e-13 4.382098709614042e-13 1.6980793175235788e-15
3.240889293275058 5.864998567073982e-21 5.045468968621363e-13 5.028259511193236e-13 1.720945742812674e-15
3.2469718861334385 6.724517742329834e-21 5.795742810424559e-13 5.778296751331618e-13 1.7446059092941345e-15
3.2714166318528037 1.1253099383942396e-20 9.77186469181154e-13 9.753440745258531e-13 1.842394655300573e-15
3.2744851364798273 1.1536342931944867e-20 1.002722162516421e-12 1.0008682396394715e-12 1.853922876949208e-15
3.2775565192852394 1.1827303120848945e-20 1.028976248104198e-12 1.0271107390156603e-12 1.8655090885377043e-15
3.283707930232385 1.1548395757192015e-20 1.0065969574068162e-12 1.0047107200516407e-12 1.8862373551754132e-15
3.2898708863219004 1.0661220756542894e-20 9.310118810802947e-13 9.291067721182956e-13 1.9051089619989042e-15
3.29141343181113 1.0451634154009275e-20 9.131372711363443e-13 9.11227423217407e-13 1.9098479189373602e-15
3.292184975758714 1.0348595517295965e-20 9.043469416936901e-13 9.024347211339704e-13 1.912220559719674e-15
3.295272960557952 9.70420166531432e-21 8.488298448209888e-13 8.469083936801004e-13 1.9214511408884292e-15
3.3076538914384823 7.458244069733426e-21 6.548262547249228e-13 6.528677252596946e-13 1.9585294652281595e-15
3.310756385682612 6.997325931614075e-21 6.149343624068277e-13 6.129664862580071e-13 1.9678761488207025e-15
3.313861789986515 6.5705679028163276e-21 5.779719107701804e-13 5.75994657036621e-13 1.977253733559254e-15
3.3200813396944477 5.973915135188038e-21 5.264743360576084e-13 5.244769157122764e-13 1.9974203453319136e-15
3.345076488085796 4.926202419365633e-21 4.3740902443316463e-13 4.3532174345301854e-13 2.0872809801460313e-15
3.3482140837626964 4.9678970775256375e-21 4.4152494151078714e-13 4.394254879468103e-13 2.0994535639768146e-15
3.3513546224236106 5.009991412495126e-21 4.4568374984966413e-13 4.435720684367146e-13 2.111681412949412e-15
3.3576445397418455 5.308607354163898e-21 4.731346498919466e-13 4.709974043810384e-13 2.1372455109082244e-15
3.3702598118196083 6.395205157298121e-21 5.721202186234618e-13 5.699293506499905e-13 2.190867973471325e-15
3.382922481734668 6.652025725924997e-21 5.973314748825648e-13 5.950884649491501e-13 2.243009933414663e-15
3.389271646505754 6.784590678805843e-21 6.103788306686744e-13 6.0810938762537e-13 2.2694430433043158e-15
3.395632727569191 6.929806478496348e-21 6.246133330200163e-13 6.223166489258642e-13 2.2966840941521218e-15
3.421196662673239 7.633118325119842e-21 6.931854965353075e-13 6.907760232749966e-13 2.4094732603108738e-15
3.4276182099114902 7.503268993928628e-21 6.826724720166126e-13 6.802378040559905e-13 2.434667960622182e-15
3.4340518103208963 6.91756992480664e-21 6.305649605155606e-13 6.281064511481016e-13 2.4585093674591203e-15
3.4469541582030403 6.0783735965687565e-21 5.561504979856199e-13 5.536462045003096e-13 2.5042934853101936e-15
3.472904465399547 5.845086748473216e-21 5.388318153346655e-13 5.362220904972284e-13 2.6097248374373112e-15
3.4990501388274233 5.4911132003226016e-21 5.100115313087393e-13 5.072938646018373e-13 2.717666706901991e-15
3.5253949054701885 4.2340098615974316e-21 3.9621331924755826e-13 3.933907030771339e-13 2.8226161704244683e-15
3.5519380250092896 3.0395960375686282e-21 2.865831699949774e-13 2.8365500233240236e-13 2.928167662574983e-15
3.578680990867387 2.571543588931977e-21 2.4427909913417755e-13 2.412352345647002e-13 3.0438645694773928e-15
3.605625307711299 2.3891637498432712e-21 2.286630242611333e-13 2.2549726979844869e-13 3.165754462684705e-15
3.660119384959845 2.2694487035097776e-21 2.2048804930402916e-13 2.1706604173946834e-13 3.4220075645607838e-15
3.715437065384467 2.187234364660811e-21 2.157121776176919e-13 2.1201978315648404e-13 3.692394461207877e-15
3.8285932144167436 2.1710813148584775e-21 2.2064025359768783e-13 2.163658870654159e-13 4.274366532271827e-15
3.94519561050918 2.1919934436607672e-21 2.295499619536965e-13 2.2463972549937968e-13 4.9102364543168154e-15
4.06534921144712 2.2257931911991092e-21 2.4018843908625076e-13 2.345889005245837e-13 5.5995385616670624e-15
4.189162171576248 2.2653902912624363e-21 2.5190665505009114e-13 2.45562861070923e-13 6.343793979168027e-15
4.316745939156006 2.3079247755530794e-21 2.644524357808886e-13 2.573119383356952e-13 7.140497445193424e-15
4.448215356677963 2.3522684967154398e-21 2.7774236572500286e-13 2.6976346510915185e-13 7.978900615851018e-15
4.58368876423945 2.3983403914287225e-21 2.9180677827586176e-13 2.829465783222474e-13 8.860199953614299e-15
4.723288106065518 2.4468112587650003e-21 3.067710270011147e-13 2.969809864834047e-13 9.79004051771003e-15
4.867139040275056 2.4988588254190667e-21 3.228381924877197e-13 3.120939114419936e-13 1.0744281045726178e-14
4.940699165968905 2.528311910770991e-21 3.315801278126532e-13 3.203466727138129e-13 1.1233455098840372e-14
5.015371051989984 2.5572672988586535e-21 3.4044630667072173e-13 3.287171158021276e-13 1.1729190868594051e-14
5.091171501069577 2.5921162546638147e-21 3.503012083614238e-13 3.380591381904934e-13 1.2242070170930379e-14
5.129500256944802 2.609343159738106e-21 3.5528403024812603e-13 3.427835400686699e-13 1.2500490179456176e-14
5.168117569889187 2.627000956859101e-21 3.603811351548416e-13 3.4761846061701786e-13 1.2762674537823782e-14
5.20702561229733 2.64938538317979e-21 3.6618814717343557e-13 3.531395295538734e-13 1.304861761956212e-14
5.246226572918644 2.6718348998582387e-21 3.7207123369726176e-13 3.5873459424750436e-13 1.3336639449757399e-14
5.265937586045735 2.683087574970362e-21 3.75042071285896e-13 3.6156067587904693e-13 1.3481395406849137e-14
5.285722656980489 2.6943608235728006e-21 3.7803286707600075e-13 3.6440623771344265e-13 1.3626629362558136e-14
5.305582063971359 2.70565617596102e-21 3.8104395546361657e-13 3.672716283514805e-13 1.3772327112135918e-14
5.3255160863122235 2.7178907620774556e-21 3.8420510527225387e-13 3.7028549036113746e-13 1.3919614911116419e-14
5.365609099470188 2.7495653300217195e-21 3.916088572428983e-13 3.773845103884757e-13 1.4224346854422622e-14
5.406003951863644 2.7818054267003677e-21 3.991834634136488e-13 3.846522443578786e-13 1.453121905577024e-14
5.446702915881641 2.8146535008102736e-21 4.069378248112619e-13 3.920977061791327e-13 1.4840118632129258e-14
5.487708281020852 2.8499168678578523e-21 4.1513814623127196e-13 3.99985909328452e-13 1.5152236902820078e-14
5.529022354014368 2.9016430598804393e-21 4.258550153298884e-13 4.1037737641821526e-13 1.547763891167305e-14
5.570647458961463 2.9554390189154608e-21 4.3701577156221205e-13 4.2121048722205803e-13 1.5805284340153996e-14
5.612585937458331 3.0114758809215832e-21 4.4865429131363464e-13 4.325192327351256e-13 1.6135058578509104e-14
5.654840148729818 3.072619637610933e-21 4.612098434255979e-13 4.4474138294668135e-13 1.6468460478916668e-14
5.67608639626678 3.1160930853716466e-21 4.694927097543962e-13 4.5284979527872304e-13 1.6642914475673285e-14
5.686739436050992 3.1383530729246828e-21 4.737340093515905e-13 4.570036336056851e-13 1.6730375745905438e-14
5.6974124697621304 3.1609734915959344e-21 4.780440846959809e-13 4.612260938881089e-13 1.681799080787202e-14
5.718818669136295 3.2073317224424584e-21 4.868774260258274e-13 4.698837509429236e-13 1.6993675082903822e-14
5.740305295436557 3.25860339051798e-21 4.965190649627944e-13 4.793478014887486e-13 1.717126347404578e-14
5.7835210386641895 3.3943246757061934e-21 5.210928739344965e-13 5.035544694483492e-13 1.7538404486147152e-14
5.827062130521658 3.548872058788397e-21 5.489204675304363e-13 5.310090105037523e-13 1.7911457026683895e-14
5.8489554468988025 3.660223765574079e-21 5.682708549200785e-13 5.501578683306156e-13 1.811298658946289e-14
5.870931020387893 3.7784844890457025e-21 5.888355941668599e-13 5.705201188357897e-13 1.831547533107011e-14
5.892989160043636 3.904198920487192e-21 6.107127856442005e-13 5.921938755900731e-13 1.8518910054127546e-14
5.915130176081913 4.047113262144095e-21 6.354466558040627e-13 6.167168389513841e-13 1.8729816852678507e-14
5.95966208400165 4.451976998559133e-21 7.042777703061778e-13 6.850667418910209e-13 1.9211028415156822e-14
6.004529249263818 5.035688205453751e-21 8.026149221169115e-13 7.828620151845132e-13 1.9752906932398456e-14
6.027089341400364 5.4429341338694485e-21 8.707833994759683e-13 8.507170758906832e-13 2.0066323585284765e-14
6.049734195844842 5.921178381859662e-21 9.508540740263174e-13 9.304556844390654e-13 2.0398389587251954e-14
6.095279466722835 7.30461426974814e-21 1.181844512632896e-12 1.1606287845505651e-12 2.1215728082331134e-14
6.141167624020661 9.422639530687593e-21 1.5360061760612195e-12 1.5137282573457185e-12 2.2277918715501256e-14
6.164241091010745 1.0774477248312744e-20 1.762971362137268e-12 1.7400261060039604e-12 2.294525613330792e-14
6.187401249150058 1.2299686183281264e-20 2.020094771649186e-12 1.996464294992036e-12 2.3630476657150728e-14
6.1990139391386085 1.3041717051148581e-20 2.1459856799810108e-12 2.1220065482045425e-12 2.3979131776467898e-14
6.204828454712694 1.3431341504533405e-20 2.2121705361718777e-12 2.188015305900963e-12 2.415523027091482e-14
6.210648424152782 1.3713763196041833e-20 2.2608045792774923e-12 2.2364994651133492e-12 2.4305114164143554e-14
6.233982942956859 1.4663242409324878e-20 2.426414859696416e-12 2.4015878203739658e-12 2.482703932245025e-14
6.239830258556775 1.4778864449970703e-20 2.4478413944088982e-12 2.4229424111601527e-12 2.4898983248746464e-14
6.245683058788269 1.4779610786207512e-20 2.4502611391867145e-12 2.4252900985370965e-12 2.4971040649618176e-14
6.257405133728602 1.4732222359063005e-20 2.4469887483632724e-12 2.421891863678919e-12 2.509688468435359e-14
6.269149208991335 1.45188057747905e-20 2.416066785338821e-12 2.390925012813193e-12 2.514177252562837e-14
6.280915325867298 1.4015082914992186e-20 2.336619749687546e-12 2.311533189316713e-12 2.5086560370833706e-14
6.304513850009849 1.2785943598139461e-20 2.1397046008641655e-12 2.1148190267281503e-12 2.4885574136015287e-14
6.32820103803542 1.1281589696467465e-20 1.895047068866141e-12 1.870458835869907e-12 2.4588232996233746e-14
6.3519772230701035 9.906955347136573e-21 1.6703926513566812e-12 1.646071096098655e-12 2.4321555258026597e-14
6.375842739491607 8.747865023386299e-21 1.4805023567892413e-12 1.456416036227898e-12 2.4086320561343472e-14
6.399797922933955 7.824339126636824e-21 1.3291786591540793e-12 1.3052132831795433e-12 2.396537597453612e-14
6.42384311029221 7.053515154097578e-21 1.2027350363614793e-12 1.178867836028506e-12 2.3867200332973098e-14
6.447978639727206 6.491980670712209e-21 1.1111437332881906e-12 1.0872855722341582e-12 2.385816105403219e-14
6.472204850670314 6.022006256688277e-21 1.0345771686689601e-12 1.0107103605321133e-12 2.3866808136846747e-14
6.496522083828205 5.714170095153673e-21 9.853794846716945e-13 9.614317957028905e-13 2.3947688968804282e-14
