Dust emission spectrum from A.P. Jones, M. Kohler, N. Ysard, M. Bocchio, and L. Verstraete (2017), A&A, 602A, 46J 
inside the DustPedia framework.

lambda    nu*dP/dnu     j_nu    j_nu(carb.) j_nu(sil)
 (um)   (erg s-1 H-1) (Jy cm2 sr-1 H-1)
0.9927057738263894 5.605681016844426e-22 1.4771287875710444e-14 1.4771287875709968e-14 4.726589222400207e-28
1.0001793341362166 5.698292626100082e-22 1.512836721875433e-14 1.512836721875376e-14 5.694886894216694e-28
1.0077091589558085 5.790772167650292e-22 1.5489632615825426e-14 1.548963261582474e-14 6.852819358802805e-28
1.0114953028030835 5.836951023484744e-22 1.5671817031908668e-14 1.567181703190792e-14 7.513689830462861e-28
1.0152956718711033 5.883083230963949e-22 1.585502607095431e-14 1.5855026070953483e-14 8.235655699148174e-28
1.0229392996569957 5.97514441504424e-22 1.6224364817128028e-14 1.622436481712704e-14 9.884975375233351e-28
1.0267826658714554 6.020961743108603e-22 1.6410198300451997e-14 1.6410198300450918e-14 1.082480861786125e-27
1.0306404723013447 6.0667121653450365e-22 1.6597016135899603e-14 1.6597016135898413e-14 1.185018950780284e-27
1.03451277320114 6.112391266686673e-22 1.678481028533461e-14 1.6784810285333313e-14 1.296852837698307e-27
1.0383996230291617 6.15799465655256e-22 1.697357261012833e-14 1.697357261012691e-14 1.4187842273211823e-27
1.0403485208654093 6.180766594528472e-22 1.7068314267958528e-14 1.7068314267957045e-14 1.4838047476046254e-27
1.0423010764483396 6.20351796968953e-22 1.7163294873084738e-14 1.7163294873083188e-14 1.5516801529158046e-27
1.0462171883269815 6.248956866995541e-22 1.7353968740368138e-14 1.7353968740366437e-14 1.6964779647323555e-27
1.0471985131304309 6.260302895415214e-22 1.7401784909698285e-14 1.740178490969655e-14 1.7346540569342648e-27
1.048180758391296 6.271643311091653e-22 1.7449659895358638e-14 1.7449659895356868e-14 1.773653534175985e-27
1.0501480137395462 6.294307036324323e-22 1.7545585783432297e-14 1.7545585783430445e-14 1.8541906716931336e-27
1.0521189612883777 6.31694750801608e-22 1.7641745336539042e-14 1.7641745336537102e-14 1.9382287630593068e-27
1.0531058218030118 6.328241474312037e-22 1.7689863810360868e-14 1.7689863810358884e-14 1.981608495667938e-27
1.0540936079674168 6.3394724757313285e-22 1.7737880854740073e-14 1.773788085473805e-14 2.0259276578124054e-27
1.058054026499678 6.384332671525735e-22 1.793051593738214e-14 1.7930515937379926e-14 2.212895541204173e-27
1.0590464539527713 6.395531439911544e-22 1.797881574844149e-14 1.7978815748439232e-14 2.2621600546850683e-27
1.06003981227728 6.406723565253605e-22 1.8027171700142536e-14 1.802717170014022e-14 2.312474831904993e-27
1.0620293250338977 6.429087626135471e-22 1.812405147179989e-14 1.8124051471797474e-14 2.4163408650623314e-27
1.0660195594769086 6.473733170845801e-22 1.8318478594254117e-14 1.8318478594251483e-14 2.637641997824075e-27
1.070024785945596 6.518265168445091e-22 1.8513788358339423e-14 1.851378835833655e-14 2.878285984052658e-27
1.0740450607676866 6.562679513905158e-22 1.8709971736920993e-14 1.8709971736917856e-14 3.1398765505021885e-27
1.07808044048254 6.606972135042925e-22 1.8907019624067886e-14 1.8907019624064456e-14 3.4241426570120885e-27
1.0861967418109137 6.695097808828408e-22 1.930344643421629e-14 1.9303446434212224e-14 4.0682994469313555e-27
1.0902777775684922 6.7387448886674815e-22 1.95022899360154e-14 1.950228993601097e-14 4.4323609407754934e-27
1.0943741465085532 6.782251184180382e-22 1.9701946155833363e-14 1.970194615582854e-14 4.827458488233033e-27
1.1026131145906286 6.868825954928247e-22 2.0103658530024114e-14 2.010365853001839e-14 5.72097157807585e-27
1.1109141095355224 6.954791560214437e-22 2.0508506475428112e-14 2.050850647542134e-14 6.771239811838997e-27
1.1192775983109025 7.040038232342275e-22 2.0916174789084508e-14 2.0916174789076503e-14 8.004155368794378e-27
1.1277040513999907 7.1241700083947945e-22 2.1325481635669793e-14 2.132548163566035e-14 9.44960566744827e-27
1.1361939428280308 7.20759326872439e-22 2.173762907221893e-14 2.1737629072207794e-14 1.114203855348973e-26
1.1447477501889525 7.290280187985665e-22 2.2152536032358752e-14 2.2152536032345632e-14 1.3121110441187912e-26
1.1533659546722406 7.37224865018461e-22 2.257025861382974e-14 2.257025861381431e-14 1.5432434497434877e-26
1.1707974979042381 7.534294909648493e-22 2.3414982318868357e-14 2.3414982318847083e-14 2.1269184868105022e-26
1.1884924949847024 7.693118204022316e-22 2.4269916494093167e-14 2.4269916494063995e-14 2.9169352949219085e-26
1.2064549276569216 7.849960397799206e-22 2.5139000142598263e-14 2.513900014255845e-14 3.980995591898579e-26
1.2246888378427687 8.003108466412472e-22 2.601680102882116e-14 2.6016801028767085e-14 5.407038663565642e-26
1.2431983285522175 8.152204025857147e-22 2.6902019977722634e-14 2.6902019977649542e-14 7.308904134240537e-26
1.2619875648066055 8.297191195668638e-22 2.7794291400496046e-14 2.7794291400397713e-14 9.833206429907519e-26
1.3004222497298317 8.572429915864422e-22 2.959087229908022e-14 2.95908722989047e-14 1.7551659747360203e-25
1.3400274889804893 8.827746519448802e-22 3.140024197445858e-14 3.140024197415094e-14 3.076289934472357e-25
1.3808389325824078 9.062193149094684e-22 3.3215880611957534e-14 3.321588061142784e-14 5.296898891945323e-25
1.4228933163050095 9.276909365176667e-22 3.5038466138766736e-14 3.503846613787031e-14 8.96424651006451e-25
1.466228494730424 9.477060489173802e-22 3.6884571373682534e-14 3.6884571372190703e-14 1.4918308707730895e-24
1.5108834753276823 9.65875474014485e-22 3.8736603898503774e-14 3.8736603896061296e-14 2.4424758821950335e-24
1.5568984535646726 9.81884276895055e-22 4.057794283210778e-14 4.0577942828169605e-14 3.938179086633061e-24
1.6043148490894465 9.957615512516549e-22 4.240473850234731e-14 4.2404738496082545e-14 6.2647721153433716e-24
1.6531753430134553 1.0075493351814914e-21 4.4213477341017476e-14 4.421347733119615e-14 9.821333153642296e-24
1.7035239163302658 1.0173875127209481e-21 4.6004897884910225e-14 4.600489786973279e-14 1.5177433057805958e-23
1.755405889504358 1.0260850209770043e-21 4.7811275721458904e-14 4.7811275698327155e-14 2.3131768775871205e-23
1.8088679632656115 1.0334419619524811e-21 4.9620643470196856e-14 4.962064343541448e-14 3.478236282106695e-23
1.8639582606462262 1.0393228961421195e-21 5.1422846224968037e-14 5.1422846173347226e-14 5.162079677076432e-23
1.9207263702978936 1.0438258238914066e-21 5.32185416013676e-14 5.3218541525723744e-14 7.564384710725995e-23
1.979223391128241 1.047179027780456e-21 5.5015515142301636e-14 5.5015515032810853e-14 1.0949077641032868e-22
2.039501978296691 1.0496557419189009e-21 5.6825131551069566e-14 5.682513139446784e-14 1.566017230798359e-22
2.1016163906111602 1.0520214985554148e-21 5.868775475811914e-14 5.868775453669986e-14 2.214192658835831e-22
2.1656225393682647 1.0547201508881113e-21 6.063026122056348e-14 6.06302609109714e-14 3.095920656110351e-22
2.231578038680979 1.0577833874103643e-21 6.265824895628106e-14 6.265824852806634e-14 4.282147167139622e-22
2.299542257339062 1.0614769284751653e-21 6.479200013902811e-14 6.479199955292921e-14 5.860989047834196e-22
2.369576372248914 1.0663884578822507e-21 6.70742120594752e-14 6.707421126539109e-14 7.940841032522113e-22
2.4417434235010123 1.0732119311317226e-21 6.955925980003796e-14 6.955925873469812e-14 1.0653398520221233e-21
2.5161083711144245 1.0831358705139363e-21 7.234053468678404e-14 7.234053327103551e-14 1.4157485104830517e-21
2.5927381535095444 1.098105286543713e-21 7.557394165684332e-14 7.557393979257696e-14 1.8642663595535755e-21
2.6717017477616296 1.1204423210017916e-21 7.945969836564142e-14 7.945969593244647e-14 2.433194937151625e-21
2.753070231689431 1.1536432229466666e-21 8.430595313395234e-14 8.430594998539107e-14 3.148561253165653e-21
2.836916847834745 1.2056293482271368e-21 9.078829305772509e-14 9.078828901710614e-14 4.040618942059307e-21
2.9233170693905177 1.2938472486005678e-21 1.003987630372042e-13 1.0039875789377351e-13 5.143430676678806e-21
2.967498994190263 1.3687680843675666e-21 1.0781765545534382e-13 1.0781764967810373e-13 5.777240094366451e-21
3.0123486681368425 1.4562671575983688e-21 1.1644362760014606e-13 1.1644362111933346e-13 6.480812591963279e-21
3.0578761833420214 1.6520584071309444e-21 1.3409566143575833e-13 1.3409565417306363e-13 7.262694718813025e-21
3.1040917844459814 1.9043582075927764e-21 1.569107251421346e-13 1.5691071701758973e-13 8.124544877904612e-21
3.127460860933648 2.1712637530709385e-21 1.8024942946839192e-13 1.8024942087794387e-13 8.590448035870043e-21
3.1510058709225794 2.526880050454385e-21 2.1135049635199818e-13 2.113504872726074e-13 9.079390802212629e-21
3.162844764501044 2.857907349756516e-21 2.3993602255008637e-13 2.39936013216315e-13 9.333771331785412e-21
3.1747281389236908 3.2428652712434183e-21 2.732781318485435e-13 2.732781222543123e-13 9.594231135618471e-21
3.1986289994194426 4.316626012804828e-21 3.665031628947205e-13 3.6650315275949533e-13 1.0135225087036139e-20
3.2227097969389145 6.847753450686229e-21 5.857856759591019e-13 5.85785665246342e-13 1.0712759962486924e-20
3.2348180950136065 9.248058626394883e-21 7.940902634967971e-13 7.940902524743068e-13 1.1022490337940546e-20
3.240889293275058 1.1042599631539783e-20 9.499592052183512e-13 9.499591940321236e-13 1.1186227489375743e-20
3.2469718861334385 1.3118607067733569e-20 1.1306695217263103e-12 1.130669510370402e-12 1.1355908391237215e-20
3.2714166318528037 2.4192398315427323e-20 2.10079760999981e-12 2.1007975979387523e-12 1.2061057513243061e-20
3.2744851364798273 2.48846551574464e-20 2.1629380627941715e-12 2.1629380506494258e-12 1.214474586540953e-20
3.2775565192852394 2.559679557968264e-20 2.226923112560036e-12 2.226923100331095e-12 1.2228940703364249e-20
3.283707930232385 2.491193479404958e-20 2.1714078989015e-12 2.1714078865213516e-12 1.23801486714792e-20
3.2898708863219004 2.2740036854829267e-20 1.985818038244525e-12 1.98581802572615e-12 1.2518374423702711e-20
3.29141343181113 2.222784916663118e-20 1.942000383113472e-12 1.9420003705603506e-12 1.2553121895129884e-20
3.292184975758714 2.1976178285503056e-20 1.9204625003841074e-12 1.9204624878135825e-12 1.257052436478186e-20
3.295272960557952 2.0387606895564155e-20 1.783310960992123e-12 1.7833109483538336e-12 1.2638289537658243e-20
3.3076538914384823 1.488430956702292e-20 1.306827263469848e-12 1.3068272505587456e-12 1.2911102731082278e-20
3.310756385682612 1.3764248364539676e-20 1.2096205571640434e-12 1.2096205441840204e-12 1.2980022952797477e-20
3.313861789986515 1.2730817630293719e-20 1.1198506887500082e-12 1.1198506757007768e-12 1.3049231506921438e-20
3.3200813396944477 1.1281544554822503e-20 9.942296709605918e-13 9.94229657762591e-13 1.3198001122273217e-20
3.345076488085796 8.696163742368778e-21 7.721527000001787e-13 7.72152686137639e-13 1.386253950690614e-20
3.3482140837626964 8.793107744053543e-21 7.81492917789067e-13 7.814929038362195e-13 1.3952847678789772e-20
3.3513546224236106 8.891123565050361e-21 7.909453259671058e-13 7.909453119234502e-13 1.40436556084161e-20
3.3576445397418455 9.60746406157829e-21 8.562743186419437e-13 8.562743044082157e-13 1.4233727882495175e-20
3.3702598118196083 1.2249644691335738e-20 1.0958631078268053e-12 1.0958630931932573e-12 1.4633548112649105e-20
3.382922481734668 1.2851414349593923e-20 1.1540175285029333e-12 1.1540175134790926e-12 1.5023840752369255e-20
3.389271646505754 1.3163172830038385e-20 1.184230916831471e-12 1.1842309016091613e-12 1.5222309768609094e-20
3.395632727569191 1.3499107521649159e-20 1.2167327569762664e-12 1.2167327415492326e-12 1.5427033474947272e-20
3.421196662673239 1.5112140235596523e-20 1.372377053091038e-12 1.3723770368124947e-12 1.627854364384574e-20
3.4276182099114902 1.4787060582290033e-20 1.345376156677793e-12 1.3453761402068856e-12 1.6470907384336617e-20
3.4340518103208963 1.3362598663316424e-20 1.2180558476616961e-12 1.2180558310078853e-12 1.6653810820533306e-20
3.4469541582030403 1.1333899997037176e-20 1.0370132778659224e-12 1.0370132608588233e-12 1.7007098933640038e-20
3.472904465399547 1.0765312918760736e-20 9.924049637375807e-13 9.924049459153223e-13 1.782225802559102e-20
3.4990501388274233 9.895698177103095e-21 9.191069272396244e-13 9.191069085756562e-13 1.8663968445104007e-20
3.5253949054701885 6.801006906376145e-21 6.364296751033564e-13 6.364296556129266e-13 1.9490429674116483e-20
3.5519380250092896 3.892353743947289e-21 3.6698398764018237e-13 3.6698396731028284e-13 2.032989944878996e-20
3.578680990867387 2.739012958943294e-21 2.601875468910065e-13 2.6018752563501264e-13 2.1255993888706216e-20
3.605625307711299 2.2724631134499798e-21 2.1749379383369222e-13 2.1749377159380632e-13 2.2239885969646272e-20
3.660119384959845 1.9319979356251846e-21 1.8770305555997465e-13 1.8770303122132513e-13 2.433864952674187e-20
3.715437065384467 1.6908236972065002e-21 1.66754540613014e-13 1.667545140163153e-13 2.6596698699923892e-20
3.8285932144167436 1.5680721914573363e-21 1.5935830851419839e-13 1.5935827689758154e-13 3.161661681476196e-20
3.94519561050918 1.5440724958808086e-21 1.6169837720465474e-13 1.616983398497754e-13 3.735487929135396e-20
4.06534921144712 1.5605948731236396e-21 1.6840596336788836e-13 1.68405919479381e-13 4.38885073531252e-20
4.189162171576248 1.6005548569815396e-21 1.7797834739624947e-13 1.7797829607280552e-13 5.132344393691277e-20
4.316745939156006 1.6575749240016557e-21 1.8993241494905802e-13 1.899323551990509e-13 5.975000718664059e-20
4.448215356677963 1.7294994431233826e-21 2.0420936960381062e-13 2.0420930040189277e-13 6.920191784549804e-20
4.58368876423945 1.816561638175819e-21 2.2102158687317472e-13 2.2102150703856355e-13 7.983461116234293e-20
4.723288106065518 1.920760004519244e-21 2.4081690694297476e-13 2.4081681507009217e-13 9.187288263079726e-20
4.867139040275056 2.046119447735694e-21 2.643468680189181e-13 2.643467627202824e-13 1.0529863571010629e-19
4.940699165968905 2.121817426615039e-21 2.7826965910135124e-13 2.782695464708014e-13 1.1263054982876654e-19
5.015371051989984 2.2001742094862197e-21 2.92906879146371e-13 2.92906758747408e-13 1.203989629454704e-19
5.091171501069577 2.2959200304025743e-21 3.102729514944259e-13 3.102728227411063e-13 1.2875331960060353e-19
5.129500256944802 2.345045303270524e-21 3.1929765287905374e-13 3.192975197633805e-13 1.331156731582018e-19
5.168117569889187 2.396262812057993e-21 3.2872767331280043e-13 3.287275356830634e-13 1.3762973708056624e-19
5.20702561229733 2.45922886420593e-21 3.3990542371686753e-13 3.3990528123374206e-13 1.4248312548579168e-19
5.246226572918644 2.5237945321645717e-21 3.5145560275101524e-13 3.51455455263244e-13 1.4748777122939618e-19
5.265937586045735 2.5566931697533048e-21 3.5737465708228853e-13 3.5737450703401626e-13 1.5004827223807222e-19
5.285722656980489 2.5900111283186483e-21 3.633920609410876e-13 3.633919082927306e-13 1.5264835706363133e-19
5.305582063971359 2.6237551774695502e-21 3.6950964423113907e-13 3.6950948894250067e-13 1.552886383499954e-19
5.3255160863122235 2.66002661843138e-21 3.7602534333655485e-13 3.7602518535446996e-13 1.579820846794283e-19
5.365609099470188 2.7505160071780532e-21 3.917442581336259e-13 3.917440945418745e-13 1.635917515101943e-19
5.406003951863644 2.8444511328453334e-21 4.0817299578960765e-13 4.0817282640799755e-13 1.6938161013596748e-19
5.446702915881641 2.941999030765233e-21 4.2534922534222983e-13 4.2534904998468464e-13 1.7535754497924696e-19
5.487708281020852 3.0474371483651834e-21 4.439102848215911e-13 4.4391010327821863e-13 1.8154337243994062e-19
5.529022354014368 3.194272968669432e-21 4.688023771251242e-13 4.688021890382337e-13 1.8808689043965819e-19
5.570647458961463 3.3497862889188548e-21 4.953272357342003e-13 4.953270408842142e-13 1.948499860941344e-19
5.612585937458331 3.514603432408925e-21 5.236110048915093e-13 5.236108030511558e-13 2.0184035355393112e-19
5.654840148729818 3.6958363427729886e-21 5.54756625295253e-13 5.547564162029931e-13 2.0909225988896465e-19
5.67608639626678 3.819424509669929e-21 5.754616160747402e-13 5.754614031496325e-13 2.129251077297737e-19
5.686739436050992 3.883133412673741e-21 5.861585097940329e-13 5.861582949272369e-13 2.1486679584391618e-19
5.6974124697621304 3.948159664407429e-21 5.970927557675658e-13 5.970925389420282e-13 2.1682553763512402e-19
5.718818669136295 4.0822913317788885e-21 6.196975142909343e-13 6.196972934961095e-13 2.207948249204808e-19
5.740305295436557 4.2301907407513134e-21 6.445615190003967e-13 6.445612941369083e-13 2.2486348852958655e-19
5.7835210386641895 4.6141624094181e-21 7.083609791169895e-13 7.083607456626465e-13 2.334543430645333e-19
5.827062130521658 5.056638214626895e-21 7.821336376530015e-13 7.82133395213285e-13 2.4243971641985937e-19
5.8489554468988025 5.367249556501185e-21 8.332964565525579e-13 8.33296209190844e-13 2.4736171383465025e-19
5.870931020387893 5.7006162839570166e-21 8.883788689387699e-13 8.883786165504783e-13 2.52388291631117e-19
5.892989160043636 6.058571274318173e-21 9.477096365522966e-13 9.477093790302764e-13 2.575220201459106e-19
5.915130176081913 6.4657504465362504e-21 1.015202499259533e-12 1.0152022363680013e-12 2.628915314612597e-19
5.95966208400165 7.604678108802977e-21 1.203017388476479e-12 1.2030171133497126e-12 2.751267664330749e-19
6.004529249263818 9.246823921820152e-21 1.4738082579860075e-12 1.47380796869783e-12 2.8928817777303493e-19
6.027089341400364 1.0388563261824063e-20 1.6620058612341254e-12 1.6620055636153125e-12 2.9761881261588274e-19
6.049734195844842 1.1737952142830234e-20 1.8849423030269717e-12 1.884941996427099e-12 3.065998727720533e-19
6.095279466722835 1.56363553343312e-20 2.529872224189959e-12 2.529871895131906e-12 3.2905805332666327e-19
6.141167624020661 2.163671757351502e-20 3.5270511743948906e-12 3.5270508153724364e-12 3.5902245372357866e-19
6.164241091010745 2.5468639151151376e-20 4.1673002245300765e-12 4.1672998465819634e-12 3.779481140756605e-19
6.187401249150058 2.983407861635781e-20 4.899935277356582e-12 4.8999348792530025e-12 3.9810357939211013e-19
6.1990139391386085 3.196560261252314e-20 5.259869171321799e-12 5.259868762886266e-12 4.084355294625163e-19
6.204828454712694 3.30884404037146e-20 5.449736567584905e-12 5.449736153851635e-12 4.137332692280524e-19
6.210648424152782 3.390803504992894e-20 5.589963879302443e-12 5.589963461038108e-12 4.182643326923505e-19
6.233982942956859 3.6692464977500205e-20 6.0717227319162904e-12 6.0717222974282846e-12 4.344880047674923e-19
6.239830258556775 3.7048324541330087e-20 6.136359306410895e-12 6.136358869459215e-12 4.369516810064155e-19
6.245683058788269 3.707902456307395e-20 6.1472047051898675e-12 6.147204265759711e-12 4.394301573659548e-19
6.257405133728602 3.700216277364363e-20 6.145975384121953e-12 6.145974940226239e-12 4.438957138709423e-19
6.269149208991335 3.645403534834898e-20 6.066296730109964e-12 6.0662962840394556e-12 4.460705074357359e-19
6.280915325867298 3.508002185094118e-20 5.848604134100161e-12 5.848603688706302e-12 4.453938594456562e-19
6.304513850009849 3.169184802324749e-20 5.303573608372405e-12 5.303573166957641e-12 4.41414766797256e-19
6.32820103803542 2.7492284872790334e-20 4.618070260162694e-12 4.618069825775507e-12 4.343871876277323e-19
6.3519772230701035 2.3640943987492544e-20 3.986054011968091e-12 3.9860535839152585e-12 4.2805283215707806e-19
6.375842739491607 2.0400929844731242e-20 3.452685270642728e-12 3.4526848479289822e-12 4.2271374580383098e-19
6.399797922933955 1.7803891755097047e-20 3.0244794592557635e-12 3.0244790389099107e-12 4.2034585225214596e-19
6.42384311029221 1.5644707922193288e-20 2.6676682392513024e-12 2.667667820515367e-12 4.187359357143379e-19
6.447978639727206 1.4071011518117844e-20 2.4083430100027316e-12 2.4083425903254883e-12 4.1967724349485687e-19
6.472204850670314 1.2760009545511384e-20 2.192162210579287e-12 2.192161789368432e-12 4.2121085463072112e-19
6.496522083828205 1.1907673801483368e-20 2.053417605488477e-12 2.053417180572714e-12 4.249157630758662e-19
