Dust emission spectrum from A.P. Jones, M. Kohler, N. Ysard, M. Bocchio, and L. Verstraete (2017), A&A, 602A, 46J 
inside the DustPedia framework.

lambda    nu*dP/dnu     j_nu    j_nu(carb.) j_nu(sil)
 (um)   (erg s-1 H-1) (Jy cm2 sr-1 H-1)
0.9927057738263894 1.534318642069779e-25 4.043016769412948e-18 4.043016769412943e-18 4.672782376368668e-33
1.0001793341362166 1.5596751711217817e-25 4.140773434945985e-18 4.14077343494598e-18 5.6311303053547955e-33
1.0077091589558085 1.584995771014367e-25 4.239676761555533e-18 4.239676761555526e-18 6.777483126742611e-33
1.0114953028030835 1.5976394794613018e-25 4.2895534850870355e-18 4.2895534850870286e-18 7.43188354875617e-33
1.0152956718711033 1.6102704737818048e-25 4.339710886414776e-18 4.339710886414768e-18 8.14688640855977e-33
1.0229392996569957 1.6354769966158003e-25 4.440825794320008e-18 4.44082579432e-18 9.780672380131768e-33
1.0267826658714554 1.6480219643274738e-25 4.491702221670545e-18 4.491702221670533e-18 1.0711862222964312e-32
1.0306404723013447 1.660548671822927e-25 4.5428483088622556e-18 4.542848308862244e-18 1.1727972259974392e-32
1.03451277320114 1.6730559103270363e-25 4.594261856999772e-18 4.594261856999759e-18 1.2836376224119107e-32
1.0383996230291617 1.6855424777566598e-25 4.6459406396553906e-18 4.645940639655376e-18 1.4045053387336263e-32
1.0403485208654093 1.6917776360542334e-25 4.671878790770054e-18 4.671878790770039e-18 1.4689664931587978e-32
1.0423010764483396 1.6980071789511768e-25 4.6978824033957564e-18 4.697882403395742e-18 1.5362635213290698e-32
1.0462171883269815 1.7104488258979566e-25 4.750084868309222e-18 4.7500848683092055e-18 1.6798455347751284e-32
1.0471985131304309 1.7135554968866902e-25 4.763175949440319e-18 4.7631759494403026e-18 1.717705005780313e-32
1.048180758391296 1.7166606347833592e-25 4.776283144123202e-18 4.776283144123183e-18 1.7563826648770552e-32
1.0501480137395462 1.7228662379527075e-25 4.8025457285336234e-18 4.802545728533605e-18 1.836260316525243e-32
1.0521189612883777 1.729065489012089e-25 4.8288723293396045e-18 4.828872329339586e-18 1.9196173557332653e-32
1.0531058218030118 1.7321579289850005e-25 4.8420462439942735e-18 4.8420462439942535e-18 1.9626482636528e-32
1.0540936079674168 1.735233137849657e-25 4.855192411072535e-18 4.855192411072516e-18 2.006612851359665e-32
1.058054026499678 1.7475165388999453e-25 4.90793239696517e-18 4.907932396965148e-18 2.1921051519136213e-32
1.0590464539527713 1.750582940727018e-25 4.921156035178716e-18 4.921156035178694e-18 2.2409861171184806e-32
1.06003981227728 1.7536475273608647e-25 4.9343950547073935e-18 4.93439505470737e-18 2.2909113523355628e-32
1.0620293250338977 1.7597711836750239e-25 4.96091908622623e-18 4.960919086226206e-18 2.3939800548774032e-32
1.0660195594769086 1.7719959307458303e-25 5.014150053736602e-18 5.014150053736575e-18 2.6136116856856947e-32
1.070024785945596 1.7841896472969687e-25 5.067622851722071e-18 5.0676228517220406e-18 2.852482871453653e-32
1.0740450607676866 1.796351209313045e-25 5.121335010283215e-18 5.1213350102831845e-18 3.1121931819236473e-32
1.07808044048254 1.8084795017598883e-25 5.175284037924367e-18 5.175284037924333e-18 3.394467520468488e-32
1.0861967418109137 1.8326104382646405e-25 5.283820855190408e-18 5.283820855190367e-18 4.034290809933677e-32
1.0902777775684922 1.844562176545602e-25 5.338262089798937e-18 5.3382620897988915e-18 4.3960034423332495e-32
1.0943741465085532 1.8564754261419149e-25 5.392926020019699e-18 5.3929260200196516e-18 4.7886264252437837e-32
1.1026131145906286 1.8801822237837091e-25 5.502911509069372e-18 5.502911509069316e-18 5.676802860334052e-32
1.1109141095355224 1.903722462413984e-25 5.613756229759869e-18 5.613756229759801e-18 6.721205820583581e-32
1.1192775983109025 1.9270660921652879e-25 5.725373909004581e-18 5.725373909004502e-18 7.947723246152914e-32
1.1277040513999907 1.9501047232480067e-25 5.8374410512739276e-18 5.837441051273835e-18 9.386253703683951e-32
1.1361939428280308 1.9729495880089134e-25 5.9502866939542466e-18 5.950286693954134e-18 1.107127584977145e-31
1.1447477501889525 1.995593065909946e-25 6.063888651543042e-18 6.06388865154291e-18 1.3042503364333055e-31
1.1533659546722406 2.018040047519525e-25 6.178262281541517e-18 6.1782622815413646e-18 1.5345640427079755e-31
1.1707974979042381 2.0624169579922727e-25 6.409552212202472e-18 6.40955221220226e-18 2.1165578296541003e-31
1.1884924949847024 2.105912268202662e-25 6.643640918768427e-18 6.643640918768138e-18 2.9049945665406253e-31
1.2064549276569216 2.1488658801727953e-25 6.881606649026338e-18 6.881606649025943e-18 3.9678893910682625e-31
1.2246888378427687 2.19080885503429e-25 7.121962461562996e-18 7.121962461562458e-18 5.393693830514942e-31
1.2431983285522175 2.231643044288329e-25 7.364352703903044e-18 7.364352703902315e-18 7.297051319035485e-31
1.2619875648066055 2.2713531186443673e-25 7.608677317931753e-18 7.608677317930772e-18 9.825793391842776e-31
1.3004222497298317 2.34674089816839e-25 8.100633183155898e-18 8.10063318315414e-18 1.756999964994065e-30
1.3400274889804893 2.4166767124820784e-25 8.596104722625692e-18 8.596104722622606e-18 3.085291907580221e-30
1.3808389325824078 2.4809007200615024e-25 9.09330674947208e-18 9.093306749466758e-18 5.322800874483195e-30
1.4228933163050095 2.5397245061858123e-25 9.59242433108464e-18 9.592424331075615e-18 9.026438620652965e-30
1.466228494730424 2.5945617928294723e-25 1.0097993965573114e-17 1.0097993965558057e-17 1.5053659702695908e-29
1.5108834753276823 2.6443468629472947e-25 1.0605199092021283e-17 1.0605199091996578e-17 2.4700760134132885e-29
1.5568984535646726 2.6882171751180222e-25 1.1109488706466806e-17 1.1109488706426889e-17 3.9918240823106684e-29
1.6043148490894465 2.7262520208339903e-25 1.1609807979595774e-17 1.1609807979532123e-17 6.365230200556779e-29
1.6531753430134553 2.758566149897181e-25 1.2105194029055356e-17 1.2105194028955317e-17 1.0003665882287935e-28
1.7035239163302658 2.785542209309526e-25 1.2595848021631939e-17 1.259584802147694e-17 1.549962103233302e-28
1.755405889504358 2.8093946300964454e-25 1.3090605410264288e-17 1.3090605410027408e-17 2.368798403616502e-28
1.8088679632656115 2.8295759141781732e-25 1.3586188947081624e-17 1.358618894672439e-17 3.572301795098938e-28
1.8639582606462262 2.8457149916975313e-25 1.4079817250378184e-17 1.407981724984636e-17 5.318270364012668e-28
1.9207263702978936 2.8580799611189736e-25 1.4571669317760533e-17 1.457166931697858e-17 7.819521712695184e-28
1.979223391128241 2.8672956369470546e-25 1.506387564562532e-17 1.5063875644489336e-17 1.1359804086634021e-27
2.039501978296691 2.874109946153995e-25 1.5559546740902495e-17 1.5559546739271208e-17 1.6312838342119356e-27
2.1016163906111602 2.880618815017252e-25 1.6069733441711716e-17 1.6069733439394992e-17 2.316724994725947e-27
2.1656225393682647 2.888037447326468e-25 1.6601793821681573e-17 1.6601793818426185e-17 3.255385121883327e-27
2.231578038680979 2.8964525261705956e-25 1.7157259759879278e-17 1.7157259755351302e-17 4.527977223500197e-27
2.299542257339062 2.906591565111723e-25 1.774168387826838e-17 1.7741683872031332e-17 6.237050310333812e-27
2.369576372248914 2.9200636720258383e-25 1.8366756365086022e-17 1.836675635657374e-17 8.512284995363019e-27
2.4417434235010123 2.9387689655571476e-25 1.9047365020617616e-17 1.9047365009100946e-17 1.1516664752348584e-26
2.5161083711144245 2.965961802057504e-25 1.9809081063819925e-17 1.9809081048365024e-17 1.5454907973345101e-26
2.5927381535095444 3.006967887407422e-25 2.0694592628926723e-17 2.0694592608343056e-17 2.0583670567106216e-26
2.6717017477616296 3.0681454469932456e-25 2.1758720390177898e-17 2.1758720362954527e-17 2.7223366695645547e-26
2.753070231689431 3.1590675524295256e-25 2.3085837607735474e-17 2.3085837571960724e-17 3.57747490544269e-26
2.836916847834745 3.3014233851651254e-25 2.4860923818812832e-17 2.4860923772070346e-17 4.6742496555609756e-26
2.9233170693905177 3.542982273556132e-25 2.7492506407732134e-17 2.7492506346976325e-17 6.075580812140376e-26
2.967498994190263 3.7481253056923657e-25 2.952392647285562e-17 2.952392640379623e-17 6.905939351948128e-26
3.0123486681368425 3.987707517232001e-25 3.1885847778140295e-17 3.188584769967931e-17 7.846096825694419e-26
3.0578761833420214 4.523796011472825e-25 3.671912662049195e-17 3.671912653135418e-17 8.913777535359935e-26
3.1040917844459814 5.21459878635163e-25 4.2965996293628875e-17 4.2965996192436424e-17 1.0119243790130199e-25
3.127460860933648 5.945390896720678e-25 4.935620168598932e-17 4.9356201578143274e-17 1.0784603619253946e-25
3.1510058709225794 6.919067576406007e-25 5.787169700846966e-17 5.787169689353532e-17 1.1493434874806938e-25
3.162844764501044 7.825424517359517e-25 6.569846407446123e-17 6.569846395576685e-17 1.1869439211630509e-25
3.1747281389236908 8.879437092195783e-25 7.48275298989374e-17 7.482752977636231e-17 1.2257509347587772e-25
3.1986289994194426 1.1819368896032846e-24 1.0035236017587744e-16 1.0035236004510631e-16 1.3077112547407197e-25
3.2227097969389145 1.874954226952571e-24 1.6039148271579814e-16 1.6039148257584188e-16 1.3995630143356754e-25
3.2348180950136065 2.5321520994313682e-24 2.1742480331088308e-16 2.174248031657139e-16 1.4516917427855385e-25
3.240889293275058 3.0234936213747238e-24 2.6010139762201866e-16 2.601013974739488e-16 1.4806991739082465e-25
3.2469718861334385 3.591900571068451e-24 3.095795521437222e-16 3.095795519925445e-16 1.5117766024885859e-25
3.2714166318528037 6.623881580212591e-24 5.75198639308059e-16 5.751986391434319e-16 1.6462701095497123e-25
3.2744851364798273 6.813421713242901e-24 5.922127137466679e-16 5.922127135805133e-16 1.6615463249872358e-25
3.2775565192852394 7.008405982592749e-24 6.097318399193674e-16 6.097318397516685e-16 1.6769854379140622e-25
3.283707930232385 6.820897199305316e-24 5.945323066478319e-16 5.945323064777332e-16 1.7009868618315702e-25
3.2898708863219004 6.226240649297942e-24 5.437185995237908e-16 5.437185993518314e-16 1.7195948455169583e-25
3.29141343181113 6.08600569339751e-24 5.317215039389261e-16 5.317215037664986e-16 1.7242725810724413e-25
3.292184975758714 6.017099188437542e-24 5.258245179103227e-16 5.258245177376611e-16 1.7266153221202674e-25
3.295272960557952 5.5821542878145085e-24 4.882729482867699e-16 4.882729481132779e-16 1.7349195448070678e-25
3.3076538914384823 4.075368067182399e-24 3.5781317735207646e-16 3.578131771752867e-16 1.7678969635084988e-25
3.310756385682612 3.768697777932992e-24 3.311982016882661e-16 3.311982015106431e-16 1.7762299586694035e-25
3.313861789986515 3.485746393022768e-24 3.0661938709621923e-16 3.0661938691775937e-16 1.78459868025793e-25
3.3200813396944477 3.0889386717202716e-24 2.722246465701445e-16 2.7222464638965374e-16 1.80490675082183e-25
3.345076488085796 2.381070860705044e-24 2.1142084584119612e-16 2.1142084565031515e-16 1.908809492288104e-25
3.3482140837626964 2.407615000837734e-24 2.139782801126053e-16 2.1397827992016752e-16 1.9243776405322578e-25
3.3513546224236106 2.4344526166237996e-24 2.1656643328812834e-16 2.165664330941208e-16 1.9400757128980668e-25
3.3576445397418455 2.6305886542450255e-24 2.3445370111234645e-16 2.344537009148566e-16 1.9748981076731748e-25
3.3702598118196083 3.354021755648521e-24 3.0005349522206536e-16 3.00053495016845e-16 2.0522034872760575e-25
3.382922481734668 3.5187926448419546e-24 3.1597676962638157e-16 3.159767694140924e-16 2.1228919794599047e-25
3.389271646505754 3.6041554598475516e-24 3.2424950881739444e-16 3.2424950860147503e-16 2.159192763926639e-25
3.395632727569191 3.696138438798742e-24 3.3314889192438477e-16 3.3314889170465594e-16 2.1972873504268354e-25
3.421196662673239 4.137807805442742e-24 3.757662643253294e-16 3.757662640894069e-16 2.359225656709871e-25
3.4276182099114902 4.0488035395244125e-24 3.683736679670254e-16 3.6837366772773797e-16 2.3928744822403265e-25
3.4340518103208963 3.658784582458774e-24 3.335132685106247e-16 3.335132682683554e-16 2.4226943536659583e-25
3.4469541582030403 3.1033244623733603e-24 2.8394362698176046e-16 2.83943626734065e-16 2.4769545502826883e-25
3.472904465399547 2.9476502157121335e-24 2.7173039255895755e-16 2.7173039229644697e-16 2.625105554235744e-25
3.4990501388274233 2.709553438573865e-24 2.516618120873432e-16 2.516618118094224e-16 2.779207810634766e-25
3.5253949054701885 1.8622212711687246e-24 1.742643251059392e-16 1.742643248140535e-16 2.9188571792634795e-25
3.5519380250092896 1.0658196614401448e-24 1.0048900361865729e-16 1.0048900331285823e-16 3.0579903433435617e-25
3.578680990867387 7.500305183736856e-25 7.124778290363664e-17 7.124778258074546e-17 3.22891191170675e-25
3.605625307711299 6.222891306164415e-25 5.955829297214203e-17 5.955829263008129e-17 3.420607364038516e-25
3.660119384959845 5.29074383881641e-25 5.140216593500613e-17 5.1402165550125574e-17 3.848805550557002e-25
3.715437065384467 4.6304553494426705e-25 4.566705895482154e-17 4.566705852180568e-17 4.330158656834931e-25
3.8285932144167436 4.294530586188534e-25 4.364398104920502e-17 4.3643980500379073e-17 5.488259546482252e-25
3.94519561050918 4.229055719199586e-25 4.428752203843569e-17 4.42875213427812e-17 6.956544695249462e-25
4.06534921144712 4.274611927584705e-25 4.6127931860233436e-17 4.612793097827219e-17 8.819612344819281e-25
4.189162171576248 4.384443052150074e-25 4.8754088325736055e-17 4.875408720697557e-17 1.1187604796976243e-24
4.316745939156006 4.5411141404686575e-25 5.203413509516065e-17 5.203413367549378e-17 1.4196668681948944e-24
4.448215356677963 4.738755657134983e-25 5.595250748982119e-17 5.595250568882509e-17 1.800996095518565e-24
4.58368876423945 4.97804536266026e-25 6.056802381265134e-17 6.05680215278631e-17 2.2847882218686867e-24
4.723288106065518 5.264501663300815e-25 6.600413399744686e-17 6.600413109816251e-17 2.8992843643299265e-24
4.867139040275056 5.609199824240227e-25 7.246763659233379e-17 7.246763291589101e-17 3.676442776966394e-24
4.940699165968905 5.817328206900415e-25 7.629242350023122e-17 7.629241936022134e-17 4.140009854177554e-24
5.015371051989984 6.032834173337533e-25 8.031448703021175e-17 8.031448236949789e-17 4.660713845837763e-24
5.091171501069577 6.296067034173278e-25 8.508568572212709e-17 8.508568047261494e-17 5.2495121392395775e-24
5.129500256944802 6.431155535369768e-25 8.756559478317315e-17 8.756558921282439e-17 5.570348749131737e-24
5.168117569889187 6.572003773710152e-25 9.015703530779485e-17 9.015702939707118e-17 5.910723683683336e-24
5.20702561229733 6.7450585281128525e-25 9.322767841428875e-17 9.322767213774807e-17 6.2765406598065224e-24
5.246226572918644 6.922526533458688e-25 9.640090365398934e-17 9.640089698992535e-17 6.664063986353685e-24
5.265937586045735 7.012959594938909e-25 9.802717275671626e-17 9.802716589037933e-17 6.86633698165648e-24
5.285722656980489 7.104549647395291e-25 9.968053458137967e-17 9.968052750689005e-17 7.07448959306822e-24
5.305582063971359 7.197315402165564e-25 1.0136149426252477e-16 1.0136148697384423e-16 7.288680557350119e-24
5.3255160863122235 7.2970119555424535e-25 1.0315165295345253e-16 1.0315164544350158e-16 7.50995093681682e-24
5.365609099470188 7.545583459619523e-25 1.0746852542795102e-16 1.0746851744900646e-16 7.978944555873035e-24
5.406003951863644 7.803629892358384e-25 1.1198051372431336e-16 1.1198050524842875e-16 8.475884594774501e-24
5.446702915881641 8.071610188485058e-25 1.1669796981692261e-16 1.1669796081461332e-16 9.002309304354251e-24
5.487708281020852 8.361241000491693e-25 1.2179548562572866e-16 1.2179547606372721e-16 9.562001474169216e-24
5.529022354014368 8.764294808958235e-25 1.286277747883421e-16 1.2862776461383337e-16 1.0174508789940161e-23
5.570647458961463 9.19115827843274e-25 1.359081036993845e-16 1.3590809287498658e-16 1.0824397911907979e-23
5.612585937458331 9.643548310171829e-25 1.4367106043449012e-16 1.4367104892072092e-16 1.1513769178188064e-23
5.654840148729818 1.0140945230268984e-24 1.522187681348197e-16 1.5221875588578493e-16 1.2249034794080732e-23
5.67608639626678 1.0479967123145206e-24 1.578986258748301e-16 1.5789861322294812e-16 1.2651881998585355e-23
5.686739436050992 1.0654726932466735e-24 1.6083297165669078e-16 1.608329587986585e-16 1.2858032287690247e-23
5.6974124697621304 1.083309776091557e-24 1.6383238636159224e-16 1.6383237329419788e-16 1.306739435570468e-23
5.718818669136295 1.1201020707511875e-24 1.7003305560119574e-16 1.7003304210525641e-16 1.349593930644828e-23
5.740305295436557 1.160666457236976e-24 1.7685276635932562e-16 1.7685275241519563e-16 1.3944129951212557e-23
5.7835210386641895 1.265948781394955e-24 1.943470209177099e-16 1.943470059832693e-16 1.4934440553750306e-23
5.827062130521658 1.3872596388121663e-24 2.1457386936142663e-16 2.145738533553375e-16 1.600608911050198e-23
5.8489554468988025 1.4723961178980061e-24 2.2859799134921777e-16 2.2859797471818346e-16 1.663103426707752e-23
5.870931020387893 1.5637660385522988e-24 2.436958804828806e-16 2.4369586320303866e-16 1.727984189155519e-23
5.892989160043636 1.6618713637998067e-24 2.5995757660879054e-16 2.5995755865542094e-16 1.7953369680866758e-23
5.915130176081913 1.773460006845973e-24 2.784550758916714e-16 2.784550572162459e-16 1.8675425477776707e-23
5.95966208400165 2.085539066059028e-24 3.2992057322080794e-16 3.299205527984469e-16 2.0422361163252818e-23
6.004529249263818 2.5354507740841087e-24 4.041137065175808e-16 4.041136839009093e-16 2.2616671480560586e-23
6.027089341400364 2.8482376983092105e-24 4.556729963010039e-16 4.55672972294981e-16 2.4006022937270576e-23
6.049734195844842 3.2178980037736876e-24 5.167470441463696e-16 5.167470185884511e-16 2.5557918521756322e-23
6.095279466722835 4.285794277072504e-24 6.934168268964943e-16 6.934167971541209e-16 2.974237345542262e-23
6.141167624020661 5.9294075075655605e-24 9.665663768992612e-16 9.665663411091673e-16 3.579009385582778e-23
6.164241091010745 6.979036920423865e-24 1.1419433112574162e-15 1.141943271498672e-15 3.9758744346020984e-23
6.187401249150058 8.17478415618225e-24 1.3426227699785809e-15 1.3426227258448125e-15 4.413376833554817e-23
6.1990139391386085 8.758641079872843e-24 1.4412150071792262e-15 1.4412149607925897e-15 4.638663659008414e-23
6.204828454712694 9.066201256411001e-24 1.4932226455315348e-15 1.4932225979739186e-15 4.7557616431611034e-23
6.210648424152782 9.29070899330934e-24 1.5316348354965616e-15 1.5316347869634775e-15 4.853308379895385e-23
6.233982942956859 1.0053455238845625e-23 1.6636056679602386e-15 1.6636056159579274e-15 5.2002311098876924e-23
6.239830258556775 1.015095156476757e-23 1.6813145229792739e-15 1.6813144704931478e-15 5.2486126245005965e-23
6.245683058788269 1.0159390126566138e-23 1.6842905530497979e-15 1.6842905000756205e-15 5.297417697947875e-23
6.257405133728602 1.0138398996033601e-23 1.6839650980729283e-15 1.6839650442427183e-15 5.383021007020844e-23
6.269149208991335 9.988333279980095e-24 1.6621532550945982e-15 1.6621532009759908e-15 5.411860700633899e-23
6.280915325867298 9.612063943682887e-24 1.6025405331026196e-15 1.6025404794016306e-15 5.370098908196202e-23
6.304513850009849 8.684188541222526e-24 1.4532832898722937e-15 1.4532832376638859e-15 5.220840755154435e-23
6.32820103803542 7.534079802971182e-24 1.2655517734078502e-15 1.26555172351156e-15 4.9896290168539386e-23
6.3519772230701035 6.479341274735532e-24 1.092469247282766e-15 1.0924691995701743e-15 4.771259198771965e-23
6.375842739491607 5.592024250971739e-24 9.46402929246552e-16 9.464028834484838e-16 4.5798068094866055e-23
6.399797922933955 4.880827685231987e-24 8.291424864411919e-16 8.291424419170187e-16 4.452417324090735e-23
6.42384311029221 4.289545151162668e-24 7.314347712658882e-16 7.314347278128697e-16 4.345301851881523e-23
6.447978639727206 3.858632350680243e-24 6.604294394873899e-16 6.604293965091434e-16 4.2978246354630436e-23
6.472204850670314 3.49966515737828e-24 6.012404364058188e-16 6.012403937536569e-16 4.2652162014891666e-23
6.496522083828205 3.266332220596039e-24 5.632623297348517e-16 5.632622868890595e-16 4.2845792150672333e-23
