Dust emission spectrum from A.P. Jones, M. Kohler, N. Ysard, M. Bocchio, and L. Verstraete (2017), A&A, 602A, 46J 
inside the DustPedia framework.

lambda    nu*dP/dnu     j_nu    j_nu(carb.) j_nu(sil)
 (um)   (erg s-1 H-1) (Jy cm2 sr-1 H-1)
0.9927057738263894 2.8586900827621316e-21 7.5328107384334e-14 7.532810338713155e-14 3.9972024646658125e-21
1.0001793341362166 2.906712323891675e-21 7.71701530976091e-14 7.717014828775802e-14 4.809851074289701e-21
1.0077091589558085 2.954932453263739e-21 7.904095823581222e-14 7.904095245582694e-14 5.77998527892176e-21
1.0114953028030835 2.979114649759846e-21 7.998720482708708e-14 7.998719849413266e-14 6.332954426427251e-21
1.0152956718711033 3.0033438657063736e-21 8.094071326441695e-14 8.094070632791338e-14 6.936503573204927e-21
1.0229392996569957 3.051916628136948e-21 8.286897408150173e-14 8.286896576810319e-14 8.313398532019351e-21
1.0267826658714554 3.0762050693394013e-21 8.384231183414231e-14 8.384230273720282e-14 9.096939485748122e-21
1.0306404723013447 3.100536324062859e-21 8.482296505571467e-14 8.482295510471451e-14 9.951000163363558e-21
1.03451277320114 3.1249097025521636e-21 8.581096043704585e-14 8.581094955544172e-14 1.0881604128495147e-20
1.0383996230291617 3.1493245386456852e-21 8.68063252907845e-14 8.680631339552473e-14 1.1895259758975484e-20
1.0403485208654093 3.1615473017145015e-21 8.7306779981709e-14 8.730676754630169e-14 1.2435407300409134e-20
1.0423010764483396 3.173780190362725e-21 8.780908757853838e-14 8.780907457954168e-14 1.2998996689851859e-20
1.0462171883269815 3.198276040487129e-21 8.881927593839741e-14 8.88192617379926e-14 1.4200404784891345e-20
1.0471985131304309 3.204406214094259e-21 8.907298677482032e-14 8.907297225785628e-14 1.451696405044225e-20
1.048180758391296 3.2105388539863032e-21 8.932716403660408e-14 8.932714919633333e-14 1.4840270733217688e-20
1.0501480137395462 3.222811497146783e-21 8.983691971283611e-14 8.98369042051603e-14 1.5507675795818326e-20
1.0521189612883777 3.2350939000389128e-21 9.03485467496022e-14 9.03485305458569e-14 1.620374528937582e-20
1.0531058218030118 3.2412306370199242e-21 9.06048367142705e-14 9.060482015135366e-14 1.6562916841457312e-20
1.0540936079674168 3.2473432424084995e-21 9.086085277409832e-14 9.086083584432016e-14 1.6929778151193685e-20
1.058054026499678 3.2718165754954226e-21 9.188957134511574e-14 9.188955286865751e-14 1.8476458227558292e-20
1.0590464539527713 3.277940597212921e-21 9.214791700319195e-14 9.214789811945163e-14 1.8883740315499982e-20
1.06003981227728 3.2840668789128172e-21 9.240673005152374e-14 9.240671075192447e-14 1.9299599280321798e-20
1.0620293250338977 3.296326192342329e-21 9.292576031315651e-14 9.292574015541932e-14 2.0157737193169802e-20
1.0660195594769086 3.320871616089419e-21 9.396945164122692e-14 9.396942965652413e-14 2.1984702776461678e-20
1.070024785945596 3.3454523983200762e-21 9.502067814797383e-14 9.502065417867305e-14 2.3969300791460062e-20
1.0740450607676866 3.370068119606291e-21 9.607947353780138e-14 9.607944741340447e-14 2.6124396931794286e-20
1.07808044048254 3.3947183900478726e-21 9.714587243132406e-14 9.714584396748142e-14 2.846384265217612e-20
1.0861967418109137 3.444083577166835e-21 9.930054010433947e-14 9.93005063477924e-14 3.3756547056319474e-20
1.0902777775684922 3.468712398721978e-21 1.0038640135834575e-13 1.0038636461524361e-13 3.674310215192056e-20
1.0943741465085532 3.49337304588365e-21 1.0147994490793357e-13 1.0147990492718671e-13 3.9980746894753535e-20
1.1026131145906286 3.54278894063864e-21 1.0369023698357643e-13 1.0369018969307162e-13 4.7290504863009705e-20
1.1109141095355224 3.5923298401478e-21 1.0593174382105166e-13 1.0593168795739814e-13 5.586365353429045e-20
1.1192775983109025 3.641956237704264e-21 1.0820366413929932e-13 1.0820359823414714e-13 6.590515215011768e-20
1.1277040513999907 3.6914902691330976e-21 1.1050102376822604e-13 1.1050094611733266e-13 7.765089338799978e-20
1.1361939428280308 3.741142614750028e-21 1.128304101434127e-13 1.128303187714128e-13 9.137199991519623e-20
1.1447477501889525 3.790914157668788e-21 1.1519222897870586e-13 1.1519212159904616e-13 1.0737965966525009e-19
1.1533659546722406 3.8408238408784254e-21 1.1758744379385268e-13 1.175873177631107e-13 1.2603074196755165e-19
1.1707974979042381 3.941209453390504e-21 1.224843874214646e-13 1.224842144643378e-13 1.729571268041637e-19
1.1884924949847024 4.042172213310134e-21 1.2752070028052843e-13 1.2752046411571589e-13 2.3616481252653747e-19
1.2064549276569216 4.1443936864236685e-21 1.3272157844668517e-13 1.327212575699261e-13 3.2087675914201856e-19
1.2246888378427687 4.2472256142342354e-21 1.3807038126971428e-13 1.3806994743522698e-13 4.338344872835891e-19
1.2431983285522175 4.350590824699375e-21 1.4356814538710406e-13 1.4356756167836935e-13 5.837087346880811e-19
1.2619875648066055 4.454647622521785e-21 1.4922372063877665e-13 1.4922293904393597e-13 7.815948406767034e-19
1.3004222497298317 4.664234970413148e-21 1.6100310266401548e-13 1.6100172105868772e-13 1.3816053277897021e-18
1.3400274889804893 4.876676595037005e-21 1.7346309704064996e-13 1.7346069965378218e-13 2.397386867801227e-18
1.3808389325824078 5.092814119844586e-21 1.8666817513214085e-13 1.8666408959929415e-13 4.085532846682512e-18
1.4228933163050095 5.3145091817663646e-21 2.0072660266411848e-13 2.0071976147800148e-13 6.841186117022144e-18
1.466228494730424 5.545626581879393e-21 2.15834920231636e-13 2.1582365853467825e-13 1.1261696957717742e-17
1.5108834753276823 5.7858101272799546e-21 2.3204092159092775e-13 2.320226886117162e-13 1.82329792116105e-17
1.5568984535646726 6.0349637808298554e-21 2.494045592284484e-13 2.493754954410316e-13 2.906378741681253e-17
1.6043148490894465 6.294619740095635e-21 2.6805785352422263e-13 2.6801215505466183e-13 4.5698469560857916e-17
1.6531753430134553 6.566404179759498e-21 2.8814823480724396e-13 2.880774420997291e-13 7.079270751493398e-17
1.7035239163302658 6.852207008118202e-21 3.098476045294332e-13 3.0973953237214874e-13 1.0807215728443467e-16
1.755405889504358 7.15726078227137e-21 3.3349845449038106e-13 3.3333578956569174e-13 1.6266492468928316e-16
1.8088679632656115 7.481699729548283e-21 3.5923328885309366e-13 3.5899180871663174e-13 2.4148013646178924e-16
1.8639582606462262 7.825530233454345e-21 3.871857719265854e-13 3.8683206165420556e-13 3.537102723798065e-16
1.9207263702978936 8.189863287037952e-21 4.1755297682315805e-13 4.1704158405560187e-13 5.113927675562084e-16
1.979223391128241 8.576312159420726e-21 4.5057265181464007e-13 4.4984257585011796e-13 7.300759645219991e-16
2.039501978296691 8.986303956435582e-21 4.864908408435143e-13 4.854613066321141e-13 1.0295342114000704e-15
2.1016163906111602 9.423961880450147e-21 5.257223017297385e-13 5.242876388918091e-13 1.4346628379294523e-15
2.1656225393682647 9.89137495601795e-21 5.686026259277641e-13 5.666263743963783e-13 1.9762515313858825e-15
2.231578038680979 1.0387673458073074e-20 6.153182564210483e-13 6.126264082665726e-13 2.6918481544756356e-15
2.299542257339062 1.091345311528273e-20 6.661515072008645e-13 6.625248622837989e-13 3.626644917065523e-15
2.369576372248914 1.1470314782299492e-20 7.214653538399807e-13 7.166309477614537e-13 4.834406078527051e-15
2.4417434235010123 1.2060175811531373e-20 7.816693778495471e-13 7.752912614379229e-13 6.3781164116241875e-15
2.5161083711144245 1.2687000871026892e-20 8.473400720689836e-13 8.390092119069934e-13 8.330860161990202e-15
2.5927381535095444 1.3357354109532942e-20 9.192815229411557e-13 9.085052654892103e-13 1.0776257451945346e-14
2.6717017477616296 1.4076806610011222e-20 9.983011050340095e-13 9.844929738151297e-13 1.3808131218879707e-14
2.753070231689431 1.485347970642779e-20 1.0854627662161585e-12 1.0679323292651567e-12 1.7530436951001958e-14
2.836916847834745 1.5709568916351562e-20 1.1829879130642682e-12 1.1609303418930264e-12 2.2057571171242194e-14
2.9233170693905177 1.669350480072089e-20 1.2953671575688592e-12 1.267859328303192e-12 2.7507829265667262e-14
2.967498994190263 1.7277929627810003e-20 1.3609799095028034e-12 1.3304228883790106e-12 3.055702112379264e-14
3.0123486681368425 1.7901360022104673e-20 1.431398963489496e-12 1.3974987138061411e-12 3.3900249683354854e-14
3.0578761833420214 1.8854659143220882e-20 1.5304107760613664e-12 1.4928387460789955e-12 3.7572029982371153e-14
3.1040917844459814 1.9953917648285583e-20 1.6441148913768075e-12 1.6025563631214573e-12 4.1558528255350004e-14
3.127460860933648 2.09164194446674e-20 1.7363955282219925e-12 1.6927061667558436e-12 4.368936146614904e-14
3.1510058709225794 2.2120511342639514e-20 1.8501792560300494e-12 1.804271448583358e-12 4.5907807446690816e-14
3.162844764501044 2.3180141568037513e-20 1.9460921189263483e-12 1.8990372755808876e-12 4.705484334546042e-14
3.1747281389236908 2.4373636800887828e-20 2.053980469175513e-12 2.00575597977116e-12 4.8224489404353295e-14
3.1986289994194426 2.757683505025058e-20 2.341411379758509e-12 2.2907725908780507e-12 5.0638788880458647e-14
3.2227097969389145 3.48895681191793e-20 2.9846006273147086e-12 2.9314062489437527e-12 5.3194378370955636e-14
3.2348180950136065 4.1713508904150046e-20 3.5817561950280525e-12 3.527198680684492e-12 5.45575143435612e-14
3.240889293275058 4.680110192058517e-20 4.0261477430403524e-12 3.970871206250685e-12 5.5276536789667807e-14
3.2469718861334385 5.2694110438500926e-20 4.541612104065137e-12 4.485591593621081e-12 5.602051044405594e-14
3.2714166318528037 8.356419063933412e-20 7.256471627483647e-12 7.197378836751743e-12 5.909279073190462e-14
3.2744851364798273 8.549779881365087e-20 7.43134442366693e-12 7.371890188541699e-12 5.945423512523008e-14
3.2775565192852394 8.748265501065698e-20 7.610997469776392e-12 7.551180040102909e-12 5.981742967348345e-14
3.283707930232385 8.560457503507205e-20 7.461582247624584e-12 7.401116556759562e-12 6.046569086502474e-14
3.2898708863219004 7.959287274699186e-20 6.950602737616547e-12 6.88954823992477e-12 6.105449769177647e-14
3.29141343181113 7.817226976131275e-20 6.8297466249329965e-12 6.768544303943324e-12 6.120232098967404e-14
3.292184975758714 7.747380316181879e-20 6.770309732723704e-12 6.709033406761189e-12 6.127632596251448e-14
3.295272960557952 7.311583239128829e-20 6.3954669124906775e-12 6.3339029378972555e-12 6.156397459342184e-14
3.3076538914384823 5.790515388184307e-20 5.08401370231276e-12 5.021294964286885e-12 6.271873802587481e-14
3.310756385682612 5.477767137393132e-20 4.813935030276508e-12 4.7509253421785905e-12 6.300968809791944e-14
3.313861789986515 5.187972479732738e-20 4.563536077070294e-12 4.500234534234973e-12 6.330154283532074e-14
3.3200813396944477 4.784017536096398e-20 4.216100160460393e-12 4.15217033215823e-12 6.392982830216247e-14
3.345076488085796 4.0845816241326923e-20 3.6267954731336116e-12 3.56006431811618e-12 6.673115501743148e-14
3.3482140837626964 4.114659698663186e-20 3.65692938971657e-12 3.589818689891563e-12 6.711069982500672e-14
3.3513546224236106 4.1450004530924994e-20 3.6873503225084005e-12 3.619858429921496e-12 6.749189258690494e-14
3.3576445397418455 4.351613621941776e-20 3.878416786405411e-12 3.810127704550779e-12 6.828908185463247e-14
3.3702598118196083 5.095569116132208e-20 4.558537286963566e-12 4.488576170960387e-12 6.996111600318035e-14
3.382922481734668 5.277211592192707e-20 4.738773891608037e-12 4.6671894471281005e-12 7.15844444799384e-14
3.389271646505754 5.3707647675730404e-20 4.831833302587303e-12 4.759426413660656e-12 7.240688892664732e-14
3.395632727569191 5.473590398030335e-20 4.9335829978933606e-12 4.860328529750862e-12 7.325446814249941e-14
3.421196662673239 5.970691862474328e-20 5.422157533872116e-12 5.345396494093918e-12 7.67610397781986e-14
3.4276182099114902 5.885385083462131e-20 5.3547199053477085e-12 5.27717835089987e-12 7.754155444783693e-14
3.4340518103208963 5.489530896415838e-20 5.003933275085989e-12 4.925654479572917e-12 7.827879551307131e-14
3.4469541582030403 4.922579751691706e-20 4.503992946110948e-12 4.424301116977569e-12 7.969182913337796e-14
3.472904465399547 4.7737954985655235e-20 4.400743744650863e-12 4.31779386187952e-12 8.294988277134263e-14
3.4990501388274233 4.544154261667407e-20 4.220585132646637e-12 4.134305743449767e-12 8.627938919687004e-14
3.5253949054701885 3.7050762138011435e-20 3.467163735375597e-12 3.377656985794706e-12 8.950674958089096e-14
3.5519380250092896 2.9067126132916236e-20 2.7405448115001054e-12 2.6478001101102265e-12 9.274470138987857e-14
3.578680990867387 2.6029208719132522e-20 2.4725972697689957e-12 2.3763044483056514e-12 9.629282146334436e-14
3.605625307711299 2.493827924529901e-20 2.3868026427543136e-12 2.286776536653419e-12 1.0002610610089495e-13
3.660119384959845 2.4424745760284498e-20 2.3729835968988154e-12 2.2651304617566097e-12 1.078531351422055e-13
3.715437065384467 2.4165929220005748e-20 2.383322656422714e-12 2.2672421206943152e-12 1.160805357283981e-13
3.8285932144167436 2.466799955467653e-20 2.506932209421307e-12 2.373252644574329e-12 1.3367956484697776e-13
3.94519561050918 2.5432069036861967e-20 2.6632974184748184e-12 2.510552671988129e-12 1.527447464866887e-13
4.06534921144712 2.6289888805697127e-20 2.836978467253574e-12 2.6637552214750187e-12 1.7322324577855584e-13
4.189162171576248 2.7189110791388455e-20 3.0233721666689878e-12 2.8282501034705504e-12 1.9512206319843693e-13
4.316745939156006 2.810457238776333e-20 3.220348732008914e-12 3.002025538140028e-12 2.1832319386888568e-13
4.448215356677963 2.9021078862633277e-20 3.426642456188422e-12 3.1841797857447362e-12 2.424626704436848e-13
4.58368876423945 2.9932811524438395e-20 3.6419339502019725e-12 3.3743979116803244e-12 2.675360385216489e-13
4.723288106065518 3.0839393266619624e-20 3.866514963343478e-12 3.5728467537538937e-12 2.936682095895849e-13
4.867139040275056 3.1738132465422e-20 4.100384228930707e-12 3.780286560031112e-12 3.2009766889959487e-13
4.940699165968905 3.219720466449705e-20 4.2225617782295425e-12 3.8890639248954285e-12 3.3349785333411303e-13
5.015371051989984 3.264260456089272e-20 4.345675623282988e-12 3.998701938522207e-12 3.4697368476078175e-13
5.091171501069577 3.311808564235553e-20 4.475611538742075e-12 4.11478362056364e-12 3.6082791817843506e-13
5.129500256944802 3.334987318465515e-20 4.540865891513256e-12 4.173100560740751e-12 3.677653307725044e-13
5.168117569889187 3.3581762465305096e-20 4.606863064190353e-12 4.2320803346416496e-12 3.747827295487029e-13
5.20702561229733 3.3845516126876035e-20 4.678000761729238e-12 4.295519772441984e-12 3.824809892872531e-13
5.246226572918644 3.4106142654051817e-20 4.7495129937187206e-12 4.359308099584232e-12 3.902048941344882e-13
5.265937586045735 3.4235275507585755e-20 4.7854079595408255e-12 4.3913327081956005e-12 3.940752513452252e-13
5.285722656980489 3.4363618067145427e-20 4.8213947246314836e-12 4.423444165903904e-12 3.9795055872757855e-13
5.305582063971359 3.4491168311489544e-20 4.8574727708346746e-12 4.4556424481773245e-12 4.018303226573496e-13
5.3255160863122235 3.4624157712391085e-20 4.894522747001128e-12 4.488774783451967e-12 4.057479635491626e-13
5.365609099470188 3.4935959854977345e-20 4.975779686378055e-12 4.5619235603790476e-12 4.1385612599900764e-13
5.406003951863644 3.524704586435343e-20 5.057879932286088e-12 4.635891651444212e-12 4.219882808418765e-13
5.446702915881641 3.55575694373691e-20 5.140853024449685e-12 4.71071255786883e-12 4.3014046658085343e-13
5.487708281020852 3.587942476494533e-20 5.226439428024298e-12 4.788092513202338e-12 4.3834691482196114e-13
5.529022354014368 3.630521049067219e-20 5.328276307940193e-12 4.8813754567361035e-12 4.4690085120408667e-13
5.570647458961463 3.6738369913538704e-20 5.432440652960848e-12 4.976962800233313e-12 4.554778527275343e-13
5.612585937458331 3.7179781341920346e-20 5.5391007960025315e-12 5.0750269096735665e-12 4.640738863289646e-13
5.654840148729818 3.7647928694456664e-20 5.651072161983976e-12 5.178340556246058e-12 4.72731605737918e-13
5.67608639626678 3.796341599563677e-20 5.719837809402007e-12 5.242569792882499e-12 4.77268016519507e-13
5.686739436050992 3.812369555887037e-20 5.754767143383334e-12 5.275228456336189e-12 4.795386870471431e-13
5.6974124697621304 3.8285729376798805e-20 5.790072743574082e-12 5.3082618279447425e-12 4.818109156293391e-13
5.718818669136295 3.86152582272732e-20 5.8618500230154254e-12 5.375490233300364e-12 4.863597897150624e-13
5.740305295436557 3.8974195003332207e-20 5.938565864456448e-12 5.44761476824622e-12 4.909510962102303e-13
5.7835210386641895 3.989755061564671e-20 6.125026713577103e-12 5.624590612208556e-12 5.004361013685468e-13
5.827062130521658 4.0928225984540286e-20 6.330558152128858e-12 5.8205179272315596e-12 5.100402248972973e-13
5.8489554468988025 4.1656952186402734e-20 6.467482140021313e-12 5.952234019198939e-12 5.152481208223756e-13
5.870931020387893 4.2424120889898695e-20 6.611336503731255e-12 6.090866679278679e-12 5.204698244525748e-13
5.892989160043636 4.323282502242275e-20 6.7626777063442684e-12 6.23697288678907e-12 5.257048195551978e-13
5.915130176081913 4.4145483318306203e-20 6.931384897444202e-12 6.4002465623755165e-12 5.311383350686854e-13
5.95966208400165 4.6707295527750896e-20 7.38883196430764e-12 6.845186948268016e-12 5.436450160396258e-13
6.004529249263818 5.035844910444959e-20 8.026398985966266e-12 7.468609468849239e-12 5.57789517117026e-13
6.027089341400364 5.289107217990117e-20 8.46173525197537e-12 7.895710339183182e-12 5.660249127921873e-13
6.049734195844842 5.584841263006869e-20 8.968432844363217e-12 8.393670909381193e-12 5.747619349820267e-13
6.095279466722835 6.43640987325358e-20 1.0413740423316314e-11 9.817289800270182e-12 5.964506230461327e-13
6.141167624020661 7.731029567344691e-20 1.2602529391132081e-11 1.1977666087890128e-11 6.248633032419509e-13
6.164241091010745 8.555131309660239e-20 1.3998313932693841e-11 1.335549134170618e-11 6.428225909876609e-13
6.187401249150058 9.479041832881643e-20 1.5568334477408385e-11 1.4907095160958697e-11 6.612393164496848e-13
6.1990139391386085 9.927243506125954e-20 1.6335059503498864e-11 1.5664453800836328e-11 6.706057026625331e-13
6.204828454712694 1.0162093103382246e-19 1.673718365477492e-11 1.6061849722560045e-11 6.753339322148721e-13
6.210648424152782 1.0331568781595766e-19 1.7032274568729432e-11 1.6352940314497973e-11 6.793342542314541e-13
6.233982942956859 1.0897431254382837e-19 1.8032634522456962e-11 1.7339472365848734e-11 6.931621566082273e-13
6.239830258556775 1.0964069318342415e-19 1.8159922110024035e-11 1.7464931006272595e-11 6.949911037514457e-13
6.245683058788269 1.0961213310547693e-19 1.817222077203493e-11 1.7475398729595686e-11 6.968220424392438e-13
6.257405133728602 1.092571295542078e-19 1.8147361625528638e-11 1.7447387333687867e-11 6.99974291840767e-13
6.269149208991335 1.0789289973525126e-19 1.7954400345850328e-11 1.7253521923397785e-11 7.008784224525423e-13
6.280915325867298 1.0477069772266413e-19 1.746755855617837e-11 1.6768552530441984e-11 6.990060257363852e-13
6.304513850009849 9.7195518269818e-20 1.6265494683987912e-11 1.5572740428777193e-11 6.927542552107179e-13
6.32820103803542 8.799997754465521e-20 1.4781968143948977e-11 1.4098132466701443e-11 6.838356772475375e-13
6.3519772230701035 7.962293980352156e-20 1.3425070454734562e-11 1.2749299441257393e-11 6.757710134771703e-13
6.375842739491607 7.255113274939413e-20 1.2278667164622973e-11 1.161008215958577e-11 6.68585005037204e-13
6.399797922933955 6.695213536848767e-20 1.1373657004925915e-11 1.0709103978504512e-11 6.645530264214052e-13
6.42384311029221 6.227232443586287e-20 1.0618408659854032e-11 9.957256459613314e-12 6.611522002407201e-13
6.447978639727206 5.88761185152653e-20 1.0077021705209871e-11 9.41681802153445e-12 6.602036836754205e-13
6.472204850670314 5.603090638116779e-20 9.62607709306218e-12 8.966337362196056e-12 6.597397308661228e-13
6.496522083828205 5.417275405308113e-20 9.341815098809365e-12 8.680558814819996e-12 6.612562839893692e-13
