Dust emission spectrum from A.P. Jones, M. Kohler, N. Ysard, M. Bocchio, and L. Verstraete (2017), A&A, 602A, 46J 
inside the DustPedia framework.

lambda    nu*dP/dnu     j_nu    j_nu(carb.) j_nu(sil)
 (um)   (erg s-1 H-1) (Jy cm2 sr-1 H-1)
0.9927057738263894 2.5330476952570326e-25 6.674724551239106e-18 6.6747245512332456e-18 5.859907276441231e-30
1.0001793341362166 2.574886042161412e-25 6.836051454051565e-18 6.836051454044506e-18 7.059697924168857e-30
1.0077091589558085 2.616664443110073e-25 6.999268789936645e-18 6.99926878992815e-18 8.494263591326715e-30
1.0114953028030835 2.6375260182463755e-25 7.081578208990746e-18 7.081578208981434e-18 9.312932587318201e-30
1.0152956718711033 2.6583664484785155e-25 7.164350340131258e-18 7.164350340121054e-18 1.0207220531816049e-29
1.0229392996569957 2.699955279487934e-25 7.331213507417589e-18 7.331213507405338e-18 1.2249979117264013e-29
1.0267826658714554 2.720653231773194e-25 7.415170689510622e-18 7.415170689497209e-18 1.3413878879165035e-29
1.0306404723013447 2.7413208875261846e-25 7.49957238186577e-18 7.499572381851085e-18 1.4683624741790253e-29
1.03451277320114 2.761956252205767e-25 7.584414951040465e-18 7.584414951024396e-18 1.6068374660812865e-29
1.0383996230291617 2.782557342348505e-25 7.669694718221608e-18 7.66969471820403e-18 1.7578035310601235e-29
1.0403485208654093 2.7928444177590515e-25 7.712497389243641e-18 7.712497389225257e-18 1.8383021757995192e-29
1.0423010764483396 2.8031221859489607e-25 7.755407960095858e-18 7.755407960076634e-18 1.9223319450142214e-29
1.0462171883269815 2.823648822831584e-25 7.841550909721065e-18 7.841550909700051e-18 2.101580736463431e-29
1.0471985131304309 2.8287742837003834e-25 7.863153343441382e-18 7.863153343419893e-18 2.148837487703066e-29
1.048180758391296 2.8338972045232036e-25 7.884782336055725e-18 7.884782336033754e-18 2.1971124885845768e-29
1.0501480137395462 2.8441353050141714e-25 7.928119757398385e-18 7.928119757375416e-18 2.2968012647362446e-29
1.0521189612883777 2.8543628827701766e-25 7.971562690999128e-18 7.971562690975118e-18 2.400819222719585e-29
1.0531058218030118 2.8594647956502307e-25 7.993301616397792e-18 7.993301616373247e-18 2.4545107390661435e-29
1.0540936079674168 2.8645382531274592e-25 8.014994691172399e-18 8.014994691147302e-18 2.509363904629358e-29
1.058054026499678 2.8848032121380226e-25 8.102022972917932e-18 8.102022972890522e-18 2.7407590335761076e-29
1.0590464539527713 2.889862085957347e-25 8.123843729013475e-18 8.123843728985459e-18 2.8017265915476484e-29
1.06003981227728 2.8949179543089957e-25 8.145689834845848e-18 8.145689834817207e-18 2.863992591814325e-29
1.0620293250338977 2.905020556857569e-25 8.189457845478416e-18 8.189457845448491e-18 2.9925257213303005e-29
1.0660195594769086 2.925188404173082e-25 8.277295302704612e-18 8.277295302671951e-18 3.266365883803863e-29
1.070024785945596 2.9453048852188524e-25 8.365531301134942e-18 8.3655313010993e-18 3.5641154099787483e-29
1.0740450607676866 2.965368145683741e-25 8.454161760871022e-18 8.454161760832146e-18 3.887754012255785e-29
1.07808044048254 2.985376346110025e-25 8.543182566451614e-18 8.54318256640922e-18 4.239415745487895e-29
1.0861967418109137 3.0251849162476966e-25 8.722276604739472e-18 8.722276604689111e-18 5.0361853475057956e-29
1.0902777775684922 3.0449012549694925e-25 8.812107904665685e-18 8.812107904610821e-18 5.486439680208772e-29
1.0943741465085532 3.0645539241558974e-25 8.902306146696305e-18 8.902306146636558e-18 5.975033328505138e-29
1.1026131145906286 3.1036612675294803e-25 9.083786184814792e-18 9.083786184743992e-18 7.079832599810649e-29
1.1109141095355224 3.142493142570596e-25 9.26668188477102e-18 9.26668188468724e-18 8.378210964814911e-29
1.1192775983109025 3.1809999562122157e-25 9.450850818187728e-18 9.450850818088706e-18 9.902093918392131e-29
1.1277040513999907 3.2190027998057247e-25 9.635758974243513e-18 9.635758974126631e-18 1.1688323756980888e-28
1.1361939428280308 3.2566853018110043e-25 9.821949499134814e-18 9.821949498997023e-18 1.3779353947288403e-28
1.1447477501889525 3.2940348951947597e-25 1.0009385761044565e-17 1.0009385760882327e-17 1.6224044262180213e-28
1.1533659546722406 3.3310596674091093e-25 1.0198093108218566e-17 1.019809310802778e-17 1.9078579010308551e-28
1.1707974979042381 3.4042543835456624e-25 1.0579696860229569e-17 1.057969685996672e-17 2.62848083438268e-28
1.1884924949847024 3.475992127289125e-25 1.0965909586482626e-17 1.096590958612228e-17 3.603449602700213e-28
1.2064549276569216 3.546834073380409e-25 1.1358511095352817e-17 1.1358511094861206e-17 4.9160528829282465e-28
1.2246888378427687 3.616006253341453e-25 1.1755046880469084e-17 1.1755046879801647e-17 6.674415616947448e-28
1.2431983285522175 3.6833468003368723e-25 1.2154929991110558e-17 1.2154929990208713e-17 9.018427501771634e-28
1.2619875648066055 3.748830515379087e-25 1.2557995265905328e-17 1.2557995264692511e-17 1.2128148976563084e-27
1.3004222497298317 3.8731386020315897e-25 1.3369552261635254e-17 1.3369552259472299e-17 2.162955768131991e-27
1.3400274889804893 3.9884439095245425e-25 1.418687131361425e-17 1.418687130982658e-17 3.787668380520164e-27
1.3808389325824078 4.0943187109229233e-25 1.500700760311049e-17 1.5007007596594695e-17 6.515790486761406e-27
1.4228933163050095 4.191278421721109e-25 1.5830268603127828e-17 1.5830268592111278e-17 1.1016549826077145e-26
1.466228494730424 4.281657269693623e-25 1.6664143205804214e-17 1.666414318748852e-17 1.8315693434818533e-26
1.5108834753276823 4.363697410146975e-25 1.7500684369510672e-17 1.7500684339554148e-17 2.9956522916172636e-26
1.5568984535646726 4.435976529945056e-25 1.833238460706315e-17 1.833238455881286e-17 4.8250289425642795e-26
1.6043148490894465 4.4986266391734545e-25 1.915750673583028e-17 1.9157506659157542e-17 7.667273680539352e-26
1.6531753430134553 4.551838218119703e-25 1.9974465655377648e-17 1.9974465535311006e-17 1.2006663666366992e-25
1.7035239163302658 4.596243785326322e-25 2.0783597533311545e-17 2.078359734797952e-17 1.8533202029702443e-25
1.755405889504358 4.6354984683221275e-25 2.159948647962152e-17 2.1599486197494647e-17 2.8212687507543324e-25
1.8088679632656115 4.668699612042023e-25 2.241672850993018e-17 2.2416728086228183e-17 4.23701991590998e-25
1.8639582606462262 4.695235832390371e-25 2.323073907975894e-17 2.3230738451739217e-17 6.2801973321631e-25
1.9207263702978936 4.715550329663578e-25 2.4041818629949096e-17 2.4041817710877198e-17 9.190718957600529e-25
1.979223391128241 4.730674877481205e-25 2.4853488128673402e-17 2.4853486800179625e-17 1.3284937745935395e-24
2.039501978296691 4.741844289933956e-25 2.567088568272739e-17 2.5670883785314398e-17 1.897412998432573e-24
2.1016163906111602 4.752517312341111e-25 2.651225007220695e-17 2.6512247393411423e-17 2.6787955264675056e-24
2.1656225393682647 4.764699471973306e-25 2.7389727349000676e-17 2.7389723609218983e-17 3.7397816955261045e-24
2.231578038680979 4.778534350200815e-25 2.8305851512193045e-17 2.8305846347774015e-17 5.1644190267299595e-24
2.299542257339062 4.795222818671938e-25 2.9269790911082644e-17 2.9269783854363254e-17 7.05671937885436e-24
2.369576372248914 4.817420279506063e-25 3.030084084451756e-17 3.0300831300392353e-17 9.544125213757752e-24
2.4417434235010123 4.848262366274161e-25 3.142357364204697e-17 3.142356086125507e-17 1.2780791897928827e-23
2.5161083711144245 4.893119108345245e-25 3.268018927448683e-17 3.268017232275346e-17 1.6951733367038502e-23
2.5927381535095444 4.960778344603222e-25 3.414113180053901e-17 3.4141109523964736e-17 2.2276574281976522e-23
2.6717017477616296 5.061732247490681e-25 3.5896869482191453e-17 3.5896840470103757e-17 2.9012087688538426e-23
2.753070231689431 5.211777770349984e-25 3.808663577370256e-17 3.80865983178629e-17 3.7455839655758996e-23
2.836916847834745 5.446703570099245e-25 4.101566709933525e-17 4.1015619148294625e-17 4.7951040630511457e-23
2.9233170693905177 5.8453302116998685e-25 4.535805315762127e-17 4.5357992277710216e-17 6.087991104036608e-23
2.967498994190263 6.183847422959643e-25 4.871007283495636e-17 4.8710004549889735e-17 6.828506661687867e-23
3.0123486681368425 6.579196603441158e-25 5.260748449911387e-17 5.260740800887325e-17 7.649024064052275e-23
3.0578761833420214 7.463766362560192e-25 6.058252437500799e-17 6.058243878319633e-17 8.55918116605841e-23
3.1040917844459814 8.60363422124591e-25 7.089015496826436e-17 7.089005936617618e-17 9.560208818222028e-23
3.127460860933648 9.809437953021598e-25 8.143393873438671e-17 8.143383773022579e-17 1.0100416091789038e-22
3.1510058709225794 1.1416004134564529e-24 9.548447460981816e-17 9.548436794344999e-17 1.0666636817582868e-22
3.162844764501044 1.2911454649031517e-24 1.0839830318811334e-16 1.0839819357927988e-16 1.0960883347868534e-22
3.1747281389236908 1.465054522259271e-24 1.2346099187332572e-16 1.23460879253659e-16 1.126196666866703e-22
3.1986289994194426 1.950137622438896e-24 1.6557644896353488e-16 1.6557633009705315e-16 1.188664817200334e-22
3.2227097969389145 3.0935921881168846e-24 2.6463890735964557e-16 2.6463878183892714e-16 1.2552071841943116e-22
3.2348180950136065 4.1779442333309676e-24 3.5874176096286475e-16 3.5874163188107925e-16 1.2908178550723323e-22
3.240889293275058 4.988637345040773e-24 4.291563694731826e-16 4.2915623851206534e-16 1.3096111724068099e-22
3.2469718861334385 5.9264836628238715e-24 5.107931363418401e-16 5.107930034354262e-16 1.32906413859255e-22
3.2714166318528037 1.0929118558169257e-23 9.490529151781198e-16 9.490527742032418e-16 1.4097487819863661e-22
3.2744851364798273 1.1241847422037294e-23 9.771250407692682e-16 9.771248988364265e-16 1.4193284182198367e-22
3.2775565192852394 1.1563558690337678e-23 1.0060304631020815e-15 1.0060303202057393e-15 1.4289634225621292e-22
3.283707930232385 1.125416737846466e-23 9.809510238038523e-16 9.809508791712649e-16 1.4463258729058995e-22
3.2898708863219004 1.027300160900933e-23 8.971098873902384e-16 8.971097411653003e-16 1.4622493798283022e-22
3.29141343181113 1.0041618392960098e-23 8.773150573417946e-16 8.77314910716627e-16 1.4662516765670036e-22
3.292184975758714 9.927924899533678e-24 8.675852201636632e-16 8.675850733380586e-16 1.4682560461427e-22
3.295272960557952 9.210280443654175e-24 8.056263863196972e-16 8.056262387122063e-16 1.4760749086987213e-22
3.3076538914384823 6.724144708009658e-24 5.903730763173794e-16 5.903729255622695e-16 1.507551099527474e-22
3.310756385682612 6.2181537223370394e-24 5.464596664444561e-16 5.464595148944122e-16 1.5155004371390651e-22
3.313861789986515 5.75129865907706e-24 5.059059010670825e-16 5.059057487188776e-16 1.5234820500298136e-22
3.3200813396944477 5.0965860568832455e-24 4.491563237403794e-16 4.49156169680576e-16 1.5405980330860714e-22
3.345076488085796 3.928637425812163e-24 3.488328975319299e-16 3.488327358531488e-16 1.616787811062968e-22
3.3482140837626964 3.972432601305224e-24 3.5305241726553895e-16 3.530522545544451e-16 1.62711093823887e-22
3.3513546224236106 4.0167119727430034e-24 3.573226192790176e-16 3.573224555301183e-16 1.6374889937328555e-22
3.3576445397418455 4.3403209056432865e-24 3.868352046228264e-16 3.868350387055667e-16 1.659172596236688e-22
3.3702598118196083 5.533931819347882e-24 4.950700101809183e-16 4.950698397115521e-16 1.704693661717722e-22
3.382922481734668 5.805782073982691e-24 5.213413946345791e-16 5.213412197153576e-16 1.749192216256336e-22
3.389271646505754 5.946619289748621e-24 5.349903480319329e-16 5.3499017085149805e-16 1.77180434964092e-22
3.395632727569191 6.098377646169961e-24 5.496730679866687e-16 5.496728884752443e-16 1.7951142445830259e-22
3.421196662673239 6.827061494541111e-24 6.19985150288661e-16 6.199849610943135e-16 1.8919434746249496e-22
3.4276182099114902 6.680207268177108e-24 6.077875673976119e-16 6.077873760138081e-16 1.913838037569261e-22
3.4340518103208963 6.0367092000494056e-24 5.502708812125924e-16 5.502706877444196e-16 1.9346817281780606e-22
3.4469541582030403 5.1202507288866466e-24 4.684855163047282e-16 4.684853188075935e-16 1.9749713482122316e-22
3.472904465399547 4.863401042206666e-24 4.48334699730031e-16 4.483344929807318e-16 2.0674929927252461e-22
3.4990501388274233 4.4705642520514446e-24 4.1522351421728356e-16 4.152232979276828e-16 2.1628960072882746e-22
3.5253949054701885 3.0725574195843267e-24 2.875260600675397e-16 2.8752583440219684e-16 2.256653429110373e-22
3.5519380250092896 1.7586009978614964e-24 1.658067198714392e-16 1.6580648469079095e-16 2.351806482791031e-22
3.578680990867387 1.2376035788106952e-24 1.175638976598766e-16 1.1756365202269156e-16 2.4563718503426554e-22
3.605625307711299 1.0268624021208275e-24 9.82793508332795e-17 9.82790941178902e-17 2.5671538931174197e-22
3.660119384959845 8.731042681889245e-25 8.482635304084038e-17 8.482607277563179e-17 2.8026520857959225e-22
3.715437065384467 7.6420902338343975e-25 7.536878317778976e-17 7.536847768003829e-17 3.0549775148521565e-22
3.8285932144167436 7.08888955622167e-25 7.204218371308243e-17 7.204182252464565e-17 3.611884367862303e-22
3.94519561050918 6.982228348584658e-25 7.311929953097405e-17 7.311887533005713e-17 4.242009169217698e-22
4.06534921144712 7.059184228217347e-25 7.617663885854388e-17 7.617614372536505e-17 4.951331788297398e-22
4.189162171576248 7.2427359801342745e-25 8.053770695511507e-17 8.053713211009865e-17 5.748450163768222e-22
4.316745939156006 7.504264337320839e-25 8.598724723480527e-17 8.598658330260512e-17 6.6393220015079445e-22
4.448215356677963 7.834261066493871e-25 9.250245902428188e-17 9.25016967659674e-17 7.622583144814271e-22
4.58368876423945 8.234053606522363e-25 1.0018397153536157e-16 1.0018310059130218e-16 8.709440593998584e-22
4.723288106065518 8.712992235596054e-25 1.0923987564597248e-16 1.0923888391299129e-16 9.917329811641387e-22
4.867139040275056 9.289636418446553e-25 1.2001676123885985e-16 1.2001563776727182e-16 1.1234715880585556e-21
4.940699165968905 9.637696136393453e-25 1.2639534319760249e-16 1.2639414901051292e-16 1.1941870896018893e-21
5.015371051989984 9.998462140526624e-25 1.3310847519336587e-16 1.3310720699014585e-16 1.2682032199875986e-21
5.091171501069577 1.0438550751244303e-24 1.4106762901254124e-16 1.410662820792729e-16 1.346933268297104e-21
5.129500256944802 1.0664558700800684e-24 1.4520694152081073e-16 1.4520555387940194e-16 1.3876414087754185e-21
5.168117569889187 1.0900235162392193e-24 1.495332200401749e-16 1.495317905191618e-16 1.4295210130977482e-21
5.20702561229733 1.1189221056353447e-24 1.5465323214029411e-16 1.5465175754493725e-16 1.474595356827743e-21
5.246226572918644 1.1485668784717356e-24 1.599457719035955e-16 1.5994425113398352e-16 1.5207696119946673e-21
5.265937586045735 1.1636765880748193e-24 1.6265875253934098e-16 1.6265720826368567e-16 1.5442756553010567e-21
5.285722656980489 1.1789819783516328e-24 1.6541731664439808e-16 1.6541574857992231e-16 1.568064475779176e-21
5.305582063971359 1.19448623179833e-24 1.6822231980366132e-16 1.682207276649237e-16 1.5921387376150124e-21
5.3255160863122235 1.2111390270593352e-24 1.712084252551008e-16 1.7120680863158464e-16 1.616623516154298e-21
5.365609099470188 1.2525743366591717e-24 1.7839881789133734e-16 1.7839715046009484e-16 1.667431242542711e-21
5.406003951863644 1.2955941683793717e-24 1.85915147892157e-16 1.8591342838946276e-16 1.719502694180676e-21
5.446702915881641 1.340275069649573e-24 1.9377469423321538e-16 1.9377292136956297e-16 1.772863652355137e-21
5.487708281020852 1.388551288705707e-24 2.0226576236015402e-16 2.0226393466444075e-16 1.8276957132187534e-21
5.529022354014368 1.4555674349495123e-24 2.1362403284353376e-16 2.1362214759108374e-16 1.885252449972759e-21
5.570647458961463 1.5265369116145656e-24 2.257264325122989e-16 2.2572448823106844e-16 1.9442812304508526e-21
5.612585937458331 1.6017439059317824e-24 2.3863026150547793e-16 2.3862825669056557e-16 2.0048149123133876e-21
5.654840148729818 1.6844040865557532e-24 2.528343357298381e-16 2.5283226863414764e-16 2.0670956905084427e-21
5.67608639626678 1.7406499559638237e-24 2.62258681679228e-16 2.622565819405095e-16 2.0997387185766226e-21
5.686739436050992 1.7696415758573767e-24 2.6712717765210513e-16 2.6712506143037365e-16 2.116221731458807e-21
5.6974124697621304 1.7992307807729766e-24 2.7210339917061235e-16 2.7210126635733187e-16 2.132813280499262e-21
5.718818669136295 1.8602594589588438e-24 2.8238997880404914e-16 2.823878124794212e-16 2.1663246279550815e-21
5.740305295436557 1.927520277099311e-24 2.936996163654165e-16 2.9369741588933663e-16 2.200476079840894e-21
5.7835210386641895 2.1019246519301752e-24 3.226850882908491e-16 3.2268281658366463e-16 2.271707184414087e-21
5.827062130521658 2.30280861346421e-24 3.5618606695205746e-16 3.561837215649922e-16 2.345387065246797e-21
5.8489554468988025 2.443666333718227e-24 3.79393295476204e-16 3.793909104005363e-16 2.3850756677424453e-21
5.870931020387893 2.5948167684148363e-24 4.0437389064671654e-16 4.0437146528298816e-16 2.4253637284376376e-21
5.892989160043636 2.757088113490365e-24 4.312764273409767e-16 4.3127396108040623e-16 2.466260570541723e-21
5.915130176081913 2.9416186604718186e-24 4.618703800390676e-16 4.618678713298707e-16 2.508709196916423e-21
5.95966208400165 3.457426359472665e-24 5.469454420441279e-16 5.469428382353585e-16 2.603808769352996e-21
6.004529249263818 4.200736254207287e-24 6.695358139633799e-16 6.695331031491664e-16 2.7108142135346945e-21
6.027089341400364 4.7173606888283e-24 7.547031208058946e-16 7.547003487187279e-16 2.772087166974576e-21
6.049734195844842 5.327845058527279e-24 8.55573477604059e-16 8.555706404402539e-16 2.8371638052613236e-21
6.095279466722835 7.091119341577543e-24 1.1473022630334419e-15 1.147299268202152e-15 2.994831290257392e-21
6.141167624020661 9.804555009353452e-24 1.598263098025985e-15 1.5982599007391103e-15 3.1972868745345668e-21
6.164241091010745 1.153733505356818e-23 1.8877937951011347e-15 1.887790472360613e-15 3.322740522098336e-21
6.187401249150058 1.3511201596361502e-23 2.219073502916531e-15 2.2190700494384355e-15 3.453478094990947e-21
6.1990139391386085 1.4475026233065737e-23 2.3818335340109854e-15 2.3818300137357024e-15 3.520275282705886e-21
6.204828454712694 1.49827300623067e-23 2.4676875339715318e-15 2.467683979750207e-15 3.5542213245250024e-21
6.210648424152782 1.535338585159442e-23 2.531107220133236e-15 2.531103636491948e-15 3.583641288951375e-21
6.233982942956859 1.6612756097968688e-23 2.7490126079474265e-15 2.7490089189327346e-15 3.689014692522371e-21
6.239830258556775 1.6773806090709687e-23 2.778266018314328e-15 2.778262312793603e-15 3.705520725658578e-21
6.245683058788269 1.6787884352747793e-23 2.7832059472828582e-15 2.7832022251854635e-15 3.722097394379445e-21
6.257405133728602 1.6753548310828646e-23 2.782726408316688e-15 2.782722656082185e-15 3.752234504595915e-21
6.269149208991335 1.6506202981751384e-23 2.7467885027786025e-15 2.746784734243426e-15 3.768535177010663e-21
6.280915325867298 1.5885546741827782e-23 2.6484668322463603e-15 2.6484630646263114e-15 3.767620049744087e-21
6.304513850009849 1.4354847007658496e-23 2.402257756827394e-15 2.4022540067525413e-15 3.750074852699023e-21
6.32820103803542 1.2457402203164857e-23 2.0925564717343163e-15 2.0925527563891655e-15 3.715345150658244e-21
6.3519772230701035 1.0717335710394334e-23 1.807029322882689e-15 1.8070256372936775e-15 3.68558901188564e-21
6.375842739491607 9.253490491034361e-24 1.5660752016496027e-15 1.566071540253456e-15 3.6613961468572004e-21
6.399797922933955 8.08039115464705e-24 1.3726761208254017e-15 1.3726724640219496e-15 3.6568034521707075e-21
6.42384311029221 7.105134473274999e-24 1.2115369404293743e-15 1.211533283978789e-15 3.656450585279799e-21
6.447978639727206 6.394595342389744e-24 1.094475615687673e-15 1.0944719436773255e-15 3.6720103477922076e-21
6.472204850670314 5.802768307896908e-24 9.969122167148746e-16 9.96908525690435e-16 3.691024439370437e-21
6.496522083828205 5.418329774512042e-24 9.343633304717694e-16 9.343596071639969e-16 3.723307772546915e-21
