Dust emission spectrum from A.P. Jones, M. Kohler, N. Ysard, M. Bocchio, and L. Verstraete (2017), A&A, 602A, 46J 
inside the DustPedia framework.

lambda    nu*dP/dnu     j_nu    j_nu(carb.) j_nu(sil)
 (um)   (erg s-1 H-1) (Jy cm2 sr-1 H-1)
0.9927057738263894 1.413913262316071e-25 3.7257417548728864e-18 3.725741754092263e-18 7.806220536556719e-28
1.0001793341362166 1.4372459812766205e-25 3.815736820682142e-18 3.815736819741963e-18 9.401789658047621e-28
1.0077091589558085 1.4605455377089354e-25 3.906787064457141e-18 3.90678706332626e-18 1.1308819197065363e-27
1.0114953028030835 1.4721800229948081e-25 3.952703366120001e-18 3.952703364880323e-18 1.2396781474503169e-27
1.0152956718711033 1.4838027984933783e-25 3.99887799146652e-18 3.99887799010802e-18 1.3584988298955737e-27
1.0229392996569957 1.5069972832699714e-25 4.091963642022167e-18 4.0919636403923415e-18 1.6298246549697567e-27
1.0267826658714554 1.5185408442724253e-25 4.1387999866247954e-18 4.138799984840425e-18 1.7843687326408862e-27
1.0306404723013447 1.5300676130711583e-25 4.185884573232446e-18 4.185884571279517e-18 1.9529299722896585e-27
1.03451277320114 1.54157648283174e-25 4.233215394061342e-18 4.2332153919246255e-18 2.136717120092406e-27
1.0383996230291617 1.5530663529627879e-25 4.280790416456586e-18 4.280790414119549e-18 2.3370373393622827e-27
1.0403485208654093 1.5588038209918958e-25 4.304668861357321e-18 4.304668858913486e-18 2.443834585890671e-27
1.0423010764483396 1.5645361293284444e-25 4.328607583384276e-18 4.328607580828972e-18 2.555303713126554e-27
1.0462171883269815 1.575984724456211e-25 4.376664813924423e-18 4.37666481113138e-18 2.7930432763838152e-27
1.0471985131304309 1.578843436882487e-25 4.388716385406712e-18 4.388716382551e-18 2.8557113421161723e-27
1.048180758391296 1.5817007410928358e-25 4.400782796351754e-18 4.4007827934320276e-18 2.9197259645479955e-27
1.0501480137395462 1.587411057740111e-25 4.424960003764424e-18 4.42496000071252e-18 3.0519056121515444e-27
1.0521189612883777 1.5931155404277524e-25 4.449196169549306e-18 4.449196166359495e-18 3.1898090737888414e-27
1.0531058218030118 1.595961170411965e-25 4.4613240290867716e-18 4.4613240258257855e-18 3.2609851765626946e-27
1.0540936079674168 1.5987909354941097e-25 4.473426335392582e-18 4.4734263320588855e-18 3.3336970602577866e-27
1.058054026499678 1.6100939861622152e-25 4.521978625632208e-18 4.521978621991826e-18 3.640381742969594e-27
1.0590464539527713 1.6129156642255127e-25 4.534152293259103e-18 4.534152289537929e-18 3.721174399331049e-27
1.06003981227728 1.6157356756782854e-25 4.546340130151266e-18 4.546340126347583e-18 3.8036827171762646e-27
1.0620293250338977 1.621370633460019e-25 4.570758173560313e-18 4.570758169586328e-18 3.973985634866393e-27
1.0660195594769086 1.6326198332259587e-25 4.619762767206709e-18 4.61976276286996e-18 4.33674939585292e-27
1.070024785945596 1.643840549312647e-25 4.6689901742813926e-18 4.6689901695503025e-18 4.731089276944662e-27
1.0740450607676866 1.655031753758925e-25 4.718438142671092e-18 4.7184381375114814e-18 5.159609959437829e-27
1.07808044048254 1.6661924269572336e-25 4.768104400935096e-18 4.7681043953099775e-18 5.625118259631241e-27
1.0861967418109137 1.688398411336349e-25 4.868025714257705e-18 4.868025707578279e-18 6.679425231105193e-27
1.0902777775684922 1.699396855061982e-25 4.918145846343952e-18 4.918145839068966e-18 7.274986978986326e-27
1.0943741465085532 1.7103599924341403e-25 4.968471317698806e-18 4.968471309777714e-18 7.921092866728235e-27
1.1026131145906286 1.732176478348927e-25 5.069728751750021e-18 5.06972874236855e-18 9.381471863960119e-27
1.1109141095355224 1.7538402245373584e-25 5.171778807513491e-18 5.17177879641667e-18 1.109681881462276e-26
1.1192775983109025 1.775323620539271e-25 5.274542257994998e-18 5.274542244885996e-18 1.3109000959903116e-26
1.1277040513999907 1.796526912664273e-25 5.377721424230982e-18 5.377721408764685e-18 1.5466298833436465e-26
1.1361939428280308 1.8175526099199342e-25 5.481619589318943e-18 5.481619571094636e-18 1.822430774437406e-26
1.1447477501889525 1.838393762514242e-25 5.58621658093128e-18 5.586216559484315e-18 2.1446965689781487e-26
1.1533659546722406 1.8590549328091963e-25 5.691526778572332e-18 5.691526753364589e-18 2.520774189760673e-26
1.1707974979042381 1.8999042213001245e-25 5.904497273171013e-18 5.904497238477734e-18 3.4693279130867204e-26
1.1884924949847024 1.9399464132174045e-25 6.120059019395431e-18 6.120058971883868e-18 4.751156209344076e-26
1.2064549276569216 1.9794949729005547e-25 6.339207064021733e-18 6.339206999273787e-18 6.47479438859426e-26
1.2246888378427687 2.0181188338008566e-25 6.560575352922804e-18 6.560575265113582e-18 8.78092242396513e-26
1.2431983285522175 2.0557281830353636e-25 6.783839127844944e-18 6.783839009332378e-18 1.1851256741560253e-25
1.2619875648066055 2.0923097147776576e-25 7.008909948101124e-18 7.008909788907918e-18 1.5919320595938469e-25
1.3004222497298317 2.1617845614593304e-25 7.462188845415103e-18 7.462188562184182e-18 2.8323092193171365e-25
1.3400274889804893 2.226277522415345e-25 7.918855933632407e-18 7.918855438877778e-18 4.947546292638859e-25
1.3808389325824078 2.2855561886288645e-25 8.377305608521617e-18 8.377304759589595e-18 8.48932021312032e-25
1.4228933163050095 2.339914600532108e-25 8.837751375054941e-18 8.837749943517019e-18 1.4315379227044329e-24
1.466228494730424 2.390661705238088e-25 9.304418009984776e-18 9.304415636449313e-18 2.3735354623096125e-24
1.5108834753276823 2.436825170922349e-25 9.772929736334435e-18 9.772925865164153e-18 3.871170281305213e-24
1.5568984535646726 2.477620215226676e-25 1.0239162986809712e-17 1.023915676961042e-17 6.2171992897970205e-24
1.6043148490894465 2.5131294547923903e-25 1.0702220548590485e-17 1.0702210698257427e-17 9.850333060143197e-24
1.6531753430134553 2.5434689247382833e-25 1.1161300171096969e-17 1.1161284792703261e-17 1.5378393707087677e-23
1.7035239163302658 2.569001261473923e-25 1.16166789175768e-17 1.1616655254059851e-17 2.3663516948611166e-23
1.755405889504358 2.5917759020014755e-25 1.20765930430245e-17 1.2076557136479901e-17 3.590654459684136e-23
1.8088679632656115 2.6113006476482524e-25 1.2538141782596405e-17 1.2538088036314408e-17 5.37462819979576e-23
1.8639582606462262 2.6272452461243243e-25 1.2998888871611603e-17 1.2998809479606548e-17 7.939200505270921e-23
1.9207263702978936 2.639868277241709e-25 1.3459136238914722e-17 1.3459020461674101e-17 1.1577724061848682e-22
1.979223391128241 2.6497570194705648e-25 1.3920995699950706e-17 1.3920828953720274e-17 1.6674623043258388e-22
2.039501978296691 2.657611438663206e-25 1.438749044878107e-17 1.4387253185137677e-17 2.3726364339661797e-22
2.1016163906111602 2.6653737227812353e-25 1.4868973647032416e-17 1.4868639967869403e-17 3.3367916301605466e-22
2.1656225393682647 2.674174953551913e-25 1.5372411899669928e-17 1.5371947918443522e-17 4.639812264059784e-22
2.231578038680979 2.6841050705671977e-25 1.5899410572910644e-17 1.589877248339079e-17 6.380895198602712e-22
2.299542257339062 2.6958454079298985e-25 1.6455300285829903e-17 1.6454432111446473e-17 8.681743834276103e-22
2.369576372248914 2.7108871972138134e-25 1.705106815356334e-17 1.7049899142736664e-17 1.169010826674307e-21
2.4417434235010123 2.730989375568307e-25 1.770066041718125e-17 1.769910212537503e-17 1.5582918062216836e-21
2.5161083711144245 2.759156774310037e-25 1.842787057209571e-17 1.842581354607306e-17 2.0570260226516442e-21
2.5927381535095444 2.8002977700954874e-25 1.9272244919709743e-17 1.9269555057835436e-17 2.689861874305153e-21
2.6717017477616296 2.8602611455497847e-25 2.0284443349938977e-17 2.0280958108247568e-17 3.485241691407796e-21
2.753070231689431 2.9478430423272157e-25 2.154225088220147e-17 2.1537775224735712e-17 4.4756574657538885e-21
2.836916847834745 3.0829649139437623e-25 2.321585174625981e-17 2.321015372414915e-17 5.698022110654106e-21
2.9233170693905177 3.3094796727981584e-25 2.5680594506429474e-17 2.567340196222168e-17 7.192544207808801e-21
2.967498994190263 3.500284136621558e-25 2.7571685324065785e-17 2.7563643094762507e-17 8.042229303286847e-21
3.0123486681368425 3.722781017635989e-25 2.9767486287983243e-17 2.9758505971647033e-17 8.980316336212838e-21
3.0578761833420214 4.21752852090978e-25 3.423318898378066e-17 3.4223171718281133e-17 1.0017265499528131e-20
3.1040917844459814 4.854291155542729e-25 3.999722017792454e-17 3.998606736318288e-17 1.1152814741656894e-20
3.127460860933648 5.526416686770518e-25 4.587804928747601e-17 4.5866285640059876e-17 1.1763647416139587e-20
3.1510058709225794 6.421422831584043e-25 5.370935207222417e-17 5.3696949634610324e-17 1.2402437613847083e-20
3.162844764501044 7.25401255015738e-25 6.090116668622779e-17 6.0888432868801e-17 1.2733817426777427e-20
3.1747281389236908 8.222029267891716e-25 6.928751614377005e-17 6.927444364370303e-17 1.3072500067015928e-20
3.1986289994194426 1.0921333033173165e-24 9.272758603156603e-17 9.271381208262132e-17 1.3773948944685804e-20
3.2227097969389145 1.7282354296075506e-24 1.4784053874598475e-16 1.478260193159655e-16 1.451943001920198e-20
3.2348180950136065 2.331382622571074e-24 2.0018560822975778e-16 2.0017069039431509e-16 1.4917835442752824e-20
3.240889293275058 2.7823000461874455e-24 2.3935229282478805e-16 2.393371648239313e-16 1.512800085667313e-20
3.2469718861334385 3.3039461086930025e-24 2.847612667440624e-16 2.847459212671112e-16 1.5345476951324823e-20
3.2714166318528037 6.086187892422856e-24 5.2850688103371155e-16 5.284906350242095e-16 1.6246009502219993e-20
3.2744851364798273 6.260122348817795e-24 5.441207370701585e-16 5.441043844338592e-16 1.635263629948153e-20
3.2775565192852394 6.4390502658623844e-24 5.601978503655564e-16 5.601813905217343e-16 1.645984382196658e-20
3.283707930232385 6.267023728615505e-24 5.462548348580811e-16 5.462381822864518e-16 1.6652571629252043e-20
3.2898708863219004 5.721399849166305e-24 4.996323927272394e-16 4.99615563832486e-16 1.6828894753487877e-20
3.29141343181113 5.592726637041603e-24 4.886247513361997e-16 4.886078781405205e-16 1.6873195679172027e-20
3.292184975758714 5.529500955378739e-24 4.832141008633922e-16 4.831972054841613e-16 1.6895379230866603e-20
3.295272960557952 5.130436415631276e-24 4.487610312252504e-16 4.487440493812198e-16 1.6981844030392824e-20
3.3076538914384823 3.747893906941554e-24 3.290612786659066e-16 3.2904394904757174e-16 1.7329618334796417e-20
3.310756385682612 3.466494400282997e-24 3.0464016463688607e-16 3.0462274725700255e-16 1.7417379883444602e-20
3.313861789986515 3.206852914648843e-24 2.820868658619394e-16 2.820693603920937e-16 1.75054698457006e-20
3.3200813396944477 2.8427523296152064e-24 2.505285246679816e-16 2.505108301488054e-16 1.7694519176197726e-20
3.345076488085796 2.1933827185395363e-24 1.9475557710608397e-16 1.947370411355887e-16 1.853597049531712e-20
3.3482140837626964 2.2177647985760764e-24 1.9710522534893064e-16 1.9708657542568883e-16 1.8649923241774266e-20
3.3513546224236106 2.2424160557327012e-24 1.9948305578917318e-16 1.994642913455876e-16 1.8764443585593033e-20
3.3576445397418455 2.4224481781427242e-24 2.1590298437648503e-16 2.1588398065683265e-16 1.900371965243656e-20
3.3702598118196083 3.086358177900872e-24 2.761080953714028e-16 2.7608858963294566e-16 1.9505738457147424e-20
3.382922481734668 3.2376646333466083e-24 2.9073233783128846e-16 2.9071234229266316e-16 1.9995538625282035e-20
3.389271646505754 3.316048781912906e-24 2.9832985861138707e-16 2.9830961443855387e-16 2.024417283321348e-20
3.395632727569191 3.4005215442412785e-24 3.065036667828842e-16 3.064831663578951e-16 2.0500424989147355e-20
3.421196662673239 3.80613691777285e-24 3.456462741505208e-16 3.456247108364504e-16 2.1563314070485376e-20
3.4276182099114902 3.724515367347987e-24 3.388688470250381e-16 3.3884704449259363e-16 2.1802532444551692e-20
3.4340518103208963 3.366654753006939e-24 3.0688443260784025e-16 3.068624028378809e-16 2.2029769959317187e-20
3.4469541582030403 2.85698652097192e-24 2.614045436880812e-16 2.6138207576123725e-16 2.2467926844016077e-20
3.472904465399547 2.7142765375230242e-24 2.502167404813707e-16 2.501932659658582e-16 2.347451551256237e-20
3.4990501388274233 2.4959507542015337e-24 2.3182251390241604e-16 2.317980046009088e-16 2.4509301507250283e-20
3.5253949054701885 1.718627040346087e-24 1.6082695753269227e-16 1.608014354947982e-16 2.5522037894020304e-20
3.5519380250092896 9.879712247490801e-25 9.314919546970193e-17 9.312264942874012e-17 2.6546040961809637e-20
3.578680990867387 6.983742510286337e-25 6.634078987968236e-17 6.631312033575369e-17 2.766954392868826e-20
3.605625307711299 5.813578933179283e-25 5.564083000710159e-17 5.561197330131126e-17 2.8856705790317877e-20
3.660119384959845 4.962464287233993e-25 4.821276941580444e-17 4.81814013988939e-17 3.136801691054487e-20
3.715437065384467 4.360831301022448e-25 4.300793876347233e-17 4.297389800270051e-17 3.404076077182606e-20
3.8285932144167436 4.0616685714475616e-25 4.12774766887239e-17 4.1237601797426364e-17 3.9874891297532894e-20
3.94519561050918 4.0112916734122073e-25 4.2007053154281843e-17 4.196067825393485e-17 4.6374900346998205e-20
4.06534921144712 4.063473740693269e-25 4.384951031857912e-17 4.3795939776261004e-17 5.357054231812041e-20
4.189162171576248 4.175390430543115e-25 4.642946696395233e-17 4.6367952920082546e-17 6.151404386978768e-20
4.316745939156006 4.331124075706237e-25 4.9627974170660823e-17 4.955775186455319e-17 7.0222306107643e-20
4.448215356677963 4.5253828580804665e-25 5.3433123921426764e-17 5.3353493798320226e-17 7.963012310655719e-20
4.58368876423945 4.7589107513234e-25 5.790180657461994e-17 5.781201040177812e-17 8.979617284183408e-20
4.723288106065518 5.036920529062216e-25 6.315081631606217e-17 6.304998463545875e-17 1.0083168060343974e-19
4.867139040275056 5.36972298809447e-25 6.937373356197717e-17 6.926119205068412e-17 1.125415112930548e-19
4.940699165968905 5.569542664896747e-25 7.304279431730935e-17 7.292409670714164e-17 1.1869761016770107e-19
5.015371051989984 5.776518756662633e-25 7.690218683817929e-17 7.677713949390552e-17 1.2504734427378311e-19
5.091171501069577 6.02778792397047e-25 8.146013473408469e-17 8.132841933708043e-17 1.3171539700425165e-19
5.129500256944802 6.156766300215162e-25 8.3829554432995e-17 8.369443140928178e-17 1.3512302371322294e-19
5.168117569889187 6.291149520704427e-25 8.630417890715299e-17 8.616557311879059e-17 1.3860578836239857e-19
5.20702561229733 6.455283479983455e-25 8.922251598509765e-17 8.908014679950528e-17 1.4236918559238394e-19
5.246226572918644 6.6235810163708e-25 9.223788342556661e-17 9.209168873280965e-17 1.461946927569826e-19
5.265937586045735 6.709332606637551e-25 9.378307369513055e-17 9.363494296117363e-17 1.4813073395694578e-19
5.285722656980489 6.79617558544249e-25 9.535388576166787e-17 9.520380346559679e-17 1.5008229607107902e-19
5.305582063971359 6.884127546108357e-25 9.695079564769356e-17 9.679874627308554e-17 1.520493746080042e-19
5.3255160863122235 6.978486171612328e-25 9.864892480652514e-17 9.84948808311192e-17 1.5404397540592201e-19
5.365609099470188 7.212543114383757e-25 1.0272517390291093e-16 1.0256700028657157e-16 1.5817361633934322e-19
5.406003951863644 7.455415660274037e-25 1.0698370978399501e-16 1.0682133802553726e-16 1.6237175845774053e-19
5.446702915881641 7.707527752895112e-25 1.1143412777212717e-16 1.1126748928194795e-16 1.6663849017925496e-19
5.487708281020852 7.979667552093362e-25 1.1623722896899247e-16 1.1606624075805494e-16 1.7098821093752103e-19
5.529022354014368 8.356298316147603e-25 1.226398793403206e-16 1.2246434598106305e-16 1.7553335925755452e-19
5.570647458961463 8.754893754361282e-25 1.2945713393238613e-16 1.292769790280336e-16 1.8015490435254531e-19
5.612585937458331 9.177029318864043e-25 1.36720789015896e-16 1.3653593593942757e-16 1.8485307646843578e-19
5.654840148729818 9.640631692659203e-25 1.4470890503558716e-16 1.4451925866703396e-16 1.8964636855317013e-19
5.67608639626678 9.955575460266806e-25 1.4999776874276435e-16 1.4980561699860074e-16 1.921517441636429e-19
5.686739436050992 1.0117871772750133e-24 1.527291496410046e-16 1.5253573710976704e-16 1.934125312375511e-19
5.6974124697621304 1.0283486762580702e-24 1.5552044425463127e-16 1.553257655279059e-16 1.9467872672541876e-19
5.718818669136295 1.0624991753973137e-24 1.612888557963275e-16 1.6109162842687564e-16 1.9722736945181532e-19
5.740305295436557 1.1001198817231578e-24 1.6762717936451134e-16 1.674273658757702e-16 1.9981348874110257e-19
5.7835210386641895 1.1975810248194178e-24 1.8385128047974227e-16 1.8364610524833205e-16 2.0517523141023366e-19
5.827062130521658 1.3097647623128087e-24 2.0258737812292203e-16 2.0237670742629786e-16 2.1067069662418763e-19
5.8489554468988025 1.388378597218087e-24 2.1555378657843248e-16 2.1534016414646624e-16 2.1362243196628853e-19
5.870931020387893 1.4727090876393566e-24 2.295056478779066e-16 2.2928904463577567e-16 2.1660324213086347e-19
5.892989160043636 1.5632157962872946e-24 2.4452541813481677e-16 2.443058048639362e-16 2.196132708804875e-19
5.915130176081913 1.666109687950427e-24 2.615997529186902e-16 2.613770228144284e-16 2.2273010426180785e-19
5.95966208400165 1.9536214045044117e-24 3.0905193967356375e-16 3.088222098911169e-16 2.2972978244691517e-19
6.004529249263818 2.367766274004316e-24 3.7738725394929097e-16 3.7714969703866456e-16 2.375569106264427e-19
6.027089341400364 2.6555513583637294e-24 4.248462286048412e-16 4.246042009196631e-16 2.4202768517812323e-19
6.049734195844842 2.995546224684268e-24 4.810406219818389e-16 4.807938669586878e-16 2.467550231511752e-19
6.095279466722835 3.9774203394627864e-24 6.435237000941109e-16 6.432655083036503e-16 2.5819179046075463e-19
6.141167624020661 5.488070353907042e-24 8.9462299080909e-16 8.943501806840891e-16 2.728101250011776e-19
6.164241091010745 6.4527628843322055e-24 1.055831843119945e-15 1.0555499689594717e-15 2.818741604732103e-19
6.187401249150058 7.551464401244653e-24 1.2402490216363953e-15 1.239957806814351e-15 2.9121482204448705e-19
6.1990139391386085 8.087957396043624e-24 1.330855491200641e-15 1.3305595163704925e-15 2.9597483014838136e-19
6.204828454712694 8.370541264456178e-24 1.3786459640528752e-15 1.3783475814837892e-15 2.9838256908605148e-19
6.210648424152782 8.576862764156069e-24 1.4139525625347903e-15 1.4136521015039588e-15 3.004610308315484e-19
6.233982942956859 9.277858707427355e-24 1.535263047929248e-15 1.534955223792581e-15 3.0782413666707915e-19
6.239830258556775 9.367500534243152e-24 1.5515505705794138e-15 1.5512416379142867e-15 3.0893266512670615e-19
6.245683058788269 9.375345575238513e-24 1.554306487616764e-15 1.5539964433245682e-15 3.10044292196415e-19
6.257405133728602 9.356254230196047e-24 1.5540526249274003e-15 1.5537405835631245e-15 3.1204136427601043e-19
6.269149208991335 9.218613092293984e-24 1.5340645260131586e-15 1.5337515044188086e-15 3.130215943499492e-19
6.280915325867298 8.873204430737553e-24 1.4793565504844512e-15 1.479043810167761e-15 3.1274031669035175e-19
6.304513850009849 8.021323701288808e-24 1.3423540544294235e-15 1.342043022180119e-15 3.110322493044736e-19
6.32820103803542 6.96539825352238e-24 1.1700263791685393e-15 1.1697182739420122e-15 3.0810522652684587e-19
6.3519772230701035 5.997085468290833e-24 1.0111570250174111e-15 1.010851460547765e-15 3.0556446964617878e-19
6.375842739491607 5.182429841416754e-24 8.770825308347446e-16 8.767791145363604e-16 3.034162983842824e-19
6.399797922933955 4.529716153120879e-24 7.694965600681645e-16 7.691938265340436e-16 3.0273353412091644e-19
6.42384311029221 3.9870453280821856e-24 6.798538037959752e-16 6.795514609671112e-16 3.023428288641414e-19
6.447978639727206 3.591762992575406e-24 6.147530535112897e-16 6.14449947532513e-16 3.031059787767744e-19
6.472204850670314 3.2625161369350106e-24 5.604983727704115e-16 5.601942683160342e-16 3.041044543774001e-19
6.496522083828205 3.0487309077048686e-24 5.257380933208113e-16 5.254320452486615e-16 3.0604807214971395e-19
