Dust emission spectrum from A.P. Jones, M. Kohler, N. Ysard, M. Bocchio, and L. Verstraete (2017), A&A, 602A, 46J 
inside the DustPedia framework.

lambda    nu*dP/dnu     j_nu    j_nu(carb.) j_nu(sil)
 (um)   (erg s-1 H-1) (Jy cm2 sr-1 H-1)
0.9927057738263894 1.628713613870495e-25 4.291752881635196e-18 4.29175288148168e-18 1.5351663135752996e-28
1.0001793341362166 1.655597079756266e-25 4.39543600729258e-18 4.3954360071076675e-18 1.8491277555202478e-28
1.0077091589558085 1.6824417160427388e-25 4.5003331722538445e-18 4.500333172031402e-18 2.224424623484613e-28
1.0114953028030835 1.6958461692574756e-25 4.5532317766475836e-18 4.553231776403729e-18 2.438553116473926e-28
1.0152956718711033 1.7092369610284674e-25 4.6064275337652675e-18 4.606427533498025e-18 2.6724273690044736e-28
1.0229392996569957 1.7359591827080518e-25 4.7136660022785926e-18 4.713666001957939e-18 3.2065334311647104e-28
1.0267826658714554 1.7492581805482562e-25 4.7676226566860896e-18 4.76762265633501e-18 3.5107855775428844e-28
1.0306404723013447 1.7625376411671464e-25 4.821864771775904e-18 4.8218647713916394e-18 3.842657361325696e-28
1.03451277320114 1.7757962842084192e-25 4.876390014214115e-18 4.8763900137936605e-18 4.204533102137341e-28
1.0383996230291617 1.789032836468929e-25 4.9311960216459835e-18 4.931196021186084e-18 4.598991511876259e-28
1.0403485208654093 1.795642432696601e-25 4.958703566201454e-18 4.9587035657205246e-18 4.809301850791085e-28
1.0423010764483396 1.8022460321430512e-25 4.986280403257417e-18 4.986280402754534e-18 5.02882053797643e-28
1.0462171883269815 1.8154346130616693e-25 5.041640740337184e-18 5.041640739787481e-18 5.497033256738599e-28
1.0471985131304309 1.8187277655401464e-25 5.05552365659564e-18 5.055523656033594e-18 5.620459783811178e-28
1.048180758391296 1.8220192819555125e-25 5.069423628840779e-18 5.069423628266124e-18 5.746540808168606e-28
1.0501480137395462 1.828597328925734e-25 5.097274586839599e-18 5.0972745862389104e-18 6.006884884531835e-28
1.0521189612883777 1.8351685989520867e-25 5.1251933043993004e-18 5.12519330377145e-18 6.278513208098325e-28
1.0531058218030118 1.8384465945182047e-25 5.13916385960672e-18 5.139163858964849e-18 6.418712742641812e-28
1.0540936079674168 1.8417062932825664e-25 5.15310491917587e-18 5.153104918519676e-18 6.561940059891862e-28
1.058054026499678 1.8547264997744679e-25 5.209033547392432e-18 5.209033546675824e-18 7.166075043542607e-28
1.0590464539527713 1.857976809141344e-25 5.2230566029226615e-18 5.223056602190137e-18 7.325235392146139e-28
1.06003981227728 1.8612251836819087e-25 5.237095937903938e-18 5.237095937155161e-18 7.487778775996768e-28
1.0620293250338977 1.8677160527182598e-25 5.265223285581543e-18 5.265223284799214e-18 7.823289644461753e-28
1.0660195594769086 1.8806737436499663e-25 5.321671562086734e-18 5.3216715612329335e-18 8.538007311112213e-28
1.070024785945596 1.8935983732954326e-25 5.37837578142749e-18 5.37837578049599e-18 9.314998644145266e-28
1.0740450607676866 1.9064887517678072e-25 5.435333324864377e-18 5.435333323848437e-18 1.0159406825430334e-27
1.07808044048254 1.9193436987596154e-25 5.492541550963167e-18 5.4925415498554896e-18 1.107677476522339e-27
1.0861967418109137 1.9449198883992425e-25 5.607633817544867e-18 5.607633816229394e-18 1.3154737691632046e-27
1.0902777775684922 1.9575871147708892e-25 5.6653623364600984e-18 5.665362335027228e-18 1.432869213296448e-27
1.0943741465085532 1.9702133848343415e-25 5.723326513481131e-18 5.723326511920893e-18 1.5602385351481597e-27
1.1026131145906286 1.9953385742584814e-25 5.839950758964411e-18 5.839950757116246e-18 1.84816599056783e-27
1.1109141095355224 2.020286602055145e-25 5.9574842037668634e-18 5.9574842015804415e-18 2.1864212537605456e-27
1.1192775983109025 2.0450256066839686e-25 6.0758353329743504e-18 6.0758353303910705e-18 2.5832801021432703e-27
1.1277040513999907 2.0694405971823345e-25 6.194660907771503e-18 6.1946609047232145e-18 3.0482882177669534e-27
1.1361939428280308 2.093649642481573e-25 6.314310150231719e-18 6.3143101466392784e-18 3.592439957106732e-27
1.1447477501889525 2.1176446850141147e-25 6.434759567378155e-18 6.4347595631497726e-18 4.228382480196935e-27
1.1533659546722406 2.1414309438153406e-25 6.556025508493862e-18 6.556025503523208e-18 4.9706516768487425e-27
1.1707974979042381 2.188454089871925e-25 6.801248747827014e-18 6.80124874098365e-18 6.84336548019003e-27
1.1884924949847024 2.234540999756438e-25 7.049433276400347e-18 7.049433267025321e-18 9.375026792665256e-27
1.2064549276569216 2.2800525687622757e-25 7.301723696251508e-18 7.301723683470897e-18 1.2780612383007858e-26
1.2246888378427687 2.3244914831774986e-25 7.556542893904783e-18 7.556542876565875e-18 1.73389082103824e-26
1.2431983285522175 2.367753885529172e-25 7.813514250722993e-18 7.813514227312788e-18 2.3410208195731623e-26
1.2619875648066055 2.4098238088055467e-25 8.072532449385966e-18 8.072532417928204e-18 3.1457763362442974e-26
1.3004222497298317 2.489687251898994e-25 8.594064723614861e-18 8.594064667603248e-18 5.601161239777971e-26
1.3400274889804893 2.56377095138318e-25 9.11931805735019e-18 9.119317959429804e-18 9.792038704533409e-26
1.3808389325824078 2.6318020632050607e-25 9.646409173529462e-18 9.646409005373067e-18 1.6815639310305544e-25
1.4228933163050095 2.6941140498668897e-25 1.0175546638903595e-17 1.017554635510405e-17 2.837995457631548e-25
1.466228494730424 2.7522093807269524e-25 1.071155591490709e-17 1.0711555443947086e-17 4.709600065590694e-25
1.5108834753276823 2.804960758933578e-25 1.124934391573826e-17 1.1249343146924444e-17 7.688138160020599e-25
1.5568984535646726 2.851456766999439e-25 1.1784102505991855e-17 1.1784101270116358e-17 1.235875495554601e-24
1.6043148490894465 2.8917850581270685e-25 1.2314734289623414e-17 1.231473232969385e-17 1.9599295663203643e-24
1.6531753430134553 2.926071047257421e-25 1.284024230166549e-17 1.284023923884831e-17 3.0628171761106767e-24
1.7035239163302658 2.9547242428539714e-25 1.3360866471323535e-17 1.336086175371961e-17 4.717603927554828e-24
1.755405889504358 2.9800967672285467e-25 1.388600606204401e-17 1.3885998896324514e-17 7.165719494138732e-24
1.8088679632656115 3.001611809222191e-25 1.441221809301715e-17 1.4412207355818123e-17 1.0737199023482655e-23
1.8639582606462262 3.018879730083844e-25 1.4936588879934257e-17 1.4936573002198762e-17 1.5877735490829412e-23
1.9207263702978936 3.0321887010782003e-25 1.5459347415830442e-17 1.545932423560688e-17 2.318022356082932e-23
1.979223391128241 3.042205227491863e-25 1.5982795999439847e-17 1.598276257631328e-17 3.342312656582375e-23
2.039501978296691 3.049726138618858e-25 1.651027876100941e-17 1.651023114713153e-17 4.761387787848145e-23
2.1016163906111602 3.056977644767749e-25 1.70535635026029e-17 1.7053496458873472e-17 6.704372943492755e-23
2.1656225393682647 3.0652520260652763e-25 1.7620506339118425e-17 1.762041299812669e-17 9.334099174360666e-23
2.231578038680979 3.0746445594010584e-25 1.821278784937921e-17 1.8212659316696175e-17 1.285326830296237e-22
2.299542257339062 3.0859302677321277e-25 1.8836358000089032e-17 1.8836182887724415e-17 1.7511236461497442e-22
2.369576372248914 3.1008184691567966e-25 1.9503676546837275e-17 1.9503440430974588e-17 2.361158626821748e-22
2.4417434235010123 3.121327045324047e-25 2.0230598688706905e-17 2.023028349891192e-17 3.1518979497797744e-22
2.5161083711144245 3.1509095173578736e-25 2.1044310823829596e-17 2.1043894145480452e-17 4.1667834914236246e-22
2.5927381535095444 3.1952150217344585e-25 2.1990149450393044e-17 2.1989603753842022e-17 5.456965510282623e-22
2.6717017477616296 3.260985705308171e-25 2.3126307857309267e-17 2.3125599687005483e-17 7.0817030378940015e-22
2.753070231689431 3.358369808037277e-25 2.4542298867728914e-17 2.4541387969008882e-17 9.108987200280147e-22
2.836916847834745 3.5103561722793145e-25 2.6434264011118492e-17 2.643310236977582e-17 1.1616413426749589e-21
2.9233170693905177 3.767569342044228e-25 2.9235236385690895e-17 2.923376747744645e-17 1.468908244453464e-21
2.967498994190263 3.9856103859702673e-25 3.139459286649953e-17 3.139294887173147e-17 1.643994768060328e-21
3.0123486681368425 4.240174454077745e-25 3.390458217189657e-17 3.3902744667212974e-17 1.8375046835927955e-21
3.0578761833420214 4.808964157731394e-25 3.903380333094562e-17 3.9031751703514256e-17 2.0516274313506157e-21
3.1040917844459814 5.541731547208807e-25 4.566142609875641e-17 4.565913968536558e-17 2.286413390821552e-21
3.127460860933648 6.316504511071186e-25 5.243703500990132e-17 5.243462218021669e-17 2.412829684641693e-21
3.1510058709225794 7.348661493127644e-25 6.146485876193675e-17 6.14623136408044e-17 2.5451211323530874e-21
3.162844764501044 8.30928783622833e-25 6.976074552655791e-17 6.975813174311347e-17 2.613783444442064e-21
3.1747281389236908 9.426374547656518e-25 7.943660346704761e-17 7.94339194838895e-17 2.683983158086076e-21
3.1986289994194426 1.2542082579718385e-24 1.0648856123087534e-16 1.0648573178156976e-16 2.8294493055744976e-21
3.2227097969389145 1.988603587901203e-24 1.7011352779306984e-16 1.7011054364985124e-16 2.9841432185573195e-21
3.2348180950136065 2.6850207565120205e-24 2.30550964928751e-16 2.305478980865466e-16 3.06684220436057e-21
3.240889293275058 3.205678432834436e-24 2.757741689323909e-16 2.7577105846349883e-16 3.1104688920340913e-21
3.2469718861334385 3.807999241252474e-24 3.282047140074103e-16 3.2820155839296126e-16 3.1556144491190912e-21
3.2714166318528037 7.020807664300017e-24 6.096665476950379e-16 6.0966320506083325e-16 3.342634204645773e-21
3.2744851364798273 7.221649755690098e-24 6.276953019409742e-16 6.276919371422566e-16 3.364798717646332e-21
3.2775565192852394 7.42825994799638e-24 6.462591660273068e-16 6.462557789412998e-16 3.3870860067380393e-21
3.283707930232385 7.229567653948429e-24 6.301533959207409e-16 6.301499687286852e-16 3.4271920556713565e-21
3.2898708863219004 6.599450028982544e-24 5.76309835982686e-16 5.763063720613539e-16 3.463921332110289e-21
3.29141343181113 6.4508524160403404e-24 5.635973939469315e-16 5.63593920796341e-16 3.4731505904129615e-21
3.292184975758714 6.377836788756868e-24 5.57348790460879e-16 5.573453126886031e-16 3.477772275894768e-21
3.295272960557952 5.916960730530111e-24 5.175585825529193e-16 5.175550867598569e-16 3.495793062396019e-21
3.3076538914384823 4.320336821715038e-24 3.793211852096109e-16 3.7931761691361736e-16 3.568295993603906e-21
3.310756385682612 3.995380532038736e-24 3.5111938532712576e-16 3.511157987304852e-16 3.586596640632632e-21
3.313861789986515 3.6955566861690725e-24 3.2507509105097843e-16 3.250714860834368e-16 3.6049675415616655e-21
3.3200813396944477 3.2750909626726426e-24 2.88630035928202e-16 2.886263915509888e-16 3.6443772131273194e-21
3.345076488085796 2.5250536558083022e-24 2.242054146793939e-16 2.2420159492398194e-16 3.819755411962808e-21
3.3482140837626964 2.553185315311058e-24 2.2691593231846653e-16 2.2691208881308056e-16 3.843505385961192e-21
3.3513546224236106 2.5816278967393746e-24 2.2965899679302596e-16 2.2965512941702815e-16 3.867375997817536e-21
3.3576445397418455 2.7894674161639683e-24 2.48613920993145e-16 2.4861000374801943e-16 3.917245125591102e-21
3.3702598118196083 3.556041101337261e-24 3.181263090534892e-16 3.181222871714914e-16 4.021881997788962e-21
3.382922481734668 3.7306509812699155e-24 3.3500099739980647e-16 3.3499687335448057e-16 4.1240453259800666e-21
3.389271646505754 3.821110136001407e-24 3.4376793635533974e-16 3.4376376043394346e-16 4.1759213963029224e-21
3.395632727569191 3.918585908797439e-24 3.531990413894395e-16 3.531948120010047e-16 4.229388434577427e-21
3.421196662673239 4.386626594423851e-24 3.98362216391155e-16 3.983577651402709e-16 4.451250884050362e-21
3.4276182099114902 4.292325413267981e-24 3.9053010133935417e-16 3.905256000753809e-16 4.501263973191888e-21
3.4340518103208963 3.8790685072642535e-24 3.535930545998218e-16 3.5358850578943023e-16 4.548810391572186e-21
3.4469541582030403 3.290514129983853e-24 3.01070844518719e-16 3.010662039510784e-16 4.640567640584192e-21
3.472904465399547 3.1255941394646112e-24 2.881342290782985e-16 2.881293778057314e-16 4.851272567035882e-21
3.4990501388274233 2.8733459433715317e-24 2.6687476857562774e-16 2.6686970049808765e-16 5.068077540055629e-21
3.5253949054701885 1.9755792309211484e-24 1.8487222044978557e-16 1.8486693988619103e-16 5.2805635944725576e-21
3.5519380250092896 1.131779427961357e-24 1.0670790861397307e-16 1.0670241294900719e-16 5.495664965910149e-21
3.578680990867387 7.972356142204398e-25 7.573194499897052e-17 7.572621326662786e-17 5.7317323426541955e-21
3.605625307711299 6.619465253882849e-25 6.335383851540678e-17 6.334785716760675e-17 5.9813478000246565e-21
3.660119384959845 5.633072751584453e-25 5.472805887454969e-17 5.472154875599231e-17 6.5101185573763165e-21
3.715437065384467 4.934806097131094e-25 4.8668665166034474e-17 4.866159119120173e-17 7.073974832725372e-21
3.8285932144167436 4.581780554869446e-25 4.656321330006228e-17 4.6554904612945296e-17 8.308687116979037e-21
3.94519561050918 4.5156512059435745e-25 4.7288807615654995e-17 4.727911719921608e-17 9.690416438917592e-21
4.06534921144712 4.567571407522573e-25 4.928929835555852e-17 4.927807103778328e-17 1.1227317775252848e-20
4.189162171576248 4.688083652194804e-25 5.2130508194298543e-17 5.211757566627358e-17 1.2932528024948267e-20
4.316745939156006 4.8588112443853295e-25 5.567445187936625e-17 5.565963980861733e-17 1.4812070748942045e-20
4.448215356677963 5.073650495998839e-25 5.990675356951066e-17 5.988989880073245e-17 1.685476877819814e-20
4.58368876423945 5.333458388025036e-25 6.489234450789634e-17 6.487326849331856e-17 1.907601457778214e-20
4.723288106065518 5.644246074549814e-25 7.076521160894963e-17 7.074370869387222e-17 2.1502915077407343e-20
4.867139040275056 6.017934043837766e-25 7.774824769851018e-17 7.77241501210925e-17 2.409757741768795e-20
4.940699165968905 6.2432059731862745e-25 8.1877675999183e-17 8.185220658991574e-17 2.546940926728056e-20
5.015371051989984 6.476672903389117e-25 8.622326537617994e-17 8.619637535104589e-17 2.6890025134026297e-20
5.091171501069577 6.761135618882728e-25 9.137066954187428e-17 9.134228255572596e-17 2.838698614827875e-20
5.129500256944802 6.907208692065979e-25 9.404745913635956e-17 9.401830472030969e-17 2.9154416049861114e-20
5.168117569889187 7.059501081142134e-25 9.684469305601731e-17 9.681475293372159e-17 2.994012229570329e-20
5.20702561229733 7.246056150050363e-25 1.0015228032688048e-16 1.001214923968588e-16 3.078793002171592e-20
5.246226572918644 7.437410090360574e-25 1.0357100837255122e-16 1.0353935685489554e-16 3.16515176557092e-20
5.265937586045735 7.534934785006487e-25 1.0532334371546541e-16 1.0529125445865163e-16 3.2089256813776524e-20
5.285722656980489 7.633717805882187e-25 1.071050396576102e-16 1.0707250868343631e-16 3.2530974173877656e-20
5.305582063971359 7.733779571683047e-25 1.0891664598260018e-16 1.0888366930201626e-16 3.297668058391795e-20
5.3255160863122235 7.841222826452925e-25 1.1084469926222481e-16 1.1081127029901005e-16 3.342896321473197e-20
5.365609099470188 8.108351650610711e-25 1.1548379263256663e-16 1.1544942688362362e-16 3.4365748943006325e-20
5.406003951863644 8.38566038676724e-25 1.2033253383112837e-16 1.2029721370756733e-16 3.532012356100702e-20
5.446702915881641 8.67364019306701e-25 1.2540201741870267e-16 1.253657252065121e-16 3.629221219056313e-20
5.487708281020852 8.984720640671928e-25 1.3087751131414511e-16 1.3084022606949236e-16 3.7285244652759926e-20
5.529022354014368 9.416219740731348e-25 1.3819564706225352e-16 1.381573233168681e-16 3.8323745385409596e-20
5.570647458961463 9.87310376060601e-25 1.4599191626150865e-16 1.4595253419837717e-16 3.9382063131457734e-20
5.612585937458331 1.035719630851958e-24 1.543030976682774e-16 1.5426263729660418e-16 4.046037167316391e-20
5.654840148729818 1.0889159290421502e-24 1.6344969581970835e-16 1.6340813298006122e-16 4.156283964713793e-20
5.67608639626678 1.125097890421184e-24 1.6951523681770776e-16 1.694730976593655e-16 4.2139158342261266e-20
5.686739436050992 1.1437465586622781e-24 1.7264840198882503e-16 1.726059725579115e-16 4.242943091357378e-20
5.6974124697621304 1.1627788659831789e-24 1.7585074983090518e-16 1.758080287136723e-16 4.2721117232904296e-20
5.718818669136295 1.2020313059507193e-24 1.8247002770205346e-16 1.824267189560962e-16 4.330874595715453e-20
5.740305295436557 1.2452871144873211e-24 1.8974656305049012e-16 1.8970265747595697e-16 4.3905574533248534e-20
5.7835210386641895 1.3574214232732452e-24 2.0838979713882147e-16 2.0834465306123332e-16 4.514407758819087e-20
5.827062130521658 1.4865592697885558e-24 2.299330028996947e-16 2.298865867922151e-16 4.641610747960564e-20
5.8489554468988025 1.5770948106806752e-24 2.448530673957201e-16 2.448059685119952e-16 4.709888372496263e-20
5.870931020387893 1.6742378423268438e-24 2.609117061407221e-16 2.6086391693603436e-16 4.778920468775146e-20
5.892989160043636 1.7785198940305604e-24 2.782042772225072e-16 2.781557900955242e-16 4.8487126982977036e-20
5.915130176081913 1.897098344674859e-24 2.9786781855875354e-16 2.978186087271736e-16 4.920983158000164e-20
5.95966208400165 2.2285230747835975e-24 3.5253984077016183e-16 3.5248901215721126e-16 5.082861295052851e-20
6.004529249263818 2.706073353708232e-24 4.3130844591945415e-16 4.3125580859588527e-16 5.263732356883519e-20
6.027089341400364 3.0379686227359886e-24 4.860269442442642e-16 4.859732758882251e-16 5.366835603906817e-20
6.049734195844842 3.430140146609115e-24 5.508300075668635e-16 5.507752491315347e-16 5.475843532884374e-20
6.095279466722835 4.562815549422393e-24 7.382372730582035e-16 7.381798853876744e-16 5.738767052933816e-20
6.141167624020661 6.305752840513244e-24 1.0279152965790183e-15 1.0278545578722072e-15 6.073870681131919e-20
6.164241091010745 7.418782615909517e-24 1.2138965995606371e-15 1.2138337882458677e-15 6.281131476934116e-20
6.187401249150058 8.686608713548308e-24 1.4266845986244403e-15 1.4266196489868103e-15 6.494963762970418e-20
6.1990139391386085 9.305681755950466e-24 1.5312293398491964e-15 1.531163300028378e-15 6.603982081848461e-20
6.204828454712694 9.631778736802562e-24 1.5863744604580065e-15 1.5863078689335572e-15 6.659152444979689e-20
6.210648424152782 9.869856380370604e-24 1.6271111133079369e-15 1.6270440441165846e-15 6.706919135194856e-20
6.233982942956859 1.0678765728704086e-23 1.7670795533508074e-15 1.7670107856018635e-15 6.876774894451903e-20
6.239830258556775 1.0782211279110749e-23 1.785870841539665e-15 1.7858018135342448e-15 6.902800541961752e-20
6.245683058788269 1.0791259681300965e-23 1.7890460461001826e-15 1.788976757032958e-15 6.92890672246198e-20
6.257405133728602 1.076921842203522e-23 1.788742775198154e-15 1.7886730146297018e-15 6.976056845253282e-20
6.269149208991335 1.0610365523932762e-23 1.7656653116187856e-15 1.7655953081157225e-15 7.000350306267862e-20
6.280915325867298 1.0211741211507301e-23 1.7025198022896957e-15 1.7024498396641915e-15 6.996262550409275e-20
6.304513850009849 9.228621598653049e-24 1.5443931801127088e-15 1.5443235571354587e-15 6.962297725045178e-20
6.32820103803542 8.009965715403419e-24 1.3454896392346658e-15 1.3454206305408152e-15 6.900869385039946e-20
6.3519772230701035 6.892395836121527e-24 1.1621135809627345e-15 1.1620450996411203e-15 6.848132161386495e-20
6.375842739491607 5.952213890881923e-24 1.0073619871826871e-15 1.0072939448259214e-15 6.804235676547426e-20
6.399797922933955 5.198810153682276e-24 8.831605324650905e-16 8.830925980872487e-16 6.793437784168384e-20
6.42384311029221 4.572456057134969e-24 7.7967552092728e-16 7.796076282526025e-16 6.789267467735079e-20
6.447978639727206 4.116143501183227e-24 7.045041087827056e-16 7.044359963488127e-16 6.811243389282903e-20
6.472204850670314 3.73606691340854e-24 6.418541204501556e-16 6.417857343585661e-16 6.838609158953051e-20
6.496522083828205 3.489204934412586e-24 6.016955923488208e-16 6.01626717748782e-16 6.88746000387772e-20
