Dust emission spectrum from A.P. Jones, M. Kohler, N. Ysard, M. Bocchio, and L. Verstraete (2017), A&A, 602A, 46J 
inside the DustPedia framework.

lambda    nu*dP/dnu     j_nu    j_nu(carb.) j_nu(sil)
 (um)   (erg s-1 H-1) (Jy cm2 sr-1 H-1)
0.9927057738263894 1.0538654946795617e-25 2.776995436845747e-18 2.7769954368154118e-18 3.033622342183967e-29
1.0001793341362166 1.0711887321016764e-25 2.8438933489656468e-18 2.843893348929099e-18 3.654743384328332e-29
1.0077091589558085 1.0884847522468223e-25 2.9115683422013085e-18 2.911568342157335e-18 4.397405384450232e-29
1.0114953028030835 1.0971204218923426e-25 2.9456938125210185e-18 2.9456938124728063e-18 4.821223107051984e-29
1.0152956718711033 1.105746733499843e-25 2.9800093929046795e-18 2.980009392851838e-18 5.284188092695971e-29
1.0229392996569957 1.1229594024874507e-25 3.0491820373258056e-18 3.049182037262388e-18 6.341706205244308e-29
1.0267826658714554 1.1315247884905513e-25 3.083983415483398e-18 3.0839834154139564e-18 6.944246852046648e-29
1.0306404723013447 1.1400770243114765e-25 3.1189672845785695e-18 3.118967284502553e-18 7.601583092120487e-29
1.03451277320114 1.1486152836885603e-25 3.1541321205373268e-18 3.1541321204541428e-18 8.318455918382334e-29
1.0383996230291617 1.157138745079654e-25 3.189476380708295e-18 3.1894763806172944e-18 9.099993928815737e-29
1.0403485208654093 1.1613946711278045e-25 3.2072153078050347e-18 3.207215307709868e-18 9.516728316499205e-29
1.0423010764483396 1.165646591819419e-25 3.2249985042284313e-18 3.2249985041289147e-18 9.951743024303852e-29
1.0462171883269815 1.1741380122731196e-25 3.2606969123892075e-18 3.2606969122804113e-18 1.0879698216400335e-28
1.0471985131304309 1.1762582061570857e-25 3.2696488722300938e-18 3.2696488721188513e-18 1.112434225175683e-28
1.048180758391296 1.1783773104194508e-25 3.2786117250739757e-18 3.2786117249602334e-18 1.1374257675744209e-28
1.0501480137395462 1.1826121999868924e-25 3.2965700090030464e-18 3.2965700088841425e-18 1.189033768202566e-28
1.0521189612883777 1.1868425810023e-25 3.3145715619820198e-18 3.314571561857731e-18 1.2428829481003114e-28
1.0531058218030118 1.188952782638668e-25 3.323579368329038e-18 3.3235793682019692e-18 1.2706785728050682e-28
1.0540936079674168 1.1910511161838854e-25 3.3325679497232503e-18 3.332567949593343e-18 1.2990755730685231e-28
1.058054026499678 1.1994321181457219e-25 3.3686272029869424e-18 3.3686272028450553e-18 1.4188667914952864e-28
1.0590464539527713 1.201524224261446e-25 3.3776681184737338e-18 3.377668118328692e-18 1.450429158805443e-28
1.06003981227728 1.203615048179393e-25 3.3867194227142147e-18 3.386719422565948e-18 1.482663718244952e-28
1.0620293250338977 1.2077928007112007e-25 3.404853092742383e-18 3.4048530925874644e-18 1.5492041863249296e-28
1.0660195594769086 1.216132384895026e-25 3.4412439426458686e-18 3.4412439424767723e-18 1.6909688244196595e-28
1.070024785945596 1.2244500977414108e-25 3.477798061158068e-18 3.477798060973557e-18 1.8451111293185473e-28
1.0740450607676866 1.2327451724508957e-25 3.514513741911697e-18 3.514513741710433e-18 2.0126559806762092e-28
1.07808044048254 1.241016848503617e-25 3.5513892640784274e-18 3.551389263858957e-18 2.1947081598734855e-28
1.0861967418109137 1.2574722909375667e-25 3.625570485111742e-18 3.625570484851023e-18 2.607188758797222e-28
1.0902777775684922 1.2656211345496785e-25 3.662775594405579e-18 3.6627755941215506e-18 2.8402814575132886e-28
1.0943741465085532 1.273743021570792e-25 3.700130789300592e-18 3.700130788991271e-18 3.0932220818902343e-28
1.1026131145906286 1.2899030405064306e-25 3.775284223729036e-18 3.77528422336252e-18 3.665166924827784e-28
1.1109141095355224 1.305946648303303e-25 3.851016247058615e-18 3.851016246624881e-18 4.337325957781841e-28
1.1192775983109025 1.3218532723143261e-25 3.927267605200353e-18 3.92726760468773e-18 5.126226727883566e-28
1.1277040513999907 1.3375486031609834e-25 4.0038163238544456e-18 4.003816323249352e-18 6.050942167043571e-28
1.1361939428280308 1.353109009088827e-25 4.0808881185739084e-18 4.080888117860563e-18 7.133450060492852e-28
1.1447477501889525 1.3685293110772722e-25 4.158467725964716e-18 4.158467725124811e-18 8.399044681602812e-28
1.1533659546722406 1.3838129214016543e-25 4.236565665539846e-18 4.236565664552164e-18 9.87681215124175e-28
1.1707974979042381 1.4140200101676312e-25 4.394472732173134e-18 4.394472730812391e-18 1.3607413532843676e-27
1.1884924949847024 1.4436153235201307e-25 4.554255169653862e-18 4.554255167788387e-18 1.8654740864117117e-27
1.2064549276569216 1.4728324089843355e-25 4.716652347680753e-18 4.7166523451357534e-18 2.5449972270444853e-27
1.2246888378427687 1.5013500462825771e-25 4.880644263747521e-18 4.880644260292233e-18 3.4552861021890205e-27
1.2431983285522175 1.5291015063225253e-25 5.0459874581867065e-18 5.045987453517945e-18 4.668760370963661e-27
1.2619875648066055 1.5560767084328942e-25 5.212613335737798e-18 5.212613329459162e-18 6.278635728898839e-27
1.3004222497298317 1.6072482720116047e-25 5.548004339119399e-18 5.548004327921965e-18 1.1197431086725147e-26
1.3400274889804893 1.6546668152800529e-25 5.885640041026527e-18 5.8856400214181015e-18 1.960842456822965e-26
1.3808389325824078 1.6981590895532033e-25 6.224304497895707e-18 6.224304464164036e-18 3.37316708677854e-26
1.4228933163050095 1.7379434072159423e-25 6.564133465980995e-18 6.564133408949292e-18 5.703170160101502e-26
1.466228494730424 1.7749922151537967e-25 6.908241972535798e-18 6.90824187771708e-18 9.481871528295161e-26
1.5108834753276823 1.808580192116612e-25 7.25334232057024e-18 7.253342165488003e-18 1.5508223991159942e-25
1.5568984535646726 1.8381220167531112e-25 7.596334096530033e-18 7.596333846742637e-18 2.4978739945501004e-25
1.6043148490894465 1.8636770251494293e-25 7.936512190589844e-18 7.936511793662075e-18 3.969277690840955e-25
1.6531753430134553 1.8853286775214452e-25 8.273236242962698e-18 8.273235621388844e-18 6.215738527860819e-25
1.7035239163302658 1.9033435296492512e-25 8.606663992487536e-18 8.606663033041244e-18 9.59446294571401e-25
1.755405889504358 1.9192401733215505e-25 8.942857485143398e-18 8.942856024600195e-18 1.4605432047706739e-24
1.8088679632656115 1.9326481206365241e-25 9.279596424192856e-18 9.279594230730997e-18 2.1934618640503093e-24
1.8639582606462262 1.9433180789057907e-25 9.615004837159666e-18 9.615001585969602e-18 3.251190067583097e-24
1.9207263702978936 1.9514372921119866e-25 9.949231407741653e-18 9.949226649813873e-18 4.75792778243023e-24
1.979223391128241 1.9574367298702626e-25 1.0283761152142954e-17 1.0283754274701338e-17 6.877441617338472e-24
2.039501978296691 1.9618311395822354e-25 1.0620750036001671e-17 1.0620740213368073e-17 9.82263359478255e-24
2.1016163906111602 1.966055153514083e-25 1.0967776119481365e-17 1.0967762251799464e-17 1.3867681901992865e-23
2.1656225393682647 1.9709417021137826e-25 1.1329897333338944e-17 1.1329877973211698e-17 1.9360127248472318e-23
2.231578038680979 1.976553173780749e-25 1.1708196811568505e-17 1.1708170076559806e-17 2.673500870049613e-23
2.299542257339062 1.983389424851322e-25 1.2106505986457752e-17 1.2106469455786267e-17 3.653067148551468e-23
2.369576372248914 1.9925519681771889e-25 1.2532848819318224e-17 1.2532799412636338e-17 4.940668188333262e-23
2.4417434235010123 2.005341136361438e-25 1.2997437043471342e-17 1.2997370882697607e-17 6.616077373237944e-23
2.5161083711144245 2.0239814913055166e-25 1.3517778079653372e-17 1.351769032941301e-17 8.775024036280018e-23
2.5927381535095444 2.0521121812066678e-25 1.41230725465264e-17 1.4122957235271826e-17 1.1531125456897165e-22
2.6717017477616296 2.0940789286211994e-25 1.485082068957479e-17 1.4850670517719634e-17 1.5017185515722352e-22
2.753070231689431 2.156422697377474e-25 1.5758708346393247e-17 1.5758514475793425e-17 1.938705998157234e-22
2.836916847834745 2.2539591785204124e-25 1.697313579339877e-17 1.6972887612039233e-17 2.481813595396143e-22
2.9233170693905177 2.4193151952777103e-25 1.877317846180931e-17 1.8772863383274623e-17 3.1507853467987497e-22
2.967498994190263 2.5596321035599826e-25 2.0162183454297846e-17 2.0161830063730184e-17 3.533905676678452e-22
3.0123486681368425 2.7234939824289657e-25 2.1777152454924834e-17 2.177675661640939e-17 3.9583851543657264e-22
3.0578761833420214 3.089846962289626e-25 2.5079928793985753e-17 2.507948587415993e-17 4.4291982581956e-22
3.1040917844459814 3.5619508088498613e-25 2.9348905164419596e-17 2.934841046760643e-17 4.946968131711692e-22
3.127460860933648 4.061183138201866e-25 3.3714280109553486e-17 3.371375747357665e-17 5.226359768379463e-22
3.1510058709225794 4.726349449876623e-25 3.953160744550546e-17 3.9531055526848323e-17 5.519186571496314e-22
3.162844764501044 5.345382930656265e-25 4.487723926732814e-17 4.487667213275686e-17 5.67134571282021e-22
3.1747281389236908 6.0653193960016145e-25 5.1112797324710055e-17 5.111221462123767e-17 5.827034723824247e-22
3.1986289994194426 8.073529963630937e-25 6.854831200614884e-17 6.854769700314337e-17 6.150030054499168e-22
3.2227097969389145 1.2807020774136572e-24 1.0955665058951623e-16 1.0955600118873957e-16 6.494007766686404e-22
3.2348180950136065 1.7295809856084453e-24 1.4851153913329612e-16 1.4851087132987652e-16 6.67803419610584e-22
3.240889293275058 2.0651692199214967e-24 1.7765984245183293e-16 1.7765916493938601e-16 6.775124468950104e-22
3.2469718861334385 2.4533880095485156e-24 2.114531697643513e-16 2.1145248220409557e-16 6.875602556848909e-22
3.2714166318528037 4.524216989305939e-24 3.928698640925369e-16 3.928691348676323e-16 7.292249046818128e-22
3.2744851364798273 4.6536567734898074e-24 4.044890838500944e-16 4.0448834967697807e-16 7.341731163414599e-22
3.2775565192852394 4.786814195665964e-24 4.1645318980162674e-16 4.1645245065183487e-16 7.391497920145198e-22
3.283707930232385 4.6587073373635e-24 4.060685769552413e-16 4.0606782882994534e-16 7.481252960709813e-22
3.2898708863219004 4.252524918332963e-24 3.7136002658309364e-16 3.71359270219514e-16 7.563635795379327e-22
3.29141343181113 4.156738061555757e-24 3.6316545283031847e-16 3.6316469439608365e-16 7.584342349367783e-22
3.292184975758714 4.1096719528207826e-24 3.591375521138284e-16 3.5913679264259888e-16 7.594712295616837e-22
3.295272960557952 3.81258813854649e-24 3.3348839086640496e-16 3.334876273483337e-16 7.635180712221767e-22
3.3076538914384823 2.7834359341641833e-24 2.443828481602165e-16 2.443820683499402e-16 7.798102762604203e-22
3.310756385682612 2.5739855511385167e-24 2.262052931652761e-16 2.262045092403829e-16 7.839248931754742e-22
3.313861789986515 2.3807379383150044e-24 2.0941867972495817e-16 2.0941789166873937e-16 7.880562187514689e-22
3.3200813396944477 2.1097271970003684e-24 1.8592785470972158e-16 1.8592705779875073e-16 7.969109708992675e-22
3.345076488085796 1.626254744089566e-24 1.4439895898220617e-16 1.4439812268128325e-16 8.363009229198226e-22
3.3482140837626964 1.6443776283097824e-24 1.4614508409315505e-16 1.4614424245804867e-16 8.416351063892114e-22
3.3513546224236106 1.662700835865899e-24 1.4791217836395955e-16 1.4791133136636872e-16 8.469975908411178e-22
3.3576445397418455 1.79663314757685e-24 1.60126628049876e-16 1.6012576985195869e-16 8.581979173044441e-22
3.3702598118196083 2.290649803997056e-24 2.0492338156767808e-16 2.0492249986457472e-16 8.817031033729593e-22
3.382922481734668 2.4031285798964696e-24 2.1579356396165974e-16 2.1579265927175237e-16 9.046899072523112e-22
3.389271646505754 2.4613996932144707e-24 2.2144095903172713e-16 2.214400426616468e-16 9.163700802117486e-22
3.395632727569191 2.524185449173907e-24 2.2751571655883306e-16 2.275147881494365e-16 9.284093966043936e-22
3.421196662673239 2.8256409329241074e-24 2.5660460505028715e-16 2.566036266363417e-16 9.784139454067896e-22
3.4276182099114902 2.7648433565672307e-24 2.515546824315831e-16 2.5155369270488793e-16 9.897266951472998e-22
3.4340518103208963 2.4985169543487728e-24 2.2775010036641316e-16 2.2774909986557477e-16 1.0005008383468016e-21
3.4469541582030403 2.1192281322876497e-24 1.9390216188459313e-16 1.9390114055122661e-16 1.0213333665797023e-21
3.472904465399547 2.012907075935561e-24 1.8556069747119889e-16 1.85559628343074e-16 1.069128124960846e-21
3.4990501388274233 1.8503129293712182e-24 1.7185603284476692e-16 1.7185491443525063e-16 1.1184095163267073e-21
3.5253949054701885 1.2717634022551114e-24 1.1901002014080216e-16 1.1900885327625973e-16 1.1668645424336664e-21
3.5519380250092896 7.280609088683797e-25 6.864399105475334e-17 6.864277500799891e-17 1.2160467544038697e-21
3.578680990867387 5.124999155927017e-25 4.8683995957199704e-17 4.868272589745924e-17 1.2700597404424109e-21
3.605625307711299 4.25318481129464e-25 4.070654854678542e-17 4.0705221282488944e-17 1.327264296485468e-21
3.660119384959845 3.617321004150607e-25 3.514404404374426e-17 3.514259521195675e-17 1.4488317875173985e-21
3.715437065384467 3.1672384859160157e-25 3.123633762664731e-17 3.1234758579804484e-17 1.5790468428243366e-21
3.8285932144167436 2.9392158217839766e-25 2.9870337875346977e-17 2.98684715988027e-17 1.866276544274071e-21
3.94519561050918 2.8959854910242633e-25 3.032734250212278e-17 3.032515151049551e-17 2.1909916272813445e-21
4.06534921144712 2.9287465565161835e-25 3.1604511446541064e-17 3.1601955299598886e-17 2.5561469421761484e-21
4.189162171576248 3.005615821208905e-25 3.342181834214708e-17 3.341885233131971e-17 2.9660108273809867e-21
4.316745939156006 3.1147315704260884e-25 3.5689999922350905e-17 3.5686576490332293e-17 3.423432018624206e-21
4.448215356677963 3.252134934503371e-25 3.839934308635017e-17 3.8395415682326447e-17 3.9274040237291385e-21
4.58368876423945 3.418344401099062e-25 4.159109650518899e-17 4.158661315783181e-17 4.483347357170716e-21
4.723288106065518 3.6171906655113994e-25 4.5350833307750116e-17 4.534573350236056e-17 5.099805389529363e-21
4.867139040275056 3.8563038710161254e-25 4.982122874402311e-17 4.981545854929318e-17 5.770194729923856e-21
4.940699165968905 4.000490503305422e-25 5.246517040671677e-17 5.2459041205032956e-17 6.129201683810331e-21
5.015371051989984 4.149886527135355e-25 5.524700299794154e-17 5.524049868328113e-17 6.5043146604174156e-21
5.091171501069577 4.332007032255965e-25 5.854318051125616e-17 5.853627783467634e-17 6.902676579854593e-21
5.129500256944802 4.425511846287075e-25 6.025706809745589e-17 6.02499597449764e-17 7.108352479477153e-21
5.168117569889187 4.522997210630588e-25 6.204805007068215e-17 6.204073031323111e-17 7.319757451028992e-21
5.20702561229733 4.642492388663164e-25 6.416679494286981e-17 6.415924764657735e-17 7.547296292456584e-21
5.246226572918644 4.765054464033594e-25 6.635663353157383e-17 6.63488533789448e-17 7.78015262902529e-21
5.265937586045735 4.827516303458993e-25 6.747903909307514e-17 6.747114049156909e-17 7.898601506077407e-21
5.285722656980489 4.890782257519727e-25 6.862022424312695e-17 6.861220583121303e-17 8.018411913907335e-21
5.305582063971359 4.954865354662517e-25 6.978054012571038e-17 6.977240053094788e-17 8.1395947624833e-21
5.3255160863122235 5.0236891547309865e-25 7.101562165335814e-17 7.100735887289922e-17 8.262780458937652e-21
5.365609099470188 5.194910603689879e-25 7.39888950001395e-17 7.398037678535619e-17 8.518214783307976e-21
5.406003951863644 5.372657776141226e-25 7.70965545696066e-17 7.708777486738409e-17 8.779702222522476e-21
5.446702915881641 5.557245845057327e-25 8.034571699422439e-17 8.033666964595472e-17 9.047348269684029e-21
5.487708281020852 5.756665680260062e-25 8.385548174858357e-17 8.384615972291558e-17 9.322025668015132e-21
5.529022354014368 6.033489204928464e-25 8.854954192620084e-17 8.853993204671964e-17 9.609879481233886e-21
5.570647458961463 6.326617489174103e-25 9.355062329876794e-17 9.35407186056639e-17 9.904693104044963e-21
5.612585937458331 6.6372231980069915e-25 9.888236824533224e-17 9.88721616470671e-17 1.0206598265086723e-20
5.654840148729818 6.978591540517815e-25 1.0475084752878792e-16 1.0474033079598085e-16 1.0516732807053237e-20
5.67608639626678 7.210891921611791e-25 1.0864441771385116e-16 1.086337387648654e-16 1.0678948985745043e-20
5.686739436050992 7.330627238751723e-25 1.1065572777123842e-16 1.1064496696249432e-16 1.076080874413971e-20
5.6974124697621304 7.452828863026682e-25 1.1271150364575113e-16 1.1270066047274503e-16 1.0843173006113259e-20
5.718818669136295 7.704868493072134e-25 1.169609776726722e-16 1.1694996824736807e-16 1.1009425304087186e-20
5.740305295436557 7.982647524731918e-25 1.216329884281322e-16 1.216218097911659e-16 1.1178636966249045e-20
5.7835210386641895 8.702957197547022e-25 1.3360681169532389e-16 1.3359528118358662e-16 1.153051173731708e-20
5.827062130521658 9.532610637297026e-25 1.4744530096126216e-16 1.4743340736830348e-16 1.1893592958709412e-20
5.8489554468988025 1.0114407764610185e-24 1.5703201540476913e-16 1.5701992714995323e-16 1.20882548159571e-20
5.870931020387893 1.07387037608503e-24 1.6735098497649795e-16 1.6733869939119168e-16 1.2285585306233561e-20
5.892989160043636 1.1408918672813712e-24 1.7846356309613286e-16 1.7845107747942606e-16 1.2485616706896322e-20
5.915130176081913 1.2171075947266473e-24 1.9110089111097328e-16 1.9108819831269761e-16 1.2692798275760577e-20
5.95966208400165 1.4301612286984361e-24 2.26243478268658e-16 2.2623032381328387e-16 1.3154455374200766e-20
6.004529249263818 1.7371915871808622e-24 2.76882887414926e-16 2.768692178999727e-16 1.3669514953317492e-20
6.027089341400364 1.9505935379431916e-24 3.1206412390636666e-16 3.1205016202136844e-16 1.3961884998266245e-20
6.049734195844842 2.2027634009137266e-24 3.5373137216937925e-16 3.537171012292679e-16 1.4270940111373126e-20
6.095279466722835 2.9311227065000857e-24 4.742387699891852e-16 4.742237584648843e-16 1.501152430087256e-20
6.141167624020661 4.051960152162763e-24 6.605193585731699e-16 6.605034090940209e-16 1.5949479148747466e-20
6.164241091010745 4.7677198241563396e-24 7.801170598785214e-16 7.801005334603455e-16 1.652641817598797e-20
6.187401249150058 5.583040626241286e-24 9.169560109838708e-16 9.169388879051626e-16 1.7123078708450816e-20
6.1990139391386085 5.981150291161938e-24 9.841850443701624e-16 9.84167616775739e-16 1.742759442351678e-20
6.204828454712694 6.190856288875724e-24 1.0196472088289005e-15 1.019629626980176e-15 1.7581848724879566e-20
6.210648424152782 6.343949877328813e-24 1.0458421024443156e-15 1.0458243861431722e-15 1.771630114341232e-20
6.233982942956859 6.864091549817616e-24 1.1358424876207784e-15 1.135824289240215e-15 1.8198380563710952e-20
6.239830258556775 6.930595136620367e-24 1.147922949069471e-15 1.147904674002237e-15 1.827506723378381e-20
6.245683058788269 6.93638697791283e-24 1.1499598808245605e-15 1.149941528783534e-15 1.8352041027079364e-20
6.257405133728602 6.922155880141043e-24 1.1497544050237313e-15 1.1497359124258255e-15 1.8492597905906078e-20
6.269149208991335 6.819935028469113e-24 1.1349017788407435e-15 1.1348832067978935e-15 1.857204284979876e-20
6.280915325867298 6.563508293666312e-24 1.0942798697118703e-15 1.0942612942684622e-15 1.8575443408130145e-20
6.304513850009849 5.931121586365087e-24 9.92562500312988e-16 9.925439872360517e-16 1.8513076936272462e-20
6.32820103803542 5.1472576378047106e-24 8.646206573418441e-16 8.646022803337552e-16 1.8377008089178142e-20
6.3519772230701035 4.428414814020929e-24 7.466664886743081e-16 7.466482243129769e-16 1.8264361331088036e-20
6.375842739491607 3.823672996388587e-24 6.471243975085165e-16 6.471062220050961e-16 1.8175503420337763e-20
6.399797922933955 3.339046463617025e-24 5.672286476252642e-16 5.672104712581855e-16 1.817636707897754e-20
6.42384311029221 2.936140606059513e-24 5.006580550890172e-16 5.006398596783962e-16 1.8195410621106406e-20
6.447978639727206 2.6425884370259846e-24 4.522957985238622e-16 4.522775126869217e-16 1.8285836940720946e-20
6.472204850670314 2.398070652091346e-24 4.119871417857308e-16 4.119687503900102e-16 1.8391395720610794e-20
6.496522083828205 2.239221286888878e-24 3.861422885559222e-16 3.8612373250168793e-16 1.8556054234253956e-20
6.520930681187647 2.1054360368851885e-24 3.6443583007811145e-16 3.6441709877879766e-16 1.8731299313847047e-20
