Dust emission spectrum from A.P. Jones, M. Kohler, N. Ysard, M. Bocchio, and L. Verstraete (2017), A&A, 602A, 46J 
inside the DustPedia framework.

lambda    nu*dP/dnu     j_nu    j_nu(carb.) j_nu(sil)
 (um)   (erg s-1 H-1) (Jy cm2 sr-1 H-1)
0.9927057738263894 3.157459734230526e-21 8.320085739830042e-14 8.320085420878591e-14 3.189514512048255e-21
1.0001793341362166 3.21054655156119e-21 8.523663207897529e-14 8.523662824069273e-14 3.838282567901763e-21
1.0077091589558085 3.2638442523340707e-21 8.730398454692106e-14 8.730397993406061e-14 4.6128604733120405e-21
1.0114953028030835 3.290569742763112e-21 8.834956252302199e-14 8.834955746862226e-14 5.054399721630002e-21
1.0152956718711033 3.317345066237029e-21 8.940310793957906e-14 8.940310240322582e-14 5.536353253552946e-21
1.0229392996569957 3.371015458470891e-21 9.15334940938074e-14 9.153348745786499e-14 6.635942419582106e-21
1.0267826658714554 3.397849563953479e-21 9.260876836395999e-14 9.260876110222924e-14 7.261730742606897e-21
1.0306404723013447 3.424728606335904e-21 9.369205986913874e-14 9.36920519252586e-14 7.94388018690819e-21
1.03451277320114 3.4516517600443126e-21 9.478339562315013e-14 9.478338693594113e-14 8.687209024324527e-21
1.0383996230291617 3.478618224863997e-21 9.58828032756037e-14 9.588279377867999e-14 9.496923728028318e-21
1.0403485208654093 3.4921174559655844e-21 9.643554288526184e-14 9.643553295684573e-14 9.928416100400843e-21
1.0423010764483396 3.505627226580969e-21 9.699031114104225e-14 9.699030076239407e-14 1.03786481893434e-20
1.0462171883269815 3.532678017619226e-21 9.810594822848448e-14 9.810593689002955e-14 1.1338454964779851e-20
1.0471985131304309 3.539447159941261e-21 9.838613115932171e-14 9.838611956795768e-14 1.1591364048256495e-20
1.048180758391296 3.5462188579559555e-21 9.866682449303316e-14 9.866681264336541e-14 1.1849667750520657e-20
1.0501480137395462 3.5597698776733995e-21 9.92297442713735e-14 9.922973188847479e-14 1.2382898681393937e-20
1.0521189612883777 3.573330991097405e-21 9.97947113983563e-14 9.979469845930805e-14 1.2939048265735542e-20
1.0531058218030118 3.5801063242265784e-21 1.0007771283579974e-13 1.0007769960977208e-13 1.3226027683519289e-20
1.0540936079674168 3.5868547219232505e-21 1.0036040371544764e-13 1.003603901962921e-13 1.351915554303504e-20
1.058054026499678 3.613871842063576e-21 1.0149625652933255e-13 1.0149624177430793e-13 1.475502461810145e-20
1.0590464539527713 3.620631955512857e-21 1.0178149452109547e-13 1.0178147944062123e-13 1.5080474252100777e-20
1.06003981227728 3.627394383166602e-21 1.0206724342552225e-13 1.0206722801273966e-13 1.5412782591730032e-20
1.0620293250338977 3.640926143707338e-21 1.0264027599393491e-13 1.0264025989540779e-13 1.6098527140854076e-20
1.0660195594769086 3.668017030734513e-21 1.0379249451223669e-13 1.03792476953699e-13 1.755853770759239e-20
1.070024785945596 3.695143937684813e-21 1.0495294537429324e-13 1.0495292622967476e-13 1.9144618482841855e-20
1.0740450607676866 3.722306330352141e-21 1.0612166278954624e-13 1.0612164192247749e-13 2.086706877994075e-20
1.07808044048254 3.749503706372136e-21 1.0729868191949421e-13 1.072986591825163e-13 2.273697792665926e-20
1.0861967418109137 3.803959925838452e-21 1.0967657047444626e-13 1.0967654350662133e-13 2.69678249515423e-20
1.0902777775684922 3.831123264698581e-21 1.1087476662666759e-13 1.108747372712425e-13 2.935542510791928e-20
1.0943741465085532 3.8583182738249654e-21 1.1208133821447928e-13 1.1208130627055256e-13 3.1943926721844766e-20
1.1026131145906286 3.912802031504395e-21 1.145197686665955e-13 1.1451973087792591e-13 3.7788669630993417e-20
1.1109141095355224 3.967409014028826e-21 1.1699219559697818e-13 1.169921509524776e-13 4.464450063125369e-20
1.1192775983109025 4.022094849683134e-21 1.194977017422523e-13 1.194976490666293e-13 5.267562298147509e-20
1.1277040513999907 4.076661941900367e-21 1.2203074782660704e-13 1.220306857555525e-13 6.207105452978663e-20
1.1361939428280308 4.131342916267759e-21 1.2459859558620976e-13 1.2459852253813198e-13 7.30480778145813e-20
1.1447477501889525 4.186138079156939e-21 1.2720166062722458e-13 1.272015747710971e-13 8.585612750361688e-20
1.1533659546722406 4.241067886845316e-21 1.298409800685578e-13 1.2984087928725422e-13 1.0078130358886199e-19
1.1707974979042381 4.351498129841171e-21 1.3523528477805937e-13 1.35235146436692e-13 1.3834136733967178e-19
1.1884924949847024 4.4624851065156746e-21 1.4078054960164718e-13 1.4078036065419277e-13 1.8894745441951247e-19
1.2064549276569216 4.5747794456517544e-21 1.4650440933286443e-13 1.4650415254270242e-13 2.5679016206461024e-19
1.2246888378427687 4.687654903223265e-21 1.5238801950613475e-13 1.5238767222569054e-13 3.4728044420429367e-19
1.2431983285522175 4.8010208245376855e-21 1.5843219542287552e-13 1.5843172804260485e-13 4.673802706045486e-19
1.2619875648066055 4.915043836995311e-21 1.6464627297364694e-13 1.6464564697200424e-13 6.260016427262569e-19
1.3004222497298317 5.144366225178405e-21 1.7757658624568118e-13 1.7757547905665377e-13 1.107189027387367e-18
1.3400274889804893 5.376322268425468e-21 1.9123546398766631e-13 1.9123354166713123e-13 1.9223205350298837e-18
1.3808389325824078 5.6117743931534155e-21 2.0568975434257408e-13 2.056864764716595e-13 3.2778709145552155e-18
1.4228933163050095 5.852710328432249e-21 2.210542160006091e-13 2.2104872394063442e-13 5.492059974723435e-18
1.466228494730424 6.103330205810274e-21 2.375406581508346e-13 2.3753161179861806e-13 9.046352216575096e-18
1.5108834753276823 6.3631405281164124e-21 2.5519485774256767e-13 2.551802023317149e-13 1.465541085270806e-17
1.5568984535646726 6.6319264427615e-21 2.7407499885027986e-13 2.7405162299555433e-13 2.337585472555442e-17
1.6043148490894465 6.911262628768173e-21 2.943177351300376e-13 2.942809565788648e-13 3.677855117274246e-17
1.6531753430134553 7.202806235494802e-21 3.160749545107128e-13 3.1601794289873495e-13 5.701161197783336e-17
1.7035239163302658 7.508488483606339e-21 3.3952377205270333e-13 3.3943668074605204e-13 8.709130665127367e-17
1.755405889504358 7.833912218308273e-21 3.6502758483951854e-13 3.648964115362982e-13 1.3117330322027274e-16
1.8088679632656115 8.178993715271393e-21 3.9271381077239803e-13 3.925189484305768e-13 1.9486234182128873e-16
1.8639582606462262 8.543476263192907e-21 4.227077722809623e-13 4.224221490120407e-13 2.856232689214691e-16
1.9207263702978936 8.928275414212173e-21 4.552002697043351e-13 4.547870277119183e-13 4.1324199241662674e-16
1.979223391128241 9.334806464341785e-21 4.904215733559552e-13 4.898312003516786e-13 5.903730042765643e-16
2.039501978296691 9.764228394855873e-21 5.286052758764819e-13 5.277721462946316e-13 8.331295818502273e-16
2.1016163906111602 1.0220611499885668e-20 5.701639576823789e-13 5.690021350015602e-13 1.16182268081877e-15
2.1656225393682647 1.07057098510072e-20 6.15414415161756e-13 6.13812809810562e-13 1.6016053511940594e-15
2.231578038680979 1.1217955939473193e-20 6.64500392426201e-13 6.62317198263324e-13 2.183194162876796e-15
2.299542257339062 1.1757322968322495e-20 7.176608845304474e-13 7.147172712729276e-13 2.943613257519787e-15
2.369576372248914 1.232485514514991e-20 7.752146429358485e-13 7.712876659271164e-13 3.926977008732102e-15
2.4417434235010123 1.2921902636208031e-20 8.375214219198515e-13 8.323363710949761e-13 5.185050824875412e-15
2.5161083711144245 1.3552054617678379e-20 9.051153265584151e-13 8.983373224425179e-13 6.778004115897166e-15
2.5927381535095444 1.4221815777199558e-20 9.78775613751376e-13 9.70000804487781e-13 8.774809263595275e-15
2.6717017477616296 1.49366841235408e-20 1.0592820288850184e-12 1.0480290127900433e-12 1.1253016094975108e-14
2.753070231689431 1.5705147512439228e-20 1.1477009562485163e-12 1.133402211027579e-12 1.429874522093735e-14
2.836916847834745 1.655166375380988e-20 1.2464007297794427e-12 1.2283937396387186e-12 1.8006990140724332e-14
2.9233170693905177 1.7530857920525388e-20 1.3603433110867071e-12 1.3378669178753606e-12 2.2476393211346655e-14
2.967498994190263 1.8122433609066503e-20 1.4275013606687616e-12 1.4025214675384042e-12 2.497989313035738e-14
3.0123486681368425 1.8754900186723838e-20 1.4996483314382935e-12 1.4719222165147346e-12 2.7726114923558994e-14
3.0578761833420214 1.9758151797653212e-20 1.6037462250839321e-12 1.5730027016020562e-12 3.0743523481876246e-14
3.1040917844459814 2.0925361500287456e-20 1.7241575843138483e-12 1.6901360159851034e-12 3.402156832874505e-14
3.127460860933648 2.1977781322843486e-20 1.8245054470331734e-12 1.7887309301324547e-12 3.577451690071867e-14
3.1510058709225794 2.3305380579471374e-20 1.949282773536389e-12 1.9116826563406957e-12 3.7600117195693586e-14
3.162844764501044 2.4489557982596276e-20 2.05602436232038e-12 2.017480107202754e-12 3.8544255117625677e-14
3.1747281389236908 2.582711902224594e-20 2.1764662565593086e-12 2.136959097986145e-12 3.9507158573164076e-14
3.1986289994194426 2.9434633880169495e-20 2.499147802874064e-12 2.457652615984763e-12 4.149518688930203e-14
3.2227097969389145 3.7729145562765415e-20 3.227510043403954e-12 3.1839098988222897e-12 4.360014458166448e-14
3.2348180950136065 4.5491067194609397e-20 3.906118569817057e-12 3.8613955085740715e-12 4.472306124298525e-14
3.240889293275058 5.128355712663746e-20 4.411758896849298e-12 4.3664435245061874e-12 4.531537234311082e-14
3.2469718861334385 5.799467338935734e-20 4.998458242194072e-12 4.952530003994722e-12 4.5928238199347e-14
3.2714166318528037 9.319299852732222e-20 8.09260934043348e-12 8.044149757926775e-12 4.8459582506704483e-14
3.2744851364798273 9.539583752506943e-20 8.291667564191989e-12 8.24291003779606e-12 4.87575263959302e-14
3.2775565192852394 9.765741584019259e-20 8.496202416056792e-12 8.447145490507378e-12 4.9056925549414464e-14
3.283707930232385 9.550419896625129e-20 8.32446671557251e-12 8.27487511260878e-12 4.959160296373156e-14
3.2898708863219004 8.863182039892244e-20 7.739946458057342e-12 7.689868953712766e-12 5.007750434457519e-14
3.29141343181113 8.70078051153136e-20 7.601688746451488e-12 7.55148924725955e-12 5.0199499191936856e-14
3.292184975758714 8.6209322263336e-20 7.533692548329982e-12 7.483431973711422e-12 5.0260574618561104e-14
3.295272960557952 8.122699313342763e-20 7.104952921904233e-12 7.054454904802982e-12 5.049801710125231e-14
3.3076538914384823 6.383897111465751e-20 5.604996828965113e-12 5.553545471899061e-12 5.145135706605253e-14
3.310756385682612 6.026423032917854e-20 5.2961011700170005e-12 5.244409586507601e-12 5.1691583509400654e-14
3.313861789986515 5.695199408189986e-20 5.009711995758949e-12 4.957779428255567e-12 5.193256750338163e-14
3.3200813396944477 5.2330488380176484e-20 4.611826331988327e-12 4.559375113507257e-12 5.245121848106994e-14
3.345076488085796 4.429296954584802e-20 3.932876270397379e-12 3.87811289006237e-12 5.476338033500781e-14
3.3482140837626964 4.4629376586169464e-20 3.966463592012625e-12 3.911386957910511e-12 5.5076634102114236e-14
3.3513546224236106 4.4968790491375574e-20 4.000377949234595e-12 3.944986687326389e-12 5.5391261908207367e-14
3.3576445397418455 4.7313259097694264e-20 4.2168389532286736e-12 4.160789757356438e-12 5.6049195872236256e-14
3.3702598118196083 5.57815591467379e-20 4.990263334674996e-12 4.9328341597755515e-12 5.742917489944561e-14
3.382922481734668 5.782727912558233e-20 5.192712017620258e-12 5.133942587956754e-12 5.876942966350252e-14
3.389271646505754 5.888147006082802e-20 5.297298620542066e-12 5.237850071803274e-12 5.944854873879409e-14
3.395632727569191 6.00400865190587e-20 5.4116718369914244e-12 5.351523415078251e-12 6.014842191317391e-14
3.421196662673239 6.564879746236601e-20 5.961756693347412e-12 5.898712277036666e-12 6.304441631074731e-14
3.4276182099114902 6.466272734187815e-20 5.88323089010076e-12 5.8195413449433246e-12 6.368954515743496e-14
3.4340518103208963 6.013283753470448e-20 5.4813555537451885e-12 5.417056393562183e-12 6.429916018300514e-14
3.4469541582030403 5.3640773145113377e-20 4.907948190915552e-12 4.842480097773893e-12 6.546809314165746e-14
3.472904465399547 5.189520129590728e-20 4.783981269180601e-12 4.715818746934575e-12 6.816252224602636e-14
3.4990501388274233 4.922387515717905e-20 4.571886069365351e-12 4.500968892067838e-12 7.091717729751195e-14
3.5253949054701885 3.958631672486683e-20 3.7044377455528705e-12 3.630848586776138e-12 7.358915877673261e-14
3.5519380250092896 3.0415918058279775e-20 2.8677133762885717e-12 2.791441992791598e-12 7.627138349697411e-14
3.578680990867387 2.688857925830172e-20 2.5542316087839883e-12 2.4750208932228743e-12 7.921071556111428e-14
3.605625307711299 2.5582486622192173e-20 2.448458695865527e-12 2.366154383171841e-12 8.230431269368664e-14
3.660119384959845 2.4873464139312924e-20 2.4165787836619416e-12 2.3277845916906042e-12 8.879419197133708e-14
3.715437065384467 2.4453699327513688e-20 2.411703481791394e-12 2.3160816572802045e-12 9.562182451118983e-14
3.8285932144167436 2.4772703509688738e-20 2.5175729473008457e-12 2.4073261377181303e-12 1.102468095827153e-13
3.94519561050918 2.53848526645931e-20 2.658352825009333e-12 2.5322324946316554e-12 1.2612033037767858e-13
4.06534921144712 2.609994102629549e-20 2.8164809381826913e-12 2.6732756022556706e-12 1.4320533592702056e-13
4.189162171576248 2.6860185684159093e-20 2.9867963837481714e-12 2.8252819711949944e-12 1.6151441255317673e-13
4.316745939156006 2.763937904611697e-20 3.1670447796398634e-12 2.986088049050437e-12 1.8095673058942603e-13
4.448215356677963 2.842340985230051e-20 3.356073129140028e-12 3.1548368291042025e-12 2.0123630003582518e-13
4.58368876423945 2.920790573995671e-20 3.553734450965285e-12 3.3313783728332026e-12 2.223560781320808e-13
4.723288106065518 2.999451197519966e-20 3.760587258239753e-12 3.5161599663113023e-12 2.444272919284509e-13
4.867139040275056 3.0784409541483854e-20 3.977168710804485e-12 3.710346922586982e-12 2.6682178821750294e-13
4.940699165968905 3.119555617779094e-20 4.091198740373947e-12 3.812994869725934e-12 2.7820387064801295e-13
5.015371051989984 3.159503523008931e-20 4.206213819734835e-12 3.9165441306298645e-12 2.896696891049701e-13
5.091171501069577 3.203241098352749e-20 4.328892368955394e-12 4.027418619708158e-12 3.0147374924723557e-13
5.129500256944802 3.2246040350513114e-20 4.390569761787813e-12 4.0831770869877194e-12 3.073926748000936e-13
5.168117569889187 3.246082316854687e-20 4.453088709768956e-12 4.1397049816906704e-12 3.13383728078287e-13
5.20702561229733 3.2711781978460713e-20 4.521300264387027e-12 4.201353456504326e-12 3.199468078827009e-13
5.246226572918644 3.296046429827286e-20 4.589969468301957e-12 4.263432045571787e-12 3.2653742273017037e-13
5.265937586045735 3.308395488738613e-20 4.624476324605802e-12 4.294634254114512e-12 3.298420704912898e-13
5.285722656980489 3.3206880874334935e-20 4.659098467342626e-12 4.325946053691072e-12 3.331524136515533e-13
5.305582063971359 3.3329244595613907e-20 4.693836307126575e-12 4.357368257096173e-12 3.3646805003040304e-13
5.3255160863122235 3.3458110890026584e-20 4.729688623279211e-12 4.389871765324843e-12 3.3981685795436714e-13
5.365609099470188 3.376886368713607e-20 4.8095551593262546e-12 4.462808221867554e-12 3.467469374587022e-13
5.406003951863644 3.4080341135147e-20 4.8904601587406295e-12 4.536756466197302e-12 3.5370369254332737e-13
5.446702915881641 3.439276115840945e-20 4.972447020930768e-12 4.611763122031305e-12 3.606838988994635e-13
5.487708281020852 3.471972739158267e-20 5.057510073208093e-12 4.68979378742928e-12 3.6771628577881264e-13
5.529022354014368 3.516701769679698e-20 5.161231258055914e-12 4.786184831501754e-12 3.7504642655416176e-13
5.570647458961463 3.562473050647607e-20 5.267768676444088e-12 4.885365616081447e-12 3.824030603626404e-13
5.612585937458331 3.6093937411478307e-20 5.377330103374372e-12 4.987547200846955e-12 3.897829025274161e-13
5.654840148729818 3.6595861299407254e-20 5.4931535466746006e-12 5.095931718014497e-12 3.9722182866010456e-13
5.67608639626678 3.694089817289032e-20 5.56577801393985e-12 5.16465978355208e-12 4.011182303877696e-13
5.686739436050992 3.711657964658407e-20 5.602743120616338e-12 5.199673891708901e-12 4.030692289074351e-13
5.6974124697621304 3.7294445644567856e-20 5.640157748807988e-12 5.235135725689641e-12 4.0502202311834776e-13
5.718818669136295 3.765696756893824e-20 5.716380165360847e-12 5.30744737604465e-12 4.0893278931619736e-13
5.740305295436557 3.8053938313884564e-20 5.798344752461082e-12 5.385463457839702e-12 4.128812946213806e-13
5.7835210386641895 3.908626959349491e-20 6.000479771315712e-12 5.5794403522636485e-12 4.2103941905206134e-13
5.827062130521658 4.0245726638709666e-20 6.22499281931422e-12 5.795686609678618e-12 4.2930620963560107e-13
5.8489554468988025 4.1072089659044824e-20 6.37667885865956e-12 5.9428939846728685e-12 4.337848739866904e-13
5.870931020387893 4.194421535727799e-20 6.536548460995093e-12 6.0982709998546e-12 4.3827746114049244e-13
5.892989160043636 4.286575496394617e-20 6.705258916342957e-12 6.262475359689975e-12 4.427835566529829e-13
5.915130176081913 4.3908378281407575e-20 6.89415648474302e-12 6.4466973106196186e-12 4.474591741234007e-13
5.95966208400165 4.684645251834832e-20 7.410845819071984e-12 6.952646429003824e-12 4.58199390068159e-13
6.004529249263818 5.105073990134599e-20 8.136739996243964e-12 7.666406323315145e-12 4.703336729288204e-13
6.027089341400364 5.3973381100521324e-20 8.634887566150222e-12 8.157499641140115e-12 4.773879250101062e-13
6.049734195844842 5.739177911831763e-20 9.216274780279752e-12 8.731405286778387e-12 4.848694935013635e-13
6.095279466722835 6.725073535575436e-20 1.088078160128034e-11 1.0377375549015735e-11 5.034060522646064e-13
6.141167624020661 8.22700004639565e-20 1.341102229429923e-11 1.2883376526673987e-11 5.276457676252484e-13
6.164241091010745 9.183701058750109e-20 1.502680973923033e-11 1.4483862982059926e-11 5.429467571704036e-13
6.187401249150058 1.025806570671174e-19 1.6847799685759128e-11 1.6289157959939434e-11 5.586417258196946e-13
6.1990139391386085 1.0779564099832368e-19 1.773753417893724e-11 1.717090954600495e-11 5.66624632932289e-13
6.204828454712694 1.1052971432762688e-19 1.8204479226780328e-11 1.7633824300781022e-11 5.706549259993025e-13
6.210648424152782 1.1250419711090212e-19 1.854706110790053e-11 1.797299189598741e-11 5.740692119131195e-13
6.233982942956859 1.1910663469810805e-19 1.970929077296952e-11 1.912340045527211e-11 5.85890317697416e-13
6.239830258556775 1.1988995000097704e-19 1.9857519052256178e-11 1.927005073291262e-11 5.874683193435584e-13
6.245683058788269 1.1986389715092985e-19 1.9871825681260733e-11 1.928277747660124e-11 5.890482046594892e-13
6.257405133728602 1.194658154630566e-19 1.984300122053923e-11 1.9251224133634806e-11 5.917770869044256e-13
6.269149208991335 1.1789489087224538e-19 1.961882639770262e-11 1.9026222898530157e-11 5.926034991724571e-13
6.280915325867298 1.1427869879179972e-19 1.9052749540273588e-11 1.8461669826794055e-11 5.910797134795263e-13
6.304513850009849 1.0549595250175548e-19 1.7654557382327314e-11 1.7068648236731146e-11 5.859091455961672e-13
6.32820103803542 9.48150817744171e-20 1.5926748590863435e-11 1.5348268480055625e-11 5.784801108078081e-13
6.3519772230701035 8.507814377889285e-20 1.4344861885382905e-11 1.3773088762278119e-11 5.717731231047855e-13
6.375842739491607 7.686239504351999e-20 1.3008311937390525e-11 1.2442503369750477e-11 5.658085676400486e-13
6.399797922933955 7.034528107597564e-20 1.1950075893319865e-11 1.1387559465984807e-11 5.62516427335056e-13
6.42384311029221 6.490085949260717e-20 1.1066615141017429e-11 1.0506856697464505e-11 5.597584435529259e-13
6.447978639727206 6.094437555261125e-20 1.043101703613313e-11 9.871937422004569e-12 5.590796141285612e-13
6.472204850670314 5.763077874894595e-20 9.900934234342845e-12 9.34212238617614e-12 5.588118481667036e-13
6.496522083828205 5.546319726498267e-20 9.564345448093173e-12 9.004121059658404e-12 5.602243884347694e-13
6.520930681187647 5.362400533277216e-20 9.281929516354892e-12 8.72004238595962e-12 5.618871303952713e-13
