Dust emission spectrum from A.P. Jones, M. Kohler, N. Ysard, M. Bocchio, and L. Verstraete (2017), A&A, 602A, 46J 
inside the DustPedia framework.

lambda    nu*dP/dnu     j_nu    j_nu(carb.) j_nu(sil)
 (um)   (erg s-1 H-1) (Jy cm2 sr-1 H-1)
0.9927057738263894 1.706272780697841e-23 4.496125691497983e-16 4.496125691492201e-16 5.783196274394815e-28
1.0001793341362166 1.734455287146844e-23 4.604796248666115e-16 4.604796248659149e-16 6.967280676529934e-28
1.0077091589558085 1.7625974137325736e-23 4.714740210440687e-16 4.714740210432304e-16 8.38306670014778e-28
1.0114953028030835 1.7766498684735465e-23 4.770184220572601e-16 4.770184220563409e-16 9.19101864618196e-28
1.0152956718711033 1.790688079911622e-23 4.825939915742772e-16 4.8259399157327e-16 1.0073599626541269e-27
1.0229392996569957 1.8187025113271477e-23 4.93833972670267e-16 4.93833972669058e-16 1.2089616823322792e-27
1.0267826658714554 1.8326447489644584e-23 4.994893677776748e-16 4.994893677763509e-16 1.3238280180822676e-27
1.0306404723013447 1.8465665787197098e-23 5.051747053056523e-16 5.051747053042032e-16 1.449140402660168e-27
1.03451277320114 1.8604666570607552e-23 5.108897405038488e-16 5.10889740502263e-16 1.585802643116703e-27
1.0383996230291617 1.874343647917447e-23 5.166342255657339e-16 5.166342255639992e-16 1.734792438237809e-27
1.0403485208654093 1.8812730701207842e-23 5.195174335347699e-16 5.195174335329557e-16 1.814237289562048e-27
1.0423010764483396 1.888196222937799e-23 5.224079096872224e-16 5.224079096853252e-16 1.8971670400402586e-27
1.0462171883269815 1.902023061738497e-23 5.28210539125373e-16 5.282105391232991e-16 2.0740693174988878e-27
1.0471985131304309 1.9054755962005364e-23 5.296656891800694e-16 5.296656891779486e-16 2.1207074390281816e-27
1.048180758391296 1.9089264196759932e-23 5.311226282543915e-16 5.311226282522231e-16 2.168350480474719e-27
1.0501480137395462 1.9158228521497283e-23 5.340418572571358e-16 5.340418572548691e-16 2.2667342486201826e-27
1.0521189612883777 1.922712196461077e-23 5.3696819361535205e-16 5.369681936129827e-16 2.3693905260493254e-27
1.0531058218030118 1.926148868889389e-23 5.384325378139609e-16 5.384325378115385e-16 2.4223791763220653e-27
1.0540936079674168 1.9295663736254932e-23 5.398937934931797e-16 5.398937934907032e-16 2.4765142688685465e-27
1.058054026499678 1.943216945000587e-23 5.457560593219725e-16 5.457560593192677e-16 2.7048802454118906e-27
1.0590464539527713 1.9466246261179456e-23 5.472259156752328e-16 5.472259156724677e-16 2.7650496879451345e-27
1.06003981227728 1.9500302827385114e-23 5.486974795987334e-16 5.486974795959069e-16 2.8265005750967814e-27
1.0620293250338977 1.9568354431711832e-23 5.51645713299997e-16 5.516457132970436e-16 2.9533511003161047e-27
1.0660195594769086 1.970420599663677e-23 5.575624855712207e-16 5.575624855679969e-16 3.2236064700151536e-27
1.070024785945596 1.9839711556015176e-23 5.635061037662357e-16 5.635061037627182e-16 3.5174582101954465e-27
1.0740450607676866 1.99748586191219e-23 5.694762930612377e-16 5.694762930574009e-16 3.836860117195514e-27
1.07808044048254 2.0109634795285145e-23 5.754727762368933e-16 5.754727762327094e-16 4.183918309336443e-27
1.0861967418109137 2.0377787190356164e-23 5.875366345779115e-16 5.875366345729414e-16 4.970257542461538e-27
1.0902777775684922 2.0510597372588837e-23 5.93587713038058e-16 5.935877130326432e-16 5.414617675920739e-27
1.0943741465085532 2.064297867391138e-23 5.996635088922438e-16 5.99663508886347e-16 5.896815231824141e-27
1.1026131145906286 2.0906407573163033e-23 6.118880893157967e-16 6.118880893088094e-16 6.987151772720465e-27
1.1109141095355224 2.1167980905098662e-23 6.242080293928598e-16 6.242080293845914e-16 8.268533297891565e-27
1.1192775983109025 2.1427364608515055e-23 6.3661373508199245e-16 6.366137350722199e-16 9.772467371246683e-27
1.1277040513999907 2.168335354640063e-23 6.490692351651096e-16 6.490692351535742e-16 1.1535313993286224e-26
1.1361939428280308 2.193718464867568e-23 6.616111162250464e-16 6.616111162114473e-16 1.359897087994904e-26
1.1447477501889525 2.218877326323825e-23 6.742369107263869e-16 6.742369107103752e-16 1.6011658189519844e-26
1.1533659546722406 2.2438173867568582e-23 6.869483261398372e-16 6.869483261210085e-16 1.8828824731877147e-26
1.1707974979042381 2.293121691405466e-23 7.126533338974052e-16 7.126533338714643e-16 2.594071860118543e-26
1.1884924949847024 2.3414445728139357e-23 7.386688043871504e-16 7.386688043515876e-16 3.556277486008504e-26
1.2064549276569216 2.3891640409439684e-23 7.651146263466456e-16 7.651146262981287e-16 4.851697710572752e-26
1.2246888378427687 2.435758747041837e-23 7.918254630929072e-16 7.918254630270364e-16 6.587042031343341e-26
1.2431983285522175 2.481119656891406e-23 8.18761777368482e-16 8.187617772794782e-16 8.90036887423581e-26
1.2619875648066055 2.5252297963876366e-23 8.459124438478987e-16 8.459124437282047e-16 1.1969381539286268e-25
1.3004222497298317 2.608964311749459e-23 9.005793052791752e-16 9.005793050657114e-16 2.134640899563585e-25
1.3400274889804893 2.686634515175557e-23 9.556343024529004e-16 9.556343020790916e-16 3.738084688631838e-25
1.3808389325824078 2.7579522886802864e-23 1.0108790714026114e-15 1.0108790707595622e-15 6.430493434472973e-25
1.4228933163050095 2.823264819775278e-23 1.06633432422872e-15 1.0663343231414868e-15 1.087233413521627e-24
1.466228494730424 2.884144456898664e-23 1.1225045170283996e-15 1.1225045152208067e-15 1.8075925955526074e-24
1.5108834753276823 2.9394071099040905e-23 1.178854334498744e-15 1.1788543315423073e-15 2.956436741228528e-24
1.5568984535646726 2.988094705036394e-23 1.2348780703701012e-15 1.234878065608236e-15 4.7618653483935795e-24
1.6043148490894465 3.030296168943349e-23 1.2904587093886751e-15 1.2904587018217726e-15 7.566902766930719e-24
1.6531753430134553 3.066139815311799e-23 1.3454894814084737e-15 1.345489469558987e-15 1.1849486571639879e-23
1.7035239163302658 3.096051718459395e-23 1.3999930348387552e-15 1.3999930165481679e-15 1.8290587184149718e-23
1.755405889504358 3.122493998305549e-23 1.454951767539086e-15 1.454951739695725e-15 2.784336024227636e-23
1.8088679632656115 3.144858633517753e-23 1.510001671725521e-15 1.5100016299099825e-15 4.181553843136648e-23
1.8639582606462262 3.1627338073780655e-23 1.5648339397794867e-15 1.564833877799643e-15 6.197984387883883e-23
1.9207263702978936 3.1764180801730044e-23 1.6194688220379723e-15 1.6194687313339235e-15 9.070404893315076e-23
1.979223391128241 3.1866064832384653e-23 1.6741435091833901e-15 1.6741433780731205e-15 1.3111026992993607e-22
2.039501978296691 3.194130823946538e-23 1.729204128681954e-15 1.7292039414245233e-15 1.8725743029482908e-22
2.1016163906111602 3.2013209701301724e-23 1.785879283408267e-15 1.7858790190354782e-15 2.643727891534283e-22
2.1656225393682647 3.209527909285044e-23 1.844987178549549e-15 1.8449868094670616e-15 3.6908248796986568e-22
2.231578038680979 3.2188484337324717e-23 1.9066985633713725e-15 1.906698053690119e-15 5.096812537439463e-22
2.299542257339062 3.2300915624055295e-23 1.97163110517243e-15 1.9716304087383175e-15 6.964341122821438e-22
2.369576372248914 3.245046139483483e-23 2.0410846656643964e-15 2.0410837237459188e-15 9.419184771142344e-22
2.4417434235010123 3.2658245656208055e-23 2.116714628599129e-15 2.116713367251046e-15 1.261348082845534e-21
2.5161083711144245 3.296044447950599e-23 2.201363875088138e-15 2.2013622021060132e-15 1.6729821245964988e-21
2.5927381535095444 3.341625805186295e-23 2.299777960590832e-15 2.2997757620952702e-15 2.1984955617257715e-21
2.6717017477616296 3.4096369372142117e-23 2.4180514917104548e-15 2.418048628480894e-15 2.863229561793798e-21
2.753070231689431 3.510719809388005e-23 2.565564238835617e-15 2.565560542284423e-15 3.696551193265072e-21
2.836916847834745 3.668983384692825e-23 2.7628784853590105e-15 2.7628737530267993e-15 4.732332210146183e-21
2.9233170693905177 3.9375238108284244e-23 3.0554033365553403e-15 3.055397328261043e-15 6.008294297242777e-21
2.967498994190263 4.1655660390139523e-23 3.2812100829951943e-15 3.2812033438792956e-15 6.739115897672771e-21
3.0123486681368425 4.431893651790939e-23 3.543757553412627e-15 3.5437500045205734e-15 7.548892052921385e-21
3.0578761833420214 5.0277663132662414e-23 4.080979500553595e-15 4.0809710534191436e-15 8.447134450475585e-21
3.1040917844459814 5.795613420033168e-23 4.775330086299364e-15 4.7753206512415365e-15 9.435057828006327e-21
3.127460860933648 6.607863846407147e-23 5.485578095406947e-15 5.4855681272136045e-15 9.968193344408399e-21
3.1510058709225794 7.690071219808027e-23 6.432044010147536e-15 6.432033483145758e-15 1.0527001775569219e-20
3.162844764501044 8.697422809955948e-23 7.301933828033354e-15 7.301923010636979e-15 1.0817396376955315e-20
3.1747281389236908 9.868891908763365e-23 8.316572286112771e-15 8.316561171574502e-15 1.1114538269647813e-20
3.1986289994194426 1.3136454925827174e-22 1.1153508006618397e-14 1.115349627557622e-14 1.1731042178728763e-20
3.2227097969389145 2.0838841702478416e-22 1.7826423017125045e-14 1.7826410629370135e-14 1.2387754905969546e-20
3.2348180950136065 2.814310093474305e-22 2.416524736673184e-14 2.4165234627531955e-14 1.2739199885275666e-20
3.240889293275058 3.360397482106882e-22 2.890841493702579e-14 2.8908402012352934e-14 1.2924672858933842e-20
3.2469718861334385 3.9921359046046624e-22 3.440751270786867e-14 3.4407499591212706e-14 1.311665596764887e-20
3.2714166318528037 7.361937425233329e-22 6.392892654233378e-14 6.392891262939368e-14 1.3912940118683035e-20
3.2744851364798273 7.572593438219471e-22 6.58198816819411e-14 6.581986767445866e-14 1.4007482427907264e-20
3.2775565192852394 7.789300045529383e-22 6.776696812714628e-14 6.776695402457512e-14 1.4102571170079246e-20
3.283707930232385 7.580893292157721e-22 6.607761184110262e-14 6.607759756717985e-14 1.4273922786078597e-20
3.2898708863219004 6.919976044849214e-22 6.043003950173125e-14 6.043002507065792e-14 1.443107333738368e-20
3.29141343181113 6.764115381086285e-22 5.909665196582829e-14 5.909663749525593e-14 1.447057237123586e-20
3.292184975758714 6.687530988810051e-22 5.844124632279011e-14 5.844123183243643e-14 1.4490353678543034e-20
3.295272960557952 6.204122622004115e-22 5.426767315965052e-14 5.426765859213178e-14 1.4567518750737572e-20
3.3076538914384823 4.529451165000914e-22 3.9768121217344377e-14 3.976810633918421e-14 1.487816016696751e-20
3.310756385682612 4.1886135782983496e-22 3.6810096389855234e-14 3.681008143324233e-14 1.4956612909460693e-20
3.313861789986515 3.8741381348539684e-22 3.4078378817596754e-14 3.4078363782212584e-14 1.5035384179646168e-20
3.3200813396944477 3.4331213553153243e-22 3.0255707442150326e-14 3.025569223784693e-14 1.5204303387363852e-20
3.345076488085796 2.646388968601544e-22 2.3497906064033666e-14 2.3497890107806364e-14 1.5956227299051666e-20
3.3482140837626964 2.6758900694378743e-22 2.3782139363207373e-14 2.3782123305100188e-14 1.6058107188625675e-20
3.3513546224236106 2.7057173321701506e-22 2.4069786699180193e-14 2.4069770538651028e-14 1.616052917081228e-20
3.3576445397418455 2.92370283081991e-22 2.6057777924808316e-14 2.6057761550281682e-14 1.637452663408235e-20
3.3702598118196083 3.727726904538471e-22 3.334854596743145e-14 3.334852914365325e-14 1.6823778207319308e-20
3.382922481734668 3.9108486322540257e-22 3.5118219288334396e-14 3.5118202025395864e-14 1.7262938526217665e-20
3.389271646505754 4.0057183386101264e-22 3.603762984768979e-14 3.603761236159004e-14 1.748609974597209e-20
3.395632727569191 4.1079446242865734e-22 3.7026675876150106e-14 3.702665816000287e-14 1.771614723857949e-20
3.421196662673239 4.598794448344687e-22 4.176297913067628e-14 4.176296045891248e-14 1.8671763797022807e-20
3.4276182099114902 4.499873898824611e-22 4.0941355571276075e-14 4.094133668343283e-14 1.8887843248242282e-20
3.4340518103208963 4.066411569064137e-22 3.706701454931256e-14 3.7066995455761016e-14 1.9093551543931667e-20
3.4469541582030403 3.4490829494793254e-22 3.155793518564682e-14 3.155791569447332e-14 1.9491173501902142e-20
3.472904465399547 3.2760729076047425e-22 3.020061785112904e-14 3.020059744685093e-14 2.0404278103402755e-20
3.4990501388274233 3.011461700009067e-22 2.7970288301632723e-14 2.797026695581351e-14 2.1345819210384256e-20
3.5253949054701885 2.0697633037541713e-22 1.9368584756385818e-14 1.9368562485266004e-14 2.2271119811570075e-20
3.5519380250092896 1.1846819967206244e-22 1.1169573780855096e-14 1.1169550570661066e-14 2.32101940316616e-20
3.578680990867387 8.337425394277224e-23 7.919985386124945e-15 7.919961143965703e-15 2.4242159241224663e-20
3.605625307711299 6.917939060953328e-23 6.621048337250151e-15 6.621023001772764e-15 2.5335477389142453e-20
3.660119384959845 5.882390270014284e-23 5.7150300593910855e-15 5.7150023997604185e-15 2.765963066713107e-20
3.715437065384467 5.149069397945249e-23 5.078179963159247e-15 5.078149813305761e-15 3.0149853485365304e-20
3.8285932144167436 4.7769440036545265e-23 4.854659883879077e-15 4.854624237860745e-15 3.56460183316275e-20
3.94519561050918 4.705788866720089e-23 4.927996743976114e-15 4.9279548791982845e-15 4.1864777830182916e-20
4.06534921144712 4.758551052544499e-23 5.135018626807615e-15 5.1349697616597554e-15 4.886514786077656e-20
4.189162171576248 4.883413888713102e-23 5.430253950833967e-15 5.430197218851697e-15 5.673198226924547e-20
4.316745939156006 5.06117868997441e-23 5.7993269393510034e-15 5.799261415272802e-15 6.552407820170626e-20
4.448215356677963 5.2855362158029576e-23 6.240857855946885e-15 6.240782627974216e-15 7.522797267045924e-20
4.58368876423945 5.557494613798935e-23 6.761819983242851e-15 6.761734028974262e-15 8.595426859017589e-20
4.723288106065518 5.883486427917252e-23 7.3764707734355e-15 7.376372898397362e-15 9.787503814132118e-20
4.867139040275056 6.276170625381524e-23 8.108451585306723e-15 8.108340708864555e-15 1.1087644216777613e-19
4.940699165968905 6.513138719651489e-23 8.541775877901939e-15 8.541658022482022e-15 1.1785541991903726e-19
5.015371051989984 6.758954299798041e-23 8.998124792623104e-15 8.997999632483344e-15 1.2516013976012863e-19
5.091171501069577 7.058522954519311e-23 9.538959202798748e-15 9.53882627271826e-15 1.329300804876373e-19
5.129500256944802 7.212451501791383e-23 9.820359686928956e-15 9.820222739324721e-15 1.3694760423410014e-19
5.168117569889187 7.372983025469652e-23 1.0114514748304468e-14 1.0114373667563646e-14 1.4108074082251927e-19
5.20702561229733 7.569523511478298e-23 1.0462312532000157e-14 1.0462167002830982e-14 1.4552916917526968e-19
5.246226572918644 7.771188271782644e-23 1.082190972102832e-14 1.0821759634879528e-14 1.5008614879724901e-19
5.265937586045735 7.873994052756151e-23 1.100627152981063e-14 1.1006119123828842e-14 1.5240598178542273e-19
5.285722656980489 7.978143945504699e-23 1.1193751791806686e-14 1.1193597038084374e-14 1.547537223122124e-19
5.305582063971359 8.083659904634511e-23 1.1384409342367794e-14 1.1384252212734483e-14 1.5712963330857834e-19
5.3255160863122235 8.196941061857897e-23 1.158731854688067e-14 1.1587159000822095e-14 1.5954605857518718e-19
5.365609099470188 8.478361230365798e-23 1.2075368118966703e-14 1.2075203558646977e-14 1.6456031972469785e-19
5.406003951863644 8.77057121145378e-23 1.2585592646775963e-14 1.2585422947476884e-14 1.6969929907895643e-19
5.446702915881641 9.074091186191845e-23 1.3119166989417854e-14 1.3118992023876837e-14 1.7496554101683386e-19
5.487708281020852 9.401958918594127e-23 1.3695528597441247e-14 1.3695348220473819e-14 1.8037696742930837e-19
5.529022354014368 9.856225907132953e-23 1.446533273789332e-14 1.4465146680598714e-14 1.860572946061616e-19
5.570647458961463 1.0337262466952621e-22 1.5285535258630278e-14 1.5285343375731148e-14 1.91882899129213e-19
5.612585937458331 1.0846988200650727e-22 1.616000923295135e-14 1.61598113759276e-14 1.9785702375112028e-19
5.654840148729818 1.140707691974598e-22 1.7122380185627034e-14 1.7122176182056122e-14 2.0400357091360022e-19
5.67608639626678 1.1787686189149046e-22 1.776016498562978e-14 1.7759957760488462e-14 2.0722514131400274e-19
5.686739436050992 1.1983857935063151e-22 1.8089618775068857e-14 1.808940992320387e-14 2.0885186498374895e-19
5.6974124697621304 1.2184065576172188e-22 1.8426350273808585e-14 1.84261397845084e-14 2.1048930018657123e-19
5.718818669136295 1.2596976348888325e-22 1.9122385681342655e-14 1.912217188477683e-14 2.1379656582429892e-19
5.740305295436557 1.3051921572944284e-22 1.9887439859122873e-14 1.988722269211892e-14 2.1716700395572194e-19
5.7835210386641895 1.4230688582842693e-22 2.1846791689594385e-14 2.1846567492727345e-14 2.241968670432296e-19
5.827062130521658 1.558804354989474e-22 2.4110748461905073e-14 2.411051699350297e-14 2.3146840210731954e-19
5.8489554468988025 1.6539148840710623e-22 2.5677982695374727e-14 2.567774731006801e-14 2.3538530671452283e-19
5.870931020387893 1.755964503582362e-22 2.7364791487181066e-14 2.7364552125808667e-14 2.3936137240163266e-19
5.892989160043636 1.8655112122257213e-22 2.918118600695406e-14 2.918094260943478e-14 2.4339751928473656e-19
5.915130176081913 1.9900619178434406e-22 3.124642451609276e-14 3.1246176929279566e-14 2.475868131817627e-19
5.95966208400165 2.338068834169872e-22 3.698693649775042e-14 3.698667952547316e-14 2.569722772696132e-19
6.004529249263818 2.8394032312478524e-22 4.5255927498417336e-14 4.5255659965674567e-14 2.6753274276741167e-19
6.027089341400364 3.1877731402217416e-22 5.0999329838060675e-14 5.0999056258233886e-14 2.7357982677980383e-19
6.049734195844842 3.599394045807898e-22 5.780096919504737e-14 5.780068919274743e-14 2.8000229994082332e-19
6.095279466722835 4.788112327227515e-22 7.746889939472296e-14 7.746860383207423e-14 2.9556264874511725e-19
6.141167624020661 6.617152217897433e-22 1.0786772264316856e-13 1.078674070999924e-13 3.1554317617478075e-19
6.164241091010745 7.785138588282711e-22 1.273841511295732e-13 1.273838232052614e-13 3.279243117964462e-19
6.187401249150058 9.11556231605376e-22 1.4971357399616232e-13 1.4971323316923948e-13 3.40826922858496e-19
6.1990139391386085 9.765215213981193e-22 1.6068445534394377e-13 1.6068410792474511e-13 3.474191986217346e-19
6.204828454712694 1.0107419282421214e-21 1.6647134707847978e-13 1.6647099630911513e-13 3.5076936464514634e-19
6.210648424152782 1.0357277527623146e-21 1.7074657137186607e-13 1.7074621769901818e-13 3.5367284793655354e-19
6.233982942956859 1.1206271519403804e-21 1.8543691072843727e-13 1.8543654665619143e-13 3.6407224584856577e-19
6.239830258556775 1.131488306091933e-21 1.8740979202545773e-13 1.8740942632421632e-13 3.657012414083099e-19
6.245683058788269 1.13244542752965e-21 1.877442554789769e-13 1.8774388814176883e-13 3.673372080587345e-19
6.257405133728602 1.1301485294989976e-21 1.877151096597508e-13 1.8771473934828366e-13 3.703114671263758e-19
6.269149208991335 1.1134975886325668e-21 1.8529654443902325e-13 1.852961725188278e-13 3.7192019544803544e-19
6.280915325867298 1.071689735986938e-21 1.7867403409834968e-13 1.7867366226846895e-13 3.718298806981768e-19
6.304513850009849 9.685712362582196e-22 1.6208864950632016e-13 1.6208827940799107e-13 3.700983290985044e-19
6.32820103803542 8.407387377316458e-22 1.412247319293536e-13 1.4122436525853066e-13 3.666708229285596e-19
6.3519772230701035 7.2351075495947625e-22 1.2198975425998488e-13 1.219893905258226e-13 3.637341622823759e-19
6.375842739491607 6.248925749752416e-22 1.0575779661867888e-13 1.0575743527213265e-13 3.613465462280759e-19
6.399797922933955 5.458719117815557e-22 9.27313200550848e-14 9.273095916179581e-14 3.6089328897420873e-19
6.42384311029221 4.801806083225254e-22 8.187832999484903e-14 8.18779691363848e-14 3.608584642168776e-19
6.447978639727206 4.323311025210587e-22 7.399621465896139e-14 7.399585226488993e-14 3.6239407146025474e-19
6.472204850670314 3.9248025836429406e-22 6.742787987076845e-14 6.742751560017888e-14 3.64270589609583e-19
6.496522083828205 3.666077320083425e-22 6.321963330237969e-14 6.321926584571828e-14 3.6745666139098894e-19
