Dust emission spectrum from A.P. Jones, M. Kohler, N. Ysard, M. Bocchio, and L. Verstraete (2017), A&A, 602A, 46J 
inside the DustPedia framework.

lambda    nu*dP/dnu     j_nu    j_nu(carb.) j_nu(sil)
 (um)   (erg s-1 H-1) (Jy cm2 sr-1 H-1)
0.9927057738263894 5.1957011961258725e-23 1.3690967761728122e-15 1.3690967761727738e-15 3.8447560790103763e-29
1.0001793341362166 5.2815551583109e-23 1.4021973100338655e-15 1.402197310033819e-15 4.6328436815148124e-29
1.0077091589558085 5.367287136930822e-23 1.435686010220609e-15 1.4356860102205529e-15 5.575403493168516e-29
1.0114953028030835 5.410096824526771e-23 1.452574250113806e-15 1.452574250113745e-15 6.113410391776575e-29
1.0152956718711033 5.452863380133963e-23 1.4695575034251254e-15 1.469557503425059e-15 6.70119729167448e-29
1.0229392996569957 5.538208434874772e-23 1.5037948514594793e-15 1.503794851459399e-15 8.044139531657014e-29
1.0267826658714554 5.580683447658203e-23 1.521021490178722e-15 1.521021490178634e-15 8.809474384307324e-29
1.0306404723013447 5.623096549624968e-23 1.5383394106112027e-15 1.538339410611106e-15 9.644538225964337e-29
1.03451277320114 5.665443647937068e-23 1.5557478679604351e-15 1.555747867960329e-15 1.0555378342777379e-28
1.0383996230291617 5.707720672431958e-23 1.5732461081103152e-15 1.5732461081102e-15 1.154853787382115e-28
1.0403485208654093 5.728831641464904e-23 1.5820286585697773e-15 1.5820286585696564e-15 1.2078177063869852e-28
1.0423010764483396 5.74992357640307e-23 1.5908333678035095e-15 1.5908333678033835e-15 1.263109394082183e-28
1.0462171883269815 5.792048337363155e-23 1.6085088748200695e-15 1.6085088748199316e-15 1.3810698499243414e-28
1.0471985131304309 5.802566848739065e-23 1.6129414488850513e-15 1.6129414488849095e-15 1.4121718421946659e-28
1.048180758391296 5.81308016399322e-23 1.617379477349153e-15 1.6173794773490088e-15 1.4439453084111676e-28
1.0501480137395462 5.834090957790307e-23 1.6262718481561879e-15 1.6262718481560364e-15 1.50956220884621e-28
1.0521189612883777 5.855080223084593e-23 1.6351858882725678e-15 1.63518588827241e-15 1.578034366711621e-28
1.0531058218030118 5.865550516402662e-23 1.6396464994129368e-15 1.6396464994127749e-15 1.613380208885927e-28
1.0540936079674168 5.875962455423522e-23 1.6440977122344016e-15 1.6440977122342366e-15 1.6494922327493438e-28
1.058054026499678 5.917551128238374e-23 1.6619551372750569e-15 1.6619551372748766e-15 1.8018451432286469e-28
1.0590464539527713 5.927933221464469e-23 1.6664325734164316e-15 1.6664325734162476e-15 1.841991028751502e-28
1.06003981227728 5.938309163422711e-23 1.6709152159792529e-15 1.670915215979065e-15 1.8829936659417077e-28
1.0620293250338977 5.959042351877036e-23 1.6798960690628345e-15 1.6798960690626377e-15 1.9676391852954983e-28
1.0660195594769086 6.000432261674543e-23 1.6979196862294518e-15 1.6979196862292374e-15 2.14800022782219e-28
1.070024785945596 6.041717022147375e-23 1.7160251597388731e-15 1.7160251597386388e-15 2.344143052923862e-28
1.0740450607676866 6.082892827624261e-23 1.7342116530667764e-15 1.7342116530665208e-15 2.5573779193706487e-28
1.07808044048254 6.123955902859711e-23 1.7524783223797065e-15 1.7524783223794277e-15 2.78911757379588e-28
1.0861967418109137 6.20565636512322e-23 1.7892278597535824e-15 1.789227859753251e-15 3.3143205625975e-28
1.0902777775684922 6.246121373726604e-23 1.8076611003751247e-15 1.807661100374763e-15 3.6111929692085753e-28
1.0943741465085532 6.286455981616972e-23 1.8261697170657316e-15 1.826169717065338e-15 3.9334037896137835e-28
1.1026131145906286 6.366719655254623e-23 1.86340953673165e-15 1.863409536731183e-15 4.662188657838723e-28
1.1109141095355224 6.446419052281663e-23 1.900940175307933e-15 1.900940175307381e-15 5.518994238945181e-28
1.1192775983109025 6.525452421958768e-23 1.9387324177944698e-15 1.9387324177938178e-15 6.52499997577208e-28
1.1277040513999907 6.603452737794054e-23 1.9766767205990675e-15 1.9766767205982968e-15 7.704659808077252e-28
1.1361939428280308 6.680796664404479e-23 2.014884502818847e-15 2.014884502817938e-15 9.086166233361231e-28
1.1447477501889525 6.75745840251387e-23 2.0533482512174234e-15 2.053348251216353e-15 1.0701983247726475e-27
1.1533659546722406 6.833454519391147e-23 2.0920731658262725e-15 2.0920731658250135e-15 1.2589461317091835e-27
1.1707974979042381 6.983695204277331e-23 2.1703835818678946e-15 2.1703835818661587e-15 1.7357437158210877e-27
1.1884924949847024 7.130949695491494e-23 2.249641160364205e-15 2.249641160361824e-15 2.381379730361741e-27
1.2064549276569216 7.276369019267719e-23 2.3302110143670518e-15 2.3302110143638005e-15 3.251363283504241e-27
1.2246888378427687 7.418365296082482e-23 2.4115896301703674e-15 2.41158963016595e-15 4.417838388094555e-27
1.2431983285522175 7.556606242410307e-23 2.4936565798932058e-15 2.4936565798872313e-15 5.974253378548675e-27
1.2619875648066055 7.691039996088041e-23 2.5763779788000213e-15 2.5763779787919797e-15 8.041033039932229e-27
1.3004222497298317 7.946251243518966e-23 2.7429387946144168e-15 2.7429387946000512e-15 1.4365410790256251e-26
1.3400274889804893 8.182998998221806e-23 2.9106878868216593e-15 2.9106878867964583e-15 2.5201504534629607e-26
1.3808389325824078 8.400403922402208e-23 3.079020819663355e-15 3.079020819619921e-15 4.3434629464029757e-26
1.4228933163050095 8.599521593591178e-23 3.248000323229413e-15 3.2480003231558328e-15 7.357992091020295e-26
1.466228494730424 8.78513941528902e-23 3.419162536328062e-15 3.419162536205484e-15 1.225779262189224e-25
1.5108834753276823 8.953649234702198e-23 3.590876600368042e-15 3.5908766001671394e-15 2.0090307891952452e-25
1.5568984535646726 9.10213096619242e-23 3.7616016335903725e-15 3.761601633266084e-15 3.2428845715389712e-25
1.6043148490894465 9.230853588245555e-23 3.9309805853719106e-15 3.930980584855451e-15 5.164585708727427e-25
1.6531753430134553 9.340206110354355e-23 4.098687546116019e-15 4.0986875453054075e-15 8.106115703327806e-25
1.7035239163302658 9.431484605895361e-23 4.264790758409167e-15 4.26479075715495e-15 1.2542162488810883e-24
1.755405889504358 9.512187393832545e-23 4.432281973745973e-15 4.432281971831999e-15 1.9139734003824074e-24
1.8088679632656115 9.580460966769341e-23 4.6000516276119405e-15 4.6000516247301496e-15 2.8817900788273625e-24
1.8639582606462262 9.635049264249772e-23 4.767158103844531e-15 4.767158099561713e-15 4.282819839693801e-24
1.9207263702978936 9.676860336718077e-23 4.933662136086712e-15 4.933662129801656e-15 6.285057090635187e-24
1.979223391128241 9.70801002221036e-23 5.100285225445746e-15 5.10028521633454e-15 9.111207863297588e-24
2.039501978296691 9.731030966577662e-23 5.2680806927461274e-15 5.2680806796936026e-15 1.30525245151249e-23
2.1016163906111602 9.753019828065261e-23 5.440790293796616e-15 5.440790275310101e-15 1.8486516643549157e-23
2.1656225393682647 9.778091290965003e-23 5.620905495268351e-15 5.620905469373117e-15 2.5895234223021935e-23
2.231578038680979 9.806539179445487e-23 5.808945201999483e-15 5.808945166112388e-15 3.588709559789859e-23
2.299542257339062 9.840827161716438e-23 6.006789763636403e-15 6.006789714414332e-15 4.922207214611403e-23
2.369576372248914 9.88640404168717e-23 6.218397773309349e-15 6.21839770646815e-15 6.684120096459239e-23
2.4417434235010123 9.94970433341073e-23 6.448810794820872e-15 6.4488107049241114e-15 8.989676139738137e-23
2.5161083711144245 1.0041748322872388e-22 6.706688077110992e-15 6.706687957319877e-15 1.1979111881162796e-22
2.5927381535095444 1.0180570515701397e-22 7.006485185119533e-15 7.006485026903167e-15 1.5821636589209583e-22
2.6717017477616296 1.0387703109008138e-22 7.366767037286004e-15 7.366766830096425e-15 2.0718957716440295e-22
2.753070231689431 1.0695565469606537e-22 7.816106602859604e-15 7.816106333757893e-15 2.6910170989921436e-22
2.836916847834745 1.1177603429271921e-22 8.417143604807035e-15 8.417143258023673e-15 3.4678336135705588e-22
2.9233170693905177 1.199557078046668e-22 9.308212152452356e-15 9.308211708950315e-15 4.435020388457305e-22
2.967498994190263 1.269021845853878e-22 9.99606592995601e-15 9.996065430491214e-15 4.994647954766436e-22
3.0123486681368425 1.3501491932814206e-22 1.0795839832464231e-14 1.0795839270619863e-14 5.618443677133589e-22
3.0578761833420214 1.5316709618493259e-22 1.2432395237637024e-14 1.2432394606161472e-14 6.314755478495243e-22
3.1040917844459814 1.7655803977228541e-22 1.4547604510478355e-14 1.4547603801858267e-14 7.086200863282965e-22
3.127460860933648 2.0130233301621925e-22 1.6711295726053727e-14 1.6711294975550562e-14 7.505031710206478e-22
3.1510058709225794 2.3427049088792213e-22 1.9594592359413786e-14 1.9594591564818686e-14 7.945950984516622e-22
3.162844764501044 2.649587760502713e-22 2.224465214754334e-14 2.2244651329923214e-14 8.176201276617961e-22
3.1747281389236908 3.006465695910766e-22 2.5335660291868893e-14 2.5335659450633894e-14 8.412350028918999e-22
3.1986289994194426 4.001895913620039e-22 3.39781001542956e-14 3.397809926384699e-14 8.904486120668308e-22
3.2227097969389145 6.348364139532664e-22 5.4306581063282814e-14 5.430658011981766e-14 9.434651777899193e-22
3.2348180950136065 8.57354761103604e-22 7.361729587352254e-14 7.361729490132152e-14 9.722009939838318e-22
3.240889293275058 1.0237161509703803e-21 8.806699632280407e-14 8.806699533526272e-14 9.875413456619935e-22
3.2469718861334385 1.2161706971994698e-21 1.0481959962976806e-13 1.0481959862622471e-13 1.0035433502331823e-21
3.2714166318528037 2.2427564615252287e-21 1.94754457691749e-13 1.9475445662113131e-13 1.0706177121828672e-21
3.2744851364798273 2.3069319363712592e-21 2.005151713729793e-13 2.0051517029446465e-13 1.0785146120311971e-21
3.2775565192852394 2.372950710610066e-21 2.0644688769627762e-13 2.0644688660981042e-13 1.0864672130857717e-21
3.283707930232385 2.309462768374151e-21 2.0130053080679938e-13 2.0130052970641887e-13 1.1003805115116044e-21
3.2898708863219004 2.1081206099137945e-21 1.8409574094743891e-13 1.8409573983466925e-13 1.1127696797406788e-21
3.29141343181113 2.0606390940788165e-21 1.800336991744199e-13 1.8003369805853542e-13 1.1158844647709815e-21
3.292184975758714 2.037308357572139e-21 1.780370659359559e-13 1.780370648185114e-13 1.1174444890283405e-21
3.295272960557952 1.890042274277582e-21 1.6532264535623544e-13 1.653226442327979e-13 1.1234375789926547e-21
3.3076538914384823 1.3798668720362014e-21 1.2115090997105915e-13 1.2115090882353376e-13 1.14752537618723e-21
3.310756385682612 1.2760330532878576e-21 1.1213949152895967e-13 1.1213949037534735e-13 1.1536123290992787e-21
3.313861789986515 1.1802301563997438e-21 1.0381749168904633e-13 1.038174905293209e-13 1.1597254422353908e-21
3.3200813396944477 1.0458773794181197e-21 9.217198210323991e-14 9.217198093014125e-14 1.1730986368711859e-21
3.345076488085796 8.062053733775016e-22 7.158485905401332e-14 7.15848578198357e-14 1.2341776241837676e-21
3.3482140837626964 8.151929662001953e-22 7.245078170999784e-14 7.245078046737144e-14 1.2426264017557137e-21
3.3513546224236106 8.242799271628523e-22 7.332710550112255e-14 7.332710424999534e-14 1.2511272151781775e-21
3.3576445397418455 8.90688805158841e-22 7.93834819335357e-14 7.938348066441569e-14 1.269119981961841e-21
3.3702598118196083 1.1356324993473821e-21 1.0159460061434981e-13 1.0159459930696333e-13 1.3073864588595823e-21
3.382922481734668 1.1914217280960825e-21 1.0698601108488728e-13 1.0698600974061074e-13 1.3442765330740704e-21
3.389271646505754 1.2203244340837722e-21 1.097870507412199e-13 1.0978704937814262e-13 1.363077277728486e-21
3.395632727569191 1.2514685447119612e-21 1.1280025514534418e-13 1.1280025376280643e-13 1.3825377861640024e-21
3.421196662673239 1.4010108555295283e-21 1.2722983768581164e-13 1.2722983622194243e-13 1.4638692132099522e-21
3.4276182099114902 1.3708758163460762e-21 1.247268601365659e-13 1.247268586545973e-13 1.4819686250265046e-21
3.4340518103208963 1.2388224844062224e-21 1.1292376650420824e-13 1.129237650052403e-13 1.4989679381397196e-21
3.4469541582030403 1.0507543451432944e-21 9.614044662241203e-14 9.614044509092453e-14 1.5314874786468609e-21
3.472904465399547 9.980482287499396e-22 9.200550171977348e-14 9.20055001109296e-14 1.6088438645280849e-21
3.4990501388274233 9.174356061657031e-22 8.521090738946018e-14 8.521090570055617e-14 1.688904020391786e-21
3.5253949054701885 6.305470807606706e-22 5.900580300391313e-14 5.900580123748926e-14 1.7664238646448575e-21
3.5519380250092896 3.609040783633742e-22 3.4027230448762e-14 3.402722860378842e-14 1.8449735797036726e-21
3.578680990867387 2.5398823792900045e-22 2.4127150019549818e-14 2.4127148086111523e-14 1.9334382977916863e-21
3.605625307711299 2.107422406316602e-22 2.0169801289494754e-14 2.0169799260974523e-14 2.028520229935706e-21
3.660119384959845 1.7919240060198649e-22 1.740941877105878e-14 1.7409416537482034e-14 2.2335767446433365e-21
3.715437065384467 1.5684937287150132e-22 1.546899606495886e-14 1.5468993608255197e-14 2.4567036641973116e-21
3.8285932144167436 1.4550869443588032e-22 1.4787596863037752e-14 1.478759389987218e-14 2.9631655807565013e-21
3.94519561050918 1.4333692720544977e-22 1.5010531295942512e-14 1.5010527736814974e-14 3.55912753732009e-21
4.06534921144712 1.449400495549549e-22 1.5640682342519685e-14 1.5640678082538417e-14 4.2599812659376935e-21
4.189162171576248 1.487394206116376e-22 1.6539512005891984e-14 1.6539506919781954e-14 5.0861100320020175e-21
4.316745939156006 1.5415012853215613e-22 1.7663217362228184e-14 1.766321130267191e-14 6.0595562757815104e-21
4.448215356677963 1.609799476090589e-22 1.9007588438844718e-14 1.900758123793487e-14 7.20090984308974e-21
4.58368876423945 1.6925958420668981e-22 2.0593863213154305e-14 2.0593854666889173e-14 8.546265137098337e-21
4.723288106065518 1.7918501150082477e-22 2.2465472072847744e-14 2.2465461929055004e-14 1.0143792746886654e-20
4.867139040275056 1.9114191967186759e-22 2.4694437007720922e-14 2.469442498093562e-14 1.2026785307866048e-20
4.940699165968905 1.983579962422849e-22 2.601402519462958e-14 2.601401209655514e-14 1.309807444225785e-20
5.015371051989984 2.0584347877891767e-22 2.7403725896707298e-14 2.740371163124577e-14 1.4265461537332202e-20
5.091171501069577 2.149666361785035e-22 2.9050808301993675e-14 2.905079274966312e-14 1.5552330556455532e-20
5.129500256944802 2.196544184546956e-22 2.990779758467081e-14 2.990778134579596e-14 1.6238874859548378e-20
5.168117569889187 2.2454334476516977e-22 3.080363761065697e-14 3.080362065227389e-14 1.6958383086649953e-20
5.20702561229733 2.3052941298396437e-22 3.1862913997155174e-14 3.186289626558136e-14 1.773157381265108e-20
5.246226572918644 2.3667156845352477e-22 3.295813018246041e-14 3.295811164239589e-14 1.8540064523720406e-20
5.265937586045735 2.398027569041548e-22 3.3519637408926486e-14 3.3519618450866544e-14 1.8958059946180527e-20
5.285722656980489 2.429748877473897e-22 3.4090643182978036e-14 3.409062379747317e-14 1.9385504873181764e-20
5.305582063971359 2.461886298225456e-22 3.4671326730725877e-14 3.467130690810841e-14 1.9822617462478654e-20
5.3255160863122235 2.4963896416404906e-22 3.528933754254084e-14 3.5289317271053e-14 2.0271487827775315e-20
5.365609099470188 2.5821111127829476e-22 3.6775906762802066e-14 3.677588554795872e-14 2.1214843350669325e-20
5.406003951863644 2.671119742327809e-22 3.833002911349333e-14 3.8330006911069954e-14 2.220242337229994e-20
5.446702915881641 2.763574021315097e-22 3.995528403816423e-14 3.9955260801830204e-14 2.3236334018445533e-20
5.487708281020852 2.86344652569423e-22 4.1710896760388236e-14 4.171087243799273e-14 2.432239550235016e-20
5.529022354014368 3.0018322302238454e-22 4.4055911910557406e-14 4.405588641820081e-14 2.549235658887985e-20
5.570647458961463 3.148374210706148e-22 4.655447722156755e-14 4.6554450501950283e-14 2.671961726536822e-20
5.612585937458331 3.303657371827802e-22 4.9218393754721987e-14 4.921836574770644e-14 2.800701555330085e-20
5.654840148729818 3.4742856844399218e-22 5.215011766904653e-14 5.215008830513925e-14 2.9363907287687864e-20
5.67608639626678 3.590241677561528e-22 5.409313032991425e-14 5.4093100234437474e-14 3.009547676964245e-20
5.686739436050992 3.6500073711107e-22 5.509681625680577e-14 5.5096785788522204e-14 3.0468283577864374e-20
5.6974124697621304 3.7110027948887537e-22 5.612267673561349e-14 5.612264588976106e-14 3.084585245147383e-20
5.718818669136295 3.8368009998698447e-22 5.824317397289313e-14 5.82431423573702e-14 3.161552293290114e-20
5.740305295436557 3.9754069985410836e-22 6.057396771591792e-14 6.057393530222889e-14 3.2413689026976057e-20
5.7835210386641895 4.334545273614903e-22 6.654344736062268e-14 6.654341321691916e-14 3.4143703516141507e-20
5.827062130521658 4.748099624288577e-22 7.344105457933552e-14 7.344101858888866e-14 3.5990446878022396e-20
5.8489554468988025 5.037885104464462e-22 7.821607253167831e-14 7.82160354917183e-14 3.703996001246936e-20
5.870931020387893 5.348814498212559e-22 8.335543978741502e-14 8.335540166463181e-14 3.812278322241639e-20
5.892989160043636 5.682588088899076e-22 8.888966141630524e-14 8.888962217629362e-14 3.9240011611598863e-20
5.915130176081913 6.062079187086778e-22 9.518211369782398e-14 9.518207327156464e-14 4.042625931611801e-20
5.95966208400165 7.122427261467693e-22 1.126728011509913e-13 1.1267275792141086e-13 4.322958050551772e-20
6.004529249263818 8.649968159681002e-22 1.3786781940305925e-13 1.3786777275651255e-13 4.6646546698043074e-20
6.027089341400364 9.711440722544471e-22 1.553676961395591e-13 1.5536764738504288e-13 4.8754516149775144e-20
6.049734195844842 1.0965642670962138e-21 1.7609207721126723e-13 1.760920261300106e-13 5.1081256551717443e-20
6.095279466722835 1.4587664783106758e-21 2.360200133694028e-13 2.3601995616882726e-13 5.720057564370043e-20
6.141167624020661 2.016077722319663e-21 3.2864547378864476e-13 3.28645407961777e-13 6.582686779864575e-20
6.164241091010745 2.371965567950661e-21 3.881123206165312e-13 3.881122491941999e-13 7.142233124258076e-20
6.187401249150058 2.777350022949099e-21 4.561506835861784e-13 4.561506060547009e-13 7.753147763362024e-20
6.1990139391386085 2.9753015603703002e-21 4.89579287538484e-13 4.895792068649006e-13 8.067358343990696e-20
6.204828454712694 3.0795724962640402e-21 5.072121454093913e-13 5.07212063108707e-13 8.230068442751144e-20
6.210648424152782 3.155705283663199e-21 5.202388909715993e-13 5.202388073047211e-13 8.366687810323915e-20
6.233982942956859 3.414397536538499e-21 5.650008837267322e-13 5.650007951886536e-13 8.853807849296519e-20
6.239830258556775 3.4474921307066225e-21 5.710123381271917e-13 5.710122488903662e-13 8.92368253501097e-20
6.245683058788269 3.450408750709879e-21 5.720314694662956e-13 5.720313795251586e-13 8.994113701821067e-20
6.257405133728602 3.443410474270026e-21 5.719426764795927e-13 5.719425852916484e-13 9.118794433496398e-20
6.269149208991335 3.39267479440789e-21 5.645732170656712e-13 5.645731253938246e-13 9.167184659529646e-20
6.280915325867298 3.2652848747740918e-21 5.443941482923022e-13 5.443940570857629e-13 9.120653923349147e-20
6.304513850009849 2.9510789083872634e-21 4.938577328550292e-13 4.938576434604509e-13 8.9394578200315e-20
6.32820103803542 2.561567356710201e-21 4.3028428099604173e-13 4.3028419449338446e-13 8.650265719246123e-20
6.3519772230701035 2.2043676064677143e-21 3.7167417452796417e-13 3.7167409072973736e-13 8.379822682231733e-20
6.375842739491607 1.9038728861811803e-21 3.222144246033712e-13 3.2221434315518285e-13 8.144818822263858e-20
6.399797922933955 1.6630916008557958e-21 2.8252173484536677e-13 2.825216548527869e-13 7.999257997557963e-20
6.42384311029221 1.462925707972466e-21 2.4945179334452245e-13 2.4945171453960923e-13 7.880491322392273e-20
6.447978639727206 1.3171241108056522e-21 2.254341588364472e-13 2.2543408040421912e-13 7.843222805040802e-20
6.472204850670314 1.1956949199077306e-21 2.0541969106327228e-13 2.0541961280381889e-13 7.825945341946828e-20
6.496522083828205 1.1168580442244458e-21 1.925964725836052e-13 1.9259639379072438e-13 7.879288081670849e-20
