Dust emission spectrum from A.P. Jones, M. Kohler, N. Ysard, M. Bocchio, and L. Verstraete (2017), A&A, 602A, 46J 
inside the DustPedia framework.

lambda    nu*dP/dnu     j_nu    j_nu(carb.) j_nu(sil)
 (um)   (erg s-1 H-1) (Jy cm2 sr-1 H-1)
0.9927057738263894 1.2623045802993051e-21 3.326244266557481e-14 3.326244266557136e-14 3.46434828910958e-27
1.0001793341362166 1.2831591489243755e-21 3.4066524972968773e-14 3.40665249729646e-14 4.174060985700289e-27
1.0077091589558085 1.303983978145021e-21 3.488003356655058e-14 3.488003356654555e-14 5.022766291755268e-27
1.0114953028030835 1.3143826757444572e-21 3.5290282069010593e-14 3.529028206900509e-14 5.507150565507731e-27
1.0152956718711033 1.3247708689256137e-21 3.570283784921878e-14 3.570283784921275e-14 6.0363146422424114e-27
1.0229392996569957 1.3455014911383805e-21 3.653452626057943e-14 3.653452626057218e-14 7.24518165589394e-27
1.0267826658714554 1.3558187788074081e-21 3.6952991845816e-14 3.6952991845808074e-14 7.934031380916773e-27
1.0306404723013447 1.3661210004180005e-21 3.737367402568922e-14 3.737367402568054e-14 8.685583158447998e-27
1.03451277320114 1.3764071617717967e-21 3.779655469967763e-14 3.779655469966813e-14 9.505268382991765e-27
1.0383996230291617 1.3866762741842501e-21 3.822161554096777e-14 3.8221615540957364e-14 1.0398963140782154e-26
1.0403485208654093 1.3918041296279732e-21 3.843495773641174e-14 3.843495773640086e-14 1.0875530317666157e-26
1.0423010764483396 1.3969273546742023e-21 3.864883800078924e-14 3.8648838000777854e-14 1.1373022342460713e-26
1.0462171883269815 1.407159426149288e-21 3.9078203312755465e-14 3.907820331274302e-14 1.2434316286212285e-26
1.0471985131304309 1.4097143599318803e-21 3.9185877241839926e-14 3.9185877241827215e-14 1.271412752742993e-26
1.048180758391296 1.4122680298197864e-21 3.929368361536169e-14 3.929368361534869e-14 1.299997376009644e-26
1.0501480137395462 1.4173715175871276e-21 3.950969249720785e-14 3.950969249719426e-14 1.3590269809613585e-26
1.0521189612883777 1.4224697690509918e-21 3.972622755322604e-14 3.9726227553211835e-14 1.420622606124781e-26
1.0531058218030118 1.4250129793247495e-21 3.9834582220950834e-14 3.9834582220936306e-14 1.4524177326681517e-26
1.0540936079674168 1.4275420109731276e-21 3.994270848672824e-14 3.99427084867134e-14 1.4849014130401018e-26
1.058054026499678 1.4376437686618926e-21 4.0376490124393546e-14 4.037649012437732e-14 1.6219393142558527e-26
1.0590464539527713 1.4401655419771066e-21 4.048525313295762e-14 4.048525313294103e-14 1.6580476843639468e-26
1.06003981227728 1.4426858193913868e-21 4.059414256076126e-14 4.0594142560744324e-14 1.694925844106006e-26
1.0620293250338977 1.4477218278184492e-21 4.081229942731674e-14 4.081229942729903e-14 1.7710543370496988e-26
1.0660195594769086 1.4577752497187748e-21 4.1250116435858435e-14 4.1250116435839105e-14 1.9332567550275063e-26
1.070024785945596 1.4678031027328158e-21 4.168992100422895e-14 4.168992100420786e-14 2.1096364958403017e-26
1.0740450607676866 1.477804462477687e-21 4.21316928048497e-14 4.213169280482668e-14 2.3013690092205192e-26
1.07808044048254 1.487778411966667e-21 4.25754113327066e-14 4.25754113326815e-14 2.5097215343505373e-26
1.0861967418109137 1.5076228239014438e-21 4.346809748740043e-14 4.3468097487370616e-14 2.9818555337468097e-26
1.0902777775684922 1.5174514084153622e-21 4.3915859436226826e-14 4.3915859436194344e-14 3.2486939988608034e-26
1.0943741465085532 1.5272482906830078e-21 4.4365451488746994e-14 4.436545148871161e-14 3.538280304791331e-26
1.1026131145906286 1.5467434655054147e-21 4.5270039841025234e-14 4.52700398409833e-14 4.193179725588063e-26
1.1109141095355224 1.5661014665807605e-21 4.6181688970069845e-14 4.6181688970020216e-14 4.962972653964402e-26
1.1192775983109025 1.5852975760802521e-21 4.7099689092135106e-14 4.7099689092076433e-14 5.866636733785998e-26
1.1277040513999907 1.6042426298505833e-21 4.8021378913928596e-14 4.8021378913859334e-14 6.926077915051096e-26
1.1361939428280308 1.623028137876424e-21 4.89494652646735e-14 4.8949465264591846e-14 8.16654470776577e-26
1.1447477501889525 1.6416478343610549e-21 4.988376559663511e-14 4.988376559653894e-14 9.617103236456865e-26
1.1533659546722406 1.660105746480813e-21 5.082440623247095e-14 5.0824406232357844e-14 1.1311185620830193e-25
1.1707974979042381 1.69659582500049e-21 5.27265812143604e-14 5.2726581214204504e-14 1.5589225283080048e-25
1.1884924949847024 1.7323601463558917e-21 5.4651748451973394e-14 5.46517484517596e-14 2.137964465055523e-25
1.2064549276569216 1.7676783574393986e-21 5.6608777914593454e-14 5.660877791430167e-14 2.9178662707530843e-25
1.2246888378427687 1.802164714090371e-21 5.858543712661842e-14 5.858543712622214e-14 3.963082946683647e-25
1.2431983285522175 1.8357385142982395e-21 6.057880056594095e-14 6.057880056540524e-14 5.357053118287293e-25
1.2619875648066055 1.8683871747370655e-21 6.258804498888815e-14 6.258804498816742e-14 7.207237665263529e-25
1.3004222497298317 1.9303662836484793e-21 6.663364151182131e-14 6.663364151053487e-14 1.2864469399759554e-24
1.3400274889804893 1.987859269339298e-21 7.070803622521982e-14 7.070803622296504e-14 2.2547632700525717e-24
1.3808389325824078 2.0406526905085856e-21 7.479654761626279e-14 7.479654761238044e-14 3.8823561241437315e-24
1.4228933163050095 2.0890031570778516e-21 7.890070227246979e-14 7.890070226589945e-14 6.5703344629826624e-24
1.466228494730424 2.1340738123734045e-21 8.305781939359116e-14 8.30578193826568e-14 1.0934357697746233e-23
1.5108834753276823 2.1749882934748964e-21 8.722828384702961e-14 8.722828382912748e-14 1.790209968654077e-23
1.5568984535646726 2.211037420661063e-21 9.137466824394926e-14 9.137466821508441e-14 2.886483961061506e-23
1.6043148490894465 2.242286708619247e-21 9.548830380804504e-14 9.548830376212743e-14 4.591757721740423e-23
1.6531753430134553 2.2688308208440706e-21 9.956127862455675e-14 9.956127855257141e-14 7.198535160692026e-23
1.7035239163302658 2.290984753607644e-21 1.035952558172535e-13 1.0359525570601062e-13 1.112428260059051e-22
1.755405889504358 2.3105700979607346e-21 1.0766291464051572e-13 1.0766291447097168e-13 1.6954404077042627e-22
1.8088679632656115 2.3271367193571987e-21 1.1173730669834823e-13 1.1173730644341127e-13 2.5493693964198934e-22
1.8639582606462262 2.3403796336180042e-21 1.1579556503018559e-13 1.157955646518315e-13 3.7835405312513695e-22
1.9207263702978936 2.350519524792187e-21 1.1983917072355696e-13 1.1983917016912623e-13 5.544307321350592e-22
1.979223391128241 2.3580704523229874e-21 1.2388565587620588e-13 1.2388565507369442e-13 8.025114222593313e-22
2.039501978296691 2.3636477018520618e-21 1.2796061245050012e-13 1.2796061130268953e-13 1.1478105794599671e-21
2.1016163906111602 2.3689751361322986e-21 1.3215493410384038e-13 1.3215493248095034e-13 1.6228900351745882e-21
2.1656225393682647 2.3750522591773176e-21 1.3652914355069172e-13 1.3652914128154006e-13 2.2691515855419453e-21
2.231578038680979 2.3819504630111483e-21 1.4109584900767665e-13 1.4109584586908166e-13 3.138594981321922e-21
2.299542257339062 2.390268161579715e-21 1.4590072652814217e-13 1.4590072223233683e-13 4.295805373593173e-21
2.369576372248914 2.4013288110305764e-21 1.5103992987270047e-13 1.5103992405246995e-13 5.820230561762116e-21
2.4417434235010123 2.416695228646987e-21 1.5663591355129599e-13 1.5663590574289945e-13 7.808396541383636e-21
2.5161083711144245 2.4390439987013474e-21 1.628989970638933e-13 1.6289898668718043e-13 1.0376712888137907e-20
2.5927381535095444 2.472755320669816e-21 1.7018028109503187e-13 1.7018026743091238e-13 1.366411945120186e-20
2.6717017477616296 2.5230588267055337e-21 1.7893066833600114e-13 1.7893065050192604e-13 1.7834075103549566e-20
2.753070231689431 2.5978283296219316e-21 1.8984412949417138e-13 1.8984410641682686e-13 2.3077344523334953e-20
2.836916847834745 2.7149026550025854e-21 2.0444208514666503e-13 2.0444205553099366e-13 2.961567138630792e-20
2.9233170693905177 2.9135703551962783e-21 2.260845397321546e-13 2.2608450203343692e-13 3.769871767248154e-20
2.967498994190263 3.0822902418303607e-21 2.4279153722420675e-13 2.4279149487999003e-13 4.234421671729322e-20
3.0123486681368425 3.2793366735109943e-21 2.622168991406524e-13 2.6221685163960886e-13 4.750104347677281e-20
3.0578761833420214 3.720241811660993e-21 3.019677054287729e-13 3.0196765219693317e-13 5.3231839788836855e-20
3.1040917844459814 4.288398282698989e-21 3.5334512254769753e-13 3.5334506299893666e-13 5.954876089966182e-20
3.127460860933648 4.889436067075234e-21 4.0590096908585716e-13 4.0590090612226424e-13 6.29635928900091e-20
3.1510058709225794 5.690236688427891e-21 4.759364609504623e-13 4.759363944031688e-13 6.65472934325142e-20
3.162844764501044 6.435661181599154e-21 5.403068600262517e-13 5.403067916144793e-13 6.841177268159255e-20
3.1747281389236908 7.302528669041742e-21 6.153883141993662e-13 6.153882438785563e-13 7.032080990343235e-20
3.1986289994194426 9.720472181029333e-21 8.25316760963158e-13 8.253166866771391e-13 7.428601902532998e-20
3.2227097969389145 1.542016132498988e-20 1.3191055563270012e-12 1.3191054778079468e-12 7.851905444162331e-20
3.2348180950136065 2.0825252969198302e-20 1.7881732032385166e-12 1.7881731224492973e-12 8.0789219767611e-20
3.240889293275058 2.486626148040739e-20 2.1391642168399117e-12 2.139164134850582e-12 8.198932938947099e-20
3.2469718861334385 2.954108512449917e-20 2.546093835766075e-12 2.5460937525330716e-12 8.323300366366537e-20
3.2714166318528037 5.447741620096686e-20 4.730660609244958e-12 4.730660520843572e-12 8.84013862741338e-20
3.2744851364798273 5.603626462328086e-20 4.87059068665584e-12 4.870590597641061e-12 8.901477911621173e-20
3.2775565192852394 5.763988754541752e-20 5.0146744884791975e-12 5.0146743988473135e-12 8.963188424021523e-20
3.283707930232385 5.60977022674902e-20 4.889664123677313e-12 4.88966403293715e-12 9.07401613529294e-20
3.2898708863219004 5.120696015957577e-20 4.471747597320145e-12 4.471747505566859e-12 9.175328545932941e-20
3.29141343181113 5.005360130754055e-20 4.3730777632492294e-12 4.373077671241262e-12 9.200796666288974e-20
3.292184975758714 4.948688164847483e-20 4.324578151494863e-12 4.324578059359346e-12 9.213551786975024e-20
3.295272960557952 4.5909689839857256e-20 4.015736301300735e-12 4.015736208668533e-12 9.26322019471457e-20
3.3076538914384823 3.351720438842773e-20 2.9427765052087306e-12 2.9427764105769485e-12 9.463178319995687e-20
3.310756385682612 3.099501840590033e-20 2.7238836760636157e-12 2.7238835809266816e-12 9.513693319490996e-20
3.313861789986515 2.866790961327482e-20 2.5217373508717916e-12 2.5217372552275942e-12 9.564419651903139e-20
3.3200813396944477 2.5404397219223392e-20 2.238860589122412e-12 2.23886049238781e-12 9.673460175241379e-20
3.345076488085796 1.9582582946650825e-20 1.738783300682778e-12 1.7387831990774497e-12 1.0160532841708815e-19
3.3482140837626964 1.980088817225047e-20 1.7598162473343648e-12 1.7598161450671238e-12 1.0226724115381376e-19
3.3513546224236106 2.0021606997844085e-20 1.781101832342534e-12 1.7811017294097174e-12 1.0293281685933016e-19
3.3576445397418455 2.1634692740444617e-20 1.9282124467618086e-12 1.928212342435859e-12 1.0432594946834218e-19
3.3702598118196083 2.758445423160033e-20 2.4677275548513535e-12 2.467727447594926e-12 1.072564273776998e-19
3.382922481734668 2.8939554850987655e-20 2.598683122077307e-12 2.598683011960235e-12 1.1011707291943348e-19
3.389271646505754 2.964159109527129e-20 2.666719418816163e-12 2.6667193072444136e-12 1.1157174935628827e-19
3.395632727569191 3.039806847112534e-20 2.7399089605226805e-12 2.7399088474504116e-12 1.130722694743295e-19
3.421196662673239 3.4030385638581037e-20 3.0903974969885496e-12 3.0903973776751453e-12 1.1931340374257214e-19
3.4276182099114902 3.329837055212106e-20 3.029596960649481e-12 3.0295968399261483e-12 1.2072333162904475e-19
3.4340518103208963 3.009073118867982e-20 2.7428939541084014e-12 2.74289383204448e-12 1.220639203209017e-19
3.4469541582030403 2.552246196783513e-20 2.335218411261074e-12 2.3352182866077327e-12 1.246533415983076e-19
3.472904465399547 2.424214177463691e-20 2.2347721808303274e-12 2.234772050202286e-12 1.306280410542473e-19
3.4990501388274233 2.228396147480878e-20 2.069721912621375e-12 2.0697217758240266e-12 1.3679734816887058e-19
3.5253949054701885 1.53152857228355e-20 1.4331851813826378e-12 1.4331850385277511e-12 1.428548865121135e-19
3.5519380250092896 8.765539250833909e-21 8.264440386719196e-13 8.264438896641489e-13 1.4900777084542231e-19
3.578680990867387 6.1684673946943775e-21 5.859623242242262e-13 5.859621684286565e-13 1.5579556969469182e-19
3.605625307711299 5.11793909158579e-21 4.898297283905529e-13 4.898295653835573e-13 1.6300699570801964e-19
3.660119384959845 4.35141314417141e-21 4.227610848354795e-13 4.2276090644561986e-13 1.783898597483549e-19
3.715437065384467 3.808498828949539e-21 3.7560656010200183e-13 3.756063651617959e-13 1.9494020593195236e-19
3.8285932144167436 3.5325146194145574e-21 3.589984935759875e-13 3.5899826184234783e-13 2.3173363966254064e-19
3.94519561050918 3.479057260419123e-21 3.6433387338522317e-13 3.643335995930528e-13 2.737921703658883e-19
4.06534921144712 3.517049222701782e-21 3.7952967343527323e-13 3.7952935175494897e-13 3.216803242384634e-19
4.189162171576248 3.608075971413402e-21 4.0121049014421964e-13 4.012101139696107e-13 3.7617460885201586e-19
4.316745939156006 3.737845622441852e-21 4.2829921923724564e-13 4.2829878130023563e-13 4.379370100332294e-19
4.448215356677963 3.90158742441062e-21 4.606770540233174e-13 4.606765468086338e-13 5.072146835925181e-19
4.58368876423945 4.099926008503104e-21 4.988391989670829e-13 4.988386138201925e-13 5.851468904495658e-19
4.723288106065518 4.33747873230102e-21 5.438150574699776e-13 5.438143840887109e-13 6.733812666630296e-19
4.867139040275056 4.623446311786982e-21 5.973226799281088e-13 5.973219081429349e-13 7.717851738396578e-19
4.940699165968905 4.796081503175733e-21 6.289909528361812e-13 6.289901273118249e-13 8.255243564462234e-19
5.015371051989984 4.9749551550316586e-21 6.623105488968327e-13 6.623096664339792e-13 8.824628535815485e-19
5.091171501069577 5.193265601585584e-21 7.018231579328563e-13 7.018222142368389e-13 9.436960173345109e-19
5.129500256944802 5.3053516792988875e-21 7.223682785725111e-13 7.223673029026719e-13 9.756698389903779e-19
5.168117569889187 5.422227746077196e-21 7.438400755421517e-13 7.438390667865316e-13 1.0087556200695998e-18
5.20702561229733 5.565646190755989e-21 7.692628182200247e-13 7.692617738915485e-13 1.0443284761543704e-18
5.246226572918644 5.712752083680478e-21 7.955396928509223e-13 7.955386118409512e-13 1.0810099712106545e-18
5.265937586045735 5.787724825253768e-21 8.090083703361605e-13 8.090072705590258e-13 1.0997771347429353e-18
5.285722656980489 5.8636644728183006e-21 8.227026880875724e-13 8.227015692531449e-13 1.118834427418755e-18
5.305582063971359 5.940586722318982e-21 8.366268717210715e-13 8.36625733534732e-13 1.1381863396048931e-18
5.3255160863122235 6.023225130296199e-21 8.514521177794069e-13 8.514509598514824e-13 1.157927924380142e-18
5.365609099470188 6.22899781447539e-21 8.871695788642889e-13 8.871683798203741e-13 1.1990439147343245e-18
5.406003951863644 6.44263121707145e-21 9.245045746344663e-13 9.245033331538475e-13 1.2414806188365652e-18
5.446702915881641 6.664505453244853e-21 9.635428843392338e-13 9.635415990580675e-13 1.2852811664958192e-18
5.487708281020852 6.904260084309671e-21 1.005721172019058e-12 1.0057198413989382e-12 1.3306201197490882e-18
5.529022354014368 7.237380190470735e-21 1.0621825594524159e-12 1.0621811808716544e-12 1.3785807618113317e-18
5.570647458961463 7.59016246246458e-21 1.1223444921674359e-12 1.12234306401664e-12 1.4281507958405874e-18
5.612585937458331 7.964021910221979e-21 1.1864921876921856e-12 1.1864907083055696e-12 1.4793866160274244e-18
5.654840148729818 8.374984681057765e-21 1.25711146481045e-12 1.2571099322710673e-12 1.5325393824778983e-18
5.67608639626678 8.654792527944466e-21 1.3039924947627567e-12 1.3039909341305585e-12 1.5606321978992084e-18
5.686739436050992 8.799021918003642e-21 1.3282112734701933e-12 1.328209698606414e-12 1.5748637792355657e-18
5.6974124697621304 8.946226945914687e-21 1.3529663830502618e-12 1.352964793829906e-12 1.5892203553074172e-18
5.718818669136295 9.249850506141393e-21 1.4041401997933234e-12 1.4041385814801215e-12 1.6183132021129776e-18
5.740305295436557 9.584524182366322e-21 1.4604106160907646e-12 1.4604089679563384e-12 1.6481344265730336e-18
5.7835210386641895 1.0452617585418043e-20 1.6046739950091936e-12 1.604672283908195e-12 1.7111009988934835e-18
5.827062130521658 1.1452644514206687e-20 1.7714335363626762e-12 1.7714317594034838e-12 1.776959192499585e-18
5.8489554468988025 1.2154073441582254e-20 1.8869900169412416e-12 1.886988203906324e-12 1.8130349175533347e-18
5.870931020387893 1.2906794873911308e-20 2.011383201493254e-12 2.011381351616091e-12 1.849877163346006e-18
5.892989160043636 1.3714937207796988e-20 2.1453536763090424e-12 2.145351788804274e-12 1.88750476913136e-18
5.915130176081913 1.4634012073241304e-20 2.297720234301261e-12 2.297718307440718e-12 1.9268605423187712e-18
5.95966208400165 1.720352756149568e-20 2.721501489412991e-12 2.7214994728744303e-12 2.0165385603292668e-18
6.004529249263818 2.0906910576356e-20 3.3322552388716043e-12 3.3322531185371376e-12 2.1203344665071557e-18
6.027089341400364 2.3481129428603833e-20 3.756609432427366e-12 3.756607251033605e-12 2.1813937615020382e-18
6.049734195844842 2.652317100029712e-20 4.259230777271138e-12 4.259228530050797e-12 2.2472203415631238e-18
6.095279466722835 3.531014946316144e-20 5.712978788779167e-12 5.712976376951843e-12 2.4118273249924317e-18
6.141167624020661 4.883289858401914e-20 7.960363290534482e-12 7.96036065908342e-12 2.631451062882084e-18
6.164241091010745 5.746851244135049e-20 9.403272133188268e-12 9.403269363021789e-12 2.770166478959026e-18
6.187401249150058 6.730587085135036e-20 1.1054285107934047e-11 1.1054282190038312e-11 2.9178957367805723e-18
6.1990139391386085 7.210932835403298e-20 1.1865430405666945e-11 1.1865427412043298e-11 2.993623649373326e-18
6.204828454712694 7.463962000279938e-20 1.2293304294699632e-11 1.2293301262246258e-11 3.0324533737883506e-18
6.210648424152782 7.648680141185428e-20 1.2609355172190682e-11 1.260935210652693e-11 3.0656637528202237e-18
6.233982942956859 8.276276140301745e-20 1.369525160206613e-11 1.369524841749116e-11 3.1845749760131117e-18
6.239830258556775 8.356520864368669e-20 1.3841007713609424e-11 1.3841004510976957e-11 3.2026324634774004e-18
6.245683058788269 8.363510754632548e-20 1.3865578522791933e-11 1.38655753019935e-11 3.2207984282603685e-18
6.257405133728602 8.346342263596855e-20 1.3863085358908004e-11 1.386308210537933e-11 3.2535286747659448e-18
6.269149208991335 8.223003598711333e-20 1.3683856770826408e-11 1.3683853501357605e-11 3.269468799898151e-18
6.280915325867298 7.913597727355115e-20 1.31936920052326e-11 1.3193688740723283e-11 3.2645093160156653e-18
6.304513850009849 7.150552634024538e-20 1.1966320868152476e-11 1.1966317632807874e-11 3.2353446009112433e-18
6.32820103803542 6.204710195752477e-20 1.0422483165919755e-11 1.0422479982083717e-11 3.1838360379137607e-18
6.3519772230701035 5.3373114200010904e-20 8.99913794054674e-12 8.99913480313829e-12 3.137408450271124e-18
6.375842739491607 4.6076027667359217e-20 7.797978977801526e-12 7.797975879525848e-12 3.0982756765034756e-18
6.399797922933955 4.0227923932248737e-20 6.833816521421918e-12 6.833813440501693e-12 3.0809202271750312e-18
6.42384311029221 3.5366019193917927e-20 6.030461330539195e-12 6.030458261418832e-12 3.069120361900231e-18
6.447978639727206 3.1823430625406535e-20 5.446782315707777e-12 5.4467792396881095e-12 3.076019666759455e-18
6.472204850670314 2.88725736598047e-20 4.960291344096653e-12 4.9602882568364004e-12 3.0872602524433382e-18
6.496522083828205 2.6955299091710666e-20 4.648303828177683e-12 4.648300713762344e-12 3.114415337493713e-18
