Dust emission spectrum from A.P. Jones, M. Kohler, N. Ysard, M. Bocchio, and L. Verstraete (2017), A&A, 602A, 46J 
inside the DustPedia framework.

lambda    nu*dP/dnu     j_nu    j_nu(carb.) j_nu(sil)
 (um)   (erg s-1 H-1) (Jy cm2 sr-1 H-1)
0.9927057738263894 4.9122145755214093e-23 1.294396441471676e-15 1.2943964403482785e-15 1.1233974392394334e-24
1.0001793341362166 4.993321225428123e-23 1.3256742343044112e-15 1.325674232951524e-15 1.3528873066582786e-24
1.0077091589558085 5.074323970891629e-23 1.3573218183557177e-15 1.3573218167285784e-15 1.6271390763508049e-24
1.0114953028030835 5.114776606118855e-23 1.373282777389591e-15 1.373282775606006e-15 1.783584735974888e-24
1.0152956718711033 5.1551915699170435e-23 1.3893343597725395e-15 1.389334357818106e-15 1.9544337698504663e-24
1.0229392996569957 5.2358533384971335e-23 1.4216960928822377e-15 1.4216960905377126e-15 2.3445252764092035e-24
1.0267826658714554 5.276002418986452e-23 1.4379803364193275e-15 1.437980333852633e-15 2.5666943999998942e-24
1.0306404723013447 5.316096418081938e-23 1.4543518074733968e-15 1.4543518046643996e-15 2.80899716082235e-24
1.03451277320114 5.356131553485004e-23 1.4708098363813199e-15 1.470809833308152e-15 3.07316790983214e-24
1.0383996230291617 5.396104064940028e-23 1.4873537452749887e-15 1.4873537419139064e-15 3.361082027180943e-24
1.0403485208654093 5.416065667818199e-23 1.4956576906828522e-15 1.495657687168282e-15 3.514570094201377e-24
1.0423010764483396 5.436010214979478e-23 1.5039828482589691e-15 1.5039828445842022e-15 3.6747666561392526e-24
1.0462171883269815 5.47584628965343e-23 1.5206964515886498e-15 1.5206964475722377e-15 4.016412193333313e-24
1.0471985131304309 5.485793926114685e-23 1.5248879735689761e-15 1.5248879694625108e-15 4.106465687340643e-24
1.048180758391296 5.495736894725542e-23 1.5290847219856131e-15 1.5290847177871605e-15 4.198452449483709e-24
1.0501480137395462 5.515608599243236e-23 1.5374938538488004e-15 1.5374938494604165e-15 4.388384583877676e-24
1.0521189612883777 5.535460945892338e-23 1.5459237583321323e-15 1.5459237537455984e-15 4.5865339265930415e-24
1.0531058218030118 5.545364522355577e-23 1.5501422247788259e-15 1.5501422200900244e-15 4.688801859312149e-24
1.0540936079674168 5.555213304568077e-23 1.5543519132911448e-15 1.5543519084978701e-15 4.7932745444762596e-24
1.058054026499678 5.594555144151744e-23 1.571241120033978e-15 1.5712411148000788e-15 5.233898910055883e-24
1.0590464539527713 5.604377001300994e-23 1.5754759778428548e-15 1.5754759724928835e-15 5.349970974974646e-24
1.06003981227728 5.614193305554725e-23 1.5797158351878967e-15 1.5797158297193916e-15 5.468505588802941e-24
1.0620293250338977 5.633809032648724e-23 1.5882105024503056e-15 1.5882104967371436e-15 5.713162174816464e-24
1.0660195594769086 5.672971408241457e-23 1.605259323564451e-15 1.6052593173301743e-15 6.2342767583262535e-24
1.070024785945596 5.712038737370478e-23 1.6223868398336431e-15 1.6223868330329366e-15 6.800706467986207e-24
1.0740450607676866 5.7510075153428e-23 1.6395923013289938e-15 1.6395922939128091e-15 7.416184848619225e-24
1.07808044048254 5.789874266924404e-23 1.6568749519164448e-15 1.6568749438317103e-15 8.084734766415951e-24
1.0861967418109137 5.867219467467032e-23 1.6916490235392114e-15 1.691649013940496e-15 9.598715257770864e-24
1.0902777775684922 5.905535411576055e-23 1.70909369217472e-15 1.7090936817208834e-15 1.0453836392501304e-23
1.0943741465085532 5.943733015418871e-23 1.7266111893286248e-15 1.7266111779471714e-15 1.1381453619093813e-23
1.1026131145906286 6.019760035349151e-23 1.761861502641748e-15 1.7618614891638859e-15 1.347786160934316e-23
1.1109141095355224 6.095274528533611e-23 1.7973935819018178e-15 1.79739356596195e-15 1.5939867704465766e-23
1.1192775983109025 6.170181210811334e-23 1.83318022468632e-15 1.8331802058588967e-15 1.8827423112047795e-23
1.1277040513999907 6.244134416572766e-23 1.8691184190490627e-15 1.869118396839415e-15 2.2209646976627316e-23
1.1361939428280308 6.317490472192824e-23 1.9053137355530778e-15 1.9053137093869647e-15 2.6166113234165005e-23
1.1447477501889525 6.390225827263892e-23 1.9417594967977003e-15 1.941759466009384e-15 3.0788315896839014e-23
1.1533659546722406 6.462356723535518e-23 1.978460974744329e-15 1.978460938562965e-15 3.6181364060927836e-23
1.1707974979042381 6.605038239658826e-23 2.0527050699728477e-15 2.0527050201927975e-15 4.978004945415675e-23
1.1884924949847024 6.745007105770356e-23 2.1278856618051346e-15 2.1278855936553207e-15 6.814981452987989e-23
1.2064549276569216 6.883354551303357e-23 2.204350624434777e-15 2.2043505315930252e-15 9.28417524063621e-23
1.2246888378427687 7.018591714428195e-23 2.281629755527545e-15 2.2816296296621794e-15 1.2586536537875726e-22
1.2431983285522175 7.150410781453871e-23 2.359613339919691e-15 2.3596131701046534e-15 1.6981503719188985e-22
1.2619875648066055 7.278773155061232e-23 2.4382750419863817e-15 2.4382748139632317e-15 2.2802314954688775e-22
1.3004222497298317 7.523052260676535e-23 2.5968562114810643e-15 2.596855806092165e-15 4.0538889944076933e-22
1.3400274889804893 7.7505575910517e-23 2.7568687349576954e-15 2.7568680273591624e-15 7.075985331263071e-22
1.3808389325824078 7.960539541427987e-23 2.9177962405408936e-15 2.917795027360659e-15 1.2131802350642484e-21
1.4228933163050095 8.154079167036457e-23 3.0797587379640115e-15 3.0797566938725276e-15 2.044091484614001e-21
1.466228494730424 8.335786721110844e-23 3.2442751697305275e-15 3.2442717834100783e-15 3.3863204485710187e-21
1.5108834753276823 8.502364102440677e-23 3.4098879130682097e-15 3.40988239484517e-15 5.5182230396941475e-21
1.5568984535646726 8.651164463320729e-23 3.575232492100608e-15 3.57522363754203e-15 8.854558577339789e-21
1.6043148490894465 8.782556092192027e-23 3.740072048408299e-15 3.740058032201253e-15 1.4016207045820786e-20
1.6531753430134553 8.897030480398289e-23 3.904212347840748e-15 3.90419048592961e-15 2.186191113803403e-20
1.7035239163302658 8.995933313652151e-23 4.06784030961016e-15 4.067806701540838e-15 3.3608069322331416e-20
1.755405889504358 9.086479194202747e-23 4.233919735790232e-15 4.2338687893017174e-15 5.09464885143788e-20
1.8088679632656115 9.167055124549667e-23 4.4015551018223095e-15 4.401478919485098e-15 7.618233721120248e-20
1.8639582606462262 9.236598210899667e-23 4.5700154514440676e-15 4.569903033317849e-15 1.1241812621879153e-19
1.9207263702978936 9.296095417166205e-23 4.7395324906256624e-15 4.739368724357733e-15 1.6376626792936738e-19
1.979223391128241 9.347675617459018e-23 4.910976784625389e-15 4.910741178561721e-15 2.356060636688528e-19
2.039501978296691 9.393847746197998e-23 5.0855400740489905e-15 5.085205202913739e-15 3.348711352519808e-19
2.1016163906111602 9.441456108980697e-23 5.266982294984137e-15 5.266511883440283e-15 4.704115438540675e-19
2.1656225393682647 9.494511986144487e-23 5.4578908101546135e-15 5.457237473150768e-15 6.533370038439751e-19
2.231578038680979 9.553369512348829e-23 5.658979072658418e-15 5.658081661798215e-15 8.974108602012244e-19
2.299542257339062 9.620452905281838e-23 5.872274462639138e-15 5.871054985464356e-15 1.2194771747835266e-18
2.369576372248914 9.700979275258219e-23 6.1017684154744636e-15 6.100128484586726e-15 1.6399308877375935e-18
2.4417434235010123 9.80108780441493e-23 6.352486336891136e-15 6.350303212301837e-15 2.1831245893001295e-18
2.5161083711144245 9.931237073738356e-23 6.63287976673284e-15 6.630001879906918e-15 2.877886825921816e-18
2.5927381535095444 1.0108460982436953e-22 6.956857870447534e-15 6.9530999419295815e-15 3.757928517952582e-18
2.6717017477616296 1.0352932987085177e-22 7.342108709513586e-15 7.337246703999194e-15 4.862005514393291e-18
2.753070231689431 1.0694932073134395e-22 7.815643729310544e-15 7.809409516100904e-15 6.2342132096388636e-18
2.836916847834745 1.1203097673328613e-22 8.436341701669125e-15 8.428417266877267e-15 7.924434791856775e-18
2.9233170693905177 1.2028412786811988e-22 9.333696589013895e-15 9.3237099308053e-15 9.986658208598065e-18
2.967498994190263 1.270887874927281e-22 1.001076461280839e-14 9.999607977131375e-15 1.115663567701648e-17
3.0123486681368425 1.349895981283437e-22 1.0793815140535744e-14 1.0781368064136267e-14 1.2447076399480366e-17
3.0578761833420214 1.522755619000078e-22 1.2360030435573356e-14 1.2346158249462836e-14 1.3872186110519277e-17
3.1040917844459814 1.7444599603860341e-22 1.4373581413110106e-14 1.435815045682108e-14 1.5430956289028692e-17
3.127460860933648 1.977157108788822e-22 1.6413549036799902e-14 1.6397280323668663e-14 1.626871313123651e-17
3.1510058709225794 2.2865249127276325e-22 1.9124697871562793e-14 1.9107553598787687e-14 1.7144272775104087e-17
3.162844764501044 2.5738924565026825e-22 2.160915113422203e-14 2.1591552863895042e-14 1.759827032698315e-17
3.1747281389236908 2.9077658650063855e-22 2.4503911108746826e-14 2.44858489825773e-14 1.806212616952733e-17
3.1986289994194426 3.8379777503113967e-22 3.2586352869951304e-14 3.256733049921008e-14 1.9022370741221747e-17
3.2227097969389145 6.02844785067609e-22 5.156988236541431e-14 5.1549840048817246e-14 2.0042316597095104e-17
3.2348180950136065 8.104722584309672e-22 6.959170083734396e-14 6.957111358783288e-14 2.0587249511080366e-17
3.240889293275058 9.65686794366558e-22 8.30749180696679e-14 8.305404336606839e-14 2.0874703599527843e-17
3.2469718861334385 1.1452538919857235e-21 9.870740571928779e-14 9.868623356836793e-14 2.1172150919863247e-17
3.2714166318528037 2.1026629054058254e-21 1.8258914013890688e-13 1.825667367804968e-13 2.2403358410092255e-17
3.2744851364798273 2.1625262118312836e-21 1.8796363565280597e-13 1.8794108664048445e-13 2.2549012321533144e-17
3.2775565192852394 2.224105662462598e-21 1.934973574756742e-13 1.9347466202848514e-13 2.269544718905498e-17
3.283707930232385 2.164952394514729e-21 1.8870452130911438e-13 1.886815628636957e-13 2.2958445418735926e-17
3.2898708863219004 1.977248846322802e-21 1.7266710912529332e-13 1.726439102972347e-13 2.31988280586206e-17
3.29141343181113 1.932981167426853e-21 1.6888049489418962e-13 1.6885723567683084e-13 2.325921735877746e-17
3.292184975758714 1.9112292243859522e-21 1.6701921541529773e-13 1.6699592595915978e-13 2.3289456137876566e-17
3.295272960557952 1.7739620847508437e-21 1.551690714033202e-13 1.5514566412832313e-13 2.3407274997070952e-17
3.3076538914384823 1.2983289250865176e-21 1.1399196103887047e-13 1.1396808000345643e-13 2.3881035414010752e-17
3.310756385682612 1.2014987673219285e-21 1.0558931878213517e-13 1.0556531821856668e-13 2.400056356846762e-17
3.313861789986515 1.1121474592166023e-21 9.78286811077781e-14 9.780456057935905e-14 2.4120528419066605e-17
3.3200813396944477 9.868656718380032e-22 8.697134753364798e-14 8.694696944818469e-14 2.4378085463234063e-17
3.345076488085796 7.63575598835719e-22 6.779966175460391e-14 6.777413706710647e-14 2.5524687497435743e-17
3.3482140837626964 7.71990084200445e-22 6.861109871126352e-14 6.858541874067186e-14 2.567997059166017e-17
3.3513546224236106 7.804970725039142e-22 6.943222719956469e-14 6.940639118636295e-14 2.583601320174212e-17
3.3576445397418455 8.425060011108462e-22 7.50891439644299e-14 7.506298188262554e-14 2.616208180434251e-17
3.3702598118196083 1.0710526241890762e-21 9.58172328230942e-14 9.579038666481063e-14 2.6846158283555825e-17
3.382922481734668 1.1232377910073622e-21 1.0086330299827025e-13 1.0083578986023417e-13 2.7513138036098902e-17
3.389271646505754 1.1502692556724126e-21 1.0348450429363714e-13 1.0345665267318649e-13 2.785162045064402e-17
3.395632727569191 1.1794128721214408e-21 1.0630556673529646e-13 1.0627736626897211e-13 2.8200466324370044e-17
3.421196662673239 1.319372843694933e-21 1.198160543066799e-13 1.1978640742233236e-13 2.9646884347574276e-17
3.4276182099114902 1.2913329668067298e-21 1.1748978603323708e-13 1.1745981409643627e-13 2.9971936800806836e-17
3.4340518103208963 1.1681924470560522e-21 1.0648554799727102e-13 1.0645526752047052e-13 3.028047680052257e-17
3.4469541582030403 9.927980465377972e-22 9.083764253859494e-14 9.080676761616557e-14 3.087492242938718e-17
3.472904465399547 9.437969237553988e-22 8.700432202605568e-14 8.697208087314548e-14 3.2241152910190165e-17
3.4990501388274233 8.687859670574777e-22 8.069235604403429e-14 8.065871155942309e-14 3.3644484611233325e-17
3.5253949054701885 6.014241795595404e-22 5.6280518526974006e-14 5.62455024199308e-14 3.5016107043212575e-17
3.5519380250092896 3.5002990560531226e-22 3.300197746726015e-14 3.2965575972138094e-14 3.6401495122059763e-17
3.578680990867387 2.5048328836988675e-22 2.3794203720488008e-14 2.3756282566307774e-14 3.7921154180246226e-17
3.605625307711299 2.1036477233890562e-22 2.0133674405605096e-14 2.0094148480385545e-14 3.952592521955249e-17
3.660119384959845 1.8140597991565915e-22 1.762447883568885e-14 1.7581562492538877e-14 4.2916343149969754e-17
3.715437065384467 1.6102254946179495e-22 1.5880568333765553e-14 1.5834050001680104e-14 4.651833208545482e-17
3.8285932144167436 1.5141217286524802e-22 1.53875490476242e-14 1.5333190856042997e-14 5.4358191581205565e-17
3.94519561050918 1.5038468840963953e-22 1.574858702369079e-14 1.5685529155097303e-14 6.305786859349082e-17
4.06534921144712 1.5290472775189476e-22 1.6500161844708602e-14 1.6427514781799217e-14 7.264706290938328e-17
4.189162171576248 1.5749695808338209e-22 1.7513331828238626e-14 1.7430147237372386e-14 8.318459086624156e-17
4.316745939156006 1.6361066794047055e-22 1.8747248660315133e-14 1.8652568684842e-14 9.467997547313553e-17
4.448215356677963 1.7106029971756655e-22 2.0197818570255018e-14 2.0090786835007157e-14 1.0703173524786348e-16
4.58368876423945 1.7986866226761275e-22 2.188467284989267e-14 2.176436966042652e-14 1.203031894661447e-16
4.723288106065518 1.9021262892580443e-22 2.384806891627731e-14 2.3713443579540182e-14 1.3462533673712748e-16
4.867139040275056 2.0244168040058947e-22 2.6154301123330782e-14 2.600458214768188e-14 1.4971897564890096e-16
4.940699165968905 2.0970690906768975e-22 2.750239929481521e-14 2.734478611960305e-14 1.5761317521215816e-16
5.015371051989984 2.172142343480168e-22 2.8917502629895525e-14 2.875177630216842e-14 1.657263277271027e-16
5.091171501069577 2.262489690378019e-22 3.0575514158313624e-14 3.0401294299531094e-14 1.742198587825337e-16
5.129500256944802 2.3087875026712957e-22 3.1436084819824675e-14 3.1257536940104946e-14 1.785478797197262e-16
5.168117569889187 2.356935164545371e-22 3.233325697379187e-14 3.215029247683319e-14 1.8296449695868776e-16
5.20702561229733 2.415376451853927e-22 3.338443071536772e-14 3.319668659997493e-14 1.8774411539279595e-16
5.246226572918644 2.475225230143545e-22 3.446919961659911e-14 3.427660611691534e-14 1.9259349968378424e-16
5.265937586045735 2.5056912137397853e-22 3.502456019588627e-14 3.482951598239828e-14 1.9504421348798697e-16
5.285722656980489 2.536525855263209e-22 3.558877983558414e-14 3.539126763935726e-14 1.9751219622687718e-16
5.305582063971359 2.5677350076408174e-22 3.616201912818182e-14 3.59620217417931e-14 1.9999738638871584e-16
5.3255160863122235 2.6011551574721495e-22 3.677031855180839e-14 3.6567802872027374e-14 2.0251567978101943e-16
5.365609099470188 2.6836734343802464e-22 3.8222415571499466e-14 3.8014687490384277e-14 2.0772808111518488e-16
5.406003951863644 2.7691852862213853e-22 3.973724987297736e-14 3.9524233232230124e-14 2.1301664074722882e-16
5.446702915881641 2.857834043605944e-22 4.131807943826076e-14 4.1099698457038146e-14 2.183809812226098e-16
5.487708281020852 2.9533558686866726e-22 4.302057699701947e-14 4.27967374337704e-14 2.238395632490698e-16
5.529022354014368 3.0850028084280943e-22 4.52765516351976e-14 4.5047011892681e-14 2.2953974251659233e-16
5.570647458961463 3.2241373015535e-22 4.7674773238189254e-14 4.7439449193477435e-14 2.353240447118179e-16
5.612585937458331 3.371295714070685e-22 5.022608014188054e-14 4.9984887936594285e-14 2.4119220528625117e-16
5.654840148729818 3.5326778487626873e-22 5.302660236747554e-14 5.2779434531680245e-14 2.4716783579529256e-16
5.67608639626678 3.642100676362386e-22 5.487447482781975e-14 5.462418357763639e-14 2.5029125018334847e-16
5.686739436050992 3.6984602742682035e-22 5.5828212232470746e-14 5.557635039792837e-14 2.5186183454236293e-16
5.6974124697621304 3.7559536061362054e-22 5.6802482165056715e-14 5.654904382991136e-14 2.5343833514535643e-16
5.718818669136295 3.874450336235162e-22 5.881469614669456e-14 5.855808706777615e-14 2.566090789184036e-16
5.740305295436557 4.004900647603454e-22 6.102336757529942e-14 6.076354375854302e-14 2.5982381675641774e-16
5.7835210386641895 4.342485029657937e-22 6.666533759476599e-14 6.639885343773782e-14 2.6648415702819544e-16
5.827062130521658 4.730596314989713e-22 7.317032279288327e-14 7.289702466973273e-14 2.732981231505212e-16
5.8489554468988025 5.002432612621658e-22 7.766565214377624e-14 7.738869092715012e-14 2.7696121662610334e-16
5.870931020387893 5.293844925024969e-22 8.249879894681205e-14 8.221814245049107e-14 2.8065649632096883e-16
5.892989160043636 5.606404702894506e-22 8.769796578720925e-14 8.741358174796394e-14 2.843840392453164e-16
5.915130176081913 5.961598634911882e-22 9.36044452038353e-14 9.331620099465037e-14 2.882442091849415e-16
5.95966208400165 6.953804687930329e-22 1.1000528669274906e-13 1.0970834952068592e-13 2.969371720631361e-16
6.004529249263818 8.382160179077986e-22 1.3359935255753086e-13 1.3329268428114786e-13 3.066682763830236e-16
6.027089341400364 9.374487589386195e-22 1.4997697878860242e-13 1.496647398620455e-13 3.12238926556991e-16
6.049734195844842 1.0546359871969669e-21 1.693590127453739e-13 1.6904088187628112e-13 3.1813086909277914e-16
6.095279466722835 1.3930061096083664e-21 2.253803645078045e-13 2.2504793371683535e-13 3.324307909692049e-16
6.141167624020661 1.913410574394842e-21 3.1190946549951025e-13 3.115587000308896e-13 3.5076546862056617e-16
6.164241091010745 2.2457419978429283e-21 3.6745901798307803e-13 3.670968552182379e-13 3.621627648401897e-16
6.187401249150058 2.6240807873875624e-21 4.3097781520573257e-13 4.306039171350286e-13 3.7389807070395075e-16
6.1990139391386085 2.8088166538117057e-21 4.621845645885443e-13 4.618046883719791e-13 3.798762165652771e-16
6.204828454712694 2.906107660465477e-21 4.786421177106723e-13 4.78259218617848e-13 3.828990928243218e-16
6.210648424152782 2.977143944040864e-21 4.908018729533346e-13 4.904163718565747e-13 3.855010967597641e-16
6.233982942956859 3.2184510141043002e-21 5.325764348587367e-13 5.321817481737999e-13 3.946866849368347e-16
6.239830258556775 3.2492865375432124e-21 5.381833033125631e-13 5.377872570770054e-13 3.9604623555766035e-16
6.245683058788269 3.251956012856678e-21 5.391306685885966e-13 5.38733259353403e-13 3.9740923519363066e-16
6.257405133728602 3.245316995291986e-21 5.390397985315687e-13 5.386399534245754e-13 3.998451069934921e-16
6.269149208991335 3.19785666791685e-21 5.321536357379687e-13 5.317526545013908e-13 4.009812365778786e-16
6.280915325867298 3.0788554315989026e-21 5.133122972972993e-13 5.129117911790087e-13 4.0050611829067576e-16
6.304513850009849 2.7854009457686607e-21 4.661318246218339e-13 4.657337309081493e-13 3.9809371368436435e-16
6.32820103803542 2.4217539033468904e-21 4.0679884302916034e-13 4.064047175047002e-13 3.941255244600571e-16
6.3519772230701035 2.0883080619979403e-21 3.5210559837018963e-13 3.517149481056905e-13 3.9065026449917356e-16
6.375842739491607 1.8077319157862264e-21 3.059433764249626e-13 3.0555569966181485e-13 3.876767631477548e-16
6.399797922933955 1.583012927573068e-21 2.689181752529128e-13 2.685316079155784e-13 3.8656733733435846e-16
6.42384311029221 1.3961443395978986e-21 2.3806452192516583e-13 2.3767869316096693e-13 3.8582876419885384e-16
6.447978639727206 1.2600670541467772e-21 2.1566848112388198e-13 2.1528192656941488e-13 3.865545544671423e-16
6.472204850670314 1.1467061392725299e-21 1.970034470731867e-13 1.9661587043629203e-13 3.875766368946657e-16
6.496522083828205 1.073124342178268e-21 1.850548187533145e-13 1.8466502361055656e-13 3.897951427579546e-16
