Dust emission spectrum from A.P. Jones, M. Kohler, N. Ysard, M. Bocchio, and L. Verstraete (2017), A&A, 602A, 46J 
inside the DustPedia framework.

lambda    nu*dP/dnu     j_nu    j_nu(carb.) j_nu(sil)
 (um)   (erg s-1 H-1) (Jy cm2 sr-1 H-1)
0.9927057738263894 4.081258017797521e-24 1.075434668772407e-16 1.0754341669472949e-16 5.018251119600479e-23
1.0001793341362166 4.149992655054185e-24 1.1017793742853369e-16 1.101778770280532e-16 6.040048048864137e-23
1.0077091589558085 4.218972724923232e-24 1.1285254476134193e-16 1.128524721587051e-16 7.260263679953947e-23
1.0114953028030835 4.253551290030493e-24 1.142049629763716e-16 1.1420488341687222e-16 7.955949936307215e-23
1.0152956718711033 4.288187064328069e-24 1.1556749247436782e-16 1.155674053203688e-16 8.715399900244684e-23
1.0229392996569957 4.3575913152351944e-24 1.1832207945354083e-16 1.183219749694335e-16 1.0448410730825834e-22
1.0267826658714554 4.3922808690246466e-24 1.197121043568736e-16 1.197119900083122e-16 1.143485613861591e-22
1.0306404723013447 4.427020790980878e-24 1.2111228207197107e-16 1.2111215696923645e-16 1.2510273461517648e-22
1.03451277320114 4.461809897595911e-24 1.2252264194626952e-16 1.2252250512344686e-16 1.3682282265463561e-22
1.0383996230291617 4.496647042915614e-24 1.2394321421476466e-16 1.2394306462359146e-16 1.49591173208002e-22
1.0403485208654093 4.514083282539043e-24 1.246573397000961e-16 1.2465718330411975e-16 1.5639597636861557e-22
1.0423010764483396 4.531531119724676e-24 1.2537403004941557e-16 1.2537386655266534e-16 1.6349675023249562e-22
1.0462171883269815 4.566461060743711e-24 1.2681512160981797e-16 1.2681494297418745e-16 1.7863563050842018e-22
1.0471985131304309 4.5752005911097294e-24 1.2717700394900042e-16 1.2717682132396738e-16 1.8262503306366964e-22
1.048180758391296 4.583942908024549e-24 1.2753953111986964e-16 1.2753934442021146e-16 1.8669965820255732e-22
1.0501480137395462 4.601435839838817e-24 1.282665220951764e-16 1.2826632698364183e-16 1.9511153461844408e-22
1.0521189612883777 4.618939734549313e-24 1.2899609885682272e-16 1.2899589497131046e-16 2.038855122806138e-22
1.0531058218030118 4.627684025898313e-24 1.2936153038379943e-16 1.2936132197060423e-16 2.0841319520557903e-22
1.0540936079674168 4.6363925845493834e-24 1.2972653414833238e-16 1.2972632111030939e-16 2.130380229833614e-22
1.058054026499678 4.671251931805572e-24 1.3119297116882594e-16 1.311927386303008e-16 2.325385251460941e-22
1.0590464539527713 4.679972977743777e-24 1.3156118872226853e-16 1.31560951048141e-16 2.37674127492843e-22
1.06003981227728 4.6886964803471834e-24 1.319300507352651e-16 1.3192980781713682e-16 2.42918128271146e-22
1.0620293250338977 4.706150803041091e-24 1.3266971046036233e-16 1.3266945672030072e-16 2.5374006161489255e-22
1.0660195594769086 4.741088361206e-24 1.3415678923768873e-16 1.3415651245453356e-16 2.7678315517302715e-22
1.070024785945596 4.7760638170644475e-24 1.3565424604557308e-16 1.3565394422633228e-16 3.018192407978893e-22
1.0740450607676866 4.811076430482882e-24 1.3716212081936254e-16 1.371617918079078e-16 3.2901145473542243e-22
1.07808044048254 4.8461255117337556e-24 1.3868045494708425e-16 1.3868009641160821e-16 3.585354760370856e-22
1.0861967418109137 4.916276359997738e-24 1.417471112160304e-16 1.4174668586616835e-16 4.253498620628354e-22
1.0902777775684922 4.951253728354552e-24 1.4329194434936032e-16 1.432914812865624e-16 4.630627979299325e-22
1.0943741465085532 4.986263193962996e-24 1.4484731735594748e-16 1.4484681340138808e-16 5.039545593818864e-22
1.1026131145906286 5.0563768482376665e-24 1.479898809827268e-16 1.4798928467694627e-16 5.963057805037941e-22
1.1109141095355224 5.1266147835347535e-24 1.5117521722233503e-16 1.511745125596211e-16 7.046627139235397e-22
1.1192775983109025 5.196919795620996e-24 1.5440212002072734e-16 1.5440128839021964e-16 8.316305076797984e-22
1.1277040513999907 5.267035550254144e-24 1.5766337660248077e-16 1.5766239639340855e-16 9.802090722118697e-22
1.1361939428280308 5.337265814662791e-24 1.6096844010664804e-16 1.6096728625856612e-16 1.1538480819889579e-21
1.1447477501889525 5.407612382264573e-24 1.6431786578595747e-16 1.6431650927685277e-16 1.356509104722987e-21
1.1533659546722406 5.478104277220263e-24 1.6771304946054966e-16 1.6771145672288353e-16 1.592737666138246e-21
1.1707974979042381 5.6197554787247674e-24 1.7465001934314127e-16 1.7464783185469002e-16 2.1874884512928127e-21
1.1884924949847024 5.762041501266147e-24 1.8177839253543717e-16 1.8177540324033362e-16 2.9892951035432923e-21
1.2064549276569216 5.905977973571725e-24 1.8913519762650847e-16 1.8913113277646103e-16 4.064850047437206e-21
1.2246888378427687 6.050652679558439e-24 1.96696855377172e-16 1.966913550445818e-16 5.500332590207012e-21
1.2431983285522175 6.196006457223871e-24 2.0446628784760968e-16 2.0445888113703258e-16 7.406710577125563e-21
1.2619875648066055 6.342316482050963e-24 2.1245767187854667e-16 2.1244774573592328e-16 9.926142623416991e-21
1.3004222497298317 6.637257607929137e-24 2.2910918400028135e-16 2.290916073001725e-16 1.7576700108885138e-20
1.3400274889804893 6.937313388266572e-24 2.4675982547109074e-16 2.4672927169198807e-16 3.05537791027014e-20
1.3808389325824078 7.244957419524772e-24 2.6555121561240566e-16 2.654990521034931e-16 5.2163508912484e-20
1.4228933163050095 7.564708678684625e-24 2.857156176201128e-16 2.856281076064454e-16 8.751001366735586e-20
1.466228494730424 7.90471601143324e-24 3.076503122940587e-16 3.0750598288873214e-16 1.4432940532654554e-19
1.5108834753276823 8.267932547752977e-24 3.3158687302691683e-16 3.313527472557703e-16 2.341257711465199e-19
1.5568984535646726 8.658875410995607e-24 3.5784191649223977e-16 3.574679796491608e-16 3.739368430789281e-19
1.6043148490894465 9.085901587296171e-24 3.8692524368214423e-16 3.863361132257493e-16 5.891304563950497e-19
1.6531753430134553 9.559220145206565e-24 4.1947957140158933e-16 4.1856508786397526e-16 9.144835376140113e-19
1.7035239163302658 1.0091589073304383e-23 4.563281139279947e-16 4.549291930832794e-16 1.398920844715289e-18
1.755405889504358 1.0703117255543054e-23 4.987205540693123e-16 4.966105674995546e-16 2.1099865697577465e-18
1.8088679632656115 1.1409379822011984e-23 5.478205735854826e-16 5.446815950131771e-16 3.1389785723054472e-18
1.8639582606462262 1.2229077664045976e-23 6.050612206521008e-16 6.004534523540453e-16 4.6077682980552354e-18
1.9207263702978936 1.3186124568489106e-23 6.72282964118311e-16 6.656064648654794e-16 6.67649925283161e-18
1.979223391128241 1.4309228216530225e-23 7.517621540700042e-16 7.42209389289691e-16 9.552764780312873e-18
2.039501978296691 1.5631106798424425e-23 8.462200173225114e-16 8.327184350571189e-16 1.3501582265392578e-17
2.1016163906111602 1.7193032376672473e-23 9.591253306668108e-16 9.402674395070458e-16 1.8857891159765616e-17
2.1656225393682647 1.9038160252549264e-23 1.0944027458838809e-15 1.0683650820294874e-15 2.6037663854393497e-17
2.231578038680979 2.1209730982105082e-23 1.2563674377851803e-15 1.2208170303750187e-15 3.5550407410161544e-17
2.299542257339062 2.3757587742033608e-23 1.4501508106220026e-15 1.4021386081442284e-15 4.801220247777434e-17
2.369576372248914 2.673745712571267e-23 1.6817453864257805e-15 1.6175858283826248e-15 6.415955804315608e-17
2.4417434235010123 3.0209004435872566e-23 1.9579692760585333e-15 1.8731094424096682e-15 8.485983364886525e-17
2.5161083711144245 3.4238737534043065e-23 2.2867385779014955e-15 2.1756135814231678e-15 1.1112499647832724e-16
2.5927381535095444 3.889922484748202e-23 2.677127398569364e-15 2.533007584636835e-15 1.4411981393252952e-16
2.6717017477616296 4.426283765580924e-23 3.1390386305591297e-15 2.953878739170927e-15 1.8515989138820328e-16
2.753070231689431 5.0405026173467486e-23 3.683499100737528e-15 3.4477855902313863e-15 2.3571351050614163e-16
2.836916847834745 5.74235518668121e-23 4.324203174852898e-15 4.0267945857013e-15 2.9740858915159705e-16
2.9233170693905177 6.544997187225089e-23 5.0787264291832965e-15 4.706775699322112e-15 3.7195072986118605e-16
2.967498994190263 6.986602662734962e-23 5.503336374490317e-15 5.08952074322498e-15 4.1381563126533584e-16
3.0123486681368425 7.457741217800843e-23 5.963235774238089e-15 5.5034475212253924e-15 4.597882530126973e-16
3.0578761833420214 8.008685756509246e-23 6.50055717833421e-15 5.99020739187552e-15 5.103497864586914e-16
3.1040917844459814 8.60677487960028e-23 7.091603260923773e-15 6.526250261439843e-15 5.6535299948393e-16
3.127460860933648 8.981865918245283e-23 7.456377443944793e-15 6.8615818557585176e-15 5.947955881862764e-16
3.1510058709225794 9.402518011562159e-23 7.864349747606426e-15 7.238869892596904e-15 6.254798550095208e-16
3.162844764501044 9.689435882241821e-23 8.134779829504474e-15 7.493422904450238e-15 6.413569250542371e-16
3.1747281389236908 9.999938555113429e-23 8.427006052871854e-15 7.76945072239942e-15 6.575553304724339e-16
3.1986289994194426 1.075936321908621e-22 9.135238120770023e-15 8.44422166135167e-15 6.910164594183522e-16
3.2227097969389145 1.219592796650308e-22 1.0432910529351179e-14 9.706442942946077e-15 7.264675864051049e-16
3.2348180950136065 1.343459376443497e-22 1.1535696877963398e-14 1.079031194811496e-14 7.453849298484384e-16
3.240889293275058 1.4328296331468564e-22 1.2326170874019932e-14 1.1570807512929738e-14 7.553633610901934e-16
3.2469718861334385 1.535317064712178e-22 1.3232626011995264e-14 1.2466937891273465e-14 7.656881207217963e-16
3.2714166318528037 2.0645612867459877e-22 1.7928050622944168e-14 1.7119699738876606e-14 8.083508840675607e-16
3.2744851364798273 2.09934971457689e-22 1.8247242632235844e-14 1.743386511339794e-14 8.133775188378982e-16
3.2775565192852394 2.1349888725057455e-22 1.8574419014446356e-14 1.7755989837768455e-14 8.184291766778952e-16
3.283707930232385 2.110948011748376e-22 1.8399731794319324e-14 1.7572270714000277e-14 8.274610803190478e-16
3.2898708863219004 2.019482842439194e-22 1.7635527514940734e-14 1.6799848819241378e-14 8.356786956993548e-16
3.29141343181113 1.9979540232948753e-22 1.7455703651734835e-14 1.6617961520540055e-14 8.377421311947754e-16
3.292184975758714 1.9873819012818453e-22 1.7367407407099517e-14 1.6528632201815794e-14 8.387752052837254e-16
3.295272960557952 1.9196695653403406e-22 1.6791415465732054e-14 1.5948622160587916e-14 8.427933051441404e-16
3.3076538914384823 1.6849849722569637e-22 1.4793996929229517e-14 1.3935065990900617e-14 8.589309383289002e-16
3.310756385682612 1.6372991931741929e-22 1.438880431272893e-14 1.3525805959536225e-14 8.629983531927024e-16
3.313861789986515 1.5933470284424031e-22 1.4015680838700672e-14 1.3148601845392736e-14 8.670789933079342e-16
3.3200813396944477 1.5342360818406204e-22 1.352104782648946e-14 1.2645190913762336e-14 8.758569127271223e-16
3.345076488085796 1.448491174898287e-22 1.2861491627335469e-14 1.1946514646695093e-14 9.149769806403749e-16
3.3482140837626964 1.4571173774351556e-22 1.2950221286928189e-14 1.2029944810248467e-14 9.202764766797252e-16
3.3513546224236106 1.4658001386193957e-22 1.3039609223295954e-14 1.211400948186556e-14 9.255997414303955e-16
3.3576445397418455 1.5071787133835183e-22 1.3432872791429458e-14 1.2496143049432792e-14 9.367297419966641e-16
3.3702598118196083 1.6443927088143182e-22 1.471086998665019e-14 1.3750794835613938e-14 9.60075151036253e-16
3.382922481734668 1.6893904528971316e-22 1.5170207279095332e-14 1.4187441058178784e-14 9.827662209165468e-16
3.389271646505754 1.7124169193968504e-22 1.5405837822226193e-14 1.4411570393849826e-14 9.94267428376366e-16
3.395632727569191 1.7371762313719253e-22 1.565791828801271e-14 1.465179814869475e-14 1.006120139317962e-15
3.421196662673239 1.8513534638643753e-22 1.6812674918032787e-14 1.5757490441665668e-14 1.0551844763671223e-15
3.4276182099114902 1.844414045584542e-22 1.6781094972607314e-14 1.5714961250874873e-14 1.0661337217324397e-15
3.4340518103208963 1.785777107190014e-22 1.627809307784249e-14 1.5201603418538032e-14 1.0764896593044563e-15
3.4469541582030403 1.705606298375036e-22 1.560571717316218e-14 1.450935090965629e-14 1.096366263505892e-15
3.472904465399547 1.710729841628324e-22 1.5770436022229358e-14 1.4628282539093592e-14 1.1421534831357635e-15
3.4990501388274233 1.702779828937175e-22 1.581532407648892e-14 1.4626317039275656e-14 1.1890070372132632e-15
3.5253949054701885 1.5930911993465627e-22 1.4907947137351037e-14 1.3673423690580763e-14 1.2345234467702744e-15
3.5519380250092896 1.4902133477891532e-22 1.4050224434423746e-14 1.2769954417118742e-14 1.2802700173050054e-15
3.578680990867387 1.47143431352614e-22 1.3977622237878014e-14 1.2647213173784912e-14 1.3304090640931019e-15
3.605625307711299 1.485976992831978e-22 1.4222047073404434e-14 1.2838834043598066e-14 1.3832130298063728e-15
3.660119384959845 1.544561093750899e-22 1.500616700722736e-14 1.3512027577315926e-14 1.4941394299114318e-15
3.715437065384467 1.609438386282646e-22 1.587280561497453e-14 1.4261745700679426e-14 1.611059914295104e-15
3.8285932144167436 1.7622015701287743e-22 1.7908707456625182e-14 1.6046426616500583e-14 1.862280840124601e-15
3.94519561050918 1.9268190126562177e-22 2.017803622205287e-14 1.8041924067596316e-14 2.1361121544565603e-15
4.06534921144712 2.099763328027365e-22 2.2658838125825147e-14 2.022664607278261e-14 2.4321920530425405e-15
4.189162171576248 2.279363358857915e-22 2.53460430897168e-14 2.2595030358335612e-14 2.7510127313811905e-15
4.316745939156006 2.4641731265240107e-22 2.8235607693882352e-14 2.514429509813845e-14 3.0913125957438983e-15
4.448215356677963 2.652572532778375e-22 3.132005430246396e-14 2.7871772443841483e-14 3.448281858622477e-15
4.58368876423945 2.8434708161343957e-22 3.459659274984415e-14 3.077433523753182e-14 3.822257512312325e-15
4.723288106065518 3.0359304026365296e-22 3.8063233695875525e-14 3.3847761334988586e-14 4.215472360886948e-15
4.867139040275056 3.2280785514309096e-22 4.170491882739954e-14 3.708756267288661e-14 4.61735615451293e-15
4.940699165968905 3.324084552569198e-22 4.359431983472533e-14 3.877158146418091e-14 4.822738370544403e-15
5.015371051989984 3.4193318485925243e-22 4.552120537631912e-14 4.0490779462779524e-14 5.030425913539602e-15
5.091171501069577 3.5150306438819995e-22 4.750247909459577e-14 4.2257566895594004e-14 5.2449121990017784e-15
5.129500256944802 3.562462166871123e-22 4.850592040870082e-14 4.315312504265309e-14 5.35279536604772e-15
5.168117569889187 3.609755281204071e-22 4.951987940753845e-14 4.4057723254283914e-14 5.46215615325453e-15
5.20702561229733 3.6581958976281517e-22 5.0562216665592976e-14 4.4980608700752285e-14 5.581607964840703e-15
5.246226572918644 3.7063291444374595e-22 5.161316132715124e-14 4.5911366203954734e-14 5.7017951231965115e-15
5.265937586045735 3.7302735662984356e-22 5.2141776430202614e-14 4.6379627731066625e-14 5.762148699136e-15
5.285722656980489 3.7541328550408175e-22 5.267244068273718e-14 4.68497736027302e-14 5.822667080006991e-15
5.305582063971359 3.7779042847810016e-22 5.320511914358764e-14 4.732177534575475e-14 5.883343797832902e-15
5.3255160863122235 3.801772459227575e-22 5.374242439391533e-14 4.779776216416894e-14 5.944662229746381e-15
5.365609099470188 3.8506713968281515e-22 5.4843469579167095e-14 4.8771935985634397e-14 6.071533593532702e-15
5.406003951863644 3.8992421890166224e-22 5.5953338316207374e-14 4.975418832498228e-14 6.1991499912251055e-15
5.446702915881641 3.9474664804949876e-22 5.707180022782771e-14 5.074434043015802e-14 6.327459797669687e-15
5.487708281020852 3.995661908050324e-22 5.820351099299691e-14 5.1746541909897896e-14 6.456969083098991e-15
5.529022354014368 4.0464321149368406e-22 5.938681549648578e-14 5.2794840594283435e-14 6.591974902202358e-15
5.570647458961463 4.096968156442398e-22 6.058117553751845e-14 5.385342478135617e-14 6.727750756162287e-15
5.612585937458331 4.1472654778599254e-22 6.178659658696428e-14 5.4922352489672066e-14 6.864244097292209e-15
5.654840148729818 4.197816209565979e-22 6.30105377523632e-14 5.60084478160885e-14 7.0020899362747055e-15
5.67608639626678 4.2251746628251463e-22 6.365948151381386e-14 5.6585239814288966e-14 7.074241699524904e-15
5.686739436050992 4.238862488191561e-22 6.398557698766736e-14 5.687517888918751e-14 7.110398098479851e-15
5.6974124697621304 4.252556780087397e-22 6.431277006781156e-14 5.716616299507072e-14 7.14660707274081e-15
5.718818669136295 4.2799671107928805e-22 6.497049730768596e-14 5.775131789147357e-14 7.219179416212402e-15
5.740305295436557 4.308021119645188e-22 6.564206691708458e-14 5.834956036007913e-14 7.292506557005441e-15
5.7835210386641895 4.369191555876973e-22 6.707533315588272e-14 5.9631268793229e-14 7.444064362653733e-15
5.827062130521658 4.432336516867417e-22 6.855700044373328e-14 6.095909252391951e-14 7.597907919813788e-15
5.8489554468988025 4.469516222815178e-22 6.939181776008103e-14 6.17107197779865e-14 7.681097982094542e-15
5.870931020387893 4.507304428968013e-22 7.024142322713652e-14 6.247678930807436e-14 7.764633919062149e-15
5.892989160043636 4.5457544777232405e-22 7.110678621873426e-14 6.325827680497415e-14 7.848509413760135e-15
5.915130176081913 4.586679198187532e-22 7.201651569766606e-14 6.408102562294205e-14 7.935490074724029e-15
5.95966208400165 4.68757525553372e-22 7.415480920449885e-14 6.602039420233078e-14 8.134415002168064e-15
6.004529249263818 4.8151153712445345e-22 7.674588439550023e-14 6.838721070412115e-14 8.358673691379081e-15
6.027089341400364 4.896726674901303e-22 7.833988424996589e-14 6.98512687229807e-14 8.488615526985218e-15
6.049734195844842 4.987969978978568e-22 8.009945436136576e-14 7.147311733082312e-14 8.626337030542656e-15
6.095279466722835 5.235017715223287e-22 8.469957114499305e-14 7.573345582945451e-14 8.966115315538554e-15
6.141167624020661 5.587912415201888e-22 9.108984752187517e-14 8.168118579746751e-14 9.408661724407643e-15
6.164241091010745 5.808958680602098e-22 9.504895283289878e-14 8.536178294360324e-14 9.68716988929557e-15
6.187401249150058 6.048503637987483e-22 9.934034408136403e-14 8.936731148906944e-14 9.973032592294573e-15
6.1990139391386085 6.164729117888603e-22 1.0143925340556133e-13 9.132078881826222e-14 1.0118464587299099e-14
6.204828454712694 6.224900305517275e-22 1.0252543308369264e-13 9.233352536068563e-14 1.0191907723007008e-14
6.210648424152782 6.269362110521669e-22 1.0335458156888067e-13 9.310027019568723e-14 1.0254311373193439e-14
6.233982942956859 6.418167554272828e-22 1.0620527637056238e-13 9.573411610172466e-14 1.0471160268837692e-14
6.239830258556775 6.436289810033131e-22 1.0660505532576637e-13 9.610434536602878e-14 1.0500709959737591e-14
6.245683058788269 6.438099616749957e-22 1.0673505229147658e-13 9.620475019114298e-14 1.0530302100333573e-14
6.257405133728602 6.434294585136983e-22 1.0687217494921326e-13 9.629039329340326e-14 1.0581781655810011e-14
6.269149208991335 6.405633276925057e-22 1.0659580436231174e-13 9.59966359335825e-14 1.059916842872924e-14
6.280915325867298 6.334249264449362e-22 1.056057393347533e-13 9.503132441989215e-14 1.0574414914861164e-14
6.304513850009849 6.158418061841409e-22 1.0306001555399096e-13 9.257321194805007e-14 1.0486803605940904e-14
6.32820103803542 5.946776344769612e-22 9.989213740761093e-14 8.953348499101122e-14 1.0358652416599745e-14
6.3519772230701035 5.756254981482571e-22 9.705510606932208e-14 8.681168424026902e-14 1.0243421829053078e-14
6.375842739491607 5.593601657063738e-22 9.466698919203675e-14 8.452553530348991e-14 1.0141453888546813e-14
6.399797922933955 5.473176129005228e-22 9.2976912052536e-14 8.288938781992214e-14 1.0087524232613847e-14
6.42384311029221 5.372069565759829e-22 9.160221738174152e-14 8.155904268349535e-14 1.0043174698246178e-14
6.447978639727206 5.304887737087187e-22 9.079652364730685e-14 8.07602674453439e-14 1.0036256201962931e-14
6.472204850670314 5.249560080741462e-22 9.018713653874294e-14 8.015038363826413e-14 1.0036752900478804e-14
6.496522083828205 5.2200490370073425e-22 9.001708287280059e-14 7.994953152003355e-14 1.0067551352767052e-14
6.520930681187647 5.19663778716464e-22 8.995006128908103e-14 7.984715278675711e-14 1.0102908502323927e-14
6.57002334288761 5.186368015494257e-22 9.044814741211614e-14 8.023267285644133e-14 1.0215474555674812e-14
