Dust emission spectrum from A.P. Jones, M. Kohler, N. Ysard, M. Bocchio, and L. Verstraete (2017), A&A, 602A, 46J 
inside the DustPedia framework.

lambda    nu*dP/dnu     j_nu    j_nu(carb.) j_nu(sil)
 (um)   (erg s-1 H-1) (Jy cm2 sr-1 H-1)
0.9927057738263894 1.0015827047669101e-25 2.6392273158227272e-18 2.639227315763118e-18 5.960913360558259e-29
1.0001793341362166 1.0180519586830834e-25 2.702820807795295e-18 2.7028208077234876e-18 7.180690690199465e-29
1.0077091589558085 1.0344956657857766e-25 2.7671539031015637e-18 2.7671539030151726e-18 8.638957267089825e-29
1.0114953028030835 1.0427059134734742e-25 2.7995945534402662e-18 2.799594553345556e-18 9.471066393267307e-29
1.0152956718711033 1.050907350149265e-25 2.8322161663594194e-18 2.8322161662556202e-18 1.037997145064424e-28
1.0229392996569957 1.0672725027998537e-25 2.8979748842749786e-18 2.897974884150419e-18 1.2455890829541508e-28
1.0267826658714554 1.0754162883200623e-25 2.9310590732564225e-18 2.9310590731200367e-18 1.3638557617440487e-28
1.0306404723013447 1.0835476621956378e-25 2.9643170045557105e-18 2.9643170044064236e-18 1.492868039503727e-28
1.03451277320114 1.091665840027548e-25 2.9977472351463765e-18 2.9977472349830207e-18 1.63355458313985e-28
1.0383996230291617 1.0997700418970036e-25 3.0313483043898984e-18 3.031348304211207e-18 1.7869198770127573e-28
1.0403485208654093 1.1038166593830973e-25 3.0482124423266875e-18 3.0482124421398176e-18 1.8686931067607341e-28
1.0423010764483396 1.1078594925148932e-25 3.065118734383347e-18 3.0651187341879423e-18 1.9540500219099035e-28
1.0462171883269815 1.115933421367899e-25 3.0990570303074556e-18 3.0990570300938434e-18 2.1361189451250734e-28
1.0471985131304309 1.1179493884771718e-25 3.1075676565835187e-18 3.107567656365107e-18 2.1841168254176152e-28
1.048180758391296 1.1199643256882462e-25 3.116088656322657e-18 3.1160886560993416e-18 2.2331479424983353e-28
1.0501480137395462 1.1239910628612744e-25 3.1331616807749863e-18 3.1331616805415467e-18 2.3343950482596033e-28
1.0521189612883777 1.128013537979045e-25 3.1502759122094736e-18 3.150275911965471e-18 2.440034741218328e-28
1.0531058218030118 1.1300200430243076e-25 3.1588397416916352e-18 3.1588397414421788e-18 2.4945617178954626e-28
1.0540936079674168 1.132015275365434e-25 3.1673853237861784e-18 3.1673853235311506e-18 2.5502673340594656e-28
1.058054026499678 1.1399845419289045e-25 3.201667589878366e-18 3.201667589599841e-18 2.785246334286789e-28
1.0590464539527713 1.1419738846561574e-25 3.210263017962585e-18 3.210263017677869e-18 2.8471550140517485e-28
1.06003981227728 1.143962014608681e-25 3.2188683413212528e-18 3.2188683410302143e-18 2.9103808720660297e-28
1.0620293250338977 1.1479345899466373e-25 3.236108574702751e-18 3.2361085743986616e-18 3.0408913198531964e-28
1.0660195594769086 1.1558646798994383e-25 3.2707066908390795e-18 3.2707066905071867e-18 3.3189266295409525e-28
1.070024785945596 1.1637740779930879e-25 3.305460336469454e-18 3.3054603361073313e-18 3.6212121311409735e-28
1.0740450607676866 1.1716620562788805e-25 3.340367895727994e-18 3.340367895333019e-18 3.9497531672981397e-28
1.07808044048254 1.179527892770804e-25 3.3754277390498088e-18 3.375427738619139e-18 4.306711174913142e-28
1.0861967418109137 1.1951763089476568e-25 3.4459574031604325e-18 3.4459574026488943e-18 5.115373771877773e-28
1.0902777775684922 1.2029257005216382e-25 3.4813316382565066e-18 3.481331637699278e-18 5.572289321292373e-28
1.0943741465085532 1.2106495718295427e-25 3.5168489090176385e-18 3.516848908410832e-18 6.068067257928252e-28
1.1026131145906286 1.2260180145335925e-25 3.588305727583245e-18 3.588305726864349e-18 7.188958100382307e-28
1.1109141095355224 1.2412762264750998e-25 3.6603140882161316e-18 3.6603140873655315e-18 8.506007160324155e-28
1.1192775983109025 1.256404661517474e-25 3.732817726101575e-18 3.732817725096424e-18 1.005151701947326e-27
1.1277040513999907 1.2713327015109693e-25 3.805605726274271e-18 3.805605725087994e-18 1.186275593878745e-27
1.1361939428280308 1.286132932144998e-25 3.878892658642106e-18 3.878892657243841e-18 1.398265798723696e-27
1.1447477501889525 1.300800437082768e-25 3.952664069190738e-18 3.9526640675446754e-18 1.646062362543077e-27
1.1533659546722406 1.3153384626534959e-25 4.026930001345414e-18 4.02692999941007e-18 1.935344460523325e-27
1.1707974979042381 1.3440735446207382e-25 4.177094029363072e-18 4.1770940266976636e-18 2.6654084343453384e-27
1.1884924949847024 1.3722290006238682e-25 4.3290486864612834e-18 4.3290486828085354e-18 3.652748156614491e-27
1.2064549276569216 1.4000268242325718e-25 4.483497081576522e-18 4.48349707659507e-18 4.981452137905091e-27
1.2246888378427687 1.4271617920644258e-25 4.639470342792972e-18 4.639470336032347e-18 6.760624740572788e-27
1.2431983285522175 1.4535705003394795e-25 4.796737485363591e-18 4.796737476232245e-18 9.131344401567908e-27
1.2619875648066055 1.4792434398902962e-25 4.955233916032447e-18 4.955233903757345e-18 1.2275100884608954e-26
1.3004222497298317 1.5279543964424882e-25 5.2742925713833226e-18 5.2742925495096965e-18 2.1873625971829414e-26
1.3400274889804893 1.5731068812928675e-25 5.5955318399158315e-18 5.595531801644462e-18 3.8271367838226817e-26
1.3808389325824078 1.6145366006250491e-25 5.917800921662641e-18 5.917800855884029e-18 6.577861182514089e-26
1.4228933163050095 1.6524514574026718e-25 6.241234246989609e-18 6.241234135876427e-18 1.1111318193039108e-25
1.466228494730424 1.6877762810378214e-25 6.568798919439537e-18 6.56879873488167e-18 1.8455786725162627e-25
1.5108834753276823 1.7198222384964181e-25 6.8973770036399895e-18 6.89737670207806e-18 3.0156193035395567e-25
1.5568984535646726 1.7480335108041972e-25 7.224028894150694e-18 7.224028408919941e-18 4.852307551397026e-25
1.6043148490894465 1.7724671220168765e-25 7.548092685307812e-18 7.54809191503971e-18 7.702681036211873e-25
1.6531753430134553 1.7932031397567944e-25 7.868969153078436e-18 7.868967948146674e-18 1.2049317605723536e-24
1.7035239163302658 1.8104956847203192e-25 8.186818498869699e-18 8.186816640998756e-18 1.857870940280776e-24
1.755405889504358 1.8257893811461586e-25 8.507415830724533e-18 8.507413005715963e-18 2.8250085726247193e-24
1.8088679632656115 1.838732970069114e-25 8.82866348607692e-18 8.828659248372808e-18 4.2377041122061635e-24
1.8639582606462262 1.8490902380941295e-25 9.148791325828899e-18 9.148785052152126e-18 6.273676773912068e-24
1.9207263702978936 1.857040092590732e-25 9.467955588079893e-18 9.467946418274423e-18 9.169805467138683e-24
1.979223391128241 1.8629931664969055e-25 9.787584170650812e-18 9.787570932901617e-18 1.3237749198629795e-23
2.039501978296691 1.8674396280680755e-25 1.0109743441659535e-17 1.0109724559934968e-17 1.888172456600468e-23
2.1016163906111602 1.8717446044352523e-25 1.044165812825759e-17 1.0441631507243553e-17 2.662101403853476e-23
2.1656225393682647 1.8767009097814608e-25 1.0788157057311195e-17 1.0788119945223395e-17 3.711208779893193e-23
2.231578038680979 1.8823681415943661e-25 1.1150287766585536e-17 1.1150236592242178e-17 5.117434335948588e-23
2.299542257339062 1.8892219895430684e-25 1.153171285455719e-17 1.1531643035904212e-17 6.981865298111845e-23
2.369576372248914 1.8983099231356613e-25 1.1940080689908108e-17 1.1939986410441615e-17 9.427946648879652e-23
2.4417434235010123 1.910868221874401e-25 1.2385119400306413e-17 1.238499335579078e-17 1.2604451563241846e-22
2.5161083711144245 1.9290117935038097e-25 1.288349396950217e-17 1.2883327077146935e-17 1.6689235523623017e-22
2.5927381535095444 1.9561999265010605e-25 1.3462984007647549e-17 1.3462765082479225e-17 2.1892516832433953e-22
2.6717017477616296 1.9965616937318623e-25 1.415924648494906e-17 1.4158961896122904e-17 2.8458882615358048e-22
2.753070231689431 2.056311413979548e-25 1.5027114990800365e-17 1.5026748288089983e-17 3.667027103818472e-22
2.836916847834745 2.149526977862306e-25 1.618672318226308e-17 1.618625468200936e-17 4.685002537211774e-22
2.9233170693905177 2.307210533871918e-25 1.7903279070824806e-17 1.790268551767476e-17 5.935531500409219e-22
2.967498994190263 2.4408316610708734e-25 1.9226394161537468e-17 1.9225729177833318e-17 6.64983704149952e-22
3.0123486681368425 2.5968290045909447e-25 2.076433489377929e-17 2.076359087062614e-17 7.440231531495608e-22
3.0578761833420214 2.9452577029454814e-25 2.3906314575228734e-17 2.3905482994637022e-17 8.315805917169776e-22
3.1040917844459814 3.394158983100931e-25 2.796637445427195e-17 2.7965446731840526e-17 9.277224314225694e-22
3.127460860933648 3.868706052844113e-25 3.211641413070109e-17 3.2115434588646886e-17 9.795420542133328e-22
3.1510058709225794 4.500917403710815e-25 3.7646073747844497e-17 3.764503993806949e-17 1.0338097750108444e-21
3.162844764501044 5.089244025755617e-25 4.272682140765078e-17 4.272575941624499e-17 1.06199140578906e-21
3.1747281389236908 5.77342978800275e-25 4.865302671730062e-17 4.8651935902416584e-17 1.0908148840402431e-21
3.1986289994194426 7.681800241360508e-25 6.522233051537116e-17 6.522117993970905e-17 1.1505756621126065e-21
3.2227097969389145 1.2179796553034025e-24 1.0419111038742767e-16 1.0418989621702753e-16 1.2141704001084499e-21
3.2348180950136065 1.6445176384256265e-24 1.4120752231126435e-16 1.412062741315908e-16 1.2481796735542238e-21
3.240889293275058 1.9634032582609814e-24 1.6890524522989023e-16 1.689039791084477e-16 1.2661214425747247e-21
3.2469718861334385 2.3323016969369654e-24 2.0101695481704614e-16 2.010156701286585e-16 1.284688387605834e-21
3.2714166318528037 4.300021237733673e-24 3.734013561366812e-16 3.7339999449772276e-16 1.3616389583665254e-21
3.2744851364798273 4.4230187029668236e-24 3.8444235793377017e-16 3.8444098716581773e-16 1.3707679524706194e-21
3.2775565192852394 4.549548416562342e-24 3.9581104943446244e-16 3.9580966948602673e-16 1.3799484357372044e-21
3.283707930232385 4.427829107920014e-24 3.859444551139412e-16 3.859430586270605e-16 1.3964868806540898e-21
3.2898708863219004 4.0418804985626284e-24 3.529650920847069e-16 3.5296368043509036e-16 1.4116496166735563e-21
3.29141343181113 3.95086478065271e-24 3.451787377239942e-16 3.4517732226382733e-16 1.4154601668831784e-21
3.292184975758714 3.906142966491764e-24 3.413514848136775e-16 3.4135006744524857e-16 1.4173684289735553e-21
3.295272960557952 3.62386077882462e-24 3.169803440438844e-16 3.1697891923167864e-16 1.4248122058523487e-21
3.3076538914384823 2.6459676226850796e-24 2.323132700252604e-16 2.3231181525520276e-16 1.4547700576127725e-21
3.310756385682612 2.446945010104514e-24 2.1504080049135226e-16 2.1503933815757467e-16 1.4623337775735214e-21
3.313861789986515 2.2633168226022223e-24 1.9908987594162098e-16 1.9908840601428638e-16 1.4699273346844649e-21
3.3200813396944477 2.0057989467220397e-24 1.7676877639596674e-16 1.7676729018602517e-16 1.4862099415127773e-21
3.345076488085796 1.546419035372846e-24 1.3731015984406441e-16 1.3730860118945324e-16 1.5586546111896601e-21
3.3482140837626964 1.5636433237214169e-24 1.3896977257703028e-16 1.3896820411211723e-16 1.5684649130707323e-21
3.3513546224236106 1.581057949722908e-24 1.4064931009755754e-16 1.4064773177145776e-16 1.5783260997851257e-21
3.3576445397418455 1.708332098351053e-24 1.5225671354625964e-16 1.5225511462134267e-16 1.5989249170076806e-21
3.3702598118196083 2.177770425566043e-24 1.948251012033127e-16 1.9482345905408724e-16 1.6421492255687035e-21
3.382922481734668 2.2846700524596868e-24 2.051563521074631e-16 2.0515466772236797e-16 1.6843850951334383e-21
3.389271646505754 2.340050442012944e-24 2.1052371765970325e-16 2.1052201182125547e-16 1.705838447728679e-21
3.395632727569191 2.3997239940171573e-24 2.1629746903933717e-16 2.1629574108889078e-16 1.7279504463425597e-21
3.421196662673239 2.6862430398844252e-24 2.4394548022253586e-16 2.439436604771006e-16 1.819745435249548e-21
3.4276182099114902 2.6284795647632754e-24 2.3914784923398726e-16 2.391460087597337e-16 1.8404742536168184e-21
3.4340518103208963 2.3754079517999724e-24 2.1652820826049928e-16 2.1652634806249784e-16 1.8601980014286342e-21
3.4469541582030403 2.014991414278173e-24 1.8436485692820116e-16 1.8436295863076854e-16 1.8982974326479602e-21
3.472904465399547 1.913975068642511e-24 1.7644060817597311e-16 1.7643862243137703e-16 1.98574459601747e-21
3.4990501388274233 1.759487026025092e-24 1.634201736012648e-16 1.6341809778813132e-16 2.075813133490585e-21
3.5253949054701885 1.2097412053461561e-24 1.1320606093720895e-16 1.1320389671256985e-16 2.1642246391637104e-21
3.5519380250092896 6.930859354803545e-25 6.534643485973743e-17 6.534418102101562e-17 2.2538387218069664e-21
3.578680990867387 4.882559836607303e-25 4.638098780392476e-17 4.6378635586976584e-17 2.3522169481714584e-21
3.605625307711299 4.0542520939370325e-25 3.8802595467869845e-17 3.8800139148455304e-17 2.4563194145545824e-21
3.660119384959845 3.4503394835029667e-25 3.35217368419785e-17 3.3519059662963724e-17 2.6771790147738505e-21
3.715437065384467 3.022919784939006e-25 2.9813019588045855e-17 2.981010639420996e-17 2.9131938359059372e-21
3.8285932144167436 2.806823514591285e-25 2.852487596042636e-17 2.8521444157031955e-17 3.431803394397952e-21
3.94519561050918 2.766279406430038e-25 2.8969034297786055e-17 2.896501932932093e-17 4.014968465121966e-21
4.06534921144712 2.7978745977149234e-25 3.0192253936322855e-17 3.018758693841505e-17 4.666997907799872e-21
4.189162171576248 2.871286540412529e-25 3.192810487779554e-17 3.1922710464337773e-17 5.394413457760248e-21
4.316745939156006 2.9752119734178163e-25 3.4091321418665117e-17 3.4085120483508355e-17 6.200935156773481e-21
4.448215356677963 3.1058521233845084e-25 3.667211959626865e-17 3.6665036433286334e-17 7.08316298231287e-21
4.58368876423945 3.2636566731350796e-25 3.97090063858172e-17 3.9700957339376084e-17 8.049046441121022e-21
4.723288106065518 3.452216705781955e-25 4.3282458361650394e-17 4.327334659518565e-17 9.111766464749587e-21
4.867139040275056 3.678725037107283e-25 4.752701231290507e-17 4.751675515305137e-17 1.0257159853697346e-20
4.940699165968905 3.8152499342402393e-25 5.0035798804856475e-17 5.002493237533708e-17 1.0866429519401865e-20
5.015371051989984 3.9566145074152254e-25 5.2673992920900474e-17 5.266249287454924e-17 1.1500046351241133e-20
5.091171501069577 4.128973217430374e-25 5.579936103388253e-17 5.578719085952691e-17 1.2170174355623371e-20
5.129500256944802 4.217425857370222e-25 5.742380224261268e-17 5.741128736418907e-17 1.2514878423617606e-20
5.168117569889187 4.309627819707082e-25 5.912097449777307e-17 5.910810605153449e-17 1.2868446238598469e-20
5.20702561229733 4.422723255065894e-25 6.11292281038278e-17 6.111597864918626e-17 1.3249454641551016e-20
5.246226572918644 4.538694370566042e-25 6.320441483569677e-17 6.319077642408793e-17 1.363841160885044e-20
5.265937586045735 4.5977869884638685e-25 6.426788195699793e-17 6.425404605911233e-17 1.3835897885590242e-20
5.285722656980489 4.657633442862729e-25 6.534902485182632e-17 6.533498944796225e-17 1.4035403864079228e-20
5.305582063971359 4.718245904069599e-25 6.644817246589387e-17 6.643393552542588e-17 1.4236940467997e-20
5.3255160863122235 4.783355533487503e-25 6.761822961911263e-17 6.760378800218498e-17 1.4441616927636982e-20
5.365609099470188 4.945467420671674e-25 7.043618218469168e-17 7.042131643048858e-17 1.4865754203119128e-20
5.406003951863644 5.113733726597648e-25 7.338104672474303e-17 7.336574788356288e-17 1.5298841180132274e-20
5.446702915881641 5.288451981968957e-25 7.645954095385889e-17 7.644379996576403e-17 1.5740988094892417e-20
5.487708281020852 5.477219242864098e-25 7.9784876135491e-17 7.97686824908919e-17 1.6193644599098958e-20
5.529022354014368 5.739534527567849e-25 8.423536299204708e-17 8.421869553545868e-17 1.6667456588387473e-20
5.570647458961463 6.017285924164207e-25 8.897658973941697e-17 8.895943829057934e-17 1.715144883764907e-20
5.612585937458331 6.31158511231316e-25 9.403096214617447e-17 9.401331638360079e-17 1.7645762573694356e-20
5.654840148729818 6.635061553477975e-25 9.959435469136549e-17 9.957620241465117e-17 1.8152276714367878e-20
5.67608639626678 6.855359628385999e-25 1.032877157419053e-16 1.0326929864132053e-16 1.841710058478381e-20
5.686739436050992 6.968908792639831e-25 1.0519559228771482e-16 1.0517704168362135e-16 1.8550604093480436e-20
5.6974124697621304 7.084797057240298e-25 1.0714564147689966e-16 1.0712695663784823e-16 1.8684839051420368e-20
5.718818669136295 7.323816283975794e-25 1.1117655202539305e-16 1.1115759651080501e-16 1.8955514588052885e-20
5.740305295436557 7.587285379256026e-25 1.1560878666842767e-16 1.1558955597425735e-16 1.9230694170360415e-20
5.7835210386641895 8.270792602002992e-25 1.269722698462026e-16 1.2695246760738453e-16 1.9802238818077168e-20
5.827062130521658 9.058134307469833e-25 1.4010635595320273e-16 1.4008596543577696e-16 2.0390517425798104e-20
5.8489554468988025 9.610508132375517e-25 1.4920868292173456e-16 1.491879768852427e-16 2.0706036491895327e-20
5.870931020387893 1.0203241079750121e-24 1.5900638314224682e-16 1.5898535771084802e-16 2.1025431398786184e-20
5.892989160043636 1.0839581644531069e-24 1.6955773094991897e-16 1.695363822101535e-16 2.1348739765502453e-20
5.915130176081913 1.1563284824049928e-24 1.8155782147939262e-16 1.8153613794892865e-16 2.168353046387372e-20
5.95966208400165 1.358685708951321e-24 2.1493645226756558e-16 2.1491402093949044e-16 2.243132807518744e-20
6.004529249263818 1.6503528947858103e-24 2.630420721202252e-16 2.630188061442185e-16 2.3265976006740296e-20
6.027089341400364 1.8531028547768107e-24 2.964671560914165e-16 2.964434154697091e-16 2.374062170737582e-20
6.049734195844842 2.0926929793546554e-24 3.360556829704388e-16 3.3603144065678133e-16 2.4242313657419064e-20
6.095279466722835 2.784779744582501e-24 4.5056132171912e-16 4.505358736601734e-16 2.544805894657655e-20
6.141167624020661 3.8498619643052185e-24 6.275748674134493e-16 6.27547888048261e-16 2.6979365188311355e-20
6.164241091010745 4.530033110437127e-24 7.412256260028677e-16 7.411977022984955e-16 2.7923704372363e-20
6.187401249150058 5.304813939428436e-24 8.712601885873702e-16 8.712312897289343e-16 2.889885843578384e-20
6.1990139391386085 5.683123689259584e-24 9.351454265477897e-16 9.351160302989509e-16 2.939624883855837e-20
6.204828454712694 5.882400154410347e-24 9.688438268930406e-16 9.688141788421248e-16 2.9648050915868065e-20
6.210648424152782 6.027871336202359e-24 9.93734464083148e-16 9.937045972749965e-16 2.986680815123289e-20
6.233982942956859 6.5220914269693486e-24 1.0792496715892224e-15 1.0792190237468378e-15 3.064784238451057e-20
6.239830258556775 6.585264069365035e-24 1.0907253420364974e-15 1.090694572242509e-15 3.076979398835e-20
6.245683058788269 6.59073596432417e-24 1.0926555810992149e-15 1.09262468894033e-15 3.0892158885096444e-20
6.257405133728602 6.5771449239498566e-24 1.092448867048157e-15 1.0924177526501188e-15 3.111439803842636e-20
6.269149208991335 6.479927762695916e-24 1.07832134968211e-15 1.0782901150759425e-15 3.1234606167732973e-20
6.280915325867298 6.2361539519950314e-24 1.039702766990855e-15 1.0396715389947399e-15 3.122799611497886e-20
6.304513850009849 5.635006516046458e-24 9.430081773580372e-16 9.429770778690227e-16 3.109948901463123e-20
6.32820103803542 4.889900848852505e-24 8.213906479479205e-16 8.213597996743084e-16 3.084827361226169e-20
6.3519772230701035 4.206595760623855e-24 7.092660055044245e-16 7.092353694506235e-16 3.063605380124285e-20
6.375842739491607 3.631737388836029e-24 6.146409151303969e-16 6.146104517773323e-16 3.04633530646882e-20
6.399797922933955 3.171033848105434e-24 5.386870955028096e-16 5.386566560040894e-16 3.043949872022389e-20
6.42384311029221 2.7879988791039578e-24 4.75397565607679e-16 4.753671200713936e-16 3.0445536285441204e-20
6.447978639727206 2.508889681140201e-24 4.294124071081855e-16 4.2938183763686693e-16 3.056947131862079e-20
6.472204850670314 2.276382048851384e-24 3.910811106006162e-16 3.910503926028438e-16 3.071799777245475e-20
6.496522083828205 2.1252880343244484e-24 3.664950803298101e-16 3.6646411660980127e-16 3.096372000879832e-20
6.520930681187647 1.9980132343566733e-24 3.458417158314903e-16 3.4581048954902676e-16 3.122628246352201e-20
