Dust emission spectrum from A.P. Jones, M. Kohler, N. Ysard, M. Bocchio, and L. Verstraete (2017), A&A, 602A, 46J 
inside the DustPedia framework.

lambda    nu*dP/dnu     j_nu    j_nu(carb.) j_nu(sil)
 (um)   (erg s-1 H-1) (Jy cm2 sr-1 H-1)
0.9927057738263894 5.358563534947459e-22 1.4120119274919175e-14 1.412011866112518e-14 6.137939962477697e-22
1.0001793341362166 5.44872702431027e-22 1.4465796810953125e-14 1.4465796072245627e-14 7.3870750167267505e-22
1.0077091589558085 5.539231099717402e-22 1.481678992451059e-14 1.4816789036649847e-14 8.878607435336028e-22
1.0114953028030835 5.584606408148653e-22 1.4994288879860964e-14 1.499428790697009e-14 9.728908695183275e-22
1.0152956718711033 5.630061592894038e-22 1.5173127734551428e-14 1.5173126668842312e-14 1.065709112110436e-21
1.0229392996569957 5.721160623788196e-22 1.5534720282913894e-14 1.5534719005419096e-14 1.277494797581006e-21
1.0267826658714554 5.766700819454706e-22 1.5717207320731485e-14 1.5717205922696863e-14 1.3980346247177533e-21
1.0306404723013447 5.8123120708528075e-22 1.5901040728102784e-14 1.5901039198664253e-14 1.5294385336482275e-21
1.03451277320114 5.857992847559067e-22 1.608622457384423e-14 1.6086222901208137e-14 1.6726360957819574e-21
1.0383996230291617 5.903741661166728e-22 1.6272763025317797e-14 1.6272761196685943e-14 1.8286318554024115e-21
1.0403485208654093 5.92664112843983e-22 1.636654155864248e-14 1.6366539646877616e-14 1.9117648621738943e-21
1.0423010764483396 5.949557066380011e-22 1.6460660353279452e-14 1.6460658354768478e-14 1.9985109794504005e-21
1.0462171883269815 5.995437662101931e-22 1.6649920936798972e-14 1.6649918753353666e-14 2.183445300515311e-21
1.0471985131304309 6.006917837154251e-22 1.669744961524825e-14 1.6697447383070903e-14 2.232177349787508e-21
1.048180758391296 6.018401980912544e-22 1.6745063848695948e-14 1.6745061566746307e-14 2.2819496362858537e-21
1.0501480137395462 6.041382092515004e-22 1.6840549268250207e-14 1.684054688355043e-14 2.3846997778955974e-21
1.0521189612883777 6.064377834683123e-22 1.693637777554243e-14 1.6936375283672903e-14 2.4918695291365986e-21
1.0531058218030118 6.075866204169761e-22 1.6984378064274472e-14 1.698437551710287e-14 2.547171601241224e-21
1.0540936079674168 6.08730825354329e-22 1.703232389457934e-14 1.7032321290919987e-14 2.603659351149612e-21
1.058054026499678 6.133112511473893e-22 1.722495948922094e-14 1.7224956647391695e-14 2.841829242218969e-21
1.0590464539527713 6.144572497408044e-22 1.727333182891337e-14 1.727332892436282e-14 2.9045505495462527e-21
1.06003981227728 6.1560360151398695e-22 1.7321789695915302e-14 1.7321786727320616e-14 2.968594692862707e-21
1.0620293250338977 6.1789735740001e-22 1.7418962317890388e-14 1.7418959217132384e-14 3.1007580020423606e-21
1.0660195594769086 6.224890292451011e-22 1.7614337286463398e-14 1.7614333904304536e-14 3.3821588611077104e-21
1.070024785945596 6.270861569246506e-22 1.7811089441328866e-14 1.781108575345094e-14 3.6878779346945345e-21
1.0740450607676866 6.316886358919046e-22 1.8009223974795056e-14 1.8009219954891235e-14 4.019903818374811e-21
1.07808044048254 6.362963669124934e-22 1.8208746230559746e-14 1.8208741850181924e-14 4.380377820362794e-21
1.0861967418109137 6.455201256200078e-22 1.8611771661771938e-14 1.861176646570621e-14 5.196065727257632e-21
1.0902777775684922 6.501198622729357e-22 1.8814818273549905e-14 1.8814812617120786e-14 5.656429117091248e-21
1.0943741465085532 6.547242299665708e-22 1.9019262447561043e-14 1.9019256291998617e-14 6.1555624246312645e-21
1.1026131145906286 6.639465850621577e-22 1.9432368087137912e-14 1.9432360804435512e-14 7.282702400385262e-21
1.1109141095355224 6.731867040379816e-22 1.9851139691826185e-14 1.9851131086819425e-14 8.605006761330306e-21
1.1192775983109025 6.824369172075966e-22 2.027541523462583e-14 2.0275405080420397e-14 1.0154205433621103e-20
1.1277040513999907 6.916634696153764e-22 2.0704245690326832e-14 2.0704233723497012e-14 1.1966829823047274e-20
1.1361939428280308 7.009058406770571e-22 2.113886093615011e-14 2.1138846851269028e-14 1.4084881080067184e-20
1.1447477501889525 7.10163962454077e-22 2.1579325295443015e-14 2.1579308738859e-14 1.6556584011177543e-20
1.1533659546722406 7.194412326606774e-22 2.2025809829674315e-14 2.202579039241237e-14 1.943726195082712e-20
1.1707974979042381 7.380814120906584e-22 2.2937996748516507e-14 2.29379700602521e-14 2.668826440754001e-20
1.1884924949847024 7.567997141773339e-22 2.387518997983693e-14 2.3875153519161466e-14 3.6460675464500067e-20
1.2064549276569216 7.757233635893931e-22 2.484204857053519e-14 2.4841999005026885e-14 4.9565508292190296e-20
1.2246888378427687 7.947273098059596e-22 2.5835289348090576e-14 2.5835222297746895e-14 6.705034367354367e-20
1.2431983285522175 8.137954743114626e-22 2.6854997787430088e-14 2.685490752387232e-14 9.026355777104783e-20
1.2619875648066055 8.329549043364926e-22 2.79026851239567e-14 2.7902564192101968e-14 1.2093185473477387e-19
1.3004222497298317 8.714257192871849e-22 3.008044093756934e-14 3.008022692542449e-14 2.1401214485028624e-19
1.3400274889804893 9.102522972213198e-22 3.2377620186064074e-14 3.23772483939588e-14 3.7179210527235875e-19
1.3808389325824078 9.495759180906935e-22 3.480504090827219e-14 3.480440655696044e-14 6.343513117459446e-19
1.4228933163050095 9.89731942442892e-22 3.7381726808625215e-14 3.7380663296241915e-14 1.0635123833039138e-18
1.466228494730424 1.0314354881119718e-21 4.0143308066963434e-14 4.0141555173560277e-14 1.7528934031647738e-18
1.5108834753276823 1.0746043245792863e-21 4.3097193363688954e-14 4.3094351782607285e-14 2.841581081675812e-18
1.5568984535646726 1.1192088817710141e-21 4.6253102417837706e-14 4.624856703236727e-14 4.5353854704497596e-18
1.6043148490894465 1.1655304085171347e-21 4.9634384986624584e-14 4.9627244479430584e-14 7.14050719400046e-18
1.6531753430134553 1.213870207485102e-21 5.326729028500741e-14 5.325621410301892e-14 1.1076181988481367e-17
1.7035239163302658 1.2645855930581246e-21 5.718286331210815e-14 5.716593168590792e-14 1.693162620020813e-17
1.755405889504358 1.3186679310147031e-21 6.144441712516011e-14 6.141889767916616e-14 2.551944599393724e-17
1.8088679632656115 1.3761497367196534e-21 6.607573328874662e-14 6.603779650474871e-14 3.793678399792111e-17
1.8639582606462262 1.4370476397461626e-21 7.110117565091659e-14 7.104552914226487e-14 5.564650865170679e-17
1.9207263702978936 1.50158934383742e-21 7.655721206941094e-14 7.647664351237883e-14 8.056855703213373e-17
1.979223391128241 1.5701006799102033e-21 8.248818534269544e-14 8.237299671781181e-14 1.1518862488363193e-16
2.039501978296691 1.6428791240368725e-21 8.894041981348415e-14 8.877774401477358e-14 1.6267579871058304e-16
2.1016163906111602 1.720730163052549e-21 9.599213509685416e-14 9.576510521540903e-14 2.2702988144511033e-16
2.1656225393682647 1.8040805375366568e-21 1.0370701096558993e-13 1.0339379986392557e-13 3.132111016643765e-16
2.231578038680979 1.8928076973823792e-21 1.1212126919416221e-13 1.1169398351528467e-13 4.272856788775324e-16
2.299542257339062 1.9870603390787446e-21 1.2128913056150284e-13 1.2071255377867325e-13 5.765767828295582e-16
2.369576372248914 2.0871851011568443e-21 1.3128076832375994e-13 1.305109442083346e-13 7.698241154253241e-16
2.4417434235010123 2.193589736953961e-21 1.4217553307162203e-13 1.4115823198290567e-13 1.0173010887163535e-15
2.5161083711144245 2.3070766698775505e-21 1.5408515626313544e-13 1.527541854928994e-13 1.3309707702361123e-15
2.5927381535095444 2.4289600982075304e-21 1.6716620072608036e-13 1.654416270664207e-13 1.724573659659683e-15
2.6717017477616296 2.5604030922875202e-21 1.815790546234611e-13 1.7936546136106451e-13 2.2135932623965763e-15
2.753070231689431 2.7030993984090625e-21 1.9753712990799106e-13 1.9472186409976586e-13 2.815265808225212e-15
2.836916847834745 2.8615365205429476e-21 2.1548415075036122e-13 2.1193549988326346e-13 3.548650867097773e-15
2.9233170693905177 3.0455087583208333e-21 2.363225740017616e-13 2.318889473448067e-13 4.4336266569548676e-15
2.967498994190263 3.156224720293451e-21 2.4861534493585953e-13 2.4368536743430087e-13 4.929977501558695e-15
3.0123486681368425 3.2748062939349796e-21 2.6185464841661167e-13 2.5637991885387626e-13 5.474729562735425e-15
3.0578761833420214 3.459307090291222e-21 2.807879372664592e-13 2.74714382191439e-13 6.07355507502016e-15
3.1040917844459814 3.6735854059918934e-21 3.026872505537636e-13 2.9596271978094774e-13 6.724530772815843e-15
3.127460860933648 3.863561535311839e-21 3.207370645187714e-13 3.136642536680208e-13 7.0728108507506466e-15
3.1510058709225794 4.102381778288294e-21 3.4312686307001885e-13 3.3569121517387476e-13 7.435647896144004e-15
3.162844764501044 4.313450553912293e-21 3.6213636157951613e-13 3.545130198754738e-13 7.62334170404238e-15
3.1747281389236908 4.551826149057635e-21 3.8358502203110756e-13 3.757702230397932e-13 7.81479899131439e-15
3.1986289994194426 5.1937215212293716e-21 4.409729633927889e-13 4.3276277773210133e-13 8.210185660687445e-15
3.2227097969389145 6.663192129881607e-21 5.699975231229911e-13 5.613685705552147e-13 8.628952567776522e-15
3.2348180950136065 8.036459875222686e-21 6.900555887138393e-13 6.812032084477862e-13 8.852380266052858e-15
3.240889293275058 9.06059344418721e-21 7.794536100415056e-13 7.704833772374387e-13 8.970232804066628e-15
3.2469718861334385 1.0246826442465422e-20 8.831558330160813e-13 8.740636576464288e-13 9.092175369652567e-15
3.2714166318528037 1.6471991742404432e-20 1.430379924850729e-12 1.4207839827311562e-12 9.595942119572451e-15
3.2744851364798273 1.6862157111868103e-20 1.465634191324578e-12 1.4559789255027334e-12 9.655265821844868e-15
3.2775565192852394 1.7262751760964517e-20 1.501860682647018e-12 1.4921458006819875e-12 9.714881965030519e-15
3.283707930232385 1.6884377774340114e-20 1.4716990699572745e-12 1.4618776634642873e-12 9.821406492987457e-15
3.2898708863219004 1.567225620225355e-20 1.3686103177891442e-12 1.3586920493045383e-12 9.91826848460535e-15
3.29141343181113 1.5385865388934775e-20 1.3442306655877002e-12 1.3342880766476602e-12 9.942588940040094e-15
3.292184975758714 1.5245062020608373e-20 1.3322411907224912e-12 1.3222864257940467e-12 9.954764928444112e-15
3.295272960557952 1.436540438909579e-20 1.2565468442366683e-12 1.2465447323658763e-12 1.0002111870791958e-14
3.3076538914384823 1.129684691342082e-20 9.918516859130573e-13 9.816594469626879e-13 1.0192238950369664e-14
3.310756385682612 1.0666424171540659e-20 9.373796234719809e-13 9.271394699143594e-13 1.0240153557621469e-14
3.313861789986515 1.0082465943760043e-20 8.868916953574869e-13 8.766034738293097e-13 1.028822152817718e-14
3.3200813396944477 9.268080201814569e-21 8.167853510402107e-13 8.06393702507923e-13 1.0391648532287567e-14
3.345076488085796 7.854592165445715e-21 6.97427593089123e-13 6.865749341180606e-13 1.0852658971062282e-14
3.3482140837626964 7.914855239867933e-21 7.034376804339102e-13 6.925225664414309e-13 1.091511399247929e-14
3.3513546224236106 7.975658498224607e-21 7.095064830138653e-13 6.985286370772931e-13 1.097784593657212e-14
3.3576445397418455 8.391564840865472e-21 7.479061509256751e-13 7.36797133103508e-13 1.1109017822167187e-14
3.3702598118196083 9.892023922572826e-21 8.849484496603553e-13 8.735643015371309e-13 1.1384148123224384e-14
3.382922481734668 1.0256953184171285e-20 9.210428861428508e-13 9.093914268917365e-13 1.1651459251114468e-14
3.389271646505754 1.0445022532177162e-20 9.396912711940333e-13 9.279043434733325e-13 1.17869277207008e-14
3.395632727569191 1.065138584341518e-20 9.60055325294071e-13 9.481287890961896e-13 1.1926536197881339e-14
3.421196662673239 1.1648526564653412e-20 1.0578363031595241e-12 1.0453319744784722e-12 1.2504328681051934e-14
3.4276182099114902 1.1475993061115997e-20 1.0441241755049453e-12 1.0314910238769085e-12 1.2633151628036979e-14
3.4340518103208963 1.067713347036676e-20 9.732646461610403e-13 9.605097093786907e-13 1.2754936782349578e-14
3.4469541582030403 9.53363156796926e-21 8.72294843332859e-13 8.593062751653598e-13 1.2988568167499179e-14
3.472904465399547 9.23320308677355e-21 8.511667653006822e-13 8.376398357500438e-13 1.3526929550638347e-14
3.4990501388274233 8.768781214588378e-21 8.144395083133204e-13 8.00361940841049e-13 1.4077567472271474e-14
3.5253949054701885 7.070795389484287e-21 6.616761421360785e-13 6.470640706654129e-13 1.4612071470665412e-14
3.5519380250092896 5.455985224047606e-21 5.144083363801321e-13 4.992593963285214e-13 1.5148940051610848e-14
3.578680990867387 4.839345757287898e-21 4.597048352892463e-13 4.439675244010689e-13 1.573731088817735e-14
3.605625307711299 4.615638901934235e-21 4.417553841936764e-13 4.253986344824689e-13 1.6356749711207606e-14
3.660119384959845 4.5053134858133115e-21 4.3771325628723693e-13 4.2005616310729995e-13 1.7657093179936995e-14
3.715437065384467 4.446889290250919e-21 4.385667068529142e-13 4.1954034948605285e-13 1.9026357366861416e-14
3.8285932144167436 4.536734949138624e-21 4.610542879407024e-13 4.390905700196746e-13 2.1963717921027868e-14
3.94519561050918 4.680809474190422e-21 4.901837821733923e-13 4.650254058101397e-13 2.5158376363252498e-14
4.06534921144712 4.845320773183396e-21 5.228653039216699e-13 4.942608904118407e-13 2.8604413509829235e-14
4.189162171576248 5.019875347890975e-21 5.581996234966367e-13 5.258937458012405e-13 3.230587769539615e-14
4.316745939156006 5.199634336264138e-21 5.957975666973251e-13 5.595514025390306e-13 3.624616415829446e-14
4.448215356677963 5.381835976070187e-21 6.354563086760112e-13 5.950889922386714e-13 4.0367316437339765e-14
4.58368876423945 5.565503450596062e-21 6.771564358444381e-13 6.32484959598952e-13 4.4671476245486187e-14
4.723288106065518 5.750739692417622e-21 7.210038433244205e-13 6.718211238241377e-13 4.9182719500282764e-14
4.867139040275056 5.937437173159205e-21 7.670827441284743e-13 7.133067063191417e-13 5.377603780933272e-14
4.940699165968905 6.033977572540855e-21 7.913371155664358e-13 7.352203519970222e-13 5.6116763569413604e-14
5.015371051989984 6.128563824322229e-21 8.158892580832316e-13 7.574102074804307e-13 5.847905060280074e-14
5.091171501069577 6.230151242773345e-21 8.419489306049584e-13 7.810342512892892e-13 6.091467931566929e-14
5.129500256944802 6.280072227233217e-21 8.55084683980272e-13 7.929468897925688e-13 6.213779418770336e-14
5.168117569889187 6.330232063737801e-21 8.684032683608048e-13 8.050265741645186e-13 6.337669419628614e-14
5.20702561229733 6.38703347592122e-21 8.827918993329716e-13 8.18059978589692e-13 6.473192074327955e-14
5.246226572918644 6.443448646987632e-21 8.972941731829471e-13 8.312000678029041e-13 6.609410538004297e-14
5.265937586045735 6.47151046571075e-21 9.045879501101722e-13 8.378103351399705e-13 6.677761497020164e-14
5.285722656980489 6.499474756004026e-21 9.119101847844638e-13 8.444475524319072e-13 6.746263235255652e-14
5.305582063971359 6.527341347196629e-21 9.192609126374257e-13 8.511118336889717e-13 6.814907894845439e-14
5.3255160863122235 6.5563937474729604e-21 9.268216313553256e-13 8.579790529670418e-13 6.884257838828358e-14
5.365609099470188 6.624154441201101e-21 9.434500510299717e-13 8.731724732988689e-13 7.027757773110299e-14
5.406003951863644 6.6920731296942054e-21 9.602989855754876e-13 8.885794954394439e-13 7.171949013604346e-14
5.446702915881641 6.760185252838281e-21 9.773761073323022e-13 9.042084206300857e-13 7.316768670221648e-14
5.487708281020852 6.830962894749465e-21 9.950442081605093e-13 9.204162034835264e-13 7.462800467698288e-14
5.529022354014368 6.923673234832334e-21 1.0161418584959075e-12 9.399916611116297e-13 7.615019738427768e-14
5.570647458961463 7.018321547808456e-21 1.0377873428133638e-12 9.601079298267435e-13 7.767941298662047e-14
5.612585937458331 7.115100558044956e-21 1.0600185838174506e-12 9.808035730492747e-13 7.921501076817593e-14
5.654840148729818 7.217880296944839e-21 1.0834264680437363e-12 1.0026621710588927e-12 8.076429698484361e-14
5.67608639626678 7.28645256766254e-21 1.097828680583449e-12 1.0162531748497117e-12 8.157550573373729e-14
5.686739436050992 7.321321876090938e-21 1.1051526343662308e-12 1.0231707874542375e-12 8.198184691199335e-14
5.6974124697621304 7.356593819780125e-21 1.1125611044847217e-12 1.0301724386959873e-12 8.238866578873438e-14
5.718818669136295 7.428388805640791e-21 1.12763977480173e-12 1.0444360789130196e-12 8.320369588871012e-14
5.740305295436557 7.506491614535535e-21 1.1437771802624271e-12 1.059750298977659e-12 8.402688128476822e-14
5.7835210386641895 7.706312128334942e-21 1.1830642964509122e-12 1.0973363332797259e-12 8.572796317118673e-14
5.827062130521658 7.9294708928504e-21 1.2264879650968437e-12 1.139034836215525e-12 8.745312888131856e-14
5.8489554468988025 8.086227988513278e-21 1.2554335435255524e-12 1.167046649116651e-12 8.838689440890117e-14
5.870931020387893 8.251387523733176e-21 1.2858887443694546e-12 1.1965647143148032e-12 8.932403005465158e-14
5.892989160043636 8.42561908011541e-21 1.3179741616628751e-12 1.2277097050957836e-12 9.026445656709186e-14
5.915130176081913 8.622067646008333e-21 1.3537708724439769e-12 1.2625308932259179e-12 9.123997921805962e-14
5.95966208400165 9.171398445464837e-21 1.450863751059815e-12 1.3573877292299056e-12 9.347602182990984e-14
6.004529249263818 9.953048589422717e-21 1.5863701231092272e-12 1.4903705097602035e-12 9.599961334902349e-14
6.027089341400364 1.0494473712441223e-20 1.6789498587105151e-12 1.5814855160773897e-12 9.746434263312527e-14
6.049734195844842 1.1126862815138058e-20 1.7868103537159608e-12 1.6877930634311826e-12 9.9017290284778e-14
6.095279466722835 1.2946536385281419e-20 2.0946750121926067e-12 1.9918179757278983e-12 1.0285703646470775e-13
6.141167624020661 1.5713840915444012e-20 2.561549406316319e-12 2.453680916248476e-12 1.0786849006784429e-13
6.164241091010745 1.747619660903392e-20 2.8595386514581964e-12 2.7485113444201227e-12 1.110273070380744e-13
6.187401249150058 1.9454443801545698e-20 3.1951888546770322e-12 3.080920414945648e-12 1.142684397313839e-13
6.1990139391386085 2.0415221584478805e-20 3.3592795336770745e-12 3.2433623823963927e-12 1.1591715128068238e-13
6.204828454712694 2.0918846727878386e-20 3.4453785845954966e-12 3.3286289512517742e-12 1.1674963334372252e-13
6.210648424152782 2.1283243035985044e-20 3.5086834029275597e-12 3.391227521908231e-12 1.1745588101932897e-13
6.233982942956859 2.2503394192594297e-20 3.723771901076473e-12 3.603866534038092e-12 1.1990536703838024e-13
6.239830258556775 2.2649258442985367e-20 3.751424377501123e-12 3.631188767797628e-12 1.2023560970349497e-13
6.245683058788269 2.2646687674991906e-20 3.7545169182070424e-12 3.6339506334964493e-12 1.2056628471059328e-13
6.257405133728602 2.2578014401685284e-20 3.750157026873826e-12 3.6290175993056264e-12 1.211394275681995e-13
6.269149208991335 2.2293981282613856e-20 3.709929626816428e-12 3.588606908439849e-12 1.2132271837657966e-13
6.280915325867298 2.1634347099270227e-20 3.6069171342307735e-12 3.485892854516447e-12 1.2102427971432583e-13
6.304513850009849 2.00296023572153e-20 3.351917829783771e-12 3.231925796130014e-12 1.1999203365375658e-13
6.32820103803542 1.8075772098800606e-20 3.0363131309455753e-12 2.9178165175745303e-12 1.1849661337104462e-13
6.3519772230701035 1.62944071477972e-20 2.7473685914776145e-12 2.6302195493970772e-12 1.171490420805376e-13
6.375842739491607 1.47908821211193e-20 2.5032320207007817e-12 2.387278649371766e-12 1.1595337132901614e-13
6.399797922933955 1.359991233858657e-20 2.310318220394611e-12 2.1950121078228526e-12 1.1530611257175935e-13
6.42384311029221 1.260496604725623e-20 2.1493445418310074e-12 2.0345761984644844e-12 1.1476834336652316e-13
6.447978639727206 1.1883668514086e-20 2.0339653593657785e-12 1.919307813294885e-12 1.1465754607089354e-13
6.472204850670314 1.127996406275711e-20 1.9378912583781718e-12 1.8232600240046162e-12 1.1463123437355556e-13
6.496522083828205 1.088721365461727e-20 1.877444458574328e-12 1.7624941985226361e-12 1.149502600516914e-13
