Dust emission spectrum from A.P. Jones, M. Kohler, N. Ysard, M. Bocchio, and L. Verstraete (2017), A&A, 602A, 46J 
inside the DustPedia framework.

lambda    nu*dP/dnu     j_nu    j_nu(carb.) j_nu(sil)
 (um)   (erg s-1 H-1) (Jy cm2 sr-1 H-1)
0.9927057738263894 9.649508107948883e-25 2.5427001945564096e-17 2.5427001945564093e-17 7.942260513452687e-33
1.0001793341362166 9.808993723567426e-25 2.6041846011363136e-17 2.6041846011363124e-17 9.572043478833407e-33
1.0077091589558085 9.968253805647814e-25 2.6663903327669794e-17 2.6663903327669788e-17 1.1521825350178614e-32
1.0114953028030835 1.0047779660595467e-24 2.6977605908328398e-17 2.697760590832839e-17 1.2634986655144172e-32
1.0152956718711033 1.0127225660789645e-24 2.7293074154238712e-17 2.7293074154238702e-17 1.385132621525334e-32
1.0229392996569957 1.0285769144954936e-24 2.792904395956299e-17 2.7929043959562975e-17 1.6630993494595438e-32
1.0267826658714554 1.0364674425242796e-24 2.824903560175132e-17 2.8249035601751293e-17 1.8215468778311637e-32
1.0306404723013447 1.0443464968149197e-24 2.857072362542463e-17 2.857072362542461e-17 1.994457963739813e-32
1.03451277320114 1.0522133170946712e-24 2.8894094204002494e-17 2.8894094204002475e-17 2.1830900640300255e-32
1.0383996230291617 1.0600671472975553e-24 2.921913333770215e-17 2.921913333770212e-17 2.3888040615019048e-32
1.0403485208654093 1.0639889560355907e-24 2.938227419124541e-17 2.938227419124538e-17 2.498522281309699e-32
1.0423010764483396 1.067907235709364e-24 2.954582685685027e-17 2.954582685685026e-17 2.6130722488586385e-32
1.0462171883269815 1.0757328351094812e-24 2.987416042519925e-17 2.987416042519922e-17 2.857486885265706e-32
1.0471985131304309 1.0776868839256238e-24 2.995649837935334e-17 2.99564983793533e-17 2.921937177911951e-32
1.048180758391296 1.079639969186607e-24 3.0038937703015774e-17 3.0038937703015737e-17 2.9877817489255396e-32
1.0501480137395462 1.0835432029094872e-24 3.020411954324595e-17 3.0204119543245925e-17 3.1237693631571816e-32
1.0521189612883777 1.0874424442005694e-24 3.036970410848818e-17 3.0369704108488137e-17 3.265686689548625e-32
1.0531058218030118 1.0893875466811908e-24 3.045256318950507e-17 3.0452563189505034e-17 3.3389502208192543e-32
1.0540936079674168 1.0913218128882194e-24 3.053524779119266e-17 3.0535247791192625e-17 3.4138049982672354e-32
1.058054026499678 1.0990479191203496e-24 3.0866963304756213e-17 3.086696330475618e-17 3.729644814641727e-32
1.0590464539527713 1.1009766495263237e-24 3.0950135279835306e-17 3.095013527983527e-17 3.8128796028556904e-32
1.06003981227728 1.1029042389421371e-24 3.103340401957535e-17 3.1033404019575304e-17 3.89789450071807e-32
1.0620293250338977 1.1067559499107008e-24 3.1200230840468e-17 3.1200230840467966e-17 4.0734104384749115e-32
1.0660195594769086 1.1144451873255113e-24 3.153503514854423e-17 3.153503514854419e-17 4.447447487448002e-32
1.070024785945596 1.1221149188465415e-24 3.187136083666845e-17 3.1871360836668405e-17 4.8542874551167297e-32
1.0740450607676866 1.1297644374882823e-24 3.2209192373323755e-17 3.22091923733237e-17 5.296661490557194e-32
1.07808044048254 1.1373930419119524e-24 3.2548514091119044e-17 3.254851409111899e-17 5.777515123255416e-32
1.0861967418109137 1.1525712566930624e-24 3.323117622845488e-17 3.323117622845481e-17 6.867611634581167e-32
1.0902777775684922 1.1600888511388495e-24 3.3573594935306425e-17 3.357359493530633e-17 7.483967010508822e-32
1.0943741465085532 1.1675822485919825e-24 3.391741468956818e-17 3.39174146895681e-17 8.153059460705716e-32
1.1026131145906286 1.1824937884067266e-24 3.460919157363006e-17 3.460919157362996e-17 9.666884826417033e-32
1.1109141095355224 1.197300612181112e-24 3.5306374239048045e-17 3.5306374239047934e-17 1.1447348229250929e-31
1.1192775983109025 1.2119838201680141e-24 3.6008420107318634e-17 3.60084201073185e-17 1.3538708286764563e-31
1.1277040513999907 1.2264752425652776e-24 3.6713294645003454e-17 3.67132946450033e-17 1.5992094836462377e-31
1.1361939428280308 1.2408448352814213e-24 3.742306725681798e-17 3.7423067256817795e-17 1.8866486564977557e-31
1.1447477501889525 1.2550878048408527e-24 3.813759842362551e-17 3.8137598423625283e-17 2.2229836993448898e-31
1.1533659546722406 1.2692072261631106e-24 3.885698473874123e-17 3.8856984738740964e-17 2.616037292056311e-31
1.1707974979042381 1.2971209770555666e-24 4.0311754593378824e-17 4.031175459337846e-17 3.6096159728589386e-31
1.1884924949847024 1.3244803917273241e-24 4.1784134407916755e-17 4.1784134407916256e-17 4.956261704940543e-31
1.2064549276569216 1.351499237652392e-24 4.3280905643282167e-17 4.328090564328149e-17 6.77255339758474e-31
1.2246888378427687 1.3778825804801326e-24 4.4792716589907444e-17 4.479271658990653e-17 9.210196513952655e-31
1.2431983285522175 1.4035686829674164e-24 4.631733041706498e-17 4.631733041706373e-17 1.246595170564524e-30
1.2619875648066055 1.4285478980825204e-24 4.785411788461504e-17 4.785411788461336e-17 1.6793713558779107e-30
1.3004222497298317 1.475970519082901e-24 5.094851235419543e-17 5.094851235419241e-17 3.0058702295585865e-30
1.3400274889804893 1.5199645383311113e-24 5.4065048414159924e-17 5.406504841415464e-17 5.28369847229119e-30
1.3808389325824078 1.5603664626208529e-24 5.719249775480064e-17 5.719249775479151e-17 9.125392888057977e-30
1.4228933163050095 1.5973721919517156e-24 6.033202358190972e-17 6.03320235818942e-17 1.5492716949879769e-29
1.466228494730424 1.6318708225866693e-24 6.35121574850003e-17 6.351215748497444e-17 2.586957232676138e-29
1.5108834753276823 1.6631920174939542e-24 6.670260517232108e-17 6.670260517227858e-17 4.250483577710531e-29
1.5568984535646726 1.690793212323125e-24 6.987474178476601e-17 6.987474178469722e-17 6.879171523387015e-29
1.6043148490894465 1.7147242113945195e-24 7.302193150200473e-17 7.302193150189485e-17 1.098714507900812e-28
1.6531753430134553 1.7350571249635135e-24 7.613811671676289e-17 7.61381167165899e-17 1.729939229978049e-28
1.7035239163302658 1.75203256379259e-24 7.922456112396115e-17 7.922456112369254e-17 2.6860836479433983e-28
1.755405889504358 1.7670432738892467e-24 8.233683510867819e-17 8.233683510826664e-17 4.115473770758111e-28
1.8088679632656115 1.7797448617680974e-24 8.545432496940763e-17 8.545432496878512e-17 6.22519272093505e-28
1.8639582606462262 1.7899038916549643e-24 8.855953517400336e-17 8.855953517307315e-17 9.30199291321014e-28
1.9207263702978936 1.7976889532405008e-24 9.165359023949721e-17 9.165359023812327e-17 1.373921125212326e-27
1.979223391128241 1.8034930044534556e-24 9.474988904795554e-17 9.47498890459482e-17 2.007301720215379e-27
2.039501978296691 1.8077864465656602e-24 9.786799475277033e-17 9.786799474986732e-17 2.9030217944729503e-27
2.1016163906111602 1.8118875632821917e-24 1.0107741439619463e-16 1.0107741439203499e-16 4.1596431321522176e-27
2.1656225393682647 1.8165606939551586e-24 1.0442442889212725e-16 1.044244288862168e-16 5.910446778793548e-27
2.231578038680979 1.8218603652878338e-24 1.0791867379507279e-16 1.0791867378673685e-16 8.335962000966758e-27
2.299542257339062 1.828244192842398e-24 1.1159507552084628e-16 1.1159507550916443e-16 1.1681804037300424e-26
2.369576372248914 1.8367243225044026e-24 1.1552716628902174e-16 1.1552716627273736e-16 1.6284354647608724e-26
2.4417434235010123 1.848495972072293e-24 1.198085930941061e-16 1.1980859307149943e-16 2.2606695922272016e-26
2.5161083711144245 1.8656062066712843e-24 1.2460020407370227e-16 1.246002040424107e-16 3.1291602452100795e-26
2.5927381535095444 1.8914050008422847e-24 1.3017051546397994e-16 1.301705154207435e-16 4.3236475641799286e-26
2.6717017477616296 1.9298918320110533e-24 1.368643614896694e-16 1.3686436142997339e-16 5.969597392307365e-26
2.753070231689431 1.9870884000403722e-24 1.452124696740568e-16 1.4521246959162897e-16 8.242777155980613e-26
2.836916847834745 2.076637391269667e-24 1.5637837974868288e-16 1.563783796347755e-16 1.1390737675340451e-25
2.9233170693905177 2.228585623584659e-24 1.7293172758407324e-16 1.7293172742647194e-16 1.5760123555777057e-25
2.967498994190263 2.3576240439817306e-24 1.8570969017348592e-16 1.8570968998814608e-16 1.8533982366879186e-25
3.0123486681368425 2.5083250777542075e-24 2.005665442155581e-16 2.0056654399742445e-16 2.181336204821995e-25
3.0578761833420214 2.845523886518244e-24 2.309678677502531e-16 2.309678674931486e-16 2.571044867181265e-25
3.1040917844459814 3.280034925768577e-24 2.7026042508276443e-16 2.702604247795667e-16 3.031977340925846e-25
3.127460860933648 3.739693819023896e-24 3.1045407372187913e-16 3.104540733922332e-16 3.29646009413683e-25
3.1510058709225794 4.3521211572332696e-24 3.6401528699388854e-16 3.6401528663530196e-16 3.585866288428584e-25
3.162844764501044 4.922204002493948e-24 4.1324434490121996e-16 4.1324434452673655e-16 3.7448339176591773e-25
3.1747281389236908 5.58515778837941e-24 4.70664476881716e-16 4.706644764906088e-16 3.911070725099326e-25
3.1986289994194426 7.434312499140558e-24 6.312103566072734e-16 6.312103561800742e-16 4.271994638941425e-25
3.2227097969389145 1.1793236270515875e-23 1.0088431089435972e-15 1.0088431084726737e-15 4.709233599584401e-25
3.2348180950136065 1.592685900079911e-23 1.367569580984712e-15 1.367569580486875e-15 4.97836707322096e-25
3.240889293275058 1.901728357469331e-23 1.6359955257662977e-15 1.6359955252524678e-15 5.13828920421742e-25
3.2469718861334385 2.2592432737319793e-23 1.9472017864281083e-15 1.9472017858964685e-15 5.316393064347748e-25
3.2714166318528037 4.1662888271525565e-23 3.617884219883059e-15 3.617884219270984e-15 6.120742624743241e-25
3.2744851364798273 4.285505577953839e-23 3.724899169478498e-15 3.724899168857737e-15 6.207609735003809e-25
3.2775565192852394 4.408146573963917e-23 3.8350907864828514e-15 3.835090785853267e-15 6.295836751857732e-25
3.283707930232385 4.29020921895026e-23 3.739490434196938e-15 3.739490433556098e-15 6.408411358834591e-25
3.2898708863219004 3.916185500079358e-23 3.4198853136500922e-15 3.4198853130030646e-15 6.470271622353491e-25
3.29141343181113 3.8279812884860387e-23 3.3444266573263623e-15 3.344426656677781e-15 6.48580927815903e-25
3.292184975758714 3.784640850784194e-23 3.3073361241101118e-15 3.307336123460752e-15 6.49358903069099e-25
3.295272960557952 3.511071467325202e-23 3.071146243196421e-15 3.071146242545038e-15 6.513828152866538e-25
3.3076538914384823 2.5633400993093845e-23 2.2505865738944244e-15 2.2505865732354728e-15 6.589520846467698e-25
3.310756385682612 2.370451876364419e-23 2.0831848158200355e-15 2.083184815159174e-15 6.6086132752758285e-25
3.313861789986515 2.1924822107480656e-23 1.928589965766178e-15 1.9285899651034e-15 6.627774377816262e-25
3.3200813396944477 1.9428998326759295e-23 1.7122554912261927e-15 1.7122554905564518e-15 6.697407657447938e-25
3.345076488085796 1.4976698020170783e-23 1.3298160149652563e-15 1.3298160142483026e-15 7.169536404445433e-25
3.3482140837626964 1.5143658399110207e-23 1.3459020556554535e-15 1.3459020549303186e-15 7.251349676210419e-25
3.3513546224236106 1.5312464718752665e-23 1.3621813159746628e-15 1.3621813152412502e-15 7.334120804515931e-25
3.3576445397418455 1.6546125199078503e-23 1.4746890532398982e-15 1.4746890524867606e-15 7.531379973738169e-25
3.3702598118196083 2.1096376567779026e-23 1.887298886783464e-15 1.887298885983898e-15 7.995659175575203e-25
3.382922481734668 2.213277054868161e-23 1.987454802460643e-15 1.987454801621664e-15 8.389786662628669e-25
3.389271646505754 2.2669695023520205e-23 2.0394895720528867e-15 2.0394895711934527e-15 8.594340319055082e-25
3.395632727569191 2.324826060861212e-23 2.095465954312481e-15 2.0954659534311577e-15 8.81323612163262e-25
3.421196662673239 2.6026326982743118e-23 2.3635258388634774e-15 2.3635258378869646e-15 9.765121925186139e-25
3.4276182099114902 2.5466519469373916e-23 2.31702899281423e-15 2.317028991819886e-15 9.943440162628664e-25
3.4340518103208963 2.3013387149401105e-23 2.0977649256790194e-15 2.0977649246704174e-15 1.008602868159521e-24
3.4469541582030403 1.9519668020989195e-23 1.785983194010198e-15 1.785983192978218e-15 1.0319800050481702e-24
3.472904465399547 1.8540540734975394e-23 1.7091676567713283e-15 1.709167655657324e-15 1.114004374967047e-24
3.4990501388274233 1.704299295177324e-23 1.582943679417729e-15 1.5829436782179042e-15 1.1998247486371458e-24
3.5253949054701885 1.1713469299250873e-23 1.0961317291806124e-15 1.0961317279111155e-15 1.2694969436696738e-24
3.5519380250092896 6.70427453295322e-24 6.321011820068049e-16 6.321011806701652e-16 1.3366397086738182e-24
3.578680990867387 4.718046713673631e-24 4.48182253588721e-16 4.481822521568475e-16 1.4318737171091443e-24
3.605625307711299 3.914610065343593e-24 3.74661040459558e-16 3.746610389144065e-16 1.5451514494130449e-24
3.660119384959845 3.328384786956839e-24 3.233688727462168e-16 3.233688709368562e-16 1.8093606084851884e-24
3.715437065384467 2.9131639906844838e-24 2.8730572193869427e-16 2.873057198213157e-16 2.1173784874001933e-24
3.8285932144167436 2.7021039340980262e-24 2.746064337555967e-16 2.7460643085133503e-16 2.904261727348275e-24
3.94519561050918 2.6612332773599137e-24 2.786897010730384e-16 2.7868969710136803e-16 3.971670389998071e-24
4.06534921144712 2.6903043468678348e-24 2.9031448397639397e-16 2.9031447856616105e-16 5.4102328724199484e-24
4.189162171576248 2.7599380228873854e-24 3.0689932687214017e-16 3.0689931953458207e-16 7.337558152119563e-24
4.316745939156006 2.859204230150825e-24 3.276205234536753e-16 3.2762051354957326e-16 9.904101947606655e-24
4.448215356677963 2.9844547666088384e-24 3.523872927068645e-16 3.523872794072086e-16 1.3299655921465282e-23
4.58368876423945 3.1361680201325805e-24 3.815784820859003e-16 3.815784643182208e-16 1.776767949693412e-23
4.723288106065518 3.317876367727818e-24 4.1598155033189106e-16 4.159815267147692e-16 2.3617121948385254e-23
4.867139040275056 3.536618060353502e-24 4.569107188088041e-16 4.569106875767572e-16 3.123204680520139e-23
4.940699165968905 3.668670186717829e-24 4.811345167627746e-16 4.811344809060901e-16 3.585668441905556e-23
5.015371051989984 3.805494018798955e-24 5.066214174544276e-16 5.06621376345853e-16 4.1108574628034485e-23
5.091171501069577 3.972484748675778e-24 5.368456006379741e-16 5.368455535376975e-16 4.710027668595662e-23
5.129500256944802 4.0582218671537336e-24 5.52561059369503e-16 5.525610089808745e-16 5.0388628284676057e-23
5.168117569889187 4.147622974259e-24 5.689853563833053e-16 5.689853024918458e-16 5.389145935875921e-23
5.20702561229733 4.257327765515736e-24 5.884319345391496e-16 5.884318768824531e-16 5.765669645862306e-23
5.246226572918644 4.369853091330397e-24 6.085318486008848e-16 6.085317869385891e-16 6.166229590795326e-23
5.265937586045735 4.427201756347282e-24 6.18834410099112e-16 6.188343463396142e-16 6.375949805049231e-23
5.285722656980489 4.485290007654822e-24 6.293095662713399e-16 6.293095003493444e-16 6.592199548794985e-23
5.305582063971359 4.54412985057875e-24 6.399605492334238e-16 6.399604810818107e-16 6.815161310636898e-23
5.3255160863122235 4.607342284261851e-24 6.51300799888323e-16 6.513007294289801e-16 7.045934301932202e-23
5.365609099470188 4.764744790419404e-24 6.786222687843741e-16 6.786221934199712e-16 7.536440260159592e-23
5.406003951863644 4.92816009705462e-24 7.071810260046276e-16 7.071809454235508e-16 8.05810769635917e-23
5.446702915881641 5.097878953426676e-24 7.370426846009139e-16 7.370425984738424e-16 8.612707130678159e-23
5.487708281020852 5.281275267813482e-24 7.693062380676109e-16 7.693061460225018e-16 9.204510917165213e-23
5.529022354014368 5.536092417013705e-24 8.124957730714794e-16 8.124956745175658e-16 9.855391369964095e-23
5.570647458961463 5.80594974050953e-24 8.585159731806245e-16 8.585158676976831e-16 1.0548294154297706e-22
5.612585937458331 6.091929601154285e-24 9.075850068246317e-16 9.07584893968178e-16 1.1285645394421319e-22
5.654840148729818 6.406291375132989e-24 9.616044257144637e-16 9.616043049666759e-16 1.2074778787774642e-22
5.67608639626678 6.620329058188062e-24 9.97465782901597e-16 9.974656578088351e-16 1.2509276240891744e-22
5.686739436050992 6.730656606295387e-24 1.0159917847285518e-15 1.0159916574097423e-15 1.2731880966617004e-22
5.6974124697621304 6.843260326846663e-24 1.0349280460533234e-15 1.0349279164720565e-15 1.295812672265186e-22
5.718818669136295 7.075515505638991e-24 1.0740731160068355e-15 1.0740729817892702e-15 1.3421756532717785e-22
5.740305295436557 7.331522584325499e-24 1.1171168448776032e-15 1.1171167057993897e-15 1.3907821368176989e-22
5.7835210386641895 7.995569231206257e-24 1.2274707187710814e-15 1.2274705688925968e-15 1.498784848860108e-22
5.827062130521658 8.760538038752345e-24 1.3550329672047602e-15 1.355032805595316e-15 1.6160944439008744e-22
5.8489554468988025 9.297097311207042e-24 1.443427991208113e-15 1.4434278227067925e-15 1.6850132035609826e-22
5.870931020387893 9.872892537287668e-24 1.5385826143241903e-15 1.5385824386562827e-15 1.7566790844974386e-22
5.892989160043636 1.0491081678018394e-23 1.6410633388536296e-15 1.641063155734361e-15 1.8311926897586731e-22
5.915130176081913 1.1194129125245347e-23 1.757616220878266e-15 1.7576160297497343e-15 1.9112853151952103e-22
5.95966208400165 1.315968870806458e-23 2.0817888826107344e-15 2.0817886719779205e-15 2.1063281464280183e-22
6.004529249263818 1.599260852512313e-23 2.548987491309811e-15 2.5489872559843352e-15 2.353254758463134e-22
6.027089341400364 1.7961772126315018e-23 2.8735995343831274e-15 2.873599283318787e-15 2.5106434153811823e-22
6.049734195844842 2.0288799753203785e-23 3.258082540046535e-15 3.258082271350627e-15 2.6869590736247425e-22
6.095279466722835 2.7010461812769383e-23 4.370137135003373e-15 4.370136818474047e-15 3.1652932578856354e-22
6.141167624020661 3.735480333768622e-23 6.089292543280739e-15 6.089292157208287e-15 3.8607245341226698e-22
6.164241091010745 4.3960704557050383e-23 7.19306017427376e-15 7.193059742440643e-15 4.31833115264277e-22
6.187401249150058 5.1485898400803513e-23 8.456020147448831e-15 8.456019665063321e-15 4.823855085851564e-22
6.1990139391386085 5.516036245711598e-23 9.07651557469635e-15 9.076515066273281e-15 5.08423069767525e-22
6.204828454712694 5.709594071205958e-23 9.403822971488239e-15 9.403822449520646e-15 5.21967589315215e-22
6.210648424152782 5.850897018981992e-23 9.645590772059854e-15 9.645590238830541e-15 5.332293094130165e-22
6.233982942956859 6.330987581807805e-23 1.0476265696380326e-14 1.0476265123128624e-14 5.732517000198025e-22
6.239830258556775 6.392373011644075e-23 1.0587765602272412e-14 1.0587765023479952e-14 5.787924609679371e-22
6.245683058788269 6.397721537382876e-23 1.0606563791934383e-14 1.0606563207551706e-14 5.843826783752215e-22
6.257405133728602 6.384591435148904e-23 1.0604661689140795e-14 1.0604661094977078e-14 5.941637142209797e-22
6.269149208991335 6.29024539597446e-23 1.0467564074197165e-14 1.0467563476870497e-14 5.973266668559378e-22
6.280915325867298 6.053565225083558e-23 1.0092612470969363e-14 1.0092611878710288e-14 5.922590742277162e-22
6.304513850009849 5.469871176987245e-23 9.153730761988489e-15 9.153730187532173e-15 5.74456312486653e-22
6.32820103803542 4.7463428279765697e-23 7.972762089377561e-15 7.972761542317212e-15 5.470603464397551e-22
6.3519772230701035 4.0828192982985897e-23 6.883962946967738e-15 6.8839624258335115e-15 5.211342259607268e-22
6.375842739491607 3.5246220972547515e-23 5.965125556723699e-15 5.965125058364762e-15 4.983589383315429e-22
6.399797922933955 3.0772657677022764e-23 5.227580145460013e-15 5.227579662469919e-15 4.829900941472123e-22
6.42384311029221 2.705349103509872e-23 4.6130448170799056e-15 4.613044347088074e-15 4.699918321197708e-22
6.447978639727206 2.4343548602491678e-23 4.166552990165892e-15 4.166552526246492e-15 4.639194005366589e-22
6.472204850670314 2.2086254474347127e-23 3.794405659275788e-15 3.794405199697242e-15 4.595785473104445e-22
6.496522083828205 2.06196123356312e-23 3.5557469657136564e-15 3.555746504434134e-15 4.612795226279808e-22
