Dust emission spectrum from A.P. Jones, M. Kohler, N. Ysard, M. Bocchio, and L. Verstraete (2017), A&A, 602A, 46J 
inside the DustPedia framework.

lambda    nu*dP/dnu     j_nu    j_nu(carb.) j_nu(sil)
 (um)   (erg s-1 H-1) (Jy cm2 sr-1 H-1)
0.9927057738263894 4.252253904176341e-24 1.1204930560704712e-16 1.1204930454483908e-16 1.062208057873465e-24
1.0001793341362166 4.323753989933357e-24 1.147911179985041e-16 1.147911167197836e-16 1.2787204804462564e-24
1.0077091589558085 4.395433573442945e-24 1.1757266435077533e-16 1.1757266281343889e-16 1.5373364346532298e-24
1.0114953028030835 4.431335738591248e-24 1.1897835466280642e-16 1.1897835297799852e-16 1.6848079012895315e-24
1.0152956718711033 4.467276897179904e-24 1.2039399901427857e-16 1.2039399716846327e-16 1.845815318254638e-24
1.0229392996569957 4.539233617328516e-24 1.2325422965892328e-16 1.232542274456325e-16 2.213290784398562e-24
1.0267826658714554 4.575166155697344e-24 1.2469666321737297e-16 1.2469666079487414e-16 2.4224988291300897e-24
1.0306404723013447 4.6111283506249514e-24 1.261490071627188e-16 1.2614900451211393e-16 2.650604830992545e-24
1.03451277320114 4.6471183919742235e-24 1.276112689445981e-16 1.276112660453679e-16 2.8992302143069555e-24
1.0383996230291617 4.683134497808825e-24 1.2908345634397758e-16 1.2908345317384995e-16 3.1701276111117125e-24
1.0403485208654093 4.7011517759622666e-24 1.2982327468008336e-16 1.2982327136556904e-16 3.3145143182208486e-24
1.0423010764483396 4.7191749151976444e-24 1.305655775044938e-16 1.30565574039303e-16 3.465190788577562e-24
1.0462171883269815 4.755237921012621e-24 1.3205764096423085e-16 1.3205763717776553e-16 3.786465270788468e-24
1.0471985131304309 4.764257002880651e-24 1.3243221135413463e-16 1.3243220748300016e-16 3.871134478671787e-24
1.048180758391296 4.773277364446447e-24 1.3280740384023265e-16 1.3280739988261746e-16 3.9576152532964444e-24
1.0501480137395462 4.791321822719599e-24 1.33559655687928e-16 1.3355965155176832e-16 4.136159699071765e-24
1.0521189612883777 4.80937108917418e-24 1.343143976999283e-16 1.3431439337752612e-16 4.322402167832693e-24
1.0531058218030118 4.8183850128154904e-24 1.346923549118458e-16 1.346923504933312e-16 4.418514601703017e-24
1.0540936079674168 4.8273592770482865e-24 1.350697933102527e-16 1.3506978879356041e-16 4.516692337352655e-24
1.058054026499678 4.863265410098026e-24 1.3658570508457324e-16 1.3658570015388137e-16 4.930691895628055e-24
1.0590464539527713 4.87224408875949e-24 1.369662233330396e-16 1.369662182933088e-16 5.039730803383549e-24
1.06003981227728 4.881223576592221e-24 1.3734735801501466e-16 1.373473528639397e-16 5.151074970355581e-24
1.0620293250338977 4.899184882865897e-24 1.381114773206148e-16 1.3811147193974955e-16 5.380865242965747e-24
1.0660195594769086 4.935116147100992e-24 1.396471203168481e-16 1.3964711444664135e-16 5.870206742237982e-24
1.070024785945596 4.971057689455739e-24 1.4119264497739586e-16 1.4119263857545203e-16 6.4019438465040455e-24
1.0740450607676866 5.007008032223144e-24 1.4274806284679605e-16 1.42748055867242e-16 6.979554003828628e-24
1.07808044048254 5.0429657340651246e-24 1.4431338614515248e-16 1.4431337853836978e-16 7.606782690168408e-24
1.0861967418109137 5.1148404208546674e-24 1.4747215186809963e-16 1.4747214284156422e-16 9.026535413815836e-24
1.0902777775684922 5.150624603887121e-24 1.4906184465523504e-16 1.4906183482716224e-16 9.828072791989119e-24
1.0943741465085532 5.186408480525508e-24 1.506613922878758e-16 1.5066138159058026e-16 1.0697295509622268e-23
1.1026131145906286 5.25797040809597e-24 1.5389011504868904e-16 1.538901023878856e-16 1.2660803422726546e-23
1.1109141095355224 5.329516803762446e-24 1.5715845533909145e-16 1.571584403738094e-16 1.4965282032499434e-23
1.1192775983109025 5.400980296292923e-24 1.6046482161230953e-16 1.6046480394595019e-16 1.7666359362810164e-23
1.1277040513999907 5.472083287532671e-24 1.6380127301794565e-16 1.6380125218982858e-16 2.0828117084242064e-23
1.1361939428280308 5.543137975819866e-24 1.6717740960406342e-16 1.6717738507979236e-16 2.4524271029465137e-23
1.1447477501889525 5.614137881499078e-24 1.7059343194448854e-16 1.7059340310498042e-16 2.8839508145630067e-23
1.1533659546722406 5.6851060025541794e-24 1.740504407993218e-16 1.7405040692828594e-16 3.3871035839183404e-23
1.1707974979042381 5.827163218112941e-24 1.8109580970416268e-16 1.8109576315924112e-16 4.6544921616301414e-23
1.1884924949847024 5.969025572937726e-24 1.8830823648408478e-16 1.883081728422365e-16 6.364184831737807e-23
1.2064549276569216 6.111683732236388e-24 1.9572279404018475e-16 1.9572270744956224e-16 8.65906225019631e-23
1.2246888378427687 6.254055846095429e-24 2.0330916075155764e-16 2.0330904351253398e-16 1.172390237043941e-22
1.2431983285522175 6.39597059936001e-24 2.1106504240467432e-16 2.1106488443638534e-16 1.579682890094566e-22
1.2619875648066055 6.537569570394092e-24 2.1899834462704102e-16 2.1899813279557008e-16 2.118314710412483e-22
1.3004222497298317 6.818597605938379e-24 2.353687962414692e-16 2.353684206722279e-16 3.7556924116195036e-22
1.3400274889804893 7.097533371670146e-24 2.5245884077123793e-16 2.5245818707625725e-16 6.536949806904898e-22
1.3808389325824078 7.374961275526968e-24 2.703162790898867e-16 2.7031516158709117e-16 1.1175027955696937e-21
1.4228933163050095 7.653020601278015e-24 2.89051118903604e-16 2.890492416424355e-16 1.8772611685199938e-21
1.466228494730424 7.936887174613913e-24 3.08902408939287e-16 3.088993085226669e-16 3.1004166200881815e-21
1.5108834753276823 8.225220882937918e-24 3.29873914279854e-16 3.2986887781646287e-16 5.03646339124567e-21
1.5568984535646726 8.51711839207035e-24 3.5198358028566685e-16 3.5197552469382215e-16 8.055591844774326e-21
1.6043148490894465 8.814168579109357e-24 3.7535342998825923e-16 3.7534072010102312e-16 1.2709887236182042e-20
1.6531753430134553 9.118068804946767e-24 4.0012088185114393e-16 4.0010112358790104e-16 1.97582632428637e-20
1.7035239163302658 9.430995998122405e-24 4.264569816531862e-16 4.264267110654993e-16 3.0270587686985656e-20
1.755405889504358 9.760147292740836e-24 4.5478209286298585e-16 4.547363656637795e-16 4.572719920629816e-20
1.8088679632656115 1.0104957856850667e-23 4.851888442277196e-16 4.851207103520569e-16 6.813387566272805e-20
1.8639582606462262 1.046479218069949e-23 5.177692140545055e-16 5.176690393510657e-16 1.0017470343974054e-19
1.9207263702978936 1.08406026643016e-23 5.526985926859485e-16 5.525532068178976e-16 1.4538586805086836e-19
1.979223391128241 1.1234030863664633e-23 5.902008908629523e-16 5.899925271687711e-16 2.0836369418131807e-19
2.039501978296691 1.1646479326208313e-23 6.305045486710946e-16 6.302095559316284e-16 2.9499273946644414e-19
2.1016163906111602 1.2083167162745361e-23 6.740679274352343e-16 6.73655195464981e-16 4.127319702534118e-19
2.1656225393682647 1.254622046722158e-23 7.21215597917518e-16 7.20644723554081e-16 5.708743634372205e-19
2.231578038680979 1.3033471208195085e-23 7.720432117268541e-16 7.712623710271744e-16 7.808406996796128e-19
2.299542257339062 1.3544599808467457e-23 8.267553341305016e-16 8.256988444617816e-16 1.0564896687201888e-18
2.369576372248914 1.4080897414245733e-23 8.856670307801859e-16 8.8425257979799555e-16 1.414450982190757e-18
2.4417434235010123 1.4644035871345917e-23 9.491399286083814e-16 9.472655404475393e-16 1.8743881608415744e-18
2.5161083711144245 1.5238844003446592e-23 1.0177727035249497e-15 1.0153133630930612e-15 2.4593404318886743e-18
2.5927381535095444 1.5874617436538775e-23 1.0925249397075292e-15 1.089328991406579e-15 3.195948300950272e-18
2.6717017477616296 1.6560389071294684e-23 1.174432182502892e-15 1.1703177249239448e-15 4.1144575789473735e-18
2.753070231689431 1.731071375045942e-23 1.2650325448398742e-15 1.2597837307782147e-15 5.248814061659564e-18
2.836916847834745 1.816574299014391e-23 1.3679467911308588e-15 1.3613099165981372e-15 6.6368745327214256e-18
2.9233170693905177 1.9217034917182636e-23 1.491185715326683e-15 1.482867023240252e-15 8.31869208643056e-18
2.967498994190263 1.9908681577973483e-23 1.5682038436305886e-15 1.558937791304372e-15 9.266052326216397e-18
3.0123486681368425 2.0663851587380153e-23 1.6522887483047887e-15 1.6419810959103407e-15 1.0307652394448405e-17
3.0578761833420214 2.2022017631714295e-23 1.7875015845251516e-15 1.7760470503806864e-15 1.1454534144465346e-17
3.1040917844459814 2.366282590131508e-23 1.949712588883595e-15 1.937008485215156e-15 1.2704103668438803e-17
3.127460860933648 2.526051404402268e-23 2.097024480823003e-15 2.0836507297092623e-15 1.3373751113741547e-17
3.1510058709225794 2.7326762224456543e-23 2.285634713366536e-15 2.2715625129772207e-15 1.4072200389315822e-17
3.162844764501044 2.921890974670881e-23 2.453077769813828e-15 2.438643952683095e-15 1.443381713073312e-17
3.1747281389236908 3.1381381829612923e-23 2.644527195523665e-15 2.6297242915928633e-15 1.4802903930801354e-17
3.1986289994194426 3.7303356404935554e-23 3.1672417458547306e-15 3.1516759545754606e-15 1.556579127927095e-17
3.2227097969389145 5.111982097584156e-23 4.3730048257272964e-15 4.356630197032811e-15 1.6374628694484176e-17
3.2348180950136065 6.413894073150397e-23 5.5073297438361954e-15 5.490523358068102e-15 1.6806385768093174e-17
3.240889293275058 7.386969702088621e-23 6.354771612950025e-15 6.33773748455649e-15 1.7034128393537468e-17
3.2469718861334385 8.514205265537839e-23 7.338242807152287e-15 7.320973029361637e-15 1.7269777790647768e-17
3.2714166318528037 1.4466026799978734e-22 1.2561877549861973e-14 1.2543633573594058e-14 1.8243976267917703e-17
3.2744851364798273 1.483845109896054e-22 1.2897366056225158e-14 1.2879007163296321e-14 1.8358892928839404e-17
3.2775565192852394 1.5221118125138116e-22 1.3242384050127581e-14 1.322390965601793e-14 1.8474394109650317e-17
3.283707930232385 1.4854964126773096e-22 1.2948085610146255e-14 1.2929404439063718e-14 1.868117108253835e-17
3.2898708863219004 1.3689518376517358e-22 1.195463872838661e-14 1.1935769172614918e-14 1.8869555771691445e-17
3.29141343181113 1.341427145378284e-22 1.1719766544727983e-14 1.1700849679220754e-14 1.891686550723014e-17
3.292184975758714 1.3278964110621836e-22 1.160427090055885e-14 1.1585330348105116e-14 1.8940552453732776e-17
3.295272960557952 1.243128096615881e-22 1.0873684057027387e-14 1.0854651327963241e-14 1.903272906414439e-17
3.3076538914384823 9.479689669203428e-23 8.323071253768845e-15 8.303668194525413e-15 1.9403059243432172e-17
3.310756385682612 8.874787285146985e-23 7.79928177424375e-15 7.779785348744664e-15 1.9496425499087722e-17
3.313861789986515 8.315037325180545e-23 7.314220143589178e-15 7.294630037659839e-15 1.959010592933954e-17
3.3200813396944477 7.532126432124288e-23 6.637977227190352e-15 6.618185719869781e-15 1.9791507320568228e-17
3.345076488085796 6.154293840921565e-23 5.464541315740713e-15 5.443852534942026e-15 2.0688780798687423e-17
3.3482140837626964 6.208806381767696e-23 5.518115274495917e-15 5.4973049544502976e-15 2.081032004561941e-17
3.3513546224236106 6.263854978024162e-23 5.5722617970116324e-15 5.551329378697508e-15 2.0932418314124115e-17
3.3576445397418455 6.65546852196553e-23 5.931749249710684e-15 5.910561589910758e-15 2.118765979992855e-17
3.3702598118196083 8.083240651955966e-23 7.231332373607418e-15 7.209609312923494e-15 2.17230606839241e-17
3.382922481734668 8.419308722085971e-23 7.560280587694109e-15 7.538036667892192e-15 2.224391980191466e-17
3.389271646505754 8.592889758182748e-23 7.730632916513061e-15 7.70812490220559e-15 2.250801430747051e-17
3.395632727569191 8.782515265005752e-23 7.9160596316749e-15 7.89327944935838e-15 2.278018231652087e-17
3.421196662673239 9.699531372635383e-23 8.80842426950651e-15 8.784516931625281e-15 2.3907337881228004e-17
3.4276182099114902 9.528593169394183e-23 8.669432295516087e-15 8.6452729124166e-15 2.415938309948864e-17
3.4340518103208963 8.759548368687134e-23 7.984688743698878e-15 7.960290726130178e-15 2.439801756870159e-17
3.4469541582030403 7.658878156796489e-23 7.007612864266911e-15 6.982756322787828e-15 2.485654147908126e-17
3.472904465399547 7.353830344507542e-23 6.779159873425625e-15 6.753247820584458e-15 2.5912052841166773e-17
3.4990501388274233 6.889437451557827e-23 6.398871078305863e-15 6.371877784365879e-15 2.699329393998567e-17
3.5253949054701885 5.235260050902322e-23 4.8990905304825e-15 4.871045021873754e-15 2.80455086087454e-17
3.5519380250092896 3.665935506799469e-23 3.456365272064596e-15 3.4272607430591476e-15 2.910452900544738e-17
3.578680990867387 3.050252700020018e-23 2.8975319916779852e-15 2.867266527803101e-15 3.0265463874884564e-17
3.605625307711299 2.8094007776684095e-23 2.6888323507561176e-15 2.6573433331436976e-15 3.148901761241982e-17
3.660119384959845 2.649614036650068e-23 2.5742297212801083e-15 2.5401662528585774e-15 3.406346842153157e-17
3.715437065384467 2.539837884471861e-23 2.5048708529243475e-15 2.468087815344984e-15 3.678303757936331e-17
3.8285932144167436 2.5154660831567426e-23 2.5563900840824326e-15 2.5137425553664125e-15 4.264752871602067e-17
3.94519561050918 2.5409186545436124e-23 2.660901117951475e-15 2.6118293315815078e-15 4.907178636996705e-17
4.06534921144712 2.58444967273798e-23 2.7889155885928725e-15 2.7328602777015086e-15 5.605531089136405e-17
4.189162171576248 2.636739512405987e-23 2.931999105719016e-15 2.868381334730063e-15 6.36177709889535e-17
4.316745939156006 2.6940693182755046e-23 3.0869862004483227e-15 3.0152474819769433e-15 7.173871847137965e-17
4.448215356677963 2.7550069135222534e-23 3.252954068886528e-15 3.1726396166922087e-15 8.031445219431998e-17
4.58368876423945 2.8194765665602924e-23 3.4304654012107464e-15 3.3411034624669834e-15 8.936193874376305e-17
4.723288106065518 2.888393183306952e-23 3.6213473354431474e-15 3.5224036536237473e-15 9.894368181940016e-17
4.867139040275056 2.963441083103822e-23 3.828595489593713e-15 3.7197747877369585e-15 1.0882070185675453e-16
4.940699165968905 3.0060429232222185e-23 3.942330423892971e-15 3.828429407572669e-15 1.1390101632030136e-16
5.015371051989984 3.0483891899352914e-23 4.0582884764201786e-15 3.939226884675694e-15 1.1906159174448416e-16
5.091171501069577 3.0989211887868074e-23 4.18791338967021e-15 4.063502321232248e-15 1.2441106843796132e-16
5.129500256944802 3.124100284343262e-23 4.2537254472585086e-15 4.12661388092915e-15 1.271115663293595e-16
5.168117569889187 3.149960420659057e-23 4.3212253468197714e-15 4.191371354835528e-15 1.2985399198424245e-16
5.20702561229733 3.1821552905061e-23 4.398256128559225e-15 4.265415803264225e-15 1.3284032529500067e-16
5.246226572918644 3.2145785516136636e-23 4.47651989117708e-15 4.340667891816927e-15 1.358519993601533e-16
5.265937586045735 3.230880912173567e-23 4.516126423465787e-15 4.378759405276986e-15 1.373670181888011e-16
5.285722656980489 3.24724659533592e-23 4.55605622601739e-15 4.417168242207671e-15 1.3888798380971832e-16
5.305582063971359 3.263677808182551e-23 4.596314610990772e-15 4.455899847523634e-15 1.4041476346713918e-16
5.3255160863122235 3.281389866406257e-23 4.63862181899566e-15 4.496663036595505e-15 1.4195878240015347e-16
5.365609099470188 3.326498011261725e-23 4.737789171936815e-15 4.592635934084823e-15 1.4515323785199327e-16
5.406003951863644 3.3725550503808626e-23 4.839548419319531e-15 4.691174272809432e-15 1.4837414651009728e-16
5.446702915881641 3.4196219683406357e-23 4.9440313881362054e-15 4.7924109272497776e-15 1.5162046088642865e-16
5.487708281020852 3.470109478086627e-23 5.054795921241242e-15 4.899891504783342e-15 1.549044164579007e-16
5.529022354014368 3.54278463343665e-23 5.199511357006204e-15 5.0411826410039706e-15 1.5832871600223288e-16
5.570647458961463 3.6185483249836945e-23 5.350686236653268e-15 5.188905154968899e-15 1.6178108168436857e-16
5.612585937458331 3.697644630990799e-23 5.508807631357023e-15 5.3435471756051876e-15 1.6526045575183351e-16
5.654840148729818 3.783927806488001e-23 5.679794302561439e-15 5.5110120262497505e-15 1.6878227631168812e-16
5.67608639626678 3.8445115981133586e-23 5.792414149480301e-15 5.621789617803582e-15 1.7062453167671752e-16
5.686739436050992 3.875557493616398e-23 5.850149257465522e-15 5.678600666833189e-15 1.715485906323337e-16
5.6974124697621304 3.9071224939648263e-23 5.908865738318727e-15 5.736391156358072e-15 1.7247458196065583e-16
5.718818669136295 3.971861019465502e-23 6.029340389577917e-15 5.855008093863063e-15 1.7433229571485584e-16
5.740305295436557 4.04334313308385e-23 6.1609122411285694e-15 5.9847011942379345e-15 1.7621104689063361e-16
5.7835210386641895 4.2314563577619996e-23 6.496083801812056e-15 6.3159875468414474e-15 1.8009625497060807e-16
5.827062130521658 4.4458388286066485e-23 6.876584694904154e-15 6.6925362953791024e-15 1.8404839952505327e-16
5.8489554468988025 4.599332679653524e-23 7.14072931417795e-15 6.9545480060717004e-15 1.861813081062503e-16
5.870931020387893 4.7625533166853015e-23 7.421919873197654e-15 7.233594095015094e-15 1.8832577818256053e-16
5.892989160043636 4.936267831750073e-23 7.721537605050507e-15 7.531055908878494e-15 1.9048169617201317e-16
5.915130176081913 5.133654369350911e-23 8.060469993690539e-15 7.867753797502657e-15 1.9271619618788243e-16
5.95966208400165 5.691093659664453e-23 9.002990703971108e-15 8.805188686777231e-15 1.9780201719387896e-16
6.004529249263818 6.494100941322394e-23 1.0350645450196559e-14 1.0147123119511332e-14 2.0352233068522734e-16
6.027089341400364 7.053793435483327e-23 1.1284954173393209e-14 1.1078129522961913e-14 2.0682465043129587e-16
6.049734195844842 7.711532303779267e-23 1.2383585555365653e-14 1.2173263318767906e-14 2.1032223659774722e-16
6.095279466722835 9.613419371740641e-23 1.5553958789013784e-14 1.5335049140431948e-14 2.1890964858184148e-16
6.141167624020661 1.2527230880478566e-22 2.0420927637837565e-14 2.0190884482731042e-14 2.300431551065276e-16
6.164241091010745 1.438769978474106e-22 2.3541840687908223e-14 2.330481552327635e-14 2.370251646318613e-16
6.187401249150058 1.6489833326021557e-22 2.7082826009448697e-14 2.6838628661562872e-14 2.441973478858141e-16
6.1990139391386085 1.7513518463680093e-22 2.8818107064997636e-14 2.8570259738004806e-14 2.478473269928369e-16
6.204828454712694 1.8051288520410912e-22 2.9730856438511716e-14 2.948116525697749e-14 2.4969118153423896e-16
6.210648424152782 1.8441874074329945e-22 3.0402649339707044e-14 3.015138585267518e-14 2.51263487031856e-16
6.233982942956859 1.975808179122399e-22 3.269488556421566e-14 3.243813450123814e-14 2.5675106297751623e-16
6.239830258556775 1.9920195825041444e-22 3.2994063982611625e-14 3.273654709021794e-14 2.5751689239368715e-16
6.245683058788269 1.9924402619276853e-22 3.3031985866017114e-14 3.277370181717745e-14 2.5828404883966177e-16
6.257405133728602 1.9865633898175992e-22 3.2996367719114724e-14 3.2736738319738724e-14 2.596293993760042e-16
6.269149208991335 1.9578521141156983e-22 3.2580513417527184e-14 3.2320377259105924e-14 2.601361584212673e-16
6.280915325867298 1.8891878185387241e-22 3.149687800237446e-14 3.1237272382818004e-14 2.5960561955645363e-16
6.304513850009849 1.7212335077688894e-22 2.880453231680592e-14 2.854692676912473e-14 2.576055476811788e-16
6.32820103803542 1.5151220147625284e-22 2.5450558035711416e-14 2.519595165599802e-14 2.546063797133862e-16
6.3519772230701035 1.3266312186222496e-22 2.236807334846279e-14 2.211614863794367e-14 2.519247105191139e-16
6.375842739491607 1.1677120827567705e-22 1.9762541899662887e-14 1.9512973661984968e-14 2.495682376779189e-16
6.399797922933955 1.0409975144465986e-22 1.768419872963265e-14 1.743580042932975e-14 2.4839830030289736e-16
6.42384311029221 9.3527419499491e-23 1.5947892906584015e-14 1.5700428375695527e-14 2.474645308884876e-16
6.447978639727206 8.582869361510592e-23 1.4690126154715535e-14 1.4442669016859685e-14 2.4745713785584333e-16
6.472204850670314 7.938930556858889e-23 1.3639036473355359e-14 1.3391402524487547e-14 2.4763394886781526e-16
6.496522083828205 7.518144075274344e-23 1.296465595391443e-14 1.2716093588192962e-14 2.4856236572146517e-16
6.520930681187647 7.161758773072112e-23 1.2396489171644487e-14 1.2146883614539492e-14 2.4960555710499416e-16
