Dust emission spectrum from A.P. Jones, M. Kohler, N. Ysard, M. Bocchio, and L. Verstraete (2017), A&A, 602A, 46J 
inside the DustPedia framework.

lambda    nu*dP/dnu     j_nu    j_nu(carb.) j_nu(sil)
 (um)   (erg s-1 H-1) (Jy cm2 sr-1 H-1)
0.9927057738263894 1.1073403462144542e-25 2.9179047079511192e-18 2.917904706543873e-18 1.4072473788357304e-27
1.0001793341362166 1.1256082258653124e-25 2.9883713776551715e-18 2.9883713759604487e-18 1.6947226775271328e-27
1.0077091589558085 1.1438546537873204e-25 3.059676298792657e-18 3.0596762967543873e-18 2.038269912512938e-27
1.0114953028030835 1.1529676584830954e-25 3.0956398494273673e-18 3.095639847193123e-18 2.23424485134247e-27
1.0152956718711033 1.162072709989003e-25 3.1318090174633255e-18 3.131809015015062e-18 2.4482624792095735e-27
1.0229392996569957 1.1802465805405529e-25 3.2047344410027994e-18 3.2047344380658818e-18 2.936918791691876e-27
1.0267826658714554 1.1892933919008909e-25 3.2414323875830603e-18 3.241432384367838e-18 3.215223606987573e-27
1.0306404723013447 1.1983283887806206e-25 3.278328534903779e-18 3.2783285313850303e-18 3.518749245503237e-27
1.03451277320114 1.2073507345786992e-25 3.3154214355043933e-18 3.3154214316547255e-18 3.8496682783619226e-27
1.0383996230291617 1.2163595977731724e-25 3.3527096245302187e-18 3.3527096203198885e-18 4.2103299398689476e-27
1.0403485208654093 1.220858714973897e-25 3.3714264897815964e-18 3.3714264853789952e-18 4.402599988252947e-27
1.0423010764483396 1.2253541520900878e-25 3.39019162014831e-18 3.3901916155450363e-18 4.603273573585446e-27
1.0462171883269815 1.234333576668974e-25 3.427865923964852e-18 3.427865918933609e-18 5.0312430258148005e-27
1.0471985131304309 1.2365759731261322e-25 3.4373143709390075e-18 3.437314365794957e-18 5.144050425022139e-27
1.048180758391296 1.2388173603079512e-25 3.4467747187741494e-18 3.4467747135148696e-18 5.259279573132912e-27
1.0501480137395462 1.2432970562248552e-25 3.4657310214439356e-18 3.4657310159467352e-18 5.497202047358486e-27
1.0521189612883777 1.2477725634062496e-25 3.484734640203937e-18 3.484734634458521e-18 5.745417980041163e-27
1.0531058218030118 1.2500052962223514e-25 3.4942445768169886e-18 3.4942445709434615e-18 5.8735260522433846e-27
1.0540936079674168 1.2522257440519416e-25 3.503734914263382e-18 3.503734908258986e-18 6.004395953866642e-27
1.058054026499678 1.2610959750242819e-25 3.541811281168326e-18 3.541811274611973e-18 6.556353312726834e-27
1.0590464539527713 1.263310580774592e-25 3.551359004048167e-18 3.551358997346414e-18 6.701753420834178e-27
1.06003981227728 1.2655239810514508e-25 3.5609181299457795e-18 3.560918123095542e-18 6.85023829251419e-27
1.0620293250338977 1.2699471160311694e-25 3.580070491471591e-18 3.5800704843148796e-18 7.156712499554763e-27
1.0660195594769086 1.2787783810306108e-25 3.6185109551933605e-18 3.6185109473838625e-18 7.809497619141163e-27
1.070024785945596 1.287588990468942e-25 3.657131068780441e-18 3.657131060261393e-18 8.519047682521231e-27
1.0740450607676866 1.2963781714196441e-25 3.6959292155331345e-18 3.695929206243095e-18 9.29003959297271e-27
1.07808044048254 1.305145157718645e-25 3.734903766032498e-18 3.734903755904986e-18 1.0127512678256595e-26
1.0861967418109137 1.3225941031287517e-25 3.8133310599720524e-18 3.813331047948021e-18 1.2024032114431346e-26
1.0902777775684922 1.3312395162898579e-25 3.8526787183509886e-18 3.852678705255771e-18 1.3095217550148959e-26
1.0943741465085532 1.3398591293152965e-25 3.892193271128729e-18 3.892193256871512e-18 1.4257216736802013e-26
1.1026131145906286 1.3570180582773086e-25 3.971716249865056e-18 3.971716232981729e-18 1.6883326202783957e-26
1.1109141095355224 1.3740651735494576e-25 4.051886280906805e-18 4.0518862609393955e-18 1.9967409807586916e-26
1.1192775983109025 1.3909791634280278e-25 4.1326427996620975e-18 4.132642776077529e-18 2.358456668958037e-26
1.1277040513999907 1.4076823531755426e-25 4.2137546038525025e-18 4.213754576031122e-18 2.782138039576264e-26
1.1361939428280308 1.424255103141094e-25 4.295460076894067e-18 4.295460044116535e-18 3.2777530887020605e-26
1.1447477501889525 1.4406922574980593e-25 4.377744931993386e-18 4.3777448934257574e-18 3.8567630057879615e-26
1.1533659546722406 1.456997582336715e-25 4.4606216899969706e-18 4.4606216446736236e-18 4.532334502370081e-26
1.1707974979042381 1.4892654982366842e-25 4.628319667266584e-18 4.628319604908562e-18 6.235802367504753e-26
1.1884924949847024 1.5209416672176777e-25 4.798200973496025e-18 4.798200888126729e-18 8.53692954205684e-26
1.2064549276569216 1.5522725930224772e-25 4.971054497075385e-18 4.9710543807752154e-18 1.1630016960739128e-25
1.2246888378427687 1.5829248929965473e-25 5.145830792809435e-18 5.145830635141544e-18 1.5766789145862114e-25
1.2431983285522175 1.6128303044090353e-25 5.322289890227122e-18 5.322289677504752e-18 2.127223702200824e-25
1.2619875648066055 1.6419819760268172e-25 5.500382531847141e-18 5.500382246209159e-18 2.856379837657667e-25
1.3004222497298317 1.697562773394897e-25 5.8597578213196245e-18 5.859757313500715e-18 5.078189127154423e-25
1.3400274889804893 1.7494836422846019e-25 6.222902931916504e-18 6.222902045528351e-18 8.863881527707402e-25
1.3808389325824078 1.7975894508432198e-25 6.588749059546099e-18 6.588747539830415e-18 1.5197156822458132e-24
1.4228933163050095 1.8421374558087166e-25 6.957669664273843e-18 6.957667103699746e-18 2.5605740971384338e-24
1.466228494730424 1.8841799043870284e-25 7.333198753306722e-18 7.333194511361343e-18 4.2419453778284116e-24
1.5108834753276823 1.9229910048220063e-25 7.712188875090817e-18 7.712181962572916e-18 6.912517900097158e-24
1.5568984535646726 1.957990883725567e-25 8.091711418055035e-18 8.091700326206403e-18 1.1091848629478546e-23
1.6043148490894465 1.9892779454614943e-25 8.471386646707625e-18 8.471369089011717e-18 1.755769590784432e-23
1.6531753430134553 2.0169785391594526e-25 8.850944745289447e-18 8.850917359507661e-18 2.738578179000771e-23
1.7035239163302658 2.041408931069522e-25 9.230977207890725e-18 9.230935108037384e-18 4.2099853341970885e-23
1.755405889504358 2.0642066501187946e-25 9.618340710297784e-18 9.61827689110979e-18 6.381918799449339e-23
1.8088679632656115 2.0850193652593997e-25 1.0011205888768628e-17 1.0011110457365203e-17 9.543140342761701e-23
1.8639582606462262 2.103612806684244e-25 1.0408099184240942e-17 1.040795836131606e-17 1.4082292488263943e-22
1.9207263702978936 2.1202116330190054e-25 1.0809712541396571e-17 1.0809507396144585e-17 2.0514525198769443e-22
1.979223391128241 2.1352935323115353e-25 1.12181652366679e-17 1.1217870099788577e-17 2.9513687932666444e-22
2.039501978296691 2.149414569964311e-25 1.1636268999273909e-17 1.1635849515920345e-17 4.194833535647168e-22
2.1016163906111602 2.1641061543248766e-25 1.2072617473117603e-17 1.2072028202228425e-17 5.89270889176513e-22
2.1656225393682647 2.180252856994733e-25 1.2533116024678433e-17 1.2532297608376113e-17 8.184163023293095e-22
2.231578038680979 2.197901173666462e-25 1.301936110549529e-17 1.3018236944960538e-17 1.1241605347545594e-21
2.299542257339062 2.217561096425563e-25 1.353587770148789e-17 1.3534350097835898e-17 1.5276036519882992e-21
2.369576372248914 2.2403600279534753e-25 1.4091523824530732e-17 1.4089469530730327e-17 2.054293800400103e-21
2.4417434235010123 2.2676250009912986e-25 1.4697406169038884e-17 1.469467143228127e-17 2.7347367576110182e-21
2.5161083711144245 2.3016463070193977e-25 1.5372247290696922e-17 1.5368642245498636e-17 3.605045198291391e-21
2.5927381535095444 2.346179707778194e-25 1.6146907817025667e-17 1.614220036922573e-17 4.707447799936712e-21
2.6717017477616296 2.405652583154657e-25 1.7060443455856347e-17 1.705435296298855e-17 6.090492867799621e-21
2.753070231689431 2.4867314927349093e-25 1.8172539353002777e-17 1.816472993561388e-17 7.809417388898002e-21
2.836916847834745 2.6046443315692164e-25 1.9613923071247103e-17 1.960399636271307e-17 9.92670853403299e-21
2.9233170693905177 2.7929695293969917e-25 2.167262683097668e-17 2.166011683561506e-17 1.2509995361621062e-20
2.967498994190263 2.946729986810064e-25 2.3211347639261597e-17 2.3197372047494962e-17 1.3975591766629872e-20
3.0123486681368425 3.1247841440560384e-25 2.4985882521814974e-17 2.497029043292192e-17 1.559208889304733e-20
3.0578761833420214 3.5120774668400907e-25 2.850712474188064e-17 2.8489747460054954e-17 1.7377281825678424e-20
3.1040917844459814 4.0079002603701214e-25 3.30233321464753e-17 3.300400223928098e-17 1.932990719431472e-20
3.127460860933648 4.527511885594931e-25 3.7585550494988023e-17 3.756517115458342e-17 2.0379340404609128e-20
3.1510058709225794 5.217866200506646e-25 4.364269729293597e-17 4.362122116490491e-17 2.147612803106908e-20
3.162844764501044 5.859101858470566e-25 4.919017391368608e-17 4.9168129076396516e-17 2.2044837289526892e-20
3.1747281389236908 6.603744324888033e-25 5.565013533907496e-17 5.562750944334919e-17 2.2625895725769143e-20
3.1986289994194426 8.677493435048165e-25 7.36762642978383e-17 7.365243553230545e-17 2.382876553282494e-20
3.2227097969389145 1.3560290428464531e-24 1.1600043652336528e-16 1.1597533010215425e-16 2.5106421211035402e-20
3.2348180950136065 1.8187995091891393e-24 1.56172342742043e-16 1.5614655369976422e-16 2.5789042278725085e-20
3.240889293275058 2.1647588090511663e-24 1.862272133694048e-16 1.8620106424208826e-16 2.614912731646949e-20
3.2469718861334385 2.5650232811109216e-24 2.2107481621305915e-16 2.210482944825217e-16 2.65217305374377e-20
3.2714166318528037 4.6984540286489066e-24 4.0800010256879957e-16 4.079720385422359e-16 2.8064026563622326e-20
3.2744851364798273 4.831852592489069e-24 4.19977605475396e-16 4.1994935899260107e-16 2.8246482794814215e-20
3.2775565192852394 4.969070346404585e-24 4.3230948842395187e-16 4.322810585066485e-16 2.842991730346897e-20
3.283707930232385 4.83726286892281e-24 4.216320767325871e-16 4.216033173652618e-16 2.875936732546305e-20
3.2898708863219004 4.4189878949892215e-24 3.858967304527566e-16 3.8586766996516457e-16 2.906048759186616e-20
3.29141343181113 4.320337124374391e-24 3.7745875850686346e-16 3.774296223713706e-16 2.913613549292946e-20
3.292184975758714 4.271861967368761e-24 3.7331107386222163e-16 3.7328189984749887e-16 2.9174014722593155e-20
3.295272960557952 3.966037502437957e-24 3.46910659305594e-16 3.4688133770262103e-16 2.9321602972920137e-20
3.3076538914384823 2.906154664683018e-24 2.551574280665452e-16 2.5512751299769207e-16 2.991506885314724e-20
3.310756385682612 2.6903271511888714e-24 2.3642954859478596e-16 2.3639948379649383e-16 3.006479829215458e-20
3.313861789986515 2.491147846644016e-24 2.1913075128844162e-16 2.1910053621367385e-16 3.0215074767749956e-20
3.3200813396944477 2.2118902396872457e-24 1.949313672891659e-16 1.949008295802693e-16 3.053770889666708e-20
3.345076488085796 1.714336255634627e-24 1.52219922222382e-16 1.5218794819932627e-16 3.197402305572803e-20
3.3482140837626964 1.7331037705729874e-24 1.5403067515148492e-16 1.5399850660998093e-16 3.2168541503993967e-20
3.3513546224236106 1.752076946388439e-24 1.5586298642030022e-16 1.5583062240892687e-16 3.236401137333112e-20
3.3576445397418455 1.8903175135664866e-24 1.6847633575016168e-16 1.6844356328255786e-16 3.277246760386116e-20
3.3702598118196083 2.399675809009847e-24 2.1467693603377338e-16 2.1464330664449407e-16 3.362938927937385e-20
3.382922481734668 2.516074035245629e-24 2.2593571887877933e-16 2.259012539842022e-16 3.446489457712762e-20
3.389271646505754 2.576362093915076e-24 2.317836044516937e-16 2.3174871555047907e-16 3.48889012146432e-20
3.395632727569191 2.6413939782744048e-24 2.38080226584764e-16 2.380449006949444e-16 3.5325889819646536e-20
3.421196662673239 2.9538083230814337e-24 2.682438555114604e-16 2.6820671773794493e-16 3.713777351544979e-20
3.4276182099114902 2.8913476076838677e-24 2.6306446168916874e-16 2.630269167322661e-16 3.7544956902514235e-20
3.4340518103208963 2.6168619357464157e-24 2.385377323431589e-16 2.38499800887444e-16 3.7931455714900863e-20
3.4469541582030403 2.2258160601295877e-24 2.0365459453894862e-16 2.0361591843888806e-16 3.867610006049754e-20
3.472904465399547 2.1165231639492642e-24 1.9511259074581691e-16 1.950722032103076e-16 4.0387535509288637e-20
3.4990501388274233 1.9492877943245177e-24 1.8104876309715765e-16 1.8100661765066703e-16 4.214544649060295e-20
3.5253949054701885 1.3534361499587403e-24 1.2665285318028742e-16 1.2660898954364085e-16 4.3863636646555636e-20
3.5519380250092896 7.929568117660946e-25 7.476259146817866e-17 7.471699239746611e-17 4.5599070712548564e-20
3.578680990867387 5.710063927783227e-25 5.4241712187222303e-17 5.419420948583131e-17 4.750270139100052e-20
3.605625307711299 4.815668446123395e-25 4.6089989051680714e-17 4.6040476102779184e-17 4.951294890153057e-20
3.660119384959845 4.170000395978872e-25 4.051359484285649e-17 4.045983482198669e-17 5.3760020869782113e-20
3.715437065384467 3.714831917027971e-25 3.663688241429385e-17 3.657861029373328e-17 5.827212056056718e-20
3.8285932144167436 3.4986001261828864e-25 3.555518689212307e-17 3.5487094026229424e-17 6.809286589364391e-20
3.94519561050918 3.472483334253859e-25 3.636454386157274e-17 3.6285553189361084e-17 7.89906722116522e-20
4.06534921144712 3.5241370857558054e-25 3.8029453459584036e-17 3.793845071851996e-17 9.100274106407057e-20
4.189162171576248 3.6205907282548537e-25 4.026021048901885e-17 4.0156007742306965e-17 1.0420274671187236e-19
4.316745939156006 3.749461190128099e-25 4.296301834004384e-17 4.284441572589078e-17 1.186026141530595e-19
4.448215356677963 3.90651817408534e-25 4.6125924865006465e-17 4.5991849649880785e-17 1.3407521512567033e-19
4.58368876423945 4.092146683825963e-25 4.978926862538287e-17 4.963856876433017e-17 1.506998610527051e-19
4.723288106065518 4.310160184205975e-25 5.4038997144208085e-17 5.387035650272353e-17 1.6864064148455287e-19
4.867139040275056 4.568233777391095e-25 5.901895379411681e-17 5.883140599611018e-17 1.875477980066399e-19
4.940699165968905 4.72216140335301e-25 6.192965650342946e-17 6.173221999692926e-17 1.9743650650016932e-19
5.015371051989984 4.880887931883416e-25 6.49787478385634e-17 6.477114836504867e-17 2.0759947351474577e-19
5.091171501069577 5.0731444914683925e-25 6.855898698046486e-17 6.834074807135669e-17 2.1823890910818317e-19
5.129500256944802 5.171524746017772e-25 7.041466153794513e-17 7.019100113291508e-17 2.2366040503004913e-19
5.168117569889187 5.273864701843307e-25 7.234871167217774e-17 7.211951879518952e-17 2.2919287698826437e-19
5.20702561229733 5.399049411726168e-25 7.462364339781167e-17 7.438846333501998e-17 2.351800627917038e-19
5.246226572918644 5.5271772007596275e-25 7.696971246461096e-17 7.672845782906487e-17 2.4125463554610567e-19
5.265937586045735 5.592374112293237e-25 7.81702241121685e-17 7.792589959630603e-17 2.4432451586245745e-19
5.285722656980489 5.658342557528592e-25 7.938949531949679e-17 7.914207929284945e-17 2.4741602664734507e-19
5.305582063971359 5.725095019862897e-25 8.062786658392618e-17 8.037733749313071e-17 2.5052909079543774e-19
5.3255160863122235 5.796745104736217e-25 8.194365624537672e-17 8.168997262515798e-17 2.53683620218731e-19
5.365609099470188 5.974976751712984e-25 8.50990442832185e-17 8.483883137444552e-17 2.6021290877295535e-19
5.406003951863644 6.15964227687132e-25 8.838962329537044e-17 8.812278570547055e-17 2.6683758989986145e-19
5.446702915881641 6.3510540718041655e-25 9.182246157456619e-17 9.154890438429154e-17 2.735571902746274e-19
5.487708281020852 6.557574094302921e-25 9.552205483556262e-17 9.524166000167335e-17 2.8039483388926924e-19
5.529022354014368 6.844678767577196e-25 1.0045483615117198e-16 1.0016730104837562e-16 2.8753510279634743e-19
5.570647458961463 7.148142394319804e-25 1.0569837319250683e-16 1.0540359245423105e-16 2.947807382757763e-19
5.612585937458331 7.469144731680525e-25 1.1127646273180806e-16 1.1097433132355648e-16 3.0213140825158205e-19
5.654840148729818 7.821543583028556e-25 1.1740382203896693e-16 1.1709420535080056e-16 3.096166881663702e-19
5.67608639626678 8.061865655456702e-25 1.214657922134841e-16 1.211522630354945e-16 3.1352917798957643e-19
5.686739436050992 8.185653752060849e-25 1.2356234244586982e-16 1.2324684590430592e-16 3.1549654156393676e-19
5.6974124697621304 8.311936993635065e-25 1.2570406941839882e-16 1.2538659810317604e-16 3.174713152227782e-19
5.718818669136295 8.572229126883975e-25 1.3012763299153175e-16 1.2980618990652115e-16 3.2144308501060647e-19
5.740305295436557 8.859102373678868e-25 1.3498768336730585e-16 1.346622134087365e-16 3.2546995856930195e-19
5.7835210386641895 9.603813264484662e-25 1.4743665184826082e-16 1.4710283897563855e-16 3.3381287262230927e-19
5.827062130521658 1.046049358373692e-24 1.6179729597083137e-16 1.614549477677261e-16 3.4234820310526267e-19
5.8489554468988025 1.1062394608099631e-24 1.7175005803018343e-16 1.714031213687447e-16 3.469366614386504e-19
5.870931020387893 1.170761646060237e-24 1.8245043257006e-16 1.8209886713929401e-16 3.5156543076599923e-19
5.892989160043636 1.2399634926742025e-24 1.9396080326093587e-16 1.9360456865366514e-16 3.5623460727077975e-19
5.915130176081913 1.3186477354297317e-24 2.0704394450737506e-16 2.066828746013338e-16 3.610699060412366e-19
5.95966208400165 1.5388217939059644e-24 2.434329697258993e-16 2.4306101094417964e-16 3.719587817196227e-19
6.004529249263818 1.856095155344888e-24 2.958343741249323e-16 2.95450226164677e-16 3.841479602553143e-19
6.027089341400364 2.07669002603906e-24 3.3223756820414675e-16 3.318464424948323e-16 3.911257093144761e-19
6.049734195844842 2.3372082298808214e-24 3.7532123234768114e-16 3.749227264692931e-16 3.985058783879558e-19
6.095279466722835 3.0898377400547887e-24 4.999179481842359e-16 4.995015305574035e-16 4.1641762683231686e-19
6.141167624020661 4.247641227789867e-24 6.924177814856293e-16 6.919783985039392e-16 4.393829816900225e-19
6.164241091010745 4.9871669215772664e-24 8.160240407316136e-16 8.155703819807916e-16 4.536587508221771e-19
6.187401249150058 5.828904512315403e-24 9.57336581950859e-16 9.568682241521398e-16 4.683577987193858e-19
6.1990139391386085 6.239888638562313e-24 1.0267598668575325e-15 1.0262840211451358e-15 4.758457123964588e-19
6.204828454712694 6.456319067629374e-24 1.0633694935620322e-15 1.0628898615632855e-15 4.796319987468129e-19
6.210648424152782 6.614304683155849e-24 1.09041188057931e-15 1.0899289894440417e-15 4.828911352688198e-19
6.233982942956859 7.150807047171965e-24 1.1832870243654913e-15 1.1827926278413815e-15 4.943965241096022e-19
6.239830258556775 7.21925640591657e-24 1.1957342681554415e-15 1.1952381687179537e-15 4.960994374873922e-19
6.245683058788269 7.224991220370507e-24 1.1978065914130686e-15 1.197308784743123e-15 4.97806669946105e-19
6.257405133728602 7.209792384480916e-24 1.1975301765661164e-15 1.1970293188258578e-15 5.008577402584566e-19
6.269149208991335 7.103710693793883e-24 1.182124737127648e-15 1.1816224562788747e-15 5.022808487732574e-19
6.280915325867298 6.838354882341433e-24 1.1401027857179936e-15 1.1396010998909114e-15 5.016858270819129e-19
6.304513850009849 6.184219472772445e-24 1.0349179751246884e-15 1.0344193107391328e-15 4.986643855555373e-19
6.32820103803542 5.373892022025294e-24 9.026900107819872e-16 9.021963164520817e-16 4.936943299059424e-19
6.3519772230701035 4.6308517798930535e-24 7.807989954139771e-16 7.80309653703007e-16 4.893417109699308e-19
6.375842739491607 4.005503087283002e-24 6.778976064440352e-16 6.774119889029285e-16 4.856175411065635e-19
6.399797922933955 3.504591749563375e-24 5.953510561305855e-16 5.948668278954604e-16 4.842282351249436e-19
6.42384311029221 3.0879106329354026e-24 5.2653722665174e-16 5.260539232334267e-16 4.833034183133431e-19
6.447978639727206 2.7843371296039936e-24 4.765569877431103e-16 4.760727749721243e-16 4.842127709859985e-19
6.472204850670314 2.5313130919711232e-24 4.348781153785037e-16 4.343926221472967e-16 4.854932312071908e-19
6.496522083828205 2.3668544517390418e-24 4.0815197677184325e-16 4.076637045265601e-16 4.882722452832804e-19
6.520930681187647 2.228238103476157e-24 3.8569198428529227e-16 3.8520069173693426e-16 4.912925483579668e-19
