Dust emission spectrum from A.P. Jones, M. Kohler, N. Ysard, M. Bocchio, and L. Verstraete (2017), A&A, 602A, 46J 
inside the DustPedia framework.

lambda    nu*dP/dnu     j_nu    j_nu(carb.) j_nu(sil)
 (um)   (erg s-1 H-1) (Jy cm2 sr-1 H-1)
0.9927057738263894 1.8565607706210948e-20 4.89214308113317e-13 4.892142975709864e-13 1.0542330674088789e-20
1.0001793341362166 1.8877192050869338e-20 5.011695820892819e-13 5.011695694047078e-13 1.2684573992641147e-20
1.0077091589558085 1.9190094015545493e-20 5.133123831472775e-13 5.13312367905577e-13 1.5241700472093337e-20
1.0114953028030835 1.9347026240112107e-20 5.194545133694752e-13 5.194544966703473e-13 1.6699127937140407e-20
1.0152956718711033 1.9504272686426974e-20 5.256440199769745e-13 5.256440016871948e-13 1.8289779730886635e-20
1.0229392996569957 1.981953561460694e-20 5.38161681093132e-13 5.381616591748531e-13 2.191827885691033e-20
1.0267826658714554 1.997719461874168e-20 5.444806646637419e-13 5.444806406807835e-13 2.3982958308793458e-20
1.0306404723013447 2.0135141551484756e-20 5.508474114489472e-13 5.508473852156122e-13 2.623333488905277e-20
1.03451277320114 2.0293372186775677e-20 5.572621047038351e-13 5.572620760185781e-13 2.868525710541683e-20
1.0383996230291617 2.045188245222205e-20 5.637249318610827e-13 5.637249005052349e-13 3.135584778344831e-20
1.0403485208654093 2.0531241216557395e-20 5.669744554108975e-13 5.669744226320309e-13 3.277886653550899e-20
1.0423010764483396 2.0610668432786163e-20 5.70236084705002e-13 5.702360504414023e-13 3.4263599740567893e-20
1.0462171883269815 2.0769726374439624e-20 5.767957595478183e-13 5.767957221193404e-13 3.742847808831008e-20
1.0471985131304309 2.0809532929471847e-20 5.784432832717352e-13 5.784432450093729e-13 3.82623622947249e-20
1.048180758391296 2.084935620245871e-20 5.800938553483593e-13 5.800938162343511e-13 3.91140080945975e-20
1.0501480137395462 2.092905268778382e-20 5.834041574081295e-13 5.834041165361001e-13 4.087202957945194e-20
1.0521189612883777 2.1008815408051543e-20 5.867266916194539e-13 5.867266489139517e-13 4.270550218474046e-20
1.0531058218030118 2.1048669010598906e-20 5.883910873159859e-13 5.883910436644335e-13 4.365155241252224e-20
1.0540936079674168 2.1088367134200337e-20 5.900537388236071e-13 5.900536942057634e-13 4.4617843481813844e-20
1.058054026499678 2.1247315794519745e-20 5.96734778842879e-13 5.967347301513249e-13 4.869155405466113e-20
1.0590464539527713 2.128709176473518e-20 5.984126639890825e-13 5.984126142248518e-13 4.9764230873372396e-20
1.06003981227728 2.1326883164921388e-20 6.000936059236674e-13 6.000935550641868e-13 5.085948052618247e-20
1.0620293250338977 2.1406512076696568e-20 6.034646737937916e-13 6.034646206742806e-13 5.3119511000819916e-20
1.0660195594769086 2.1565953136331698e-20 6.102436422182122e-13 6.102435842873426e-13 5.793086955122075e-20
1.070024785945596 2.172563631292072e-20 6.170719083274379e-13 6.170718451703988e-13 6.3157038854577e-20
1.0740450607676866 2.1885559133201152e-20 6.239497021929758e-13 6.239496333611318e-13 6.883184407984181e-20
1.07808044048254 2.2045719314449402e-20 6.308772599391012e-13 6.308771849474018e-13 7.49916992239401e-20
1.0861967418109137 2.2366500023078078e-20 6.448756201097806e-13 6.448755311834946e-13 8.892628600184319e-20
1.0902777775684922 2.2526563203854206e-20 6.519308478383604e-13 6.519307510498277e-13 9.678853271875135e-20
1.0943741465085532 2.2686847091304424e-20 6.590363991252269e-13 6.59036293813981e-13 1.0531124607301102e-19
1.1026131145906286 2.3008072250533095e-20 6.73399545998065e-13 6.733994214466162e-13 1.2455144887942024e-19
1.1109141095355224 2.3330168153479452e-20 6.87967281989552e-13 6.879671348753971e-13 1.471141546114142e-19
1.1192775983109025 2.3652880589061017e-20 7.027345141299675e-13 7.027343405921554e-13 1.7353781232050763e-19
1.1277040513999907 2.397505868149845e-20 7.176691081542585e-13 7.176689037122251e-13 2.0444203368708474e-19
1.1361939428280308 2.4298069499025816e-20 7.32813856509828e-13 7.328136159709727e-13 2.4053885542282614e-19
1.1447477501889525 2.4621920378738463e-20 7.481714890392697e-13 7.48171206393871e-13 2.8264539859287104e-19
1.1533659546722406 2.4946734806684787e-20 7.637483254765204e-13 7.637479937779416e-13 3.316985788760441e-19
1.1707974979042381 2.5600237062307563e-20 7.956007899360762e-13 7.956003348449213e-13 4.550911550266099e-19
1.1884924949847024 2.625777000706941e-20 8.283687686736469e-13 8.28368147424344e-13 6.2124930305051e-19
1.2064549276569216 2.69237478234456e-20 8.622159425958818e-13 8.622150987213678e-13 8.438745138553014e-19
1.2246888378427687 2.7593983283076686e-20 8.970354152781306e-13 8.970342746323714e-13 1.1406457590502334e-18
1.2431983285522175 2.8267969344637505e-20 9.32834204869071e-13 9.328326705760037e-13 1.534293067121245e-18
1.2619875648066055 2.8946735127311086e-20 9.696703043813895e-13 9.69668250489204e-13 2.053892185455204e-18
1.3004222497298317 3.031466175557505e-20 1.0464212523207055e-12 1.0464176236871633e-12 3.628633541894753e-18
1.3400274889804893 3.170205459142918e-20 1.1276402002087928e-12 1.1276339072510824e-12 6.2929577105049675e-18
1.3808389325824078 3.311404582485275e-20 1.2137373090608658e-12 1.2137265909615543e-12 1.0718099311986742e-17
1.4228933163050095 3.456215890213814e-20 1.3053970742897091e-12 1.305379137367109e-12 1.7936922600045433e-17
1.466228494730424 3.6070617178992773e-20 1.4038627856719793e-12 1.4038332760864979e-12 2.950958548134061e-17
1.5108834753276823 3.7636002660637583e-20 1.5093984334530151e-12 1.509350685462687e-12 4.774799032856983e-17
1.5568984535646726 3.9256150344722326e-20 1.6223233857395044e-12 1.6222473208951244e-12 7.606484438024923e-17
1.6043148490894465 4.0938908523711874e-20 1.7433929923658861e-12 1.7432734655594304e-12 1.1952680645612788e-16
1.6531753430134553 4.269214382233323e-20 1.873425020113957e-12 1.8732399738691877e-12 1.8504624476914797e-16
1.7035239163302658 4.452466605161569e-20 2.0133456421006182e-12 2.013063329858875e-12 2.8231224174332515e-16
1.755405889504358 4.6466076723739643e-20 2.1651250729864894e-12 2.1647004241035173e-12 4.2464888297216763e-16
1.8088679632656115 4.851203557506017e-20 2.329301992668895e-12 2.3286720026407724e-12 6.299900281228418e-16
1.8639582606462262 5.0656265050839966e-20 2.5063330536734053e-12 2.505410881250807e-12 9.22172422598193e-16
1.9207263702978936 5.2898492710359587e-20 2.6969831273773763e-12 2.695650750294252e-12 1.3323770831247953e-15
1.979223391128241 5.524042403379282e-20 2.9021593292789316e-12 2.900258493489016e-12 1.9008357899155385e-15
2.039501978296691 5.768122269013372e-20 3.1226838824329836e-12 3.120005225725368e-12 2.6786567076160365e-15
2.1016163906111602 6.023612760573954e-20 3.3603144891607937e-12 3.356584380476596e-12 3.730108684198002e-15
2.1656225393682647 6.290578798228274e-20 3.616119739856745e-12 3.6109851623560324e-12 5.134577500712028e-15
2.231578038680979 6.567045374050751e-20 3.890017264894268e-12 3.883028518676284e-12 6.988746217984757e-15
2.299542257339062 6.85187178838381e-20 4.182346935258457e-12 4.1729381148499025e-12 9.408820408554556e-15
2.369576372248914 7.14444940195352e-20 4.49375000913349e-12 4.4812171622121134e-12 1.253284692137494e-14
2.4417434235010123 7.444297317527656e-20 4.8249539174669916e-12 4.808431622953397e-12 1.6522294513595303e-14
2.5161083711144245 7.752167512049216e-20 5.177521657897498e-12 5.155957439788208e-12 2.1564218109288632e-14
2.5927381535095444 8.070447310631777e-20 5.5542535098617306e-12 5.526381249506707e-12 2.7872260355023735e-14
2.6717017477616296 8.400864453523627e-20 5.9577377877942464e-12 5.922052129588675e-12 3.568565820557201e-14
2.753070231689431 8.746829702511407e-20 6.392009247773128e-12 6.34674033169741e-12 4.5268916075719475e-14
2.836916847834745 9.120740247170983e-20 6.868250509007549e-12 6.811338049694978e-12 5.691245931257092e-14
2.9233170693905177 9.551881853893296e-20 7.411981003520009e-12 7.341065592717777e-12 7.091541080222947e-14
2.967498994190263 9.818659104202354e-20 7.734142959795102e-12 7.655402563972019e-12 7.874039582308298e-14
3.0123486681368425 1.0103274880155785e-19 8.078613677087626e-12 7.991297532202927e-12 8.731614488469926e-14
3.0578761833420214 1.0588767403851178e-19 8.594779474381364e-12 8.498048588857072e-12 9.673088552429496e-14
3.1040917844459814 1.1159448263359398e-19 9.194893650828826e-12 9.087946936799928e-12 1.0694671402889818e-13
3.127460860933648 1.170306697296043e-19 9.715407176686648e-12 9.603002292897264e-12 1.1240488378938456e-13
3.1510058709225794 1.2397263318893465e-19 1.036918137599525e-11 1.0251095583475718e-11 1.1808579251953282e-13
3.162844764501044 1.3032882245231977e-19 1.0941775031828844e-11 1.0820752599257694e-11 1.210224325711523e-13
3.1747281389236908 1.3752244019506852e-19 1.1589095568361765e-11 1.1465079060773444e-11 1.2401650758832044e-13
3.1986289994194426 1.5703984074803132e-19 1.3333468816595162e-11 1.3203273529305217e-11 1.3019528728994335e-13
3.2227097969389145 2.0246872750355285e-19 1.7320027839110125e-11 1.718329387809075e-11 1.3673396101937218e-13
3.2348180950136065 2.451548539110386e-19 2.105037288411141e-11 2.0910151652319473e-11 1.40221231791925e-13
3.240889293275058 2.770670642347866e-19 2.3835185274752068e-11 2.3693124583240415e-11 1.42060691511653e-13
3.2469718861334385 3.1406236963436163e-19 2.7068479712310207e-11 2.692451572947068e-11 1.439639828395282e-13
3.2714166318528037 5.080133679095816e-19 4.4114405493722207e-11 4.396258316139462e-11 1.5182233232758247e-13
3.2744851364798273 5.201098868144254e-19 4.520719551501835e-11 4.505444907801568e-11 1.527464370026669e-13
3.2775565192852394 5.325285509444773e-19 4.633002340096294e-11 4.617634842120528e-11 1.536749797576326e-13
3.283707930232385 5.204782311254312e-19 4.536663055741428e-11 4.521129906481874e-11 1.5533149259553542e-13
3.2898708863219004 4.8235500460629975e-19 4.212259087791626e-11 4.1965755561353454e-11 1.5683531656281268e-13
3.29141343181113 4.733435176796962e-19 4.135502656092417e-11 4.1197813719771916e-11 1.572128411522495e-13
3.292184975758714 4.689124331385912e-19 4.097749536372221e-11 4.0820093524788806e-11 1.5740183893340814e-13
3.295272960557952 4.41325930601568e-19 3.860293037056066e-11 3.844479406430852e-11 1.5813630625215152e-13
3.3076538914384823 3.4498196414709507e-19 3.028906608820113e-11 3.0127981641549684e-11 1.6108444665144275e-13
3.310756385682612 3.2515278807558436e-19 2.857486193642832e-11 2.8413034762961068e-11 1.618271734672501e-13
3.313861789986515 3.0677086071977353e-19 2.6984720827985438e-11 2.6822148648972547e-11 1.6257217901289915e-13
3.3200813396944477 2.810855834593401e-19 2.4771752289457905e-11 2.460757594978848e-11 1.6417633966942928e-13
3.345076488085796 2.3613750036053594e-19 2.0967200466376497e-11 2.079587067044157e-11 1.7132979593492604e-13
3.3482140837626964 2.379255273505098e-19 2.114577917135098e-11 2.0973480124706472e-11 1.7229904664450314e-13
3.3513546224236106 2.3972965786954427e-19 2.1326106987529587e-11 2.1152834522021326e-11 1.7327246550826013e-13
3.3576445397418455 2.52535582808099e-19 2.2507472597959193e-11 2.2332164278324263e-11 1.7530831963492922e-13
3.3702598118196083 2.9898040976819425e-19 2.6747028937063652e-11 2.6567450648202112e-11 1.795782888615341e-13
3.382922481734668 3.099848747510086e-19 2.7835689465942222e-11 2.7651966968188357e-11 1.8372249775385408e-13
3.389271646505754 3.156563917054437e-19 2.8398172916184476e-11 2.8212351057005012e-11 1.8582185917946576e-13
3.395632727569191 3.219084874033445e-19 2.9014999750478367e-11 2.882701436775122e-11 1.87985382727148e-13
3.421196662673239 3.52301317856859e-19 3.1993499058566715e-11 3.179656428861845e-11 1.9693476994826528e-13
3.4276182099114902 3.4671707049906643e-19 3.154547701801443e-11 3.1346551750838084e-11 1.989252671763432e-13
3.4340518103208963 3.215810943667881e-19 2.931343987500243e-11 2.9112635206589915e-11 2.008046684125233e-13
3.4469541582030403 2.8546566908467675e-19 2.611913721605764e-11 2.591473188490608e-11 2.0440533115155962e-13
3.472904465399547 2.7521629767653535e-19 2.5370931804471367e-11 2.5158222016744913e-11 2.127097877264549e-13
3.4990501388274233 2.598741897075849e-19 2.41369697919534e-11 2.391577668690586e-11 2.2119310504753505e-13
3.5253949054701885 2.0620772553832686e-19 1.929665968213047e-11 1.90672488270681e-11 2.294108550623731e-13
3.5519380250092896 1.551042729105915e-19 1.4623743965016868e-11 1.43860926387469e-11 2.3765132626996545e-13
3.578680990867387 1.350809910521241e-19 1.2831772693407616e-11 1.2585091986404856e-11 2.466807070027625e-13
3.605625307711299 1.2728812852213696e-19 1.2182542290088327e-11 1.1926363470394253e-11 2.5617881969407995e-13
3.660119384959845 1.2215827855372356e-19 1.1868274662032996e-11 1.1592193966323965e-11 2.76080695709032e-13
3.715437065384467 1.1858117703411347e-19 1.1694861938795673e-11 1.1397877839165844e-11 2.9698409962983067e-13
3.8285932144167436 1.177017352889074e-19 1.1961661935598801e-11 1.1620021311616988e-11 3.4164062398181433e-13
3.94519561050918 1.183023834810137e-19 1.2388863527687176e-11 1.1998931586488358e-11 3.899319411988201e-13
4.06534921144712 1.1935151008937674e-19 1.2879387458055129e-11 1.243768246725865e-11 4.4170499079648163e-13
4.189162171576248 1.205484618182905e-19 1.3404736439987375e-11 1.2907777450075154e-11 4.969589899122166e-13
4.316745939156006 1.2176968465636703e-19 1.3952919979348064e-11 1.339754513684177e-11 5.553748425062961e-13
4.448215356677963 1.2296359748413874e-19 1.4518835970889245e-11 1.3902824245932839e-11 6.160117249564036e-13
4.58368876423945 1.2412561788357916e-19 1.510240030379123e-11 1.4423559608246786e-11 6.788406955444454e-13
4.723288106065518 1.2528247722253564e-19 1.570739633681416e-11 1.4963237173362326e-11 7.44159163451836e-13
4.867139040275056 1.2647156480602693e-19 1.633939899594926e-11 1.552937577974517e-11 8.10023216204084e-13
4.940699165968905 1.2716212371043321e-19 1.6676911204352202e-11 1.58335691094141e-11 8.433420949380998e-13
5.015371051989984 1.2780117752661185e-19 1.701403638818795e-11 1.613724006110334e-11 8.767963270846121e-13
5.091171501069577 1.2864877453697556e-19 1.7385725309748393e-11 1.6474579051581832e-11 9.111462581665626e-13
5.129500256944802 1.2905137125058322e-19 1.757143023363635e-11 1.6643105361378048e-11 9.283248722582947e-13
5.168117569889187 1.2946315030761325e-19 1.7760205586054515e-11 1.681451433562926e-11 9.456912504252515e-13
5.20702561229733 1.3006076784020433e-19 1.797651330671918e-11 1.7011744628951483e-11 9.647686777676922e-13
5.246226572918644 1.3065057852898426e-19 1.8193984193828502e-11 1.7210089740506015e-11 9.83894453322484e-13
5.265937586045735 1.3094269048047194e-19 1.830317367038854e-11 1.7309701324122966e-11 9.934723462655727e-13
5.285722656980489 1.312330152938061e-19 1.8412676057530164e-11 1.7409617496739816e-11 1.0030585607903495e-12
5.305582063971359 1.3152161158051058e-19 1.8522499477520145e-11 1.750984765076053e-11 1.0126518267596133e-12
5.3255160863122235 1.318451359157321e-19 1.8637825710632756e-11 1.7615489045447513e-11 1.0223366651852457e-12
5.365609099470188 1.3277049829142433e-19 1.8909935524632234e-11 1.7867552021602233e-11 1.042383503029994e-12
5.406003951863644 1.3370451631837303e-19 1.9186328197411953e-11 1.8123854975844226e-11 1.062473221567731e-12
5.446702915881641 1.3464868077622945e-19 1.946727767841085e-11 1.8384682056830595e-11 1.0825956215802612e-12
5.487708281020852 1.3567387498240241e-19 1.976317330075088e-11 1.8660336470143456e-11 1.1028368306074252e-12
5.529022354014368 1.3732846782917052e-19 2.0154793531024867e-11 1.9030857796803472e-11 1.1239357342214009e-12
5.570647458961463 1.390427150036266e-19 2.056001121610446e-11 1.941493750330888e-11 1.1450737127955848e-12
5.612585937458331 1.4082252275534592e-19 2.097995522662567e-11 1.9813714833394854e-11 1.166240393230818e-12
5.654840148729818 1.4277799305996215e-19 2.143142451403694e-11 2.0243881638859605e-11 1.1875428751773283e-12
5.67608639626678 1.4424471009664562e-19 2.1732932218529826e-11 2.0534223391114708e-11 1.1987088274151174e-12
5.686739436050992 1.4499506826233035e-19 2.1886987674114308e-11 2.0682691595015642e-11 1.2042960790986692e-12
5.6974124697621304 1.4575716073847894e-19 2.2043319464198178e-11 2.0833433502837926e-11 1.2098859613602488e-12
5.718818669136295 1.4731779797941406e-19 2.2363047073094495e-11 2.1141974117392803e-11 1.2210729557016975e-12
5.740305295436557 1.4905825651596742e-19 2.2712265741099594e-11 2.1479904700115346e-11 1.232361040984248e-12
5.7835210386641895 1.537768702639891e-19 2.360765068940928e-11 2.2351972423908544e-11 1.2556782655007378e-12
5.827062130521658 1.5916047511767673e-19 2.4618087371622192e-11 2.3338815212478987e-11 1.2792721591432103e-12
5.8489554468988025 1.6312632242249287e-19 2.532630260884038e-11 2.403422529658465e-11 1.2920773122557365e-12
5.870931020387893 1.6733207032006308e-19 2.6076878001150727e-11 2.4771966947943563e-11 1.3049110532071682e-12
5.892989160043636 1.717967929831128e-19 2.6873245995971042e-11 2.5555473955980063e-11 1.3177720399909901e-12
5.915130176081913 1.7688816794766159e-19 2.7773622207474293e-11 2.644249762443946e-11 1.331124583034819e-12
5.95966208400165 1.914693903908891e-19 3.0289382759619264e-11 2.892746395018225e-11 1.361918809437019e-12
6.004529249263818 2.1259294559697744e-19 3.388420083041021e-11 3.248742090349764e-11 1.3967799269125633e-12
6.027089341400364 2.2738613449461856e-19 3.63781861619112e-11 3.496107979556645e-11 1.41710636634475e-12
6.049734195844842 2.447468269232385e-19 3.9302737137246227e-11 3.786405966777322e-11 1.4386774694730118e-12
6.095279466722835 2.9505355903368593e-19 4.7737966277142144e-11 4.62456446968963e-11 1.4923215802458574e-12
6.141167624020661 3.7199925757909343e-19 6.064045592222499e-11 5.907774143125165e-11 1.5627144909733422e-12
6.164241091010745 4.2103695167961967e-19 6.889207440008108e-11 6.728480985206792e-11 1.6072645480131434e-12
6.187401249150058 4.761985299522857e-19 7.82106263760797e-11 7.655768815117562e-11 1.6529382249040747e-12
6.1990139391386085 5.02953123547052e-19 8.275982346501202e-11 8.108365840723256e-11 1.6761650577794587e-12
6.204828454712694 5.169882534031333e-19 8.514906581292398e-11 8.346117684927724e-11 1.6878889636467284e-12
6.210648424152782 5.270926137120577e-19 8.689470408293952e-11 8.519690797141016e-11 1.6977961115293618e-12
6.233982942956859 5.608229364264389e-19 9.280274230059213e-11 9.107075062387993e-11 1.7319916767121953e-12
6.239830258556775 5.647849872211678e-19 9.354602820404216e-11 9.1809552268255e-11 1.7364759357871537e-12
6.245683058788269 5.645583027784002e-19 9.3596190732847e-11 9.185522608243024e-11 1.7409646504167352e-12
6.257405133728602 5.623215824899407e-19 9.34003405445633e-11 9.165167145656963e-11 1.7486690879936598e-12
6.269149208991335 5.540373239269208e-19 9.219705786698245e-11 9.044629549180497e-11 1.7507623751775137e-12
6.280915325867298 5.352029110216257e-19 8.922998883193508e-11 8.748406170981304e-11 1.745927122122051e-12
6.304513850009849 4.895731566844942e-19 8.192918479398247e-11 8.01991814308645e-11 1.7300033631179871e-12
6.32820103803542 4.341471821714326e-19 7.292672107088634e-11 7.121929303616343e-11 1.7074280347228984e-12
6.3519772230701035 3.8361803146638115e-19 6.468109709150641e-11 6.299411132602156e-11 1.6869857654848409e-12
6.375842739491607 3.4102638523011013e-19 5.771583874588073e-11 5.604709896885586e-11 1.66873977702488e-12
6.399797922933955 3.071257644512708e-19 5.217373699911204e-11 5.0515379500286226e-11 1.6583574988258187e-12
6.42384311029221 2.7882103406164837e-19 4.754336231143831e-11 4.589381167010703e-11 1.649550641331267e-12
6.447978639727206 2.581563104712288e-19 4.4185092522377684e-11 4.2538237985548315e-11 1.6468545368293663e-12
6.472204850670314 2.408389793362407e-19 4.137599642479213e-11 3.9730630974487576e-11 1.6453654503045597e-12
6.496522083828205 2.2940063910707086e-19 3.95589700310809e-11 3.7910161585314013e-11 1.6488084457668964e-12
