Dust emission spectrum from A.P. Jones, M. Kohler, N. Ysard, M. Bocchio, and L. Verstraete (2017), A&A, 602A, 46J 
inside the DustPedia framework.

lambda    nu*dP/dnu     j_nu    j_nu(carb.) j_nu(sil)
 (um)   (erg s-1 H-1) (Jy cm2 sr-1 H-1)
0.9927057738263894 4.24249039185941e-23 1.117920315119317e-15 1.117920271374033e-15 4.374528398877602e-23
1.0001793341362166 4.3139070898428966e-23 1.1452969316424311e-15 1.1452968789852062e-15 5.26572253069796e-23
1.0077091589558085 4.3855454408681686e-23 1.1730816846593371e-15 1.173081621358377e-15 6.330095996169802e-23
1.0114953028030835 4.4214434428847485e-23 1.1871275324228051e-15 1.1871274630529671e-15 6.936983782946155e-23
1.0152956718711033 4.457391755274869e-23 1.2012759247800094e-15 1.2012758487846523e-15 7.599535717684433e-23
1.0229392996569957 4.5293977859858555e-23 1.2298715642202997e-15 1.2298714731045948e-15 9.111570458677696e-23
1.0267826658714554 4.5653730051664805e-23 1.2442974980876083e-15 1.2442973983644987e-15 9.972310952489097e-23
1.0306404723013447 4.601390269478007e-23 1.25882597474038e-15 1.2588258656329453e-15 1.0910743528750205e-22
1.03451277320114 4.6374480413966445e-23 1.2734571820879692e-15 1.273457062752691e-15 1.19335278365247e-22
1.0383996230291617 4.673544813971975e-23 1.288191313421042e-15 1.288191182942424e-15 1.3047861820516736e-22
1.0403485208654093 4.691607363152814e-23 1.2955970375430356e-15 1.295596901125371e-15 1.364176644075794e-22
1.0423010764483396 4.70967911167589e-23 1.3030285677619563e-15 1.3030284251467322e-15 1.4261522393341636e-22
1.0462171883269815 4.745849491246544e-23 1.3179691502204653e-15 1.317968994391376e-15 1.5582908947737618e-22
1.0471985131304309 4.7548975579387906e-23 1.3217204654985386e-15 1.3217203061871878e-15 1.5931135078153376e-22
1.048180758391296 4.7639477697418774e-23 1.3254782553438683e-15 1.3254780924758097e-15 1.6286805874037536e-22
1.0501480137395462 4.782054542526979e-23 1.3330132723547036e-15 1.3330131021438048e-15 1.7021089889033158e-22
1.0521189612883777 4.800169638641539e-23 1.340574228765383e-15 1.3405740508953107e-15 1.7787007236997928e-22
1.0531058218030118 4.8092179651861725e-23 1.3443610074587568e-15 1.344360825636184e-15 1.8182257296188968e-22
1.0540936079674168 4.818228044926217e-23 1.3481430090444407e-15 1.3481428231844995e-15 1.8585994115107005e-22
1.058054026499678 4.8542864810482253e-23 1.3633353020786901e-15 1.3633350991945506e-15 2.0288413981656594e-22
1.0590464539527713 4.863305518335907e-23 1.367149464654173e-15 1.3671492572864006e-15 2.0736777284091467e-22
1.06003981227728 4.8723262870136577e-23 1.3709700701225167e-15 1.3709698581763974e-15 2.119461191148106e-22
1.0620293250338977 4.8903729398693456e-23 1.3786306243233914e-15 1.3786304029287994e-15 2.2139459234999104e-22
1.0660195594769086 4.9264861650838375e-23 1.3940292097053893e-15 1.3940289681911884e-15 2.4151420086052157e-22
1.070024785945596 4.9626249380401875e-23 1.4095313005900658e-15 1.4095310372146428e-15 2.6337542276211784e-22
1.0740450607676866 4.998788078536088e-23 1.425137148174008e-15 1.425136861053045e-15 2.871209627344867e-22
1.07808044048254 5.0349744456060346e-23 1.4408470128826288e-15 1.440846699978118e-15 3.1290451077310953e-22
1.0861967418109137 5.107355820825577e-23 1.4725635431014232e-15 1.4725631718412886e-15 3.712601345508382e-22
1.0902777775684922 5.1434198742691386e-23 1.488533359073274e-15 1.4885329548713005e-15 4.0420197331417697e-22
1.0943741465085532 5.1795007492900826e-23 1.5046072772213873e-15 1.504606837298398e-15 4.399229900064018e-22
1.1026131145906286 5.251709320719322e-23 1.5370686573727433e-15 1.5370681367676177e-15 5.206051256345518e-22
1.1109141095355224 5.323974694509289e-23 1.5699502789123507e-15 1.5699496636282423e-15 6.15284108100481e-22
1.1192775983109025 5.39623261596134e-23 1.6032376653791824e-15 1.6032369391384295e-15 7.262407528824045e-22
1.1277040513999907 5.468210458655105e-23 1.6368534380652969e-15 1.6368525819633167e-15 8.561019806549178e-22
1.1361939428280308 5.540220395038679e-23 1.6708941727923994e-15 1.6708931649033054e-15 1.0078890933891933e-21
1.1447477501889525 5.612258727430423e-23 1.7053633121976631e-15 1.7053621271252867e-15 1.1850723765480241e-21
1.1533659546722406 5.684350307527221e-23 1.7402730507370949e-15 1.7402716591026907e-15 1.3916344043453524e-21
1.1707974979042381 5.828913013615204e-23 1.811501896179283e-15 1.811499984362945e-15 1.9118163378490437e-21
1.1884924949847024 5.973658892073754e-23 1.884544064317441e-15 1.884541451005893e-15 2.6133115479651132e-21
1.2064549276569216 6.119587106656975e-23 1.9597589459180254e-15 1.9597553913134705e-15 3.554604554558659e-21
1.2246888378427687 6.265660140635502e-23 2.036863974507677e-15 2.0368591632092016e-15 4.811298475388608e-21
1.2431983285522175 6.41172931189657e-23 2.1158507502178882e-15 2.1158442694355374e-15 6.4807823505602664e-21
1.2619875648066055 6.557972146696173e-23 2.196817989885085e-15 2.19680930201558e-15 8.687869505123167e-21
1.3004222497298317 6.849890415681664e-23 2.3644898184354604e-15 2.3644744249386897e-15 1.5393496769839513e-20
1.3400274889804893 7.142076642045288e-23 2.540432422547102e-15 2.540405646946955e-15 2.6775600146978372e-20
1.3808389325824078 7.435419333616889e-23 2.7253226324130184e-15 2.7252768896703565e-15 4.574274266198143e-20
1.4228933163050095 7.732378713453665e-23 2.9204843882648772e-15 2.9204075989503256e-15 7.678931455122211e-20
1.466228494730424 8.03847078879018e-23 3.1285602733368403e-15 3.128433539720448e-15 1.2673361639185425e-19
1.5108834753276823 8.352831063751932e-23 3.3499174277907393e-15 3.349711703107471e-15 2.0572468326930107e-19
1.5568984535646726 8.675073408603314e-23 3.585113247273923e-15 3.58478444023006e-15 3.2880704386258483e-19
1.6043148490894465 9.007353586651843e-23 3.835802587075606e-15 3.835284188367012e-15 5.183987085938357e-19
1.6531753430134553 9.352033473082542e-23 4.103877652602392e-15 4.103072379034778e-15 8.052735676140282e-19
1.7035239163302658 9.712030241995869e-23 4.391649729838287e-15 4.390416961115408e-15 1.2327687228781545e-18
1.755405889504358 1.0095391154535984e-22 4.7040305641135995e-15 4.70216978447856e-15 1.860779635039006e-18
1.8088679632656115 1.0502598084130996e-22 5.0428151190884155e-15 5.0400447579592654e-15 2.7703611291491386e-18
1.8639582606462262 1.09341743856302e-22 5.409929581233438e-15 5.405859739344368e-15 4.069841889067937e-18
1.9207263702978936 1.1392423167319003e-22 5.808326757141285e-15 5.802425006485226e-15 5.901750656061288e-18
1.979223391128241 1.1880548788124032e-22 6.241669231451826e-15 6.23321814161491e-15 8.451089836916628e-18
2.039501978296691 1.240170340163763e-22 6.713900559121168e-15 6.701946193135284e-15 1.195436598588294e-17
2.1016163906111602 1.296315517371194e-22 7.231586738207479e-15 7.214875826271065e-15 1.6710911936415176e-17
2.1656225393682647 1.3569325555392666e-22 7.800284770491706e-15 7.777191717440304e-15 2.309305305140294e-17
2.231578038680979 1.4220496147937036e-22 8.423571390175382e-15 8.392013812078997e-15 3.1557578096384046e-17
2.299542257339062 1.4919134847146863e-22 9.106562386420579e-15 9.063904612866926e-15 4.2657773553654727e-17
2.369576372248914 1.5669498112633538e-22 9.8558759850004e-15 9.798819705673094e-15 5.705627932730659e-17
2.4417434235010123 1.6476432999559604e-22 1.0679050897111376e-14 1.0603515903725927e-14 7.553499338544868e-17
2.5161083711144245 1.7348117631585766e-22 1.1586469799792237e-14 1.1487461752485798e-14 9.90080473064385e-17
2.5927381535095444 1.8297134453367405e-22 1.2592477138677e-14 1.2463947186157382e-14 1.2852995251962272e-16
2.6717017477616296 1.9335436485652455e-22 1.3712334156962864e-14 1.354703940172144e-14 1.6529475524142578e-16
2.753070231689431 2.0479892446047993e-22 1.49662982315697e-14 1.4755659533329087e-14 2.1063869824061508e-16
2.836916847834745 2.1771494337623934e-22 1.639473036331909e-14 1.6128682867886653e-14 2.6604749543243616e-16
2.9233170693905177 2.3298190898025675e-22 1.8078714853677054e-14 1.774562964400159e-14 3.3308520967546803e-16
2.967498994190263 2.4231600554847393e-22 1.9087195191004124e-14 1.8716405528674755e-14 3.70789662329369e-16
3.0123486681368425 2.523841495469922e-22 2.018072423640741e-14 1.976850602416993e-14 4.1221821223747626e-16
3.0578761833420214 2.6824760792425297e-22 2.1773346667344303e-14 2.131553959377159e-14 4.578070735727079e-16
3.1040917844459814 2.8683321792118857e-22 2.3633793285013042e-14 2.312635537743327e-14 5.074379075797748e-16
3.127460860933648 3.0340977009747863e-22 2.5187837211327363e-14 2.4653817797512865e-14 5.340194138144961e-16
3.1510058709225794 3.2433777952792074e-22 2.7127900541461992e-14 2.6566167875344152e-14 5.617326661178423e-16
3.162844764501044 3.4282368586374463e-22 2.878181184883935e-14 2.8205735293849707e-14 5.760765549896383e-16
3.1747281389236908 3.6377710669523507e-22 3.06557071638145e-14 3.0064993523112413e-14 5.907136407020835e-16
3.1986289994194426 4.203934372580954e-22 3.569350783649683e-14 3.50725494537162e-14 6.209583827806294e-16
3.2227097969389145 5.500911605850398e-22 4.705711510541351e-14 4.640410221501849e-14 6.530128903950216e-16
3.2348180950136065 6.714208609148082e-22 5.76519667424436e-14 5.698184620892992e-14 6.701205335136813e-16
3.240889293275058 7.6189176324250035e-22 6.554308931069445e-14 6.486394489887536e-14 6.79144411819099e-16
3.2469718861334385 8.666498609910123e-22 7.4695017448996e-14 7.400653592128251e-14 6.884815277134858e-16
3.2714166318528037 1.4179306946611813e-21 1.2312898356133748e-13 1.2240191122931397e-13 7.270723320235194e-16
3.2744851364798273 1.4525251280016954e-21 1.2625137325158894e-13 1.255197514865902e-13 7.3162176499872e-16
3.2775565192852394 1.488055984858436e-21 1.2946098097118232e-13 1.287247868883826e-13 7.361940827997567e-16
3.283707930232385 1.454679781217011e-21 1.2679477501126909e-13 1.260504008411467e-13 7.443741701223754e-16
3.2898708863219004 1.3475029547704708e-21 1.1767332178279745e-13 1.169215002272071e-13 7.518215555903644e-16
3.29141343181113 1.3221890740805238e-21 1.15516875661883e-13 1.147631839508063e-13 7.536917110766985e-16
3.292184975758714 1.309744918760451e-21 1.1445647959669786e-13 1.137018515599204e-13 7.546280367774311e-16
3.295272960557952 1.231806836575484e-21 1.0774656607529748e-13 1.069882953335453e-13 7.582707417521719e-16
3.3076538914384823 9.60263273890191e-22 8.431014020353472e-14 8.353723707904761e-14 7.729031244871374e-16
3.310756385682612 9.04572145647261e-22 7.949501010399035e-14 7.871841845651671e-14 7.765916474736562e-16
3.313861789986515 8.530231726429307e-22 7.503513247498024e-14 7.425484010986447e-14 7.802923651157699e-16
3.3200813396944477 7.81107866005738e-22 6.883814648160414e-14 6.804989567750335e-14 7.882508041008033e-16
3.345076488085796 6.560247896761968e-22 5.824997408311717e-14 5.742626118020738e-14 8.237129029097877e-16
3.3482140837626964 6.6135121845168485e-22 5.877800072911455e-14 5.794948410573851e-14 8.285166233760502e-16
3.3513546224236106 6.667270349008924e-22 5.931136015516408e-14 5.8478018001795e-14 8.333421533690726e-16
3.3576445397418455 7.035104970176012e-22 6.27010382375806e-14 6.185760761143749e-14 8.434306261430882e-16
3.3702598118196083 8.364733197912637e-22 7.483157878767046e-14 7.396698689252756e-14 8.645918951428818e-16
3.382922481734668 8.68739081693941e-22 7.801010073276703e-14 7.71249318259056e-14 8.851689068614139e-16
3.389271646505754 8.853811318262736e-22 7.96537220186948e-14 7.875812169704674e-14 8.956003216480398e-16
3.395632727569191 9.035778568239179e-22 8.14433676532238e-14 8.053701707548395e-14 9.063505777398623e-16
3.421196662673239 9.913179747844158e-22 9.002444522756978e-14 8.907358416352881e-14 9.508610640409925e-16
3.4276182099114902 9.76065403057551e-22 8.88056901724251e-14 8.784488641263361e-14 9.608037597914793e-16
3.4340518103208963 9.05430090711909e-22 8.253367809871676e-14 8.15634656993497e-14 9.702123993670352e-16
3.4469541582030403 8.044883429677821e-22 7.360794552307955e-14 7.26196651352716e-14 9.88280387807975e-16
3.472904465399547 7.782821117764259e-22 7.174626847762862e-14 7.071638125013572e-14 1.0298872274929016e-15
3.4990501388274233 7.374520616838035e-22 6.849413616605957e-14 6.742165136234765e-14 1.0724848037119116e-15
3.5253949054701885 5.86924560286057e-22 5.492366238634962e-14 5.3809760912779075e-14 1.11390147357055e-15
3.5519380250092896 4.440049063690198e-22 4.186225142678483e-14 4.070669570214183e-14 1.1555557246430041e-15
3.578680990867387 3.8945359055343634e-22 3.699543444040014e-14 3.5794220734896517e-14 1.2012137055036356e-15
3.605625307711299 3.6967443528180316e-22 3.538094631190891e-14 3.413163066003382e-14 1.2493156518750992e-15
3.660119384959845 3.600122922624148e-22 3.4976956264158125e-14 3.3626514320023515e-14 1.3504419441346178e-15
3.715437065384467 3.550576628522039e-22 3.5016943255449696e-14 3.3559797337262495e-14 1.4571459181871978e-15
3.8285932144167436 3.6361952325946128e-22 3.6953523240223556e-14 3.526671111579566e-14 1.6868121244278973e-15
3.94519561050918 3.772591109980536e-22 3.950733284660807e-14 3.756958456919321e-14 1.9377482774148574e-15
4.06534921144712 3.929931435379351e-22 4.2408436727728145e-14 4.019866611828036e-14 2.209770609447788e-15
4.189162171576248 4.0990860533054586e-22 4.558097827263252e-14 4.3077498863896396e-14 2.5034794087361177e-15
4.316745939156006 4.2758956857042105e-22 4.8995142355040106e-14 4.6177256342209836e-14 2.8178860128302898e-15
4.448215356677963 4.458057037673408e-22 5.263817926862275e-14 4.948943051326758e-14 3.148748755355171e-15
4.58368876423945 4.644800556207359e-22 5.6513424486562546e-14 5.3016884684986734e-14 3.4965398015758272e-15
4.723288106065518 4.836307789885208e-22 6.063561716425262e-14 5.677213027813e-14 3.8634868861226246e-15
4.867139040275056 5.032722719145759e-22 6.501988385311929e-14 6.077982081702795e-14 4.240063036091355e-15
4.940699165968905 5.135194533099075e-22 6.73464556478949e-14 6.291334769683929e-14 4.4331079510556295e-15
5.015371051989984 5.236860716039288e-22 6.971777608544433e-14 6.50890337402347e-14 4.628742345209622e-15
5.091171501069577 5.345823594288063e-22 7.224399991307459e-14 6.74128577458054e-14 4.831142167269156e-15
5.129500256944802 5.399903579434646e-22 7.352423154819462e-14 6.859110795273372e-14 4.9331235954609016e-15
5.168117569889187 5.454450538159711e-22 7.482605103190158e-14 6.978946046626141e-14 5.036590565640167e-15
5.20702561229733 5.515218310154664e-22 7.622928650072838e-14 7.107985295507449e-14 5.149433545653897e-15
5.246226572918644 5.575925318897071e-22 7.764856325950032e-14 7.238546638815707e-14 5.263096871343258e-15
5.265937586045735 5.606255389473095e-22 7.83642566511804e-14 7.304403409778296e-14 5.320222553397418e-15
5.285722656980489 5.636569613569672e-22 7.908400956727445e-14 7.370647269711947e-14 5.377536870154982e-15
5.305582063971359 5.666867901677106e-22 7.980784031355647e-14 7.437280609762308e-14 5.435034215933385e-15
5.3255160863122235 5.698320693708761e-22 8.055231404252606e-14 7.50591549926027e-14 5.493159049923361e-15
5.365609099470188 5.770283525191343e-22 8.218368600282919e-14 7.657026924154943e-14 5.613416761279755e-15
5.406003951863644 5.842745140801484e-22 8.384221336123024e-14 7.810769426911974e-14 5.734519092110497e-15
5.446702915881641 5.915741596826775e-22 8.552878771277431e-14 7.967236621788696e-14 5.8564214948873826e-15
5.487708281020852 5.991549923139064e-22 8.727696432821469e-14 8.12973702230044e-14 5.9795941052102794e-15
5.529022354014368 6.08796242683635e-22 8.934900947861606e-14 8.324100054288007e-14 6.1080089357359715e-15
5.570647458961463 6.186658568494771e-22 9.148107439871522e-14 8.524376530186711e-14 6.237309096848101e-15
5.612585937458331 6.287830688853918e-22 9.367706510551782e-14 8.730961574592401e-14 6.367449359593822e-15
5.654840148729818 6.395083799475964e-22 9.599221334610765e-14 8.9493192123486e-14 6.499021222621642e-15
5.67608639626678 6.464879736856263e-22 9.740446843971394e-14 9.083660166660844e-14 6.567866773105488e-15
5.686739436050992 6.50038890933902e-22 9.812329042684772e-14 9.152090842676493e-14 6.6023820000827675e-15
5.6974124697621304 6.536319286192128e-22 9.885083752697997e-14 9.221387960840917e-14 6.636957918570784e-15
5.718818669136295 6.609486480381765e-22 1.0033292603953632e-13 9.362663706033762e-14 6.706288979198722e-15
5.740305295436557 6.688721914680134e-22 1.0191721890847296e-13 9.514084743890421e-14 6.776371469568746e-15
5.7835210386641895 6.888578602408576e-22 1.0575267731293096e-13 9.883141936581949e-14 6.92125794711146e-15
5.827062130521658 7.111364347658953e-22 1.0999476390898491e-13 1.0292628659178082e-13 7.0684773172040755e-15
5.8489554468988025 7.26551781852479e-22 1.1280135550736138e-13 1.0565334768958843e-13 7.148007817772912e-15
5.870931020387893 7.427998736272822e-22 1.1575725828766234e-13 1.0852934144434737e-13 7.227916843314917e-15
5.892989160043636 7.599465493381902e-22 1.1887434107202444e-13 1.1156614188633388e-13 7.308199185690579e-15
5.915130176081913 7.792281839794948e-22 1.2234842751984567e-13 1.149569972536584e-13 7.391430266187306e-15
5.95966208400165 8.326888659097919e-22 1.317267043454018e-13 1.241453714370628e-13 7.581332908339027e-15
6.004529249263818 9.084007020839774e-22 1.4478576293990046e-13 1.3699058612137047e-13 7.795176818529946e-15
6.027089341400364 9.606558110600025e-22 1.536897401854977e-13 1.457708783703502e-13 7.918861815147501e-15
6.049734195844842 1.0216787467372982e-21 1.6406656513802807e-13 1.5601665865134868e-13 8.04990648667941e-15
6.095279466722835 1.1969009294233911e-21 1.9365167596358529e-13 1.8527921958024823e-13 8.372456383337067e-15
6.141167624020661 1.4632585042503368e-21 2.385291395667566e-13 2.297375062071454e-13 8.791633359611209e-15
6.164241091010745 1.632940945724233e-21 2.6718958674528626e-13 2.581345990759915e-13 9.054987669294708e-15
6.187401249150058 1.8236854366805657e-21 2.9952125289007706e-13 2.9019585362205815e-13 9.325399268018919e-15
6.1990139391386085 1.916471549950454e-21 3.15351152471329e-13 3.0588816189520215e-13 9.462990576126849e-15
6.204828454712694 1.9651303690781753e-21 3.236611548253776e-13 3.141286697233873e-13 9.532485101990238e-15
6.210648424152782 2.000475973559712e-21 3.2979169737040285e-13 3.202000629262947e-13 9.591634444108145e-15
6.233982942956859 2.1193009636827612e-21 3.5069346921378137e-13 3.4089586514155916e-13 9.797604072222315e-15
6.239830258556775 2.1338019897378203e-21 3.534242333457942e-13 3.4359823772449927e-13 9.825995621294949e-15
6.245683058788269 2.134068473088482e-21 3.53799915546627e-13 3.439454835952871e-13 9.854431951339987e-15
6.257405133728602 2.128512118045115e-21 3.5354103927213194e-13 3.436369449341024e-13 9.904094338029555e-15
6.269149208991335 2.102299045763584e-21 3.498424716265747e-13 3.399206630016842e-13 9.921808624890548e-15
6.280915325867298 2.0400128552868404e-21 3.4011460054800335e-13 3.302145805393721e-13 9.900020008631207e-15
6.304513850009849 1.8878544921330938e-21 3.1592904438957965e-13 3.061083404656069e-13 9.820703923972781e-15
6.32820103803542 1.7018161420096584e-21 2.8586589110525077e-13 2.76162528227229e-13 9.703362878021787e-15
6.3519772230701035 1.5320273764014515e-21 2.583121838696789e-13 2.4871406120414865e-13 9.598122665530289e-15
6.375842739491607 1.3887398129022234e-21 2.3503249769769553e-13 2.2552720673844394e-13 9.505290959251621e-15
6.399797922933955 1.2752534749470386e-21 2.166367889322651e-13 2.0717922686894925e-13 9.457562063315756e-15
6.42384311029221 1.180514460398789e-21 2.012962432820694e-13 1.918774247053643e-13 9.418818576705126e-15
6.447978639727206 1.1120039628444733e-21 1.9032654244959706e-13 1.8091129108342436e-13 9.415251366172645e-15
6.472204850670314 1.0547549875398683e-21 1.812062927428053e-13 1.7178762894018794e-13 9.418663802617298e-15
6.496522083828205 1.0177960951465696e-21 1.75513744784564e-13 1.6606316262236062e-13 9.450582162203384e-15
