Dust emission spectrum from A.P. Jones, M. Kohler, N. Ysard, M. Bocchio, and L. Verstraete (2017), A&A, 602A, 46J 
inside the DustPedia framework.

lambda    nu*dP/dnu     j_nu    j_nu(carb.) j_nu(sil)
 (um)   (erg s-1 H-1) (Jy cm2 sr-1 H-1)
0.9927057738263894 4.224219606088022e-23 1.1131058592925647e-15 1.113105815547281e-15 4.374528398877602e-23
1.0001793341362166 4.295335305010197e-23 1.1403663182237754e-15 1.1403662655665505e-15 5.26572253069796e-23
1.0077091589558085 4.366673110239112e-23 1.1680335587862193e-15 1.1680334954852592e-15 6.330095996169801e-23
1.0114953028030835 4.4024210463785894e-23 1.1820201481676779e-15 1.1820200787978399e-15 6.936983782946154e-23
1.0152956718711033 4.438219450544301e-23 1.1961089506032118e-15 1.1961088746078547e-15 7.599535717684433e-23
1.0229392996569957 4.509926343855417e-23 1.2245844655546269e-15 1.2245843744389222e-15 9.111570458677693e-23
1.0267826658714554 4.5457526975747644e-23 1.2389499613977355e-15 1.238949861674626e-15 9.972310952489097e-23
1.0306404723013447 4.5816213199399134e-23 1.2534176816562326e-15 1.2534175725487974e-15 1.0910743528750202e-22
1.03451277320114 4.6175306877795336e-23 1.2679878168712632e-15 1.2679876975359846e-15 1.19335278365247e-22
1.0383996230291617 4.653479308414864e-23 1.2826605629977666e-15 1.2826604325191486e-15 1.3047861820516736e-22
1.0403485208654093 4.671467880614968e-23 1.290035477955034e-15 1.2900353415373692e-15 1.364176644075794e-22
1.0423010764483396 4.6894657205059467e-23 1.2974361217542258e-15 1.297435979139002e-15 1.4261522393341634e-22
1.0462171883269815 4.725488494892896e-23 1.3123147009777416e-15 1.3123145451486527e-15 1.5582908947737616e-22
1.0471985131304309 4.734499705750424e-23 1.3160504676992034e-15 1.3160503083878524e-15 1.5931135078153376e-22
1.048180758391296 4.743513080339953e-23 1.319792689975375e-15 1.3197925271073163e-15 1.6286805874037536e-22
1.0501480137395462 4.76154623543192e-23 1.3272965149843882e-15 1.3272963447734896e-15 1.7021089889033158e-22
1.0521189612883777 4.779587790945839e-23 1.3348262038666137e-15 1.3348260259965411e-15 1.7787007236997926e-22
1.0531058218030118 4.7885994332894876e-23 1.3385973364183498e-15 1.3385971545957766e-15 1.8182257296188968e-22
1.0540936079674168 4.797573034346815e-23 1.3423637250722584e-15 1.3423635392123176e-15 1.8585994115107005e-22
1.058054026499678 4.833485766908606e-23 1.3574933831878903e-15 1.3574931803037506e-15 2.028841398165659e-22
1.0590464539527713 4.842468432164754e-23 1.3612918414601458e-15 1.3612916340923731e-15 2.0736777284091467e-22
1.06003981227728 4.8514528507793474e-23 1.3650967244859313e-15 1.3650965125398125e-15 2.1194611911481056e-22
1.0620293250338977 4.869426870260606e-23 1.3727257795647443e-15 1.3727255581701523e-15 2.21394592349991e-22
1.0660195594769086 4.9053951016385926e-23 1.3880611510280294e-15 1.3880609095138285e-15 2.4151420086052157e-22
1.070024785945596 4.941389255829038e-23 1.4034997428681526e-15 1.4034994794927294e-15 2.6337542276211784e-22
1.0740450607676866 4.9774081659619117e-23 1.4190418092327548e-15 1.4190415221117927e-15 2.8712096273448654e-22
1.07808044048254 5.0134507042961116e-23 1.434687613523705e-15 1.4346873006191942e-15 3.1290451077310953e-22
1.0861967418109137 5.085545934282017e-23 1.4662752708662544e-15 1.4662748996061197e-15 3.712601345508382e-22
1.0902777775684922 5.121468276993365e-23 1.4821804488250953e-15 1.482180044623122e-15 4.0420197331417697e-22
1.0943741465085532 5.157407904791955e-23 1.4981894666609858e-15 1.4981890267379958e-15 4.399229900064018e-22
1.1026131145906286 5.2293354225086706e-23 1.530520271774332e-15 1.5305197511692068e-15 5.206051256345518e-22
1.1109141095355224 5.301321746008393e-23 1.5632703067378306e-15 1.563269691453723e-15 6.152841081004808e-22
1.1192775983109025 5.373302977769797e-23 1.5964251978266417e-15 1.596424471585889e-15 7.262407528824045e-22
1.1277040513999907 5.445007780711619e-23 1.629907951337733e-15 1.629907095235752e-15 8.561019806549178e-22
1.1361939428280308 5.516747003071577e-23 1.6638147515678161e-15 1.663813743678723e-15 1.007889093389193e-21
1.1447477501889525 5.588517037390462e-23 1.6981490676073647e-15 1.6981478825349883e-15 1.1850723765480236e-21
1.1533659546722406 5.660342676624123e-23 1.7329230756630074e-15 1.732921684028603e-15 1.3916344043453524e-21
1.1707974979042381 5.804379708258573e-23 1.8038774679077903e-15 1.803875556091452e-15 1.911816337849043e-21
1.1884924949847024 5.948610473594929e-23 1.8766418976189974e-15 1.876639284307449e-15 2.613311547965112e-21
1.2064549276569216 6.094030088389741e-23 1.951574472961391e-15 1.9515709183568368e-15 3.554604554558657e-21
1.2246888378427687 6.239606611947415e-23 2.0283943970326076e-15 2.028389585734132e-15 4.811298475388604e-21
1.2431983285522175 6.385192524691058e-23 2.1070936928959303e-15 2.107087212113579e-15 6.48078235056026e-21
1.2619875648066055 6.530965531739205e-23 2.1877711967215527e-15 2.1877625088520475e-15 8.687869505123155e-21
1.3004222497298317 6.821992267893966e-23 2.3548597539535226e-15 2.3548443604567523e-15 1.539349676983948e-20
1.3400274889804893 7.113351991742044e-23 2.5302150814831465e-15 2.5301883058829997e-15 2.6775600146978282e-20
1.3808389325824078 7.405936263613674e-23 2.7145161298678963e-15 2.7144703871252347e-15 4.5742742661981165e-20
1.4228933163050095 7.702201565868803e-23 2.909086616418729e-15 2.9090098271041795e-15 7.678931455122142e-20
1.466228494730424 8.007647072107241e-23 3.1165637309565025e-15 3.116436997340111e-15 1.2673361639185244e-19
1.5108834753276823 8.321420927664383e-23 3.337320338075184e-15 3.337114613391915e-15 2.0572468326929648e-19
1.5568984535646726 8.643147222302226e-23 3.571919238641158e-15 3.571590431597296e-15 3.288070438625734e-19
1.6043148490894465 8.974980748276823e-23 3.822016538155099e-15 3.821498139446505e-15 5.183987085938082e-19
1.6531753430134553 9.319281992245389e-23 4.0895055836096875e-15 4.0887003100420734e-15 8.052735676139636e-19
1.7035239163302658 9.678963560779915e-23 4.37669742038184e-15 4.375464651658962e-15 1.2327687228780077e-18
1.755405889504358 1.006204639876441e-22 4.688493300831641e-15 4.686632521196602e-15 1.860779635038679e-18
1.8088679632656115 1.04690188746598e-22 5.026692085163672e-15 5.023921724034523e-15 2.7703611291484287e-18
1.8639582606462262 1.0900408738003663e-22 5.393223264918932e-15 5.389153423029865e-15 4.069841889066433e-18
1.9207263702978936 1.135851590732297e-22 5.7910394388417625e-15 5.785137688185706e-15 5.90175065605817e-18
1.979223391128241 1.184653731922956e-22 6.2238006680797956e-15 6.215349578242885e-15 8.451089836910312e-18
2.039501978296691 1.2367616247477652e-22 6.6954468228914104e-15 6.68349245690554e-15 1.195436598587042e-17
2.1016163906111602 1.292899599032503e-22 7.212530798950519e-15 7.195819887014129e-15 1.671091193639086e-17
2.1656225393682647 1.3535083587703716e-22 7.780600881415166e-15 7.757507828363808e-15 2.3093053051356677e-17
2.231578038680979 1.4186159618836049e-22 8.403232001087684e-15 8.371674422991386e-15 3.155757809629773e-17
2.299542257339062 1.4884683356861515e-22 9.08553337577063e-15 9.042875602217135e-15 4.265777355349672e-17
2.369576372248914 1.5634892179425178e-22 9.834109379357056e-15 9.777053100030034e-15 5.705627932702271e-17
2.4417434235010123 1.6441610607398855e-22 1.0656481078859223e-14 1.0580946085474279e-14 7.553499338494767e-17
2.5161083711144245 1.7312978166912427e-22 1.1563000835904353e-14 1.1463992788598778e-14 9.90080473055695e-17
2.5927381535095444 1.8261514126608854e-22 1.2567962472103253e-14 1.2439432519585116e-14 1.2852995251814023e-16
2.6717017477616296 1.9299096054804728e-22 1.3686562195126793e-14 1.3521267439887853e-14 1.6529475523893705e-16
2.753070231689431 2.0442479061789484e-22 1.493895727418234e-14 1.472831857594584e-14 2.1063869823650213e-16
2.836916847834745 2.173239775049145e-22 1.636528920534329e-14 1.6099241709917553e-14 2.660474954257402e-16
2.9233170693905177 2.3256233932589575e-22 1.8046157475399704e-14 1.771307226573498e-14 3.3308520966472206e-16
2.967498994190263 2.418721226076842e-22 1.9052230598741086e-14 1.8681440936425266e-14 3.707896623158243e-16
3.0123486681368425 2.519118659418075e-22 2.014296027533967e-14 1.9730742063119197e-14 4.122182122204616e-16
3.0578761833420214 2.677117372552013e-22 2.172985066774747e-14 2.1272043594196096e-14 4.578070735513757e-16
3.1040917844459814 2.8621539161730584e-22 2.358288711989789e-14 2.3075449212344764e-14 5.074379075531128e-16
3.127460860933648 3.027052308442147e-22 2.5129349246307312e-14 2.4595329832522645e-14 5.340194137846723e-16
3.1510058709225794 3.235176963057832e-22 2.70593080508855e-14 2.6497575384801025e-14 5.617326660844831e-16
3.162844764501044 3.4189604941719116e-22 2.8703931997563725e-14 2.812785544260944e-14 5.76076554954284e-16
3.1747281389236908 3.6272438610074677e-22 3.056699379049883e-14 2.99762801498342e-14 5.907136406646224e-16
3.1986289994194426 4.189917970626818e-22 3.55745015655492e-14 3.4953543182810694e-14 6.209583827385033e-16
3.2227097969389145 5.478670241832794e-22 4.6866853108553804e-14 4.621384021820685e-14 6.530128903469433e-16
3.2348180950136065 6.684167302442537e-22 5.739401520773438e-14 5.6723894674272626e-14 6.701205334617604e-16
3.240889293275058 7.583044895998045e-22 6.523448773749398e-14 6.455534332572914e-14 6.791444117648145e-16
3.2469718861334385 8.623879875671363e-22 7.432769412259773e-14 7.363921259494119e-14 6.884815276565186e-16
3.2714166318528037 1.4100703408450269e-21 1.2244641326403051e-13 1.217193409320763e-13 7.270723319542006e-16
3.2744851364798273 1.444439840489217e-21 1.2554861181090482e-13 1.2481699004597675e-13 7.316217649280985e-16
3.2775565192852394 1.479739302801675e-21 1.2873742901584638e-13 1.280012349331186e-13 7.361940827278093e-16
3.283707930232385 1.4465857008005806e-21 1.260892677796598e-13 1.2534489360961088e-13 7.443741700489128e-16
3.2898708863219004 1.3401146949242804e-21 1.1702812759215183e-13 1.1627630603663557e-13 7.518215555162926e-16
3.29141343181113 1.3149672628872858e-21 1.1488592122275107e-13 1.141322295117486e-13 7.536917110024737e-16
3.292184975758714 1.3026048943258508e-21 1.1383252446672329e-13 1.1307789643002015e-13 7.546280367031296e-16
3.295272960557952 1.2251830576340437e-21 1.0716718186164416e-13 1.0640891111996639e-13 7.582707416777626e-16
3.3076538914384823 9.554278775897513e-22 8.388559731918781e-14 8.31126941947754e-14 7.729031244124035e-16
3.310756385682612 9.001007190846064e-22 7.910205515673943e-14 7.832546350934057e-14 7.765916473988416e-16
3.313861789986515 8.488875604759014e-22 7.467134844569444e-14 7.389105608065357e-14 7.802923650408739e-16
3.3200813396944477 7.774432028320698e-22 6.851518389047738e-14 6.772693308645218e-14 7.88250804025196e-16
3.345076488085796 6.532003067112204e-22 5.799918164036622e-14 5.717546873753824e-14 8.237129028279674e-16
3.3482140837626964 6.584952455721139e-22 5.852417436376702e-14 5.769565774047398e-14 8.285166232930529e-16
3.3513546224236106 6.63839223940203e-22 5.905446342384293e-14 5.822112127055803e-14 8.33342153284883e-16
3.3576445397418455 7.003899483430862e-22 6.242291638638937e-14 6.157948576033342e-14 8.434306260559494e-16
3.3702598118196083 8.324942890892242e-22 7.447561148729972e-14 7.361101959225112e-14 8.645918950486104e-16
3.382922481734668 8.645645891947822e-22 7.76352441305608e-14 7.67500752237995e-14 8.851689067612981e-16
3.389271646505754 8.81105376810817e-22 7.926905174599682e-14 7.837345142445195e-14 8.956003215448752e-16
3.395632727569191 8.991929924470163e-22 8.104814092332942e-14 8.014179034569601e-14 9.063505776334042e-16
3.421196662673239 9.864092265674165e-22 8.957866764031957e-14 8.86278065763995e-14 9.508610639200619e-16
3.4276182099114902 9.712623118994001e-22 8.83686888977928e-14 8.740788513812482e-14 9.608037596679764e-16
3.4340518103208963 9.010898364689603e-22 8.213804606679207e-14 8.11678336675505e-14 9.70212399241597e-16
3.4469541582030403 8.00807244329459e-22 7.327113752529654e-14 7.228285713761693e-14 9.882803876795884e-16
3.472904465399547 7.747858135604849e-22 7.142396073512354e-14 7.039407350777114e-14 1.0298872273524157e-15
3.4990501388274233 7.342383629266953e-22 6.819564961798012e-14 6.712316481442139e-14 1.0724848035587341e-15
3.5253949054701885 5.847163522000362e-22 5.4717021050133776e-14 5.36031195767261e-14 1.1139014734076822e-15
3.5519380250092896 4.427416576708142e-22 4.1743148160446396e-14 4.058759243597538e-14 1.1555557244709942e-15
3.578680990867387 3.885650346872505e-22 3.691102769440663e-14 3.5709813989089065e-14 1.2012137053175583e-15
3.605625307711299 3.689374600128944e-22 3.531041159288623e-14 3.4061095941214426e-14 1.249315651671809e-15
3.660119384959845 3.5938595613370066e-22 3.491610464366755e-14 3.356566269977715e-14 1.350441943890411e-15
3.715437065384467 3.5450968963157292e-22 3.496290035149376e-14 3.3505754433599197e-14 1.4571459178945736e-15
3.8285932144167436 3.631114658883077e-22 3.6901890946929736e-14 3.5215078822921044e-14 1.6868121240086836e-15
3.94519561050918 3.767588725770034e-22 3.9454946873077024e-14 3.7517198596257265e-14 1.937748276819755e-15
4.06534921144712 3.9248753747191273e-22 4.235387607390342e-14 4.0144105465292514e-14 2.2097706086109078e-15
4.189162171576248 4.093899874844415e-22 4.55233090545003e-14 4.301982964693024e-14 2.503479407570049e-15
4.316745939156006 4.270523572622305e-22 4.893358625906813e-14 4.611570024784826e-14 2.817886011219881e-15
4.448215356677963 4.452450064673947e-22 5.257197534897662e-14 4.942322659582672e-14 3.148748753149888e-15
4.58368876423945 4.638908909175795e-22 5.64417406444706e-14 5.294520084589038e-14 3.496539798580211e-15
4.723288106065518 4.830075012920733e-22 6.055747319693142e-14 5.669398631484712e-14 3.863486882084304e-15
4.867139040275056 5.026079110923192e-22 6.49340522547772e-14 6.069398922409138e-14 4.240063030685819e-15
4.940699165968905 5.128302817405296e-22 6.725607297157808e-14 6.282296502676195e-14 4.433107944816119e-15
5.015371051989984 5.229711915926807e-22 6.962260486120402e-14 6.499386252318349e-14 4.628742338020513e-15
5.091171501069577 5.338360925961947e-22 7.214314865968133e-14 6.731200650068693e-14 4.8311421589943675e-15
5.129500256944802 5.392279757839504e-22 7.342042680131396e-14 6.848730321472469e-14 4.933123586589254e-15
5.168117569889187 5.446658666979552e-22 7.471915943090865e-14 6.968256887477655e-14 5.036590556132116e-15
5.20702561229733 5.507220173022407e-22 7.611873923811065e-14 7.096930570264894e-14 5.149433535461703e-15
5.246226572918644 5.567715605319448e-22 7.753423739829948e-14 7.227114053787696e-14 5.263096860422515e-15
5.265937586045735 5.597937842890612e-22 7.824799395713301e-14 7.292777141503805e-14 5.320222542094955e-15
5.285722656980489 5.628142841417473e-22 7.896577756178278e-14 7.358824070332405e-14 5.377536858458726e-15
5.305582063971359 5.658330488760878e-22 7.968760590920275e-14 7.425257170537184e-14 5.435034203830924e-15
5.3255160863122235 5.689664410152612e-22 8.042994752282036e-14 7.49367884854201e-14 5.493159037400271e-15
5.365609099470188 5.761331196695134e-22 8.205618180811944e-14 7.644276506025746e-14 5.6134167478620065e-15
5.406003951863644 5.8334854440688905e-22 8.370933858226842e-14 7.797481950452799e-14 5.7345190777404224e-15
5.446702915881641 5.9061626606405165e-22 8.539029707957488e-14 7.953387560007088e-14 5.856421479504005e-15
5.487708281020852 5.981625999272954e-22 8.713240574815287e-14 8.115281165940819e-14 5.979594088744692e-15
5.529022354014368 6.077559099292132e-22 8.919632670132753e-14 8.308831778324884e-14 6.108008918078709e-15
5.570647458961463 6.17574751133207e-22 9.131973444096283e-14 8.50824253630416e-14 6.237309077921232e-15
5.612585937458331 6.276381536725731e-22 9.350649388272451e-14 8.713904454340961e-14 6.367449339314889e-15
5.654840148729818 6.383043114977091e-22 9.581147889578761e-14 8.93124576948931e-14 6.499021200894523e-15
5.67608639626678 6.452436280120313e-22 9.721698648517613e-14 9.064911973459607e-14 6.567866750580049e-15
5.686739436050992 6.487737834945238e-22 9.793232261488046e-14 9.132994063773223e-14 6.6023819771482215e-15
5.6974124697621304 6.523456307205327e-22 9.86563066005879e-14 9.201934870536758e-14 6.636957895220359e-15
5.718818669136295 6.596186418383822e-22 1.0013102924457024e-13 9.342474028957442e-14 6.706288954995845e-15
5.740305295436557 6.674940059594224e-22 1.0170722238601734e-13 9.493085094154572e-14 6.776371444471649e-15
5.7835210386641895 6.873547013313531e-22 1.055219140622201e-13 9.860065614219527e-14 6.921257920024803e-15
5.827062130521658 7.094892998711657e-22 1.097399939309403e-13 1.0267151664298577e-13 7.06847728795452e-15
5.8489554468988025 7.248036617067095e-22 1.1252994977007207e-13 1.0538194198282158e-13 7.148007787250459e-15
5.870931020387893 7.409433792068302e-22 1.1546794388176662e-13 1.082400270702983e-13 7.227916811468334e-15
5.892989160043636 7.5797369674113265e-22 1.1856573837791172e-13 1.1125753922544494e-13 7.308199152466746e-15
5.915130176081913 7.77122998509762e-22 1.2201788745834013e-13 1.1462645722685793e-13 7.391430231482196e-15
5.95966208400165 8.302137114288502e-22 1.313351488006258e-13 1.2375381593060457e-13 7.581332870021208e-15
6.004529249263818 9.05392308938629e-22 1.4430626914847864e-13 1.365110923728485e-13 7.795176775630157e-15
6.027089341400364 9.57276764973526e-22 1.5314914624006332e-13 1.4523028447074054e-13 7.918861769322786e-15
6.049734195844842 1.0178616774260062e-21 1.6345360000314846e-13 1.5540369356557259e-13 8.049906437575877e-15
6.095279466722835 1.191818634010425e-21 1.9282938984092598e-13 1.8445693351559999e-13 8.37245632532601e-15
6.141167624020661 1.4562290811129972e-21 2.373832571080319e-13 2.285916238193991e-13 8.791633288632778e-15
6.164241091010745 1.624668126876241e-21 2.6583594866363887e-13 2.5678096107386054e-13 9.054987589778226e-15
6.187401249150058 1.8139961667771868e-21 2.979298916812424e-13 2.886044925021763e-13 9.32539917906611e-15
6.1990139391386085 1.906090662290166e-21 3.1364300037930773e-13 3.041800098969943e-13 9.462990482313462e-15
6.204828454712694 1.9543851594009213e-21 3.2189139591894325e-13 3.1235891091329524e-13 9.532485005647987e-15
6.210648424152782 1.989464812741788e-21 3.279764346708465e-13 3.183848003251823e-13 9.591634345664082e-15
6.233982942956859 2.1073862396524568e-21 3.4872186821113224e-13 3.3892426424482226e-13 9.797603966309925e-15
6.239830258556775 2.1217717530792885e-21 3.514316505342408e-13 3.416056550198905e-13 9.825995514350274e-15
6.245683058788269 2.122028206046057e-21 3.51803800840615e-13 3.4194936899726113e-13 9.85443184335378e-15
6.257405133728602 2.1164966413983153e-21 3.515452958300128e-13 3.4164120160179086e-13 9.904094228221976e-15
6.269149208991335 2.0904612347028685e-21 3.478725477527687e-13 3.3795073923826943e-13 9.921808514499372e-15
6.280915325867298 2.028620624773271e-21 3.382152674529045e-13 3.2831524755370875e-13 9.900019899195753e-15
6.304513850009849 1.8775610827975426e-21 3.142064609021112e-13 3.0438575708422806e-13 9.82070381788305e-15
6.32820103803542 1.6928847380431827e-21 2.843656210756796e-13 2.7466225829860614e-13 9.703362777073515e-15
6.3519772230701035 1.5243449975559029e-21 2.570168727757159e-13 2.4741875020626615e-13 9.598122569449713e-15
6.375842739491607 1.382108160831739e-21 2.3391014653046665e-13 2.2440485566301755e-13 9.50529086744909e-15
6.399797922933955 1.2694639199187022e-21 2.156532741759241e-13 2.0619571220151578e-13 9.457561974408396e-15
6.42384311029221 1.1754249731170455e-21 2.0042840582271224e-13 1.9100958733246283e-13 9.418818490249391e-15
6.447978639727206 1.107424585575715e-21 1.8954275293871654e-13 1.8012750165784237e-13 9.415251280874186e-15
6.472204850670314 1.0506005040615105e-21 1.8049255490011415e-13 1.7107389118196177e-13 9.418663718152368e-15
6.496522083828205 1.0139176937774028e-21 1.7484493425235032e-13 1.6539435217490777e-13 9.45058207744256e-15
6.520930681187647 9.82952506236258e-22 1.7014200681561952e-13 1.6065518872377506e-13 9.486818091844486e-15
6.57002334288761 9.511460525651434e-22 1.6587600053804876e-13 1.5627723586879462e-13 9.598764669254192e-15
