Dust emission spectrum from A.P. Jones, M. Kohler, N. Ysard, M. Bocchio, and L. Verstraete (2017), A&A, 602A, 46J 
inside the DustPedia framework.

lambda    nu*dP/dnu     j_nu    j_nu(carb.) j_nu(sil)
 (um)   (erg s-1 H-1) (Jy cm2 sr-1 H-1)
0.9927057738263894 1.9095137018571854e-24 5.03167706260672e-17 5.031676994433861e-17 6.81728596581924e-25
1.0001793341362166 1.941402562734818e-24 5.154219485667955e-17 5.154219403584105e-17 8.208385021827761e-25
1.0077091589558085 1.9733155342090525e-24 5.278386331749289e-17 5.278386233045278e-17 9.87040107915571e-25
1.0114953028030835 1.9892780781876985e-24 5.341076521202715e-17 5.3410764130196055e-17 1.0818310824880792e-24
1.0152956718711033 2.00524308618843e-24 5.404169916003228e-17 5.4041697974696694e-17 1.185335597240174e-24
1.0229392996569957 2.037160245334145e-24 5.531520029546681e-17 5.531519887385189e-17 1.4216149135630006e-24
1.0267826658714554 2.0530747561954147e-24 5.595678117932062e-17 5.595677962316381e-17 1.5561568069317513e-24
1.0306404723013447 2.0689862863946392e-24 5.660232073709043e-17 5.660231903421922e-17 1.7028712095060163e-24
1.03451277320114 2.0848937037518345e-24 5.725180826248473e-17 5.725180639968018e-17 1.862804544028234e-24
1.0383996230291617 2.1007958866378897e-24 5.790523296892501e-17 5.79052309318369e-17 2.037088111487682e-24
1.0403485208654093 2.108744667611932e-24 5.823341837490643e-17 5.823341624491686e-17 2.1299895488567932e-24
1.0423010764483396 2.1166917243065853e-24 5.856258400023671e-17 5.85625817732922e-17 2.2269445316730206e-24
1.0462171883269815 2.1325801172226735e-24 5.922385044146811e-17 5.922384800777347e-17 2.433694635813918e-24
1.0471985131304309 2.1365509244510317e-24 5.938977755076806e-17 5.938977506258152e-17 2.4881865277362395e-24
1.048180758391296 2.1405211814390625e-24 5.955594851650045e-17 5.955594597265422e-17 2.5438462380710793e-24
1.0501480137395462 2.1484599773859475e-24 5.98890213298356e-17 5.988901867107073e-17 2.6587648402106644e-24
1.0521189612883777 2.1563963709181587e-24 6.022306750546818e-17 6.022306472682166e-17 2.7786465354997595e-24
1.0531058218030118 2.160357877719949e-24 6.039029451331225e-17 6.039029167279629e-17 2.8405159736550316e-24
1.0540936079674168 2.1642999039076884e-24 6.055723717770575e-17 6.055723427398875e-17 2.903717006350895e-24
1.058054026499678 2.180060395162538e-24 6.122739786768634e-17 6.122739469743723e-17 3.1702491089349353e-24
1.0590464539527713 2.1839985330368295e-24 6.139553466236849e-17 6.139553142191424e-17 3.240454261293311e-24
1.06003981227728 2.1879358444861226e-24 6.156390975156175e-17 6.156390643941553e-17 3.3121462004517975e-24
1.0620293250338977 2.1958079236200114e-24 6.190137410492425e-17 6.19013706448135e-17 3.4601107537539e-24
1.0660195594769086 2.2115414583009928e-24 6.257915455434091e-17 6.257915077910371e-17 3.775237205529152e-24
1.070024785945596 2.227259981558696e-24 6.326072789612078e-17 6.326072377840602e-17 4.1177147627622264e-24
1.0740450607676866 2.2429624893742858e-24 6.394608283742762e-17 6.394607834763589e-17 4.489791745701119e-24
1.07808044048254 2.258647991648141e-24 6.463520812423629e-17 6.463520323034608e-17 4.893890220401184e-24
1.0861967418109137 2.289937926361851e-24 6.60239706146155e-17 6.602396480583028e-17 5.808785211359812e-24
1.0902777775684922 2.3054809511500937e-24 6.672185799302532e-17 6.672185166761216e-17 6.325413165066104e-24
1.0943741465085532 2.321002110676488e-24 6.742342235684962e-17 6.74234154710981e-17 6.88575153020602e-24
1.1026131145906286 2.3519752100482517e-24 6.883753759980911e-17 6.883752944800452e-17 8.151804590075754e-24
1.1109141095355224 2.3828501359145923e-24 7.026622871336266e-17 7.02662190751951e-17 9.638167568755669e-24
1.1192775983109025 2.4135933064795057e-24 7.170861549610311e-17 7.170860411523068e-17 1.1380872445936362e-23
1.1277040513999907 2.444075219504311e-24 7.316091719922142e-17 7.316090377777786e-17 1.3421443574601254e-23
1.1361939428280308 2.4744353761736824e-24 7.462734974771902e-17 7.462733394005243e-17 1.5807666557963632e-23
1.1447477501889525 2.5046678324955408e-24 7.610783533379947e-17 7.610781673933815e-17 1.859446134009956e-23
1.1533659546722406 2.5347809791896558e-24 7.760273010907534e-17 7.760270826418225e-17 2.1844893081507185e-23
1.1707974979042381 2.594743437069845e-24 8.063909420798696e-17 8.063906417145752e-17 3.0036529434787834e-23
1.1884924949847024 2.6541575462932234e-24 8.373221404166647e-17 8.373217294732576e-17 4.1094340703722434e-23
1.2064549276569216 2.7134589955015414e-24 8.689680280931348e-17 8.68967468622405e-17 5.594707298589584e-23
1.2246888378427687 2.7721166994828564e-24 9.011699504236212e-17 9.011691924551632e-17 7.579684580387435e-23
1.2431983285522175 2.8300334323997364e-24 9.33902239131408e-17 9.339012171894104e-17 1.0219419976092671e-22
1.2619875648066055 2.8872355932218317e-24 9.671787178025217e-17 9.671773465138148e-17 1.3712887066623545e-22
1.3004222497298317 2.9988258700775154e-24 1.0351542589391217e-16 1.0351518244598261e-16 2.434479295508834e-22
1.3400274889804893 3.1068276467847346e-24 1.1050967499695458e-16 1.1050925068441739e-16 4.243125371825831e-22
1.3808389325824078 3.2112563080098226e-24 1.1770297144009297e-16 1.177022450495388e-16 7.263905542268567e-22
1.4228933163050095 3.312844144810893e-24 1.2512462159724635e-16 1.2512339959272453e-16 1.2220045217817145e-21
1.466228494730424 3.413708776232027e-24 1.3286101228301185e-16 1.3285899107923505e-16 2.0212037767896813e-21
1.5108834753276823 3.512980620179188e-24 1.408886988520433e-16 1.4088541054111063e-16 3.2883109326506026e-21
1.5568984535646726 3.610034292908604e-24 1.4919045819006513e-16 1.4918519055625242e-16 5.267633812706461e-21
1.6043148490894465 3.7054180439228616e-24 1.5779609385090432e-16 1.5778776967662755e-16 8.324174276774903e-21
1.6531753430134553 3.799758496905555e-24 1.6674174686841536e-16 1.6672878571446848e-16 1.2961153946890075e-20
1.7035239163302658 3.8939911252236556e-24 1.760810525397088e-16 1.7606116294265592e-16 1.9889597052848987e-20
1.755405889504358 3.991369916822123e-24 1.8598116500893321e-16 1.8595106926606245e-16 3.0095742870810365e-20
1.8088679632656115 4.091722664874265e-24 1.9646377736496957e-16 1.964188579170957e-16 4.491944787392736e-20
1.8639582606462262 4.1950144490055616e-24 2.0755780876517316e-16 2.0749165019413036e-16 6.615857104283199e-20
1.9207263702978936 4.302023102966237e-24 2.1933486433755015e-16 2.192386757739878e-16 9.618856356240018e-20
1.979223391128241 4.413964166656931e-24 2.3189588982028637e-16 2.3175778352658325e-16 1.3810629370306223e-19
2.039501978296691 4.5321336867728785e-24 2.4535577015668905e-16 2.4515988090845705e-16 1.9588924823196868e-19
2.1016163906111602 4.659611356461142e-24 2.5993967702337197e-16 2.596650813963833e-16 2.745956269887884e-19
2.1656225393682647 4.798292466644418e-24 2.7582835638472116e-16 2.7544780661824236e-16 3.8054976647886346e-19
2.231578038680979 4.9484398774125005e-24 2.9312294130765566e-16 2.926013879282459e-16 5.215533794097566e-19
2.299542257339062 5.11120792716457e-24 3.119854759379225e-16 3.1127836453448204e-16 7.071114034403188e-19
2.369576372248914 5.2887234237791716e-24 3.326526593835729e-16 3.317039819069146e-16 9.486774766581478e-19
2.4417434235010123 5.483432852710211e-24 3.5540373651596893e-16 3.541438796918697e-16 1.2598568240991272e-18
2.5161083711144245 5.699406220611677e-24 3.8065223820959845e-16 3.789955710835793e-16 1.656667126019147e-18
2.5927381535095444 5.9430503122320916e-24 4.0901336425943286e-16 4.0685563723003737e-16 2.1577270293955623e-18
2.6717017477616296 6.221316574287126e-24 4.412042718879324e-16 4.3841997300095595e-16 2.7842988869764102e-18
2.753070231689431 6.544354527178931e-24 4.782484177829927e-16 4.74688019035422e-16 3.5603987475706876e-18
2.836916847834745 6.935585067019416e-24 5.222748853262925e-16 5.177618969029981e-16 4.512988423294486e-18
2.9233170693905177 7.445950240517428e-24 5.77783965296593e-16 5.721130625135784e-16 5.670902783014797e-18
2.967498994190263 7.795215768741487e-24 6.140279697875661e-16 6.077026329341624e-16 6.325336853403682e-18
3.0123486681368425 8.183854695052496e-24 6.543838632026752e-16 6.473379476822864e-16 7.045915520388873e-18
3.0578761833420214 8.89550612226869e-24 7.220378965553797e-16 7.1419749217334375e-16 7.840404382035855e-18
3.1040917844459814 9.769229508054858e-24 8.049414653593461e-16 7.962338795342944e-16 8.707585825051478e-18
3.127460860933648 1.0620195782177486e-23 8.816451837657384e-16 8.724722559020038e-16 9.172927863734794e-18
3.1510058709225794 1.1726617572833974e-23 9.808247305220734e-16 9.711659933079773e-16 9.658737214096024e-18
3.162844764501044 1.2732824932634641e-23 1.0689861483519427e-15 1.05907571266674e-15 9.910435685202867e-18
3.1747281389236908 1.389000871721021e-23 1.1705190675848662e-15 1.1603516115626125e-15 1.0167456022253094e-17
3.1986289994194426 1.7074202452186086e-23 1.4496852829195815e-15 1.4389862010216637e-15 1.0699081897918092e-17
3.2227097969389145 2.4490542078896815e-23 2.095024134499722e-15 2.0837609330593805e-15 1.126320144034132e-17
3.2348180950136065 3.148407183655108e-23 2.703399265796502e-15 2.6918348154963333e-15 1.1564450300169066e-17
3.240889293275058 3.670718730679026e-23 3.157800847923822e-15 3.146077492707233e-15 1.1723355216589628e-17
3.2469718861334385 4.275242584266019e-23 3.684755906673511e-15 3.672868126848531e-15 1.188777982498071e-17
3.2714166318528037 7.482149165019131e-23 6.497281037866631e-15 6.4847131221697555e-15 1.2567915696877733e-17
3.2744851364798273 7.683080317924791e-23 6.6780217583893465e-15 6.665373506084166e-15 1.2648252305182532e-17
3.2775565192852394 7.889648573978507e-23 6.864000106839509e-15 6.851271099140646e-15 1.2729007698859692e-17
3.283707930232385 7.693450993626965e-23 6.7058702567588034e-15 6.692996459685893e-15 1.2873797072909825e-17
3.2898708863219004 7.067171816582012e-23 6.171545526656211e-15 6.158539619348483e-15 1.3005907307727939e-17
3.29141343181113 6.919379192551911e-23 6.045315919731768e-15 6.032276829764523e-15 1.3039089967244004e-17
3.292184975758714 6.846744143072967e-23 5.9832584199455856e-15 5.970202715345882e-15 1.3055704599703385e-17
3.295272960557952 6.389659218135291e-23 5.589056812344289e-15 5.575936415169422e-15 1.3120397174867342e-17
3.3076538914384823 4.802247052143492e-23 4.216324140128764e-15 4.202943729424326e-15 1.3380410704438143e-17
3.310756385682612 4.478096078003683e-23 3.935410731808667e-15 3.9219647459342064e-15 1.3445985874460375e-17
3.313861789986515 4.178599541768546e-23 3.675653607451773e-15 3.662141817061646e-15 1.3511790390126008e-17
3.3200813396944477 3.7595206266343107e-23 3.313222704058184e-15 3.2995695331955976e-15 1.3653170862586536e-17
3.345076488085796 3.019859189145914e-23 2.6814035425282857e-15 2.6671207273793494e-15 1.428281514893597e-17
3.3482140837626964 3.0492129587092994e-23 2.710006975262482e-15 2.695638880555012e-15 1.4368094707470116e-17
3.3513546224236106 3.0788693798539104e-23 2.738930943251264e-15 2.7244771653310228e-15 1.445377792024159e-17
3.3576445397418455 3.289267583195716e-23 2.9315908345633243e-15 2.9169579738151206e-15 1.4632860748203978e-17
3.3702598118196083 4.058607330136906e-23 3.63086289792418e-15 3.615854363646151e-15 1.500853427802724e-17
3.382922481734668 4.238979006370651e-23 3.80647292448574e-15 3.791098543581091e-15 1.5374380904648865e-17
3.389271646505754 4.3322556381608036e-23 3.897533772875727e-15 3.881973819137099e-15 1.5559953738627214e-17
3.395632727569191 4.433415259429556e-23 3.996028302445406e-15 3.980277099650277e-15 1.5751202795130647e-17
3.421196662673239 4.920108711655965e-23 4.468092665448607e-15 4.4515489971607426e-15 1.6543668287863584e-17
3.4276182099114902 4.828421258543198e-23 4.393058917619025e-15 4.37633763418856e-15 1.6721283430464717e-17
3.4340518103208963 4.416368522070995e-23 4.025701616337045e-15 4.008811969325989e-15 1.6889647011056132e-17
3.4469541582030403 3.828698061249529e-23 3.5031284266608943e-15 3.485914871629326e-15 1.7213555031569133e-17
3.472904465399547 3.6696860911281666e-23 3.3829157774389947e-15 3.3649571594684062e-15 1.795861797058898e-17
3.4990501388274233 3.4241971810741257e-23 3.180375242892613e-15 3.1616524507311446e-15 1.872279216146812e-17
3.5253949054701885 2.5356711444935193e-23 2.3728491749449675e-15 2.353381224416389e-15 1.9467950528577597e-17
3.5519380250092896 1.696519470882619e-23 1.5995346813014305e-15 1.5793155290819162e-15 2.021915221951441e-17
3.578680990867387 1.3689693625103437e-23 1.3004275099812898e-15 1.2793846453956355e-15 2.104286458565416e-17
3.605625307711299 1.2421701016078108e-23 1.1888610485532194e-15 1.1669492686451177e-15 2.191177990810188e-17
3.660119384959845 1.1616266756525825e-23 1.128577170914049e-15 1.1048336963683964e-15 2.3743474545652583e-17
3.715437065384467 1.1093378554587248e-23 1.0940651280040187e-15 1.0683816652261713e-15 2.5683462777847668e-17
3.8285932144167436 1.1110001584440368e-23 1.1290749684432825e-15 1.099190304937288e-15 2.988466350599458e-17
3.94519561050918 1.142291409702918e-23 1.1962305379865872e-15 1.1617164900433946e-15 3.4514047943192543e-17
4.06534921144712 1.1861838174953372e-23 1.2800274559204935e-15 1.2404490433804367e-15 3.9578412540056936e-17
4.189162171576248 1.2376481466841365e-23 1.3762388139590906e-15 1.3311394163324335e-15 4.509939762665719e-17
4.316745939156006 1.294685419750008e-23 1.4835089793636877e-15 1.4324381621747047e-15 5.107081718898299e-17
4.448215356677963 1.3564836978251215e-23 1.6016581092992714e-15 1.5442313713708947e-15 5.74267379283771e-17
4.58368876423945 1.422986678219298e-23 1.7313520615532035e-15 1.667163714149922e-15 6.418834740328124e-17
4.723288106065518 1.4946722537269855e-23 1.8739579551278173e-15 1.8025470815872333e-15 7.141087354058419e-17
4.867139040275056 1.5724160406347395e-23 2.03147111486814e-15 1.9525395074138596e-15 7.893160745427953e-17
4.940699165968905 1.6150703469193725e-23 2.1181137887953358e-15 2.0352842012824924e-15 8.282958751284242e-17
5.015371051989984 1.6583083132989762e-23 2.2076884212923858e-15 2.1208780652850705e-15 8.681035600731567e-17
5.091171501069577 1.7067090862808826e-23 2.3064638947806554e-15 2.2155085238658963e-15 9.095537091475949e-17
5.129500256944802 1.731153609300918e-23 2.3571113251073935e-15 2.264054489245078e-15 9.305683586231627e-17
5.168117569889187 1.756161236852842e-23 2.409163112025097e-15 2.313967504598788e-15 9.519560742630931e-17
5.20702561229733 1.7848268927433567e-23 2.466921033944035e-15 2.3694036997444867e-15 9.751733419954823e-17
5.246226572918644 1.8138411163020168e-23 2.5258974718427297e-15 2.4260322519827314e-15 9.986521985999926e-17
5.265937586045735 1.8284817038986063e-23 2.555852339430525e-15 2.454803539943949e-15 1.0104879948657645e-16
5.285722656980489 1.8432128207221984e-23 2.586123659283632e-15 2.483884950191339e-15 1.0223870909229402e-16
5.305582063971359 1.8580356721978496e-23 2.6167155613380793e-15 2.5132806850431242e-15 1.0343487629495486e-16
5.3255160863122235 1.873612050330162e-23 2.648566031720258e-15 2.5439204069964425e-15 1.0464562472381473e-16
5.365609099470188 1.910241910276539e-23 2.720676040583394e-15 2.6135252272862366e-15 1.0715081329715768e-16
5.406003951863644 1.9476800933522626e-23 2.794881618332247e-15 2.685197656190968e-15 1.0968396214127877e-16
5.446702915881641 1.985964232581565e-23 2.871273372466833e-15 2.75902885275948e-15 1.1224451970735233e-16
5.487708281020852 2.0264206901855494e-23 2.951821290986103e-15 2.836979593218364e-15 1.1484169776773754e-16
5.529022354014368 2.079424114668912e-23 3.0518336334109855e-15 2.934282282833515e-15 1.1755135057747149e-16
5.570647458961463 2.1345807589494572e-23 3.1563684832058206e-15 3.0360771845395974e-15 1.202912986662238e-16
5.612585937458331 2.192044362454869e-23 3.2657412805320964e-15 3.1426802765939873e-15 1.2306100393810974e-16
5.654840148729818 2.2539745714592372e-23 3.3832865170265064e-15 3.2574143538090537e-15 1.258721632174539e-16
5.67608639626678 2.2948452687047548e-23 3.4575768250605737e-15 3.330234879695087e-15 1.273419453654869e-16
5.686739436050992 2.315770322495764e-23 3.4956524461123703e-15 3.3675724345351376e-15 1.2808001157723254e-16
5.6974124697621304 2.3370321583014222e-23 3.5343681368748666e-15 3.4055479527766948e-15 1.2882018409817175e-16
5.718818669136295 2.380598307713109e-23 3.613781413224536e-15 3.4834745969330734e-15 1.303068162914627e-16
5.740305295436557 2.4281222549564294e-23 3.69977210222775e-15 3.5679601228454975e-15 1.318119793822524e-16
5.7835210386641895 2.5491489377168225e-23 3.9134245334546944e-15 3.778497522614812e-15 1.3492701083988332e-16
5.827062130521658 2.6861381934746334e-23 4.1547742735951195e-15 4.016670387227863e-15 1.3810388636725678e-16
5.8489554468988025 2.7811841202568986e-23 4.317948789288431e-15 4.17813379464685e-15 1.3981499464158222e-16
5.870931020387893 2.882238004378379e-23 4.491653552525459e-15 4.350115565515592e-15 1.41537987009867e-16
5.892989160043636 2.9897745717283534e-23 4.676743153549595e-15 4.533470327839363e-15 1.432728257102324e-16
5.915130176081913 3.1112757957822306e-23 4.8850864101256566e-15 4.740016382352894e-15 1.4507002777275948e-16
5.95966208400165 3.448748274260769e-23 5.455726176774388e-15 5.306586770836064e-15 1.491394059383253e-16
6.004529249263818 3.930196248463716e-23 6.264157007275725e-15 6.1104514678003476e-15 1.5370553947537767e-16
6.027089341400364 4.263352093825244e-23 6.820689242448913e-15 6.664358357068433e-15 1.5633088538047985e-16
6.049734195844842 4.6546414992371306e-23 7.474668971704844e-15 7.315559470825878e-15 1.5910950087896773e-16
6.095279466722835 5.78105081409064e-23 9.353407215738628e-15 9.18751276854985e-15 1.658944471887758e-16
6.141167624020661 7.504006862219144e-23 1.2232454449770593e-14 1.2057809352489717e-14 1.7464509728087538e-16
6.164241091010745 8.603616184062399e-23 1.4077647196942194e-14 1.3897536844856827e-14 1.8011035208536533e-16
6.187401249150058 9.84855960550057e-23 1.617522875859224e-14 1.598949851501828e-14 1.8573024357395802e-16
6.1990139391386085 1.0455894855997925e-22 1.7204943600875416e-14 1.7016352139244435e-14 1.8859146163097479e-16
6.204828454712694 1.0775148134616914e-22 1.774689834090029e-14 1.7556860872255775e-14 1.9003746864451896e-16
6.210648424152782 1.1008149923797133e-22 1.8147663337425055e-14 1.7956387526571953e-14 1.91275810853097e-16
6.233982942956859 1.179724499473074e-22 1.952161040486528e-14 1.9325990005458085e-14 1.9562039940719883e-16
6.239830258556775 1.1896863981438762e-22 1.9704921319226113e-14 1.950867771056967e-14 1.9624360865644112e-16
6.245683058788269 1.1903860785058898e-22 1.9735003789908967e-14 1.9538135666503804e-14 1.9686812340516661e-16
6.257405133728602 1.1878394442780946e-22 1.9729743986809107e-14 1.9531770769153282e-14 1.9797321765582286e-16
6.269149208991335 1.1718681417719157e-22 1.9500995729607148e-14 1.9302558721554085e-14 1.9843700805306128e-16
6.280915325867298 1.1323874411735876e-22 1.887936643253048e-14 1.8681259649909e-14 1.9810678262147873e-16
6.304513850009849 1.0352649440538503e-22 1.732497212194604e-14 1.712824543059631e-14 1.9672669134973364e-16
6.32820103803542 9.154243228509799e-23 1.5377018899479393e-14 1.518243802902938e-14 1.9458087045001077e-16
6.3519772230701035 8.057148764130556e-23 1.358500327790537e-14 1.3392325430536417e-14 1.926778473689508e-16
6.375842739491607 7.132609458820993e-23 1.2071339790464667e-14 1.1880316972342646e-14 1.9102281812202092e-16
6.399797922933955 6.396016471179415e-23 1.0865388705031605e-14 1.0675108346827383e-14 1.9028035820422278e-16
6.42384311029221 5.782393390231193e-23 9.85988825786519e-15 9.670168926917435e-15 1.8971933094775564e-16
6.447978639727206 5.33747084534156e-23 9.135420424409652e-15 8.945547767738823e-15 1.898726566708266e-16
6.472204850670314 4.9664425423844274e-23 8.532319371389727e-15 8.34215041769827e-15 1.9016895369145933e-16
6.496522083828205 4.726998583564895e-23 8.151467931042995e-15 7.96042137334116e-15 1.9104655770183807e-16
6.520930681187647 4.525379076825413e-23 7.833105596125597e-15 7.641090721006322e-15 1.920148751192732e-16
