Dust emission spectrum from A.P. Jones, M. Kohler, N. Ysard, M. Bocchio, and L. Verstraete (2017), A&A, 602A, 46J 
inside the DustPedia framework.

lambda    nu*dP/dnu     j_nu    j_nu(carb.) j_nu(sil)
 (um)   (erg s-1 H-1) (Jy cm2 sr-1 H-1)
0.9927057738263894 4.275520862126138e-25 1.1266240316439258e-17 1.1266240315699173e-17 7.400870334825136e-28
1.0001793341362166 4.345773501739514e-25 1.1537571286303499e-17 1.1537571285411881e-17 8.916166497820297e-28
1.0077091589558085 4.415916151308417e-25 1.1812054915262193e-17 1.1812054914189393e-17 1.0727975795566283e-27
1.0114953028030835 4.450937598111374e-25 1.1950465127665257e-17 1.1950465126489068e-17 1.1761927835970916e-27
1.0152956718711033 4.485921218096619e-25 1.208964671633843e-17 1.208964671504929e-17 1.2891384123458964e-27
1.0229392996569957 4.55572682512666e-25 1.237020712535934e-17 1.2370207123812206e-17 1.5471321091444264e-27
1.0267826658714554 4.590463758776567e-25 1.25113601093351e-17 1.2511360107640977e-17 1.6941288244675293e-27
1.0306404723013447 4.625147525113968e-25 1.265325369212844e-17 1.2653253690273944e-17 1.854493554492298e-27
1.03451277320114 4.659774783191707e-25 1.279588172546028e-17 1.2795881723430894e-17 2.029382918925175e-27
1.0383996230291617 4.694342211344022e-25 1.2939237986550219e-17 1.2939237984330168e-17 2.2200480981831297e-27
1.0403485208654093 4.711602456607129e-25 1.3011187237881943e-17 1.3011187235560226e-17 2.3217152412646908e-27
1.0423010764483396 4.7288465078245e-25 1.3083316179611367e-17 1.3083316177183524e-17 2.4278420785212035e-27
1.0462171883269815 4.7632843914299105e-25 1.3228109937347261e-17 1.3228109934693032e-17 2.6542274119037585e-27
1.0471985131304309 4.77188310280902e-25 1.3264419430906569e-17 1.3264419428192658e-17 2.713911135833325e-27
1.048180758391296 4.780477408796048e-25 1.3300773144003394e-17 1.3300773141228511e-17 2.774880875599318e-27
1.0501480137395462 4.797652602109786e-25 1.3373612822450034e-17 1.3373612819549249e-17 2.9007845240390016e-27
1.0521189612883777 4.814809567267631e-25 1.3446628157330424e-17 1.3446628154298266e-17 3.0321557868679407e-27
1.0531058218030118 4.82336783492658e-25 1.3483164391479271e-17 1.3483164388379308e-17 3.0999664076705406e-27
1.0540936079674168 4.831877972815761e-25 1.3519622668061455e-17 1.3519622664892208e-17 3.1692441532599292e-27
1.058054026499678 4.8658686605450625e-25 1.3665881785301929e-17 1.366588178184044e-17 3.461488597285495e-27
1.0590464539527713 4.8743536186922975e-25 1.3702552544160411e-17 1.3702552540621923e-17 3.538488619555897e-27
1.06003981227728 4.8828333925210015e-25 1.3739265484709766e-17 1.3739265481092637e-17 3.617128531775566e-27
1.0620293250338977 4.899777190368623e-25 1.3812817488688048e-17 1.381281748490859e-17 3.779461650634361e-27
1.0660195594769086 4.933600414196326e-25 1.396042301945091e-17 1.39604230153256e-17 4.125312777170645e-27
1.070024785945596 4.967335208532832e-25 1.410869155813163e-17 1.4108691553630268e-17 4.5013606443422285e-27
1.0740450607676866 5.000978474992395e-25 1.4257616226086246e-17 1.425761622117614e-17 4.91010556384744e-27
1.07808044048254 5.034527140799351e-25 1.4407190086987902e-17 1.4407190081633656e-17 5.3542427768281175e-27
1.0861967418109137 5.10126886467873e-25 1.4708085391375804e-17 1.4708085385015267e-17 6.360536601051372e-27
1.0902777775684922 5.134320284621558e-25 1.4858998889161782e-17 1.4858998882232588e-17 6.929193027071988e-27
1.0943741465085532 5.167262722659896e-25 1.5010522195395962e-17 1.5010522187849688e-17 7.546270748702418e-27
1.1026131145906286 5.232809000600969e-25 1.5315369175345123e-17 1.531536916640353e-17 8.941595922120419e-27
1.1109141095355224 5.297884683990791e-25 1.5622567751598655e-17 1.562256774101725e-17 1.05814051288697e-26
1.1192775983109025 5.362406426715519e-25 1.59318779827102e-17 1.593187797020418e-17 1.2506019219539072e-26
1.1277040513999907 5.426072900985726e-25 1.62423998679741e-17 1.6242399853212133e-17 1.4761968803401123e-26
1.1361939428280308 5.489194011711892e-25 1.6555049498951026e-17 1.6555049481548157e-17 1.7402871213226403e-26
1.1447477501889525 5.551748864544675e-25 1.686976544016946e-17 1.6869765419679024e-17 2.049043473573001e-26
1.1533659546722406 5.613751416995873e-25 1.718659086087353e-17 1.7186590836777906e-17 2.4095618305347142e-26
1.1707974979042381 5.736302678551298e-25 1.7827205784306394e-17 1.7827205751109547e-17 3.319684910187364e-26
1.1884924949847024 5.85638248657499e-25 1.8475462112662005e-17 1.8475462067151615e-17 4.551038417126211e-26
1.2064549276569216 5.9749392287251135e-25 1.9134363807115177e-17 1.9134363745027042e-17 6.208813210048399e-26
1.2246888378427687 6.090670964001595e-25 1.9799778457017478e-17 1.9799778372721795e-17 8.429567531679559e-26
1.2431983285522175 6.203308086920466e-25 2.0470723935881423e-17 2.0470723821981643e-17 1.1389977462534176e-25
1.2619875648066055 6.312810932660545e-25 2.11469282171296e-17 2.114692806395507e-17 1.531745340352151e-25
1.3004222497298317 6.520593172637186e-25 2.2508208498582378e-17 2.2508208225408182e-17 2.731741993415387e-25
1.3400274889804893 6.713225303328454e-25 2.3878902559011584e-17 2.387890208064154e-17 4.783700507599462e-25
1.3808389325824078 6.890016228255486e-25 2.5254146836965962e-17 2.5254146014043102e-17 8.229228731893641e-25
1.4228933163050095 7.051864440088229e-25 2.6634572320681415e-17 2.6634570929327516e-17 1.391353895125441e-24
1.466228494730424 7.202728954283118e-25 2.803290856938554e-17 2.803290625617405e-17 2.3132115075650924e-24
1.5108834753276823 7.339683574950348e-25 2.9435928650461e-17 2.943592486705158e-17 3.78340941734561e-24
1.5568984535646726 7.460371526327397e-25 3.0831182087861626e-17 3.0831175994011066e-17 6.0938505501501755e-24
1.6043148490894465 7.565052702064705e-25 3.221595382793172e-17 3.221594414442292e-17 9.683508796630196e-24
1.6531753430134553 7.654087019260579e-25 3.3587814628580404e-17 3.358779946457261e-17 1.5164007794274253e-23
1.7035239163302658 7.728578621201468e-25 3.494759526907971e-17 3.494757186228626e-17 2.340679345105236e-23
1.755405889504358 7.79471485341482e-25 3.632011513742965e-17 3.632007950580304e-17 3.5631626599367117e-23
1.8088679632656115 7.851020330249734e-25 3.769661916461856e-17 3.7696565652602906e-17 5.351201566346008e-23
1.8639582606462262 7.896512193777939e-25 3.90697764632621e-17 3.906969714675945e-17 7.931650264977047e-23
1.9207263702978936 7.931980891035293e-25 4.044050696668051e-17 4.0440390891596136e-17 1.16075084389448e-22
1.979223391128241 7.959208282310692e-25 4.1815194170217777e-17 4.1815026387190026e-17 1.677830277630398e-22
2.039501978296691 7.98031704364771e-25 4.320298053107406e-17 4.32027408967661e-17 2.396343079743549e-22
2.1016163906111602 8.001168078244867e-25 4.463507548080699e-17 4.463473716301589e-17 3.383177911056181e-22
2.1656225393682647 8.025182071483197e-25 4.613251059315598e-17 4.6132038281069665e-17 4.72312086303081e-22
2.231578038680979 8.0526496299805695e-25 4.7700212659634296e-17 4.769956042924225e-17 6.522303920304753e-22
2.299542257339062 8.085640766613923e-25 4.9354331085382417e-17 4.935343987925881e-17 8.912061235958773e-22
2.369576372248914 8.128668183019452e-25 5.112808652784187e-17 5.112688119790908e-17 1.2053299328059803e-21
2.4417434235010123 8.187053987334283e-25 5.3063649292585565e-17 5.306203522950151e-17 1.6140630840572153e-21
2.5161083711144245 8.269876406871879e-25 5.523289343033855e-17 5.523075267108499e-17 2.1407592535630696e-21
2.5927381535095444 8.391959320563542e-25 5.775524914146063e-17 5.775243600572053e-17 2.813135740130827e-21
2.6717017477616296 8.57098470241293e-25 6.078383923782268e-17 6.078017564771162e-17 3.663590111053529e-21
2.753070231689431 8.83353870678128e-25 6.455374464201098e-17 6.454901498700161e-17 4.7296550093724235e-21
2.836916847834745 9.23978839877835e-25 6.957898114981999e-17 6.957292654715161e-17 6.054602668383136e-21
2.9233170693905177 9.922160893937784e-25 7.69930671093469e-17 7.698538051354077e-17 7.686595806149062e-21
2.967498994190263 1.0497560154983321e-24 8.268912293017784e-17 8.268050169615518e-17 8.621234022683999e-21
3.0123486681368425 1.1168763398336736e-24 8.930581996059439e-17 8.92961631946336e-17 9.656765960789531e-21
3.0578761833420214 1.2661789353652842e-24 1.0277427305291052e-16 1.027634677272242e-16 1.0805325686289679e-20
3.1040917844459814 1.4584064915405282e-24 1.2016626873412003e-16 1.2015420030233057e-16 1.2068431789453454e-20
3.127460860933648 1.6613083308899656e-24 1.3791501764374512e-16 1.3790226763538694e-16 1.2750008358171737e-20
3.1510058709225794 1.9315317429170246e-24 1.615550340475185e-16 1.6154156968966862e-16 1.346435784996132e-20
3.162844764501044 2.1828783100608445e-24 1.8326386244518212e-16 1.8325002689745368e-16 1.3835547728425256e-20
3.1747281389236908 2.4751456832270042e-24 2.0858195817241202e-16 2.085677428243886e-16 1.421534802341169e-20
3.1986289994194426 3.2902258745340974e-24 2.7935665171772587e-16 2.793416484318395e-16 1.500328588642107e-20
3.2227097969389145 5.210951830854934e-24 4.457667704613077e-16 4.457509280614042e-16 1.5842399903542932e-20
3.2348180950136065 7.032205162888306e-24 6.038246378351919e-16 6.038083465198414e-16 1.6291315350632843e-20
3.240889293275058 8.393770478524648e-24 7.220889825426616e-16 7.220724543879124e-16 1.6528154749776567e-20
3.2469718861334385 9.968892042298139e-24 8.592011590414819e-16 8.591843857855338e-16 1.6773255948265496e-20
3.2714166318528037 1.8370225780318462e-23 1.5952170558402217e-15 1.5951992662499413e-15 1.7789590280538454e-20
3.2744851364798273 1.889541417652929e-23 1.6423619405650516e-15 1.642344030270397e-15 1.7910294654889962e-20
3.2775565192852394 1.9435681606407866e-23 1.6909057402490796e-15 1.6908877085558708e-15 1.8031693208944738e-20
3.283707930232385 1.8916153847302735e-23 1.648795495831186e-15 1.6487772451852861e-15 1.8250645899321305e-20
3.2898708863219004 1.726851516330105e-23 1.508006742640778e-15 1.5079882910185403e-15 1.8451622236803877e-20
3.29141343181113 1.687996033247706e-23 1.4747665951333644e-15 1.4747480929966287e-15 1.8502136735839632e-20
3.292184975758714 1.668903815926558e-23 1.4584279184471173e-15 1.458409391012467e-15 1.8527434651132684e-20
3.295272960557952 1.5483958964601985e-23 1.354387196230217e-15 1.3543685700692896e-15 1.8626160927248818e-20
3.3076538914384823 1.1309158410183639e-23 9.929326228252683e-16 9.929135992005164e-16 1.902362475229585e-20
3.310756385682612 1.0459464523737121e-23 9.191917327963418e-16 9.191726087915917e-16 1.9124004750435315e-20
3.313861789986515 9.675482319162997e-24 8.510918822150486e-16 8.5107265742267315e-16 1.9224792375444674e-20
3.3200813396944477 8.576075113225099e-24 7.557997308365249e-16 7.55780290029365e-16 1.9440807159925086e-20
3.345076488085796 6.615207938298529e-24 5.873797713505855e-16 5.873593696419954e-16 2.040170859029594e-20
3.3482140837626964 6.688813416584766e-24 5.94472451109051e-16 5.944519192786115e-16 2.053183043951842e-20
3.3513546224236106 6.763231759755744e-24 6.016502312304543e-16 6.016295685878879e-16 2.0662642566355434e-20
3.3576445397418455 7.30678719213055e-24 6.512243172914297e-16 6.512033814333092e-16 2.0935858120418766e-20
3.3702598118196083 9.311367175613706e-24 8.330024280950687e-16 8.32980918871729e-16 2.1509223339540366e-20
3.382922481734668 9.768096938708253e-24 8.7714509708741555e-16 8.771230271326032e-16 2.2069954812076496e-20
3.389271646505754 1.0004706256590942e-23 9.000780143093886e-16 9.000556594336019e-16 2.235487578690117e-20
3.395632727569191 1.0259672583079637e-23 9.247485204236108e-16 9.247258718675602e-16 2.2648556050632922e-20
3.421196662673239 1.1483876424735475e-23 1.0428839489404077e-15 1.0428600806095865e-15 2.3868330821188084e-20
3.4276182099114902 1.123739477906347e-23 1.0224157069481718e-15 1.0223915626553566e-15 2.41442928151886e-20
3.4340518103208963 1.0156934643361748e-23 9.258463827569554e-16 9.258219756357528e-16 2.4407121203025974e-20
3.4469541582030403 8.61817928587017e-24 7.885340750150174e-16 7.885091596896318e-16 2.4915325385674338e-20
3.472904465399547 8.187328906889082e-24 7.547524078737363e-16 7.54726326660398e-16 2.6081213338005775e-20
3.4990501388274233 7.52817218727498e-24 6.992124338216893e-16 6.991851504581495e-16 2.728336354002247e-20
3.5253949054701885 5.181282988645622e-24 4.848579474299247e-16 4.848294820465626e-16 2.8465383362297064e-20
3.5519380250092896 2.9754905237055204e-24 2.80539090074495e-16 2.805094249253472e-16 2.9665149147932655e-20
3.578680990867387 2.1012797493721902e-24 1.9960724228622321e-16 1.9957625956785577e-16 3.0982718367274355e-20
3.605625307711299 1.7480687849781315e-24 1.6730485510497383e-16 1.6727247698655881e-16 3.237811841501037e-20
3.660119384959845 1.4912232457683576e-24 1.448796370800506e-16 1.448442935890257e-16 3.5343491024862663e-20
3.715437065384467 1.3097634817172466e-24 1.2917314091723837e-16 1.2913462116071285e-16 3.8519756525557504e-20
3.8285932144167436 1.219808565768315e-24 1.23965357469486e-16 1.2391983167013497e-16 4.552579935102632e-20
3.94519561050918 1.2050850396026003e-24 1.2619892901219669e-16 1.261454831597547e-16 5.344585244195998e-20
4.06534921144712 1.2214769874185937e-24 1.3181128064723385e-16 1.3174892880883935e-16 6.235183839446279e-20
4.189162171576248 1.2560880870329137e-24 1.396743641363445e-16 1.3960201646138072e-16 7.234767496378593e-20
4.316745939156006 1.3041507428022467e-24 1.4943547736596382e-16 1.4935197478056504e-16 8.350258539876079e-20
4.448215356677963 1.3641127803628603e-24 1.6106660921690058e-16 1.6097081755238742e-16 9.579166451318705e-20
4.58368876423945 1.4362492200677263e-24 1.74748863508701e-16 1.7463951680208887e-16 1.0934670661217414e-19
4.723288106065518 1.5221927804971047e-24 1.9084620478756262e-16 1.9072182921478391e-16 1.243755727786828e-19
4.867139040275056 1.625129679821506e-24 2.0995741058070195e-16 2.0981669364245408e-16 1.4071693824788028e-19
4.940699165968905 1.6868827076458535e-24 2.2122934335091622e-16 2.210798762926745e-16 1.4946705824164335e-19
5.015371051989984 1.7509393308984857e-24 2.3310071210582593e-16 2.3294210314914024e-16 1.5860895668562226e-19
5.091171501069577 1.8285296222892057e-24 2.471093397374035e-16 2.469410230468617e-16 1.683166905418905e-19
5.129500256944802 1.8683961106041024e-24 2.543978540338766e-16 2.542245255606111e-16 1.7332847326559444e-19
5.168117569889187 1.909938334212179e-24 2.620119886755145e-16 2.6183350904446503e-16 1.7847963104949527e-19
5.20702561229733 1.9605149606894183e-24 2.709750516170717e-16 2.7079102769717437e-16 1.840239198972683e-19
5.246226572918644 2.0123957901019537e-24 2.8023983980078144e-16 2.8005014230608197e-16 1.8969749469925086e-19
5.265937586045735 2.038838297419725e-24 2.849888856459521e-16 2.8479630223940546e-16 1.92583406546602e-19
5.285722656980489 2.06562269629787e-24 2.898176307148357e-16 2.896221283000814e-16 1.9550241475434524e-19
5.305582063971359 2.0927545016252315e-24 2.9472756376013978e-16 2.9452910897803557e-16 1.9845478210421377e-19
5.3255160863122235 2.121836119324825e-24 2.999459290161244e-16 2.9974447314792494e-16 2.014558681994618e-19
5.365609099470188 2.193749201573426e-24 3.124463377994746e-16 3.1223865918766685e-16 2.076786118076569e-19
5.406003951863644 2.268379780877538e-24 3.2550791963269903e-16 3.2529387117667873e-16 2.1404845602015464e-19
5.446702915881641 2.3458576653048275e-24 3.3916011877169234e-16 3.389395508300339e-16 2.2056794165835147e-19
5.487708281020852 2.4294492493260248e-24 3.5388999205659136e-16 3.536627337749042e-16 2.272582816873517e-19
5.529022354014368 2.5447161562304437e-24 3.734712076427425e-16 3.7323693865156967e-16 2.3426899117290733e-19
5.570647458961463 2.666683209644215e-24 3.9431793818649515e-16 3.940764894662887e-16 2.414487202064944e-19
5.612585937458331 2.7958282306083843e-24 4.165267739266747e-16 4.162779732892058e-16 2.4880063746883365e-19
5.654840148729818 2.9375795007166553e-24 4.4093989538816127e-16 4.4068354302144075e-16 2.563523667206566e-19
5.67608639626678 3.033645617990038e-24 4.570705889085544e-16 4.568102870060472e-16 2.6030190250698906e-19
5.686739436050992 3.083143297187789e-24 4.654001005123066e-16 4.651378056027652e-16 2.6229490954158287e-19
5.6974124697621304 3.1336483587946923e-24 4.739116178676777e-16 4.736473177102548e-16 2.6430015742280754e-19
5.718818669136295 3.2377771009678174e-24 4.914990769224552e-16 4.91230729300338e-16 2.6834762211697455e-19
5.740305295436557 3.352425148876157e-24 5.108148494294527e-16 5.105423825591947e-16 2.724668702580201e-19
5.7835210386641895 3.6490349028739764e-24 5.601956990841719e-16 5.599146675442688e-16 2.810315399029582e-19
5.827062130521658 3.99024523191784e-24 6.171896991443598e-16 6.168998312575726e-16 2.898678867869759e-19
5.8489554468988025 4.2290755563412355e-24 6.565883770624353e-16 6.562937727873382e-16 2.94604275097146e-19
5.870931020387893 4.485204081854103e-24 6.989701342310424e-16 6.98670728970594e-16 2.994052604482973e-19
5.892989160043636 4.760018954210775e-24 7.445840989276492e-16 7.442798273160228e-16 3.0427161162662926e-19
5.915130176081913 5.07233725919173e-24 7.964194574470919e-16 7.961101460766277e-16 3.093113704640384e-19
5.95966208400165 5.944441166817758e-24 9.40377223880003e-16 9.400566856272958e-16 3.2053825270704327e-19
6.004529249263818 7.199905367071846e-24 1.1475594297484504e-15 1.1472263713776743e-15 3.3305837077579703e-19
6.027089341400364 8.072013760483107e-24 1.2913945695634002e-15 1.2910544074290955e-15 3.401621343042835e-19
6.049734195844842 9.102105089518207e-24 1.4616640723237026e-15 1.4613164028706768e-15 3.4766945302602203e-19
6.095279466722835 1.2076248211934395e-23 1.953867398799634e-15 1.953501750028255e-15 3.6564877137880306e-19
6.141167624020661 1.665106331385309e-23 2.7143281884835494e-15 2.713939785406641e-15 3.8840307690834706e-19
6.164241091010745 1.957266604685318e-23 3.2025729811329993e-15 3.202170587347483e-15 4.0239378551539607e-19
6.187401249150058 2.2899653747853972e-23 3.7610285432726034e-15 3.760611686513828e-15 4.168567587745045e-19
6.1990139391386085 2.4524396349026503e-23 4.035435147748005e-15 4.035010910008211e-15 4.2423773979310197e-19
6.204828454712694 2.5380141073218487e-23 4.180163259724225e-15 4.1797352837610525e-15 4.279759631736971e-19
6.210648424152782 2.6005148958154873e-23 4.287120829558949e-15 4.28668959424575e-15 4.3123531319818077e-19
6.233982942956859 2.812908254219325e-23 4.654688367328659e-15 4.6542454449464934e-15 4.429223821648447e-19
6.239830258556775 2.8400969299730886e-23 4.7040872814389596e-15 4.7036424984068374e-15 4.447830321236899e-19
6.245683058788269 2.842528287566458e-23 4.712530458895984e-15 4.712083808300692e-15 4.466505952909924e-19
6.257405133728602 2.836864104540746e-23 4.711966989947309e-15 4.711516928323507e-15 4.500616238014729e-19
6.269149208991335 2.7953178916660913e-23 4.651673710136973e-15 4.651221716159141e-15 4.519939778328585e-19
6.280915325867298 2.6908794869023033e-23 4.486282522381009e-15 4.4858304360401814e-15 4.520863408257915e-19
6.304513850009849 2.4332301574781834e-23 4.071966783644433e-15 4.0715161858398515e-15 4.505978045817531e-19
6.32820103803542 2.113803242018835e-23 3.5507022908321487e-15 3.5502549618944924e-15 4.473289376564189e-19
6.3519772230701035 1.820873053184707e-23 3.0701389685502622e-15 3.0696943397794558e-15 4.446287708067327e-19
6.375842739491607 1.574409162216035e-23 2.664554687320858e-15 2.6641121841810218e-15 4.425031398368369e-19
6.399797922933955 1.3769911976180677e-23 2.3391973227311606e-15 2.338754770029465e-15 4.425527016953642e-19
6.42384311029221 1.2128507585175476e-23 2.0681008961882356e-15 2.0676578547846107e-15 4.430414036229903e-19
6.447978639727206 1.0933442529995635e-23 1.8713281457041766e-15 1.870882886922474e-15 4.452587817023378e-19
6.472204850670314 9.938116879524043e-24 1.707362693570746e-15 1.706914851435681e-15 4.478421350647668e-19
6.496522083828205 9.292506161081571e-24 1.6024452859884375e-15 1.601993429852938e-15 4.518561354999365e-19
6.520930681187647 8.74903350104788e-24 1.5143947526673114e-15 1.5139386263223947e-15 4.561263449164572e-19
6.57002334288761 8.196362617978548e-24 1.4294122825439954e-15 1.4289455138778439e-15 4.667686661512882e-19
