Dust emission spectrum from A.P. Jones, M. Kohler, N. Ysard, M. Bocchio, and L. Verstraete (2017), A&A, 602A, 46J 
inside the DustPedia framework.

lambda    nu*dP/dnu     j_nu    j_nu(carb.) j_nu(sil)
 (um)   (erg s-1 H-1) (Jy cm2 sr-1 H-1)
0.9927057738263894 9.750938519496908e-21 2.5694276841125505e-13 2.5694273518956114e-13 3.32216938847383e-20
1.0001793341362166 9.914603486760927e-21 2.632222881798822e-13 2.6322224820740863e-13 3.9972473570533316e-20
1.0077091589558085 1.0078963105840177e-20 2.696003764922275e-13 2.6960032846156686e-13 4.803066067841038e-20
1.0114953028030835 1.0161396761688639e-20 2.72826601074923e-13 2.728265484515199e-13 5.262340308043039e-20
1.0152956718711033 1.0243996242013072e-20 2.7607773188220345e-13 2.7607767424623267e-13 5.763597085151435e-20
1.0229392996569957 1.0409602217501335e-20 2.826528904518136e-13 2.8265282138147496e-13 6.907033873015411e-20
1.0267826658714554 1.049242107543485e-20 2.8597210519864597e-13 2.85972029621952e-13 7.557669399836422e-20
1.0306404723013447 1.0575392172043338e-20 2.893164365461323e-13 2.8931635387790186e-13 8.266823041341039e-20
1.03451277320114 1.0658513352063809e-20 2.926859828380609e-13 2.9268589244317004e-13 9.039489084737338e-20
1.0383996230291617 1.074178254469365e-20 2.9608084474473837e-13 2.960807459341044e-13 9.881063388748306e-20
1.0403485208654093 1.0783472022231379e-20 2.977878011735936e-13 2.9778769787864834e-13 1.0329494526365685e-19
1.0423010764483396 1.0825197765725362e-20 2.9950112536210016e-13 2.995010173883648e-13 1.079737353304688e-19
1.0462171883269815 1.0908757119673971e-20 3.029469303124021e-13 3.0294681236529155e-13 1.1794711056423462e-19
1.0471985131304309 1.0929669265421527e-20 3.038123823534112e-13 3.038122617785091e-13 1.2057490196039343e-19
1.048180758391296 1.0950590278934781e-20 3.046794381352852e-13 3.046793148766203e-13 1.2325866487167544e-19
1.0501480137395462 1.0992458801895988e-20 3.064183678464802e-13 3.064182390478211e-13 1.2879865914980742e-19
1.0521189612883777 1.1034362477517312e-20 3.081637334050914e-13 3.0816359882867134e-13 1.3457642001901044e-19
1.0531058218030118 1.105529987746717e-20 3.0903806374796105e-13 3.0903792619028456e-13 1.3755767644499234e-19
1.0540936079674168 1.1076155714587478e-20 3.099114810357093e-13 3.0991134043299207e-13 1.4060271715752313e-19
1.058054026499678 1.115966206755756e-20 3.134211653014003e-13 3.1342101186133535e-13 1.5344006497082832e-19
1.0590464539527713 1.1180559290222022e-20 3.143025991382002e-13 3.1430244231784464e-13 1.568203555356147e-19
1.06003981227728 1.120146472133593e-20 3.1518564172140735e-13 3.1518548144962817e-13 1.6027177911716235e-19
1.0620293250338977 1.1243300121413279e-20 3.169565605001358e-13 3.169563931063983e-13 1.6739373752652271e-19
1.0660195594769086 1.1327068482719147e-20 3.2051778480890305e-13 3.2051760225329235e-13 1.8255561072824247e-19
1.070024785945596 1.1410965860248676e-20 3.2410495958892695e-13 3.241047605642638e-13 1.9902466317531187e-19
1.0740450607676866 1.1494991067026377e-20 3.2771820949739427e-13 3.2771799258990726e-13 2.1690748699079194e-19
1.07808044048254 1.1579143022355909e-20 3.3135766260069084e-13 3.313574262818583e-13 2.363188323847034e-19
1.0861967418109137 1.1747695471221922e-20 3.3871201994269446e-13 3.38711739712265e-13 2.8023042941738054e-19
1.0902777775684922 1.1831803514704593e-20 3.4241875367293057e-13 3.424184486664662e-13 3.0500646440909145e-19
1.0943741465085532 1.1916030101616056e-20 3.461520033361907e-13 3.4615167147238483e-13 3.318638058144879e-19
1.1026131145906286 1.208483704364209e-20 3.536986362888629e-13 3.5369824379404983e-13 3.9249481310074494e-19
1.1109141095355224 1.2254113773937773e-20 3.6135313259580545e-13 3.6135266899989285e-13 4.63595912678474e-19
1.1192775983109025 1.2423728262311865e-20 3.691128702580181e-13 3.6911232339411715e-13 5.468639010260776e-19
1.1277040513999907 1.2593077713799017e-20 3.769610315387371e-13 3.769603872873975e-13 6.442513396984423e-19
1.1361939428280308 1.2762881928835122e-20 3.849201570035941e-13 3.84919399001548e-13 7.580020461588447e-19
1.1447477501889525 1.2933146769325718e-20 3.929917539951696e-13 3.9299086330418285e-13 8.906909866772713e-19
1.1533659546722406 1.3103939314855103e-20 4.0117922391128847e-13 4.011781786406563e-13 1.0452706322812364e-18
1.1707974979042381 1.3447633777743371e-20 4.179237883736731e-13 4.179223542601444e-13 1.4341135285298563e-18
1.1884924949847024 1.3793564548544285e-20 4.35153407072338e-13 4.351514493501977e-13 1.9577221403970956e-18
1.2064549276569216 1.414407771690951e-20 4.52955115342996e-13 4.5295245606947844e-13 2.6592735176992858e-18
1.2246888378427687 1.4497007098786974e-20 4.712740690513464e-13 4.712704745725343e-13 3.594478812093149e-18
1.2431983285522175 1.4852126263028806e-20 4.901155517849662e-13 4.901107168185646e-13 4.834966401751945e-18
1.2619875648066055 1.521002315901316e-20 5.095119612412851e-13 5.095054888795687e-13 6.4723617164803666e-18
1.3004222497298317 1.59323158323754e-20 5.499620619259325e-13 5.499506271344736e-13 1.1434791458876403e-17
1.3400274889804893 1.666672808729709e-20 5.928345288467922e-13 5.928146980597346e-13 1.983078705753742e-17
1.3808389325824078 1.741676997374559e-20 6.383811761412898e-13 6.38347400553578e-13 3.377558771175848e-17
1.4228933163050095 1.8189605121080435e-20 6.870131398555249e-13 6.869566158315425e-13 5.652402398243487e-17
1.466228494730424 1.899944992587487e-20 7.394556230301457e-13 7.393626304608709e-13 9.299256927466387e-17
1.5108834753276823 1.9846483957731973e-20 7.959466914025231e-13 7.957962247583487e-13 1.5046664417442003e-16
1.5568984535646726 2.0732145162766634e-20 8.567891563168602e-13 8.565494557180539e-13 2.397005988060903e-16
1.6043148490894465 2.166388540476093e-20 9.225616257014314e-13 9.22184964875864e-13 3.7666082556730837e-16
1.6531753430134553 2.2650037275339115e-20 9.93933373660573e-13 9.933502436214679e-13 5.831300391051662e-16
1.7035239163302658 2.370049993075939e-20 1.0717047983219829e-12 1.0708151572013374e-12 8.896411206454247e-16
1.755405889504358 2.483735799650641e-20 1.1573171297567978e-12 1.1559789479415306e-12 1.3381818152670285e-15
1.8088679632656115 2.606626402319624e-20 1.2515698426367098e-12 1.2495845761418754e-12 1.9852664948345225e-15
1.8639582606462262 2.739344211507203e-20 1.3553523805592077e-12 1.3524463694616993e-12 2.906011097508348e-15
1.9207263702978936 2.88300268931498e-20 1.469873565554992e-12 1.4656748902370752e-12 4.198675317916675e-15
1.979223391128241 3.039013873986611e-20 1.5966029624977137e-12 1.5906129222789093e-12 5.990040218804549e-15
2.039501978296691 3.208854581021448e-20 1.7371751176385634e-12 1.7287339563893302e-12 8.441161249233203e-15
2.1016163906111602 3.395064550586979e-20 1.8939604942145324e-12 1.8822059275352868e-12 1.1754566679245316e-14
2.1656225393682647 3.599632758040363e-20 2.0692377426781233e-12 2.0530573204138726e-12 1.6180422264250714e-14
2.231578038680979 3.823658776986715e-20 2.2649605431868715e-12 2.2429371410882575e-12 2.2023402098614186e-14
2.299542257339062 4.068872363695941e-20 2.483618547724686e-12 2.453968846810092e-12 2.964970091459347e-14
2.369576372248914 4.3374552063942175e-20 2.72819335357327e-12 2.688699012445311e-12 3.9494341127958356e-14
2.4417434235010123 4.631776476877818e-20 3.0020439947131473e-12 2.9499778408831173e-12 5.206615383003011e-14
2.5161083711144245 4.954982128361039e-20 3.309336033336408e-12 3.2413814343926186e-12 6.795459894378942e-14
2.5927381535095444 5.311109371074694e-20 3.655218444545159e-12 3.5673855231527224e-12 8.783292139243712e-14
2.6717017477616296 5.703809159885465e-20 4.045036026258391e-12 3.932581005672217e-12 1.1245502058617335e-13
2.753070231689431 6.137471057115213e-20 4.485141827301879e-12 4.3424874068654385e-12 1.4265442043644023e-13
2.836916847834745 6.621127929669792e-20 4.985951144400146e-12 4.80660481577882e-12 1.7934632862132704e-13
2.9233170693905177 7.172131493967163e-20 5.5653643126212414e-12 5.341890951538711e-12 2.234733610825306e-13
2.967498994190263 7.485521149897921e-20 5.896333713948971e-12 5.648201739410655e-12 2.4813197453831786e-13
3.0123486681368425 7.81894189374807e-20 6.2520530889695655e-12 5.976896643375946e-12 2.7515644559361966e-13
3.0578761833420214 8.270594396299028e-20 6.71314537822324e-12 6.408320575489053e-12 3.0482480273418786e-13
3.1040917844459814 8.777297430296748e-20 7.232106328971519e-12 6.895088727713849e-12 3.370176012576721e-13
3.127460860933648 9.170799672456897e-20 7.613222513346418e-12 7.2590047643643476e-12 3.5421774898207196e-13
3.1510058709225794 9.646229891567558e-20 8.068192533087111e-12 7.696072726518856e-12 3.7211980656825357e-13
3.162844764501044 1.0037138508778458e-19 8.426694069651294e-12 8.045320127554513e-12 3.813739420967797e-13
3.1747281389236908 1.0472711910241046e-19 8.82541489342015e-12 8.434605822909807e-12 3.9080907051034465e-13
3.1986289994194426 1.161598236094285e-19 9.862550665232548e-12 9.45227061300342e-12 4.1028005222912596e-13
3.2227097969389145 1.4127535966455255e-19 1.2085289380442265e-11 1.1654404224487344e-11 4.3088515595492167e-13
3.2348180950136065 1.6436886406165608e-19 1.4113633990258452e-11 1.3671759514609387e-11 4.4187447564906417e-13
3.240889293275058 1.8148901019974772e-19 1.5612913773744867e-11 1.5165242670233212e-11 4.476711035116578e-13
3.2469718861334385 2.01286569239359e-19 1.734853310238792e-11 1.6894864220602855e-11 4.5366888178506604e-13
3.2714166318528037 3.046373672529139e-19 2.645382424252845e-11 2.597539160695856e-11 4.78432635569894e-13
3.2744851364798273 3.111594787885564e-19 2.7045529705464792e-11 2.656418496975479e-11 4.813447357100042e-13
3.2775565192852394 3.178512735790675e-19 2.765308435918855e-11 2.716881353776581e-11 4.842708214227373e-13
3.283707930232385 3.118150091742321e-19 2.717884337424874e-11 2.668935243935031e-11 4.894909348984224e-13
3.2898708863219004 2.920497055534189e-19 2.5503809736738256e-11 2.500957985169286e-11 4.942298850453956e-13
3.29141343181113 2.8738129891970827e-19 2.510789903323357e-11 2.461247946758225e-11 4.954195656513225e-13
3.292184975758714 2.850863323304026e-19 2.4913231204251067e-11 2.4417216056216248e-11 4.960151480348253e-13
3.295272960557952 2.7072415666143736e-19 2.3680334747121903e-11 2.318200509680234e-11 4.983296503195627e-13
3.3076538914384823 2.206306679237617e-19 1.937114857105218e-11 1.8863528544543306e-11 5.076200265088817e-13
3.310756385682612 2.1034369732738856e-19 1.848528547425771e-11 1.7975324917587373e-11 5.099605566703367e-13
3.313861789986515 2.0081710932740062e-19 1.7664629619542104e-11 1.715232135182521e-11 5.123082677168909e-13
3.3200813396944477 1.876090259619525e-19 1.6533769755104593e-11 1.6016406349589358e-11 5.173634055152305e-13
3.345076488085796 1.6529308784182006e-19 1.4676759528640393e-11 1.4136853675765368e-11 5.399058528750227e-13
3.3482140837626964 1.6641253873446723e-19 1.4790017845537393e-11 1.4247057625334445e-11 5.429602202029487e-13
3.3513546224236106 1.6754100323864896e-19 1.490427755838962e-11 1.435824983589395e-11 5.460277224956668e-13
3.3576445397418455 1.7465159224865457e-19 1.5565988297631958e-11 1.501354505615087e-11 5.524432414810845e-13
3.3702598118196083 1.9985638272724692e-19 1.7879313417916136e-11 1.7313414365293388e-11 5.658990526227463e-13
3.382922481734668 2.0638166726571304e-19 1.8532439707215454e-11 1.7953481147784266e-11 5.789585594311818e-13
3.389271646505754 2.0973637695202164e-19 1.8869029919899585e-11 1.8283455713056915e-11 5.855742068426698e-13
3.395632727569191 2.134100784897735e-19 1.9235570407225037e-11 1.86431783610226e-11 5.923920462024391e-13
3.421196662673239 2.310023034655215e-19 2.0977985615863387e-11 2.0357391665176337e-11 6.205939506870542e-13
3.4276182099114902 2.283878609817572e-19 2.077949034762883e-11 2.0152623809633154e-11 6.268665379956785e-13
3.4340518103208963 2.1542604835761878e-19 1.963697066357333e-11 1.900418163135079e-11 6.327890322225412e-13
3.4469541582030403 1.9697155829233857e-19 1.802222724432837e-11 1.737809156410204e-11 6.441356802263304e-13
3.472904465399547 1.929356558081752e-19 1.7785855734144306e-11 1.7115550497798066e-11 6.703052363462404e-13
3.4990501388274233 1.8622434429673015e-19 1.7296413229317754e-11 1.6599374798967207e-11 6.97038430350547e-13
3.5253949054701885 1.5924018415196898e-19 1.4901496213483056e-11 1.4178561462493923e-11 7.229347509891334e-13
3.5519380250092896 1.336018150262225e-19 1.2596421101378992e-11 1.1847518429216845e-11 7.489026721621477e-13
3.578680990867387 1.2448830950661156e-19 1.182554020468371e-11 1.1048183547160342e-11 7.773566575233687e-13
3.605625307711299 1.218844309951726e-19 1.1665363080923981e-11 1.085807533870326e-11 8.072877422207187e-13
3.660119384959845 1.2227202232825712e-19 1.1879325426444898e-11 1.1009321568296835e-11 8.70003858148064e-13
3.715437065384467 1.2355238244635875e-19 1.2185138409477671e-11 1.1249262354025797e-11 9.358760554518745e-13
3.8285932144167436 1.29638518322617e-19 1.3174760135870465e-11 1.2098159469529298e-11 1.0766006663411667e-12
3.94519561050918 1.3674498977566575e-19 1.432021035060202e-11 1.3091430872243842e-11 1.22877947835818e-12
4.06534921144712 1.4427931777785312e-19 1.5569381857450242e-11 1.4177451700329989e-11 1.3919301571202503e-12
4.189162171576248 1.520334581685203e-19 1.690580208216016e-11 1.533975184654145e-11 1.5660502356187097e-12
4.316745939156006 1.5988242503399865e-19 1.8320049763608006e-11 1.6569915606426838e-11 1.7501341571811696e-12
4.448215356677963 1.6772348719589926e-19 1.9803826895817007e-11 1.7862609760008465e-11 1.941217135808544e-12
4.58368876423945 1.7550010269694906e-19 2.135314892669253e-11 1.9213940958259495e-11 2.1392079684330355e-12
4.723288106065518 1.8317742258847164e-19 2.2966023983086316e-11 2.0620980112430243e-11 2.345043870656074e-12
4.867139040275056 1.9068133138363347e-19 2.463493164913806e-11 2.2082332592993905e-11 2.552599056144158e-12
4.940699165968905 1.9440412292076797e-19 2.5495487186831393e-11 2.2837891463052718e-11 2.657595723778667e-12
5.015371051989984 1.9802934038886152e-19 2.6363437868977125e-11 2.3600418942884404e-11 2.7630189260927164e-12
5.091171501069577 2.0171602720709759e-19 2.726010762417621e-11 2.4388842909686217e-11 2.8712647144899864e-12
5.129500256944802 2.0351615765413375e-19 2.7710437564383387e-11 2.4785038458138885e-11 2.925399106244512e-12
5.168117569889187 2.0530346683472831e-19 2.816424418725177e-11 2.5184118994605477e-11 2.9801251926462943e-12
5.20702561229733 2.0720815850003336e-19 2.8639537351594766e-11 2.559929410053531e-11 3.04024325105946e-12
5.246226572918644 2.0908535437431417e-19 2.911656171352798e-11 2.6016048045951622e-11 3.1005136675763567e-12
5.265937586045735 2.1001341758007014e-19 2.935568255834115e-11 2.6224986397229808e-11 3.1306961611113417e-12
5.285722656980489 2.1093434248045997e-19 2.9595187680520695e-11 2.6434282802352447e-11 3.1609048781682354e-12
5.305582063971359 2.118480454221932e-19 2.983506104807877e-11 2.6643925231872586e-11 3.1911358162061804e-12
5.3255160863122235 2.1277740012584552e-19 3.007853168919127e-11 2.6856876365729608e-11 3.2216553234616686e-12
5.365609099470188 2.147910580154832e-19 3.0591773854950375e-11 2.7306945602198215e-11 3.2848282527521535e-12
5.406003951863644 2.1678294233047665e-19 3.110791462907082e-11 2.7759778318535267e-11 3.3481363105355545e-12
5.446702915881641 2.1875295784011477e-19 3.162693127550497e-11 2.821538391914812e-11 3.4115473563568515e-12
5.487708281020852 2.207433936997808e-19 3.215497416323149e-11 2.8679641362181152e-11 3.4753328010503363e-12
5.529022354014368 2.2308664237940864e-19 3.2740955227722225e-11 2.9199134157727294e-11 3.5418210699949302e-12
5.570647458961463 2.2543242693383124e-19 3.33343118775574e-11 2.972587940300334e-11 3.6084324745540644e-12
5.612585937458331 2.2778302805002445e-19 3.393546455759198e-11 3.026033023126451e-11 3.675134326327466e-12
5.654840148729818 2.3020372028345686e-19 3.455430033978297e-11 3.0812036214923864e-11 3.742264124859109e-12
5.67608639626678 2.31694804198364e-19 3.490878432668209e-11 3.1131333310172594e-11 3.777451016509503e-12
5.686739436050992 2.324464238156434e-19 3.5087759010812385e-11 3.129270107503385e-11 3.795057935778532e-12
5.6974124697621304 2.332022893221327e-19 3.526792465814731e-11 3.1455251513447245e-11 3.81267314470007e-12
5.718818669136295 2.3472736495239427e-19 3.563194117595582e-11 3.178401483032823e-11 3.847926345627592e-12
5.740305295436557 2.3634877840448566e-19 3.601287434978086e-11 3.2129376238725784e-11 3.883498111055076e-12
5.7835210386641895 2.4029229821261185e-19 3.6889401051148375e-11 3.2932424150718634e-11 3.956976900429744e-12
5.827062130521658 2.4457330312650725e-19 3.7829284818878356e-11 3.379795727091525e-11 4.031327547963117e-12
5.8489554468988025 2.4745530113087047e-19 3.841886303530128e-11 3.4347183036822506e-11 4.071679998478765e-12
5.870931020387893 2.504558761323788e-19 3.9030816472198275e-11 3.4918693935303764e-11 4.1121225368945235e-12
5.892989160043636 2.535849374645425e-19 3.9666924434540787e-11 3.5514273500350625e-11 4.1526509341901675e-12
5.915130176081913 2.5706579682340215e-19 4.036249799109811e-11 3.6167769634818696e-11 4.194728356279422e-12
5.95966208400165 2.665784259953091e-19 4.2171210572846597e-11 3.787944140134695e-11 4.29176917149965e-12
6.004529249263818 2.7981063521288117e-19 4.4597715749288316e-11 4.0196089904816145e-11 4.401625844472174e-12
6.027089341400364 2.8885942783567287e-19 4.6212941100320044e-11 4.1747261227431817e-11 4.465679872888226e-12
6.049734195844842 2.9933510213700884e-19 4.806881046482962e-11 4.3535154296469125e-11 4.5336561683605065e-12
6.095279466722835 3.29201164527856e-19 5.3262852148251843e-11 4.856014908866128e-11 4.702703059590567e-12
6.141167624020661 3.7411838480733234e-19 6.098589973336025e-11 5.6061369849694323e-11 4.924529883665923e-12
6.164241091010745 4.0263916299981547e-19 6.588174045796548e-11 6.081682147029216e-11 5.064918987673335e-12
6.187401249150058 4.3438378962367285e-19 7.134299275868567e-11 6.613414384136714e-11 5.208848917318546e-12
6.1990139391386085 4.497694427536598e-19 7.40085664837659e-11 6.872652362522786e-11 5.282042858538059e-12
6.204828454712694 4.578114211450678e-19 7.540251557435748e-11 7.00835275635675e-11 5.3189880107899925e-12
6.210648424152782 4.636220817517722e-19 7.643116703233564e-11 7.108095895793798e-11 5.350208074397663e-12
6.233982942956859 4.829692785783233e-19 7.991982957153182e-11 7.44618621568321e-11 5.4579674146997105e-12
6.239830258556775 4.852191433705724e-19 8.036744017260863e-11 7.489534166233917e-11 5.472098510269456e-12
6.245683058788269 4.85116105368102e-19 8.042574044550205e-11 7.493949679902263e-11 5.486243646479392e-12
6.257405133728602 4.838869057986515e-19 8.03725184911564e-11 7.48619961083483e-11 5.510522382808113e-12
6.269149208991335 4.7919875857324205e-19 7.974321181255095e-11 7.422609292388638e-11 5.5171188886645536e-12
6.280915325867298 4.685109058465716e-19 7.811097816439224e-11 7.260909644688326e-11 5.501881717509003e-12
6.304513850009849 4.425867653699255e-19 7.406609695051535e-11 6.861439524191203e-11 5.4517017086033404e-12
6.32820103803542 4.1125658320014185e-19 6.908162798983609e-11 6.37010671581841e-11 5.380560831651987e-12
6.3519772230701035 3.827772584063645e-19 6.453933596594361e-11 5.922319417329818e-11 5.316141792645433e-12
6.375842739491607 3.5866248012536832e-19 6.070059902592459e-11 5.5441955206162104e-11 5.258643819762475e-12
6.399797922933955 3.3976331014217253e-19 5.771811953639599e-11 5.249219304250817e-11 5.2259264938878366e-12
6.42384311029221 3.2392557124930624e-19 5.523439380272969e-11 5.0036220064167436e-11 5.198173738562248e-12
6.447978639727206 3.1254421917759825e-19 5.3493928606620496e-11 4.830425101195729e-11 5.189677594663218e-12
6.472204850670314 3.0300365681378267e-19 5.205585182090779e-11 4.6870866734781886e-11 5.184985086125907e-12
6.496522083828205 2.968768682482645e-19 5.119490154721308e-11 4.59990666646967e-11 5.1958348825163795e-12
6.520930681187647 2.916901480792513e-19 5.048946601965374e-11 4.528048350909649e-11 5.2089825105572566e-12
