Dust emission spectrum from A.P. Jones, M. Kohler, N. Ysard, M. Bocchio, and L. Verstraete (2017), A&A, 602A, 46J 
inside the DustPedia framework.

lambda    nu*dP/dnu     j_nu    j_nu(carb.) j_nu(sil)
 (um)   (erg s-1 H-1) (Jy cm2 sr-1 H-1)
0.9927057738263894 4.7101396274402336e-20 1.2411485448894948e-12 1.241148361346651e-12 1.835428439408791e-19
1.0001793341362166 4.789055208501494e-20 1.2714437565605318e-12 1.2714435357568963e-12 2.2080363559617066e-19
1.0077091589558085 4.868318569195481e-20 1.302217802919316e-12 1.3022175376477132e-12 2.652716036329948e-19
1.0114953028030835 4.9080777256529027e-20 1.3177855319556418e-12 1.3177852413435113e-12 2.906121306053053e-19
1.0152956718711033 4.947920367219931e-20 1.3334743592676286e-12 1.3334740410014776e-12 3.182661507916337e-19
1.0229392996569957 5.027812842063641e-20 1.3652066647376224e-12 1.3652062833989582e-12 3.8133866460065674e-19
1.0267826658714554 5.0677722362778557e-20 1.3812269681671786e-12 1.3812265509447786e-12 4.1722239980243926e-19
1.0306404723013447 5.107809013325479e-20 1.3973695521194214e-12 1.3973690957901568e-12 4.563292647678358e-19
1.03451277320114 5.1479222484681753e-20 1.4136349349087046e-12 1.4136344359748026e-12 4.989339020898273e-19
1.0383996230291617 5.188111058998952e-20 1.4300236469939983e-12 1.430023101661004e-12 5.453329950636585e-19
1.0403485208654093 5.208233540936137e-20 1.4382644207324616e-12 1.4382638506778549e-12 5.70054606688076e-19
1.0423010764483396 5.228374605275024e-20 1.4465362314695495e-12 1.4465356356226313e-12 5.958469186506764e-19
1.0462171883269815 5.2687120917466643e-20 1.463173244563163e-12 1.4631725937416585e-12 6.508215044947427e-19
1.0471985131304309 5.27880792757292e-20 1.4673520062824605e-12 1.4673513409772288e-12 6.653052318067268e-19
1.048180758391296 5.2889083262554415e-20 1.471538589378481e-12 1.4715379092814409e-12 6.800970405428482e-19
1.0501480137395462 5.309122767981643e-20 1.4799352561420822e-12 1.4799345455121547e-12 7.106299271343994e-19
1.0521189612883777 5.329355330338119e-20 1.4883633183027657e-12 1.4883625758313519e-12 7.42471413967269e-19
1.0531058218030118 5.3394651324538673e-20 1.4925854425229212e-12 1.4925846836223727e-12 7.589005484801208e-19
1.0540936079674168 5.3495360327290936e-20 1.4968032930175472e-12 1.4968025173368236e-12 7.756807236938622e-19
1.058054026499678 5.3898626943288163e-20 1.5137528683615484e-12 1.5137520219437405e-12 8.464178078654478e-19
1.0590464539527713 5.39995507823872e-20 1.5180098528740508e-12 1.5180089878313027e-12 8.650427477599796e-19
1.06003981227728 5.4100517315808316e-20 1.522274692805487e-12 1.5222738087464169e-12 8.840590702999345e-19
1.0620293250338977 5.430257812173177e-20 1.5308279777192808e-12 1.5308270544220415e-12 9.232972396015207e-19
1.0660195594769086 5.47072083928441e-20 1.5480292428623243e-12 1.54802823603865e-12 1.0068236743285237e-18
1.070024785945596 5.511251279282681e-20 1.5653573019430698e-12 1.565356204402369e-12 1.0975407006844573e-18
1.0740450607676866 5.551848687370436e-20 1.5828128100461122e-12 1.5828116140124787e-12 1.196033633633012e-18
1.07808044048254 5.592512671309426e-20 1.6003964397468833e-12 1.6003951368143922e-12 1.3029324914662383e-18
1.0861967418109137 5.673977501662844e-20 1.6359330946273893e-12 1.6359315499164176e-12 1.544710972044254e-18
1.0902777775684922 5.714637879921218e-20 1.653846920381012e-12 1.6538452392768566e-12 1.6811041556862564e-18
1.0943741465085532 5.755361424835442e-20 1.6718906130158517e-12 1.671888784078795e-12 1.828937056532851e-18
1.1026131145906286 5.836997659616009e-20 1.708370667119283e-12 1.708368504508478e-12 2.1626108045774304e-18
1.1109141095355224 5.918886087853824e-20 1.7453796078444768e-12 1.7453770540359825e-12 2.553808494290813e-18
1.1192775983109025 6.000964272159751e-20 1.7829053405265974e-12 1.7829023286926305e-12 3.0118339665766317e-18
1.1277040513999907 6.082943202878555e-20 1.820867461205319e-12 1.8208639138152493e-12 3.5473900691382984e-18
1.1361939428280308 6.165170549473212e-20 1.859375044828733e-12 1.859370872056299e-12 4.1727724342100214e-18
1.1447477501889525 6.24765031587238e-20 1.8984359334779048e-12 1.8984310313911228e-12 4.902086782292893e-18
1.1533659546722406 6.330415690981647e-20 1.938067013989329e-12 1.9380612624876745e-12 5.751501654528204e-18
1.1707974979042381 6.49705895163093e-20 2.019147409298597e-12 2.019139521966418e-12 7.887332179313044e-18
1.1884924949847024 6.664920696324956e-20 2.102620347819248e-12 2.1026095859429874e-12 1.0761876260921706e-17
1.2064549276569216 6.8351367098313e-20 2.1889091666156817e-12 2.1888945553863616e-12 1.4611229319834047e-17
1.2246888378427687 7.006678627980893e-20 2.2777570053200554e-12 2.2777372654995508e-12 1.973982050446595e-17
1.2431983285522175 7.179445657382542e-20 2.369194758758159e-12 2.3691682199678785e-12 2.653879027995953e-17
1.2619875648066055 7.353734851224984e-20 2.463386036513523e-12 2.4633505283744206e-12 3.5508139101992225e-17
1.3004222497298317 7.706041996777276e-20 2.6600218012396764e-12 2.659959134075176e-12 6.266716449983476e-17
1.3400274889804893 8.065060253769546e-20 2.868737145420036e-12 2.868628580826377e-12 1.085645936588554e-16
1.3808389325824078 8.432573445980257e-20 3.0908119946795127e-12 3.0906272898848677e-12 1.847047946446697e-16
1.4228933163050095 8.812118202949466e-20 3.3282970988579316e-12 3.3279883350361243e-12 3.087638218069818e-16
1.466228494730424 9.210618011270516e-20 3.5847581412034495e-12 3.5842507403725578e-12 5.074008308907725e-16
1.5108834753276823 9.628258751128133e-20 3.861429920407731e-12 3.860609862358154e-12 8.200580495749258e-16
1.5568984535646726 1.0065825555607303e-19 4.1598638817704424e-12 4.15855900924569e-12 1.3048725247528086e-15
1.6043148490894465 1.0526991373050983e-19 4.482943891834177e-12 4.480895844441697e-12 2.0480473924805004e-15
1.6531753430134553 1.1015856689418212e-19 4.833999816413505e-12 4.830832882961487e-12 3.166933452017227e-15
1.7035239163302658 1.1537265304567206e-19 5.216996528571638e-12 5.212170771360171e-12 4.825757211465833e-15
1.755405889504358 1.2101922968245098e-19 5.6389905706224115e-12 5.631740604107755e-12 7.249966514655815e-15
1.8088679632656115 1.2712650972672538e-19 6.103970466655393e-12 6.0932280228297616e-12 1.0742443825632988e-14
1.8639582606462262 1.337253759198625e-19 6.616364815812561e-12 6.600659809607152e-12 1.5705006205410724e-14
1.9207263702978936 1.408704920965494e-19 7.182158145979415e-12 7.1594959103167864e-12 2.266223566262848e-14
1.979223391128241 1.4863103890543618e-19 7.808610518919197e-12 7.77632090899881e-12 3.2289609920389276e-14
2.039501978296691 1.5707928397499803e-19 8.503789022779172e-12 8.458345637723348e-12 4.544338505582571e-14
2.1016163906111602 1.663388200070817e-19 9.27932736045348e-12 9.216129384972794e-12 6.319797548068929e-14
2.1656225393682647 1.7650677580791335e-19 1.0146437342096908e-11 1.005955992726203e-11 8.687741483487612e-14
2.231578038680979 1.8763728556847455e-19 1.1114774435447976e-11 1.0996684150591833e-11 1.180902848561455e-13
2.299542257339062 1.9981499343125513e-19 1.2196603369208969e-11 1.2037838356953525e-11 1.587650122554415e-13
2.369576372248914 2.1314572029406623e-19 1.3406541618957019e-11 1.3195355292330621e-11 2.111863266263971e-13
2.4417434235010123 2.2774387118641205e-19 1.4761012847682977e-11 1.448299397753749e-11 2.780188701454889e-13
2.5161083711144245 2.437602600690586e-19 1.628027288988057e-11 1.5917932640232776e-11 3.6234024964779493e-13
2.5927381535095444 2.6138664335901905e-19 1.7989184805100433e-11 1.7521530739828807e-11 4.67654065271623e-13
2.6717017477616296 2.807936780238002e-19 1.9913368622849906e-11 1.93154992469269e-11 5.978693759230061e-13
2.753070231689431 3.0218390889728265e-19 2.208299927967122e-11 2.132570827705176e-11 7.572910026194676e-13
2.836916847834745 3.2597487878829387e-19 2.4547098881100307e-11 2.3596472506987877e-11 9.506263741124222e-13
2.9233170693905177 3.5296365629780365e-19 2.7388947596184437e-11 2.620626012958739e-11 1.1826874665970432e-12
2.967498994190263 3.68211567748436e-19 2.9003969627561814e-11 2.7691883286994e-11 1.3120863405678142e-12
3.0123486681368425 3.8440615108286413e-19 3.0737249322931954e-11 2.928346281080265e-11 1.4537865121293046e-12
3.0578761833420214 4.0611316918468276e-19 3.296373409349786e-11 3.1354496508257106e-11 1.6092375852407483e-12
3.1040917844459814 4.3036267047528447e-19 3.545998774240197e-11 3.3682249065043195e-11 1.77773867735877e-12
3.127460860933648 4.489801199341849e-19 3.7272491813270266e-11 3.540479527857582e-11 1.8676965346944265e-12
3.1510058709225794 4.713774688959211e-19 3.942643102603416e-11 3.746515619279363e-11 1.961274833240526e-12
3.162844764501044 4.896730789985689e-19 4.1110573768173634e-11 3.910094471573544e-11 2.0096290524381864e-12
3.1747281389236908 5.100185880345375e-19 4.297956137186937e-11 4.092064594109855e-11 2.0589154307708228e-12
3.1986289994194426 5.632502635539616e-19 4.782276770826324e-11 4.566218273819902e-11 2.1605849700642215e-12
3.2227097969389145 6.796842125918995e-19 5.814305067773377e-11 5.587492508294982e-11 2.2681255947839487e-12
3.2348180950136065 7.865389980925151e-19 6.75366566625313e-11 6.521118880534279e-11 2.325467857188518e-12
3.240889293275058 8.6570542140909e-19 7.447384325391166e-11 7.211812834137811e-11 2.3557149125335613e-12
3.2469718861334385 9.572370470141831e-19 8.250256666260669e-11 8.011555504466986e-11 2.3870116179368224e-12
3.2714166318528037 1.4344972975621378e-18 1.2456757924442657e-10 1.2205139089200494e-10 2.516188352421636e-12
3.2744851364798273 1.4646171023530102e-18 1.2730239008960862e-10 1.2477102341009208e-10 2.531366679516529e-12
3.2775565192852394 1.495515811496269e-18 1.30109986441565e-10 1.2756336963186065e-10 2.546616809704348e-12
3.283707930232385 1.4677003706636044e-18 1.2792969331474182e-10 1.253558955235755e-10 2.5737977911663013e-12
3.2898708863219004 1.376533927975773e-18 1.2020850809876157e-10 1.176100578251585e-10 2.59845027360312e-12
3.29141343181113 1.3550008755279148e-18 1.1838357367228406e-10 1.1577893512893093e-10 2.60463854335313e-12
3.292184975758714 1.3444152908787411e-18 1.1748626706304098e-10 1.1487853060982346e-10 2.6077364532174785e-12
3.295272960557952 1.2781989086462435e-18 1.1180449651562407e-10 1.0918472560828621e-10 2.619770907337856e-12
3.3076538914384823 1.0472070656293927e-18 9.19437168180635e-11 8.92756509651005e-11 2.6680658529630038e-12
3.310756385682612 9.997606649256795e-19 8.786030450116331e-11 8.518007393971553e-11 2.6802305614478033e-12
3.313861789986515 9.558172564122308e-19 8.407728741360383e-11 8.138485573469556e-11 2.692431678908246e-12
3.3200813396944477 8.949319517873513e-19 7.886933350605001e-11 7.61506191211712e-11 2.7187143848787987e-12
3.345076488085796 7.923859104134882e-19 7.035779664392711e-11 6.752184815214278e-11 2.835948491784307e-12
3.3482140837626964 7.976079371429645e-19 7.088790131920151e-11 6.803606681512754e-11 2.8518345040739673e-12
3.3513546224236106 8.02871139424136e-19 7.142260147835522e-11 6.855481384455239e-11 2.8677876338028275e-12
3.3576445397418455 8.357933479536464e-19 7.449087240477372e-11 7.158971533215417e-11 2.9011570726195475e-12
3.3702598118196083 9.522481596056027e-19 8.518888946598182e-11 8.221774530291495e-11 2.9711441630668907e-12
3.382922481734668 9.825634888336588e-19 8.823118282050154e-11 8.519215414844402e-11 3.039028672057527e-12
3.389271646505754 9.98141629292394e-19 8.979827219826475e-11 8.672486263428804e-11 3.0734095639767093e-12
3.395632727569191 1.015209273951086e-18 9.150518853349142e-11 8.8396347119862e-11 3.108841413629412e-12
3.421196662673239 1.0968987867753487e-18 9.961254336351567e-11 9.635718168710718e-11 3.255361676408482e-12
3.4276182099114902 1.0849161942203062e-18 9.870929868548396e-11 9.542139382110174e-11 3.287904864382255e-12
3.4340518103208963 1.025192920179488e-18 9.34505527606764e-11 9.013194322736846e-11 3.318609533307967e-12
3.4469541582030403 9.401733452244872e-19 8.602266146236377e-11 8.264527099203165e-11 3.377390470332116e-12
3.472904465399547 9.21841998650095e-19 8.49803978895803e-11 8.146736485750219e-11 3.5130330320780865e-12
3.4990501388274233 8.91205977263734e-19 8.277471408694963e-11 7.912321379853059e-11 3.651500288419052e-12
3.5253949054701885 7.672247842531326e-19 7.179593064604634e-11 6.80104559172309e-11 3.785474728815427e-12
3.5519380250092896 6.494332530042902e-19 6.12307155443571e-11 5.731102205033827e-11 3.9196934940188244e-12
3.578680990867387 6.078621159466222e-19 5.774275447646851e-11 5.367600455102088e-11 4.06674992544763e-12
3.605625307711299 5.963092992884594e-19 5.707180505282706e-11 5.285043726698114e-11 4.221367785845916e-12
3.660119384959845 5.989790931127855e-19 5.8193750583605334e-11 5.364874060915613e-11 4.545009974449204e-12
3.715437065384467 6.057373057094865e-19 5.97397861838779e-11 5.485533172434203e-11 4.884454459535872e-12
3.8285932144167436 6.354146668679133e-19 6.45752198583891e-11 5.896728252873323e-11 5.607937329655893e-12
3.94519561050918 6.696521506911258e-19 7.012732002365809e-11 6.373950397560676e-11 6.3878160480513364e-12
4.06534921144712 7.056865621734775e-19 7.615161845349879e-11 6.89305435876092e-11 7.221074865889583e-12
4.189162171576248 7.42528906872429e-19 8.25676590606371e-11 7.446047294943726e-11 8.107186111199845e-12
4.316745939156006 7.795687607598364e-19 8.932650657655116e-11 8.028606652417906e-11 9.040440052372107e-12
4.448215356677963 8.162924237093425e-19 9.638312514111605e-11 8.637799276734504e-11 1.000513237377102e-11
4.58368876423945 8.524152785683149e-19 1.0371361674977384e-10 9.27132889680275e-11 1.1000327781746314e-11
4.723288106065518 8.877583595030687e-19 1.1130345370857942e-10 9.927312144894445e-11 1.2030332259634983e-11
4.867139040275056 9.219361150054549e-19 1.19108845177597e-10 1.0604546970011335e-10 1.3063375477483654e-11
4.940699165968905 9.38748843142972e-19 1.2311394811188753e-10 1.0953009470481104e-10 1.3583853407076478e-11
5.015371051989984 9.55017382731076e-19 1.271404600145809e-10 1.130354867314805e-10 1.4104973283100393e-11
5.091171501069577 9.714733837576565e-19 1.3128589414497714e-10 1.1664705591438067e-10 1.4638838230596492e-11
5.129500256944802 9.79465321623422e-19 1.3336244627539647e-10 1.1845722724836104e-10 1.4905219027035435e-11
5.168117569889187 9.873750358646269e-19 1.354515442102794e-10 1.2027731321535786e-10 1.517423099492156e-11
5.20702561229733 9.958138091374363e-19 1.3763766344181312e-10 1.2216714317647344e-10 1.5470520265339703e-11
5.246226572918644 1.004100372454449e-18 1.3982782557216732e-10 1.240606854486486e-10 1.576714012351868e-11
5.265937586045735 1.0081855284449787e-18 1.409242070052995e-10 1.2500868461052446e-10 1.591552239477507e-11
5.285722656980489 1.0122313977590936e-18 1.4202134105104894e-10 1.2595741588429083e-10 1.606392516675811e-11
5.305582063971359 1.0162375924044923e-18 1.431191425359469e-10 1.269068150016491e-10 1.621232753429777e-11
5.3255160863122235 1.0203087865344445e-18 1.4423237688958307e-10 1.2787028556315244e-10 1.6362091326430658e-11
5.365609099470188 1.029139405837508e-18 1.4657593411700397e-10 1.2990375539917791e-10 1.6672178717826052e-11
5.406003951863644 1.0378420288428585e-18 1.4892823616393206e-10 1.3194575855147262e-10 1.6982477612459412e-11
5.446702915881641 1.0464161372677072e-18 1.512890686631723e-10 1.3399624858078784e-10 1.7292820082384454e-11
5.487708281020852 1.055053731601225e-18 1.5368625493996853e-10 1.360816723438625e-10 1.760458259610603e-11
5.529022354014368 1.0652623446425397e-18 1.5634152883256215e-10 1.384119344829078e-10 1.7929594349654326e-11
5.570647458961463 1.0754491923215753e-18 1.5902485402349447e-10 1.4077013274461852e-10 1.8254721278875914e-11
5.612585937458331 1.0856243176245805e-18 1.6173797437409642e-10 1.4315818134778698e-10 1.8579793026309428e-11
5.654840148729818 1.0960825584326777e-18 1.645254293659746e-10 1.456189144348562e-10 1.8906514931118348e-11
5.67608639626678 1.1025672220456482e-18 1.6612060634345598e-10 1.470427128791437e-10 1.9077893464312284e-11
5.686739436050992 1.1058332248951344e-18 1.669253889319621e-10 1.477617892924792e-10 1.916359963948284e-11
5.6974124697621304 1.1091158658643888e-18 1.6773512347654582e-10 1.484858100024838e-10 1.924931347406196e-11
5.718818669136295 1.1157337433966979e-18 1.693699374199643e-10 1.4994918416763356e-10 1.942075325233076e-11
5.740305295436557 1.1227755620710053e-18 1.7107926477482603e-10 1.5148560921973366e-10 1.9593655555092307e-11
5.7835210386641895 1.1399807578205747e-18 1.7500855282771625e-10 1.5505779226591147e-10 1.9950760561804792e-11
5.827062130521658 1.1586548506316729e-18 1.7921450866061444e-10 1.589028381807247e-10 2.031167047988977e-11
5.8489554468988025 1.1713086420808567e-18 1.818524237974196e-10 1.6134454990355403e-10 2.0507873893865592e-11
5.870931020387893 1.1844777212079328e-18 1.8458793327507692e-10 1.6388356261373274e-10 2.070437066134424e-11
5.892989160043636 1.1982058887008589e-18 1.8742888642888946e-10 1.6652774800604655e-10 2.0901138422842927e-11
5.915130176081913 1.2134980147346773e-18 1.905341425704248e-10 1.6942860075597416e-10 2.1105541814450607e-11
5.95966208400165 1.2554839833940156e-18 1.9861051860016953e-10 1.7703186963932122e-10 2.1578648960848272e-11
6.004529249263818 1.314041978235808e-18 2.094390393110235e-10 1.8732381500997623e-10 2.2115224301047278e-11
6.027089341400364 1.354173107224446e-18 2.1664628540149834e-10 1.9421737551947557e-10 2.2428909882022765e-11
6.049734195844842 1.4006438014115858e-18 2.2492277363439844e-10 2.0216077974381993e-10 2.2761993890578485e-11
6.095279466722835 1.5333170600433959e-18 2.48081868065728e-10 2.2448884220062752e-10 2.35930258651005e-11
6.141167624020661 1.7329517624435965e-18 2.8249245885513553e-10 2.578056308508804e-10 2.468682800425515e-11
6.164241091010745 1.8597261622713035e-18 3.0429726565297466e-10 2.7891664450209037e-10 2.5380621150884316e-11
6.187401249150058 2.000712901061726e-18 3.2859616178659746e-10 3.0250454528642506e-10 2.6091616500172328e-11
6.1990139391386085 2.0689918127106314e-18 3.4044802418742377e-10 3.139948874881732e-10 2.6453136699250527e-11
6.204828454712694 2.104671647636128e-18 3.4664390043581914e-10 3.200083158194721e-10 2.663558461634713e-11
6.210648424152782 2.1303952098219962e-18 3.512097428827231e-10 3.2442030849851306e-10 2.6789434384210084e-11
6.233982942956859 2.215840548751977e-18 3.6666845463800827e-10 3.3934937457546757e-10 2.7319080062540594e-11
6.239830258556775 2.225640117795263e-18 3.6863549482024933e-10 3.4124802201899935e-10 2.7387472801250045e-11
6.245683058788269 2.2249731734472823e-18 3.688706950062894e-10 3.4141477287456943e-10 2.7455922131719982e-11
6.257405133728602 2.2190759396291646e-18 3.685834848057224e-10 3.4101072979478697e-10 2.7572755010935333e-11
6.269149208991335 2.197752423585593e-18 3.6572681771408766e-10 3.381255617958969e-10 2.7601255918190724e-11
6.280915325867298 2.149708147950416e-18 3.5840319640149484e-10 3.308824704578598e-10 2.752072594363496e-11
6.304513850009849 2.0334074783997833e-18 3.4028707412699174e-10 3.130257366669027e-10 2.726133746008899e-11
6.32820103803542 1.8931722932690955e-18 3.180093144445387e-10 2.9111194642428897e-10 2.6897368020249822e-11
6.3519772230701035 1.7657434296190947e-18 2.9771859725496547e-10 2.7115156440058024e-10 2.6567032854385165e-11
6.375842739491607 1.657776739108197e-18 2.805647278185818e-10 2.542933606250211e-10 2.627136719356071e-11
6.399797922933955 1.5731607088246868e-18 2.672445056057109e-10 2.4114523297159697e-10 2.6099272634114033e-11
6.42384311029221 1.502179286862688e-18 2.5614514461724536e-10 2.3019315485297485e-10 2.5951989764270567e-11
6.447978639727206 1.4510817776969252e-18 2.4836186451549317e-10 2.2246122291918798e-10 2.59006415963052e-11
6.472204850670314 1.4081794486540829e-18 2.419244093857094e-10 2.160561717303805e-10 2.5868237655328955e-11
6.496522083828205 1.3804851894950711e-18 2.3805762901165037e-10 2.121444440005042e-10 2.591318501114609e-11
6.520930681187647 1.3569734638723937e-18 2.348823436269858e-10 2.089128321390728e-10 2.5969511487913054e-11
