Dust emission spectrum from A.P. Jones, M. Kohler, N. Ysard, M. Bocchio, and L. Verstraete (2017), A&A, 602A, 46J 
inside the DustPedia framework.

lambda    nu*dP/dnu     j_nu    j_nu(carb.) j_nu(sil)
 (um)   (erg s-1 H-1) (Jy cm2 sr-1 H-1)
0.9927057738263894 4.0265190921188536e-24 1.0610106509451871e-16 1.061010630246912e-16 2.069827513815931e-24
1.0001793341362166 4.0935786729504695e-24 1.0868020557526218e-16 1.0868020308307668e-16 2.4921854895567646e-24
1.0077091589558085 4.16065660651513e-24 1.1129265736883035e-16 1.1129265437203255e-16 2.9967978207849547e-24
1.0114953028030835 4.194195757793122e-24 1.1261130725215367e-16 1.126113039675566e-16 3.2845970538159957e-24
1.0152956718711033 4.227731492629881e-24 1.139382028182836e-16 1.139381992194317e-16 3.598851866526216e-24
1.0229392996569957 4.294749424591845e-24 1.1661572779276972e-16 1.1661572347653936e-16 4.3162303545677326e-24
1.0267826658714554 4.328152080649252e-24 1.1796426708617103e-16 1.1796426236145184e-16 4.724719178495284e-24
1.0306404723013447 4.36153918122384e-24 1.1932086803398463e-16 1.193208628638191e-16 5.170165516882513e-24
1.03451277320114 4.394908171051531e-24 1.2068550041063375e-16 1.2068549475488728e-16 5.65574646189519e-24
1.0383996230291617 4.428256516277021e-24 1.2205813370643735e-16 1.2205812752154053e-16 6.184896808444008e-24
1.0403485208654093 4.444922161357343e-24 1.2274744109221373e-16 1.2274743462525458e-16 6.46695913075782e-24
1.0423010764483396 4.461581705140693e-24 1.2343873714856397e-16 1.2343873038723537e-16 6.761328608642066e-24
1.0462171883269815 4.494881248656508e-24 1.2482727972221673e-16 1.2482727233316462e-16 7.389052098870798e-24
1.0471985131304309 4.503201837994401e-24 1.2517565219907635e-16 1.2517564464457888e-16 7.55449743554321e-24
1.048180758391296 4.511520631992749e-24 1.255245184303442e-16 1.2552451070685578e-16 7.723488439352795e-24
1.0501480137395462 4.5281526812807486e-24 1.262237301920469e-16 1.2622372211964877e-16 8.07239808719562e-24
1.0521189612883777 4.5447770920986204e-24 1.2692491107199524e-16 1.269249026356188e-16 8.4363764101769e-24
1.0531058218030118 4.5530741391396966e-24 1.2727589768311327e-16 1.2727588905889224e-16 8.624221053925426e-24
1.0540936079674168 4.561329194730792e-24 1.2762625613584448e-16 1.2762624731973587e-16 8.8161086130382e-24
1.058054026499678 4.594326785547759e-24 1.2903251426294932e-16 1.290325046376103e-16 9.62533897539893e-24
1.0590464539527713 4.6025703398381506e-24 1.29385282343849e-16 1.2938527250535696e-16 9.838492064020388e-24
1.06003981227728 4.6108114829126515e-24 1.2973853083071947e-16 1.2973852077456022e-16 1.0056159254355455e-23
1.0620293250338977 4.6272863885461096e-24 1.3044646699142926e-16 1.3044645648602805e-16 1.0505401232805126e-23
1.0660195594769086 4.6602056555844246e-24 1.3186808182193252e-16 1.3186807035976138e-16 1.1462171131392227e-23
1.070024785945596 4.6930822656876665e-24 1.3329732615947573e-16 1.3329731365749278e-16 1.2501982977894862e-23
1.0740450607676866 4.725913925652357e-24 1.3473416733626404e-16 1.3473415370460107e-16 1.3631663000716088e-23
1.07808044048254 4.758698370642139e-24 1.3617857263471906e-16 1.361785577761541e-16 1.485856494588739e-23
1.0861967418109137 4.824061303494818e-24 1.3908834736453733e-16 1.3908832972821768e-16 1.7636319662402385e-23
1.0902777775684922 4.8565094298026236e-24 1.4054999342130038e-16 1.4054997421642283e-16 1.9204877528904077e-23
1.0943741465085532 4.888899369065648e-24 1.4201896909286945e-16 1.4201894818672282e-16 2.0906146583815852e-23
1.1026131145906286 4.9534963172627515e-24 1.4497877678867844e-16 1.4497875203861002e-16 2.475006844716166e-23
1.1109141095355224 5.017835734420235e-24 1.4796750666215366e-16 1.4796747739927028e-16 2.926288337705362e-23
1.1192775983109025 5.081845127632474e-24 1.5098321547787089e-16 1.5098318092388114e-16 3.455398972250454e-23
1.1277040513999907 5.145249042963927e-24 1.5401782080913286e-16 1.5401778005967135e-16 4.074946147942631e-23
1.1361939428280308 5.2083412094758445e-24 1.5708015848288199e-16 1.5708011048849922e-16 4.799438271322426e-23
1.1447477501889525 5.2711075577943254e-24 1.6016997576706438e-16 1.6016991931156598e-16 5.645549838938152e-23
1.1533659546722406 5.33356482431824e-24 1.632879507061575e-16 1.6328788438187398e-16 6.632428353918879e-23
1.1707974979042381 5.457749172541615e-24 1.696152087333709e-16 1.6961511753808386e-16 9.119528703267243e-23
1.1884924949847024 5.5805266803665124e-24 1.7605204149175877e-16 1.7605191672334294e-16 1.2476841587277551e-22
1.2064549276569216 5.702811371933607e-24 1.826289161056695e-16 1.8262874624219082e-16 1.6986347875722568e-22
1.2246888378427687 5.823460747603938e-24 1.893112160173904e-16 1.8931098588710444e-16 2.3013028599936473e-22
1.2431983285522175 5.942260140614912e-24 1.9609273824429246e-16 1.9609242796778725e-16 3.1027650516371637e-22
1.2619875648066055 6.059246320638038e-24 2.029752646788627e-16 2.0297484833559814e-16 4.163432645581216e-22
1.3004222497298317 6.286306684918817e-24 2.1699483130452584e-16 2.1699409216108172e-16 7.391434440224181e-22
1.3400274889804893 6.504399656196905e-24 2.313611097160509e-16 2.313598214412619e-16 1.2882747890018553e-21
1.3808389325824078 6.713437355373626e-24 2.4606927928282284e-16 2.4606707385508737e-16 2.205427735398828e-21
1.4228933163050095 6.914853742315728e-24 2.611708912605508e-16 2.6116718107647774e-16 3.710184073071207e-21
1.466228494730424 7.113013818651421e-24 2.768373866303252e-16 2.7683124996067506e-16 6.1366696500843466e-21
1.5108834753276823 7.30596167092717e-24 2.9300686367786624e-16 2.9299687988596345e-16 9.983791902723669e-21
1.5568984535646726 7.492288194509683e-24 3.096308283903646e-16 3.0961483508532653e-16 1.5993305038078474e-20
1.6043148490894465 7.673093020084798e-24 3.2676046048563626e-16 3.267351870776637e-16 2.527340797264459e-20
1.6531753430134553 7.849667085042049e-24 3.4446062905348516e-16 3.4442127709849164e-16 3.935195499348829e-20
1.7035239163302658 8.024015923989868e-24 3.6283523101516317e-16 3.627748432957304e-16 6.03877194326255e-20
1.755405889504358 8.203077190656613e-24 3.8222913044131015e-16 3.821377553736409e-16 9.137506766921078e-20
1.8088679632656115 8.386632967401259e-24 4.0268359493027033e-16 4.025472129307689e-16 1.3638199950146391e-19
1.8639582606462262 8.574876579198795e-24 4.242613737915033e-16 4.2406050671431903e-16 2.0086707718421812e-19
1.9207263702978936 8.769801819307165e-24 4.47120632843341e-16 4.468285903261383e-16 2.920425172025902e-19
1.979223391128241 8.974436896365186e-24 4.714888819079004e-16 4.710695710442969e-16 4.193108636035796e-19
2.039501978296691 9.192129737804536e-24 4.976336152178159e-16 4.970388668710983e-16 5.947483467175461e-19
2.1016163906111602 9.430071029348971e-24 5.260631048719245e-16 5.252293924724271e-16 8.337123994975194e-19
2.1656225393682647 9.693135204636214e-24 5.572068752156406e-16 5.560514705850235e-16 1.1554046306170738e-18
2.231578038680979 9.982993186460741e-24 5.913468483726973e-16 5.897633361941526e-16 1.5835121785447613e-18
2.299542257339062 1.0303297720802483e-23 6.289079389767455e-16 6.267610455554183e-16 2.146893421327372e-18
2.369576372248914 1.0659955664299796e-23 6.704949978470217e-16 6.676146745710253e-16 2.8803232759963605e-18
2.4417434235010123 1.1059700259376397e-23 7.168244606088788e-16 7.129993514171798e-16 3.825109191699173e-18
2.5161083711144245 1.1512863749853405e-23 7.689217411342051e-16 7.638918579502878e-16 5.0298831839175855e-18
2.5927381535095444 1.2034927767305292e-23 8.282693290671518e-16 8.217181548841438e-16 6.551174183007893e-18
2.6717017477616296 1.2642952231400583e-23 8.966148028575734e-16 8.881612650612237e-16 8.45353779634964e-18
2.753070231689431 1.336115215963695e-23 9.76406436045985e-16 9.655965457908405e-16 1.080989025514465e-17
2.836916847834745 1.4242637355343795e-23 1.0725226090699358e-15 1.0588205175109924e-15 1.3702091558943199e-17
2.9233170693905177 1.5400679160851724e-23 1.1950476683818347e-15 1.1778299797993921e-15 1.7217688582442735e-17
2.967498994190263 1.619095118665013e-23 1.2753587817202164e-15 1.2561541357640453e-15 1.9204645956171223e-17
3.0123486681368425 1.7072715952597092e-23 1.3651402959508141e-15 1.343747867966224e-15 2.1392427984590298e-17
3.0578761833420214 1.866447807552195e-23 1.5149739997612251e-15 1.4911693876028856e-15 2.3804612158339582e-17
3.1040917844459814 2.061902508803445e-23 1.6989168137527152e-15 1.6724793121254864e-15 2.6437501627229188e-17
3.127460860933648 2.2502323898363653e-23 1.8680508246206107e-15 1.8402004766216366e-15 2.7850347998975136e-17
3.1510058709225794 2.4947614570645754e-23 2.086640686152152e-15 2.057315350032757e-15 2.932533611939491e-17
3.162844764501044 2.7157911628625794e-23 2.2800463764139747e-15 2.2499568469845044e-15 3.008952942947018e-17
3.1747281389236908 2.970202864985953e-23 2.5030071318483253e-15 2.472137251146086e-15 3.086988070223933e-17
3.1986289994194426 3.6701687202598593e-23 3.1161570178707207e-15 3.0836730433805038e-15 3.248397449021691e-17
3.2227097969389145 5.296384612319141e-23 4.53075050468682e-15 4.4965537808826125e-15 3.419672380420808e-17
3.2348180950136065 6.828984325104623e-23 5.863749551349651e-15 5.828638192007146e-15 3.511135934250559e-17
3.240889293275058 7.973040625429906e-23 6.858949512281546e-15 6.823355694400424e-15 3.559381788112047e-17
3.2469718861334385 9.296731706983706e-23 8.012688495417459e-15 7.976595460404492e-15 3.609303501296674e-17
3.2714166318528037 1.6325566240472278e-22 1.4176647595127834e-14 1.4138489568235636e-14 3.8158026892196525e-17
3.2744851364798273 1.6766170632046694e-22 1.4572911859903362e-14 1.4534509919332057e-14 3.840194057130411e-17
3.2775565192852394 1.7219183810338646e-22 1.4980702677134926e-14 1.4942055551390795e-14 3.864712574413061e-17
3.283707930232385 1.6790312912405907e-22 1.4635000606911698e-14 1.4595913879483236e-14 3.9086727428461725e-17
3.2898708863219004 1.5419487000968424e-22 1.3465367546445854e-14 1.3425879713058289e-14 3.948783338756521e-17
3.29141343181113 1.5096070710702245e-22 1.3189119146850409e-14 1.3149530566064364e-14 3.9588580786045685e-17
3.292184975758714 1.49371343716496e-22 1.3053318939842647e-14 1.3013679914606958e-14 3.96390252356888e-17
3.295272960557952 1.393573840871472e-22 1.2189638137071902e-14 1.2149802695735523e-14 3.983544133637749e-17
3.3076538914384823 1.0460562074756607e-22 9.184267264097819e-15 9.143642383735215e-15 4.062488036260122e-17
3.310756385682612 9.751661757436577e-23 8.56989078945628e-15 8.529066813306429e-15 4.082397614984947e-17
3.313861789986515 9.096967999934292e-23 8.00203582841534e-15 7.961012060151396e-15 4.102376826394284e-17
3.3200813396944477 8.180992341189234e-23 7.209815361704848e-15 7.16836234168647e-15 4.145302001837655e-17
3.345076488085796 6.564849715123464e-23 5.829083470370816e-15 5.78571875835059e-15 4.336471202022399e-17
3.3482140837626964 6.629506774461377e-23 5.892015364169592e-15 5.848391730953089e-15 4.3623633216502774e-17
3.3513546224236106 6.694834625795224e-23 5.955656916309515e-15 5.9117731363434156e-15 4.3883779966098476e-17
3.3576445397418455 7.156125925481946e-23 6.377964894464953e-15 6.3335373928707276e-15 4.442750159422343e-17
3.3702598118196083 8.842851865029241e-23 7.910886700017678e-15 7.865318598695875e-15 4.5568101321801463e-17
3.382922481734668 9.238945978813237e-23 8.296289664630616e-15 8.249610799505014e-15 4.66788651256023e-17
3.389271646505754 9.443814502127263e-23 8.496171288368549e-15 8.44892899700849e-15 4.7242291360059666e-17
3.395632727569191 9.665542112600602e-23 8.711969797613694e-15 8.664146846177001e-15 4.7822951436696375e-17
3.421196662673239 1.0730293811265957e-22 9.744489377367734e-15 9.694260384910175e-15 5.02289924575604e-17
3.4276182099114902 1.0530286442092408e-22 9.580806288943006e-15 9.530038030967632e-15 5.076825797536997e-17
3.4340518103208963 9.62965322867595e-23 8.777825123449433e-15 8.726545689054403e-15 5.1279434395028675e-17
3.4469541582030403 8.346741934028706e-23 7.636984810851305e-15 7.584721944407135e-15 5.226286644417144e-17
3.472904465399547 8.004209082786194e-23 7.378714287726309e-15 7.324189301353637e-15 5.4524986372672103e-17
3.4990501388274233 7.472079045774942e-23 6.940025341258188e-15 6.8831802104019175e-15 5.684513085626915e-17
3.5253949054701885 5.53093063455377e-23 5.175775345071487e-15 5.116667804574576e-15 5.910754049691265e-17
3.5519380250092896 3.7003836507317296e-23 3.4888441217753194e-15 3.427455823229525e-15 6.138829854579392e-17
3.578680990867387 2.989144748038725e-23 2.8394836057817752e-15 2.7755943961507775e-15 6.388920963099787e-17
3.605625307711299 2.716904285674323e-23 2.6003054442420663e-15 2.533778080725378e-15 6.652736351668803e-17
3.660119384959845 2.5513277411330967e-23 2.4787397745880266e-15 2.4066511184615165e-15 7.208865612650986e-17
3.715437065384467 2.4487139133455275e-23 2.4150014243783063e-15 2.337022680416991e-15 7.79787439613154e-17
3.8285932144167436 2.4775298091501e-23 2.5178366265951775e-15 2.4271024229536355e-15 9.073420364154148e-17
3.94519561050918 2.573977953257252e-23 2.69552148045246e-15 2.590731788460041e-15 1.047896919924188e-16
4.06534921144712 2.700812047211373e-23 2.914483845354755e-15 2.7943180011771867e-15 1.2016584417756786e-16
4.189162171576248 2.8470013368042826e-23 3.1658058500720506e-15 3.0288774864831387e-15 1.3692836358891227e-16
4.316745939156006 3.008129907750705e-23 3.4468509965164496e-15 3.2917925276844567e-15 1.550584688319942e-16
4.448215356677963 3.18230893178098e-23 3.757487771548297e-15 3.583131794443989e-15 1.7435597710430761e-16
4.58368876423945 3.369366418712506e-23 4.099517995815711e-15 3.9046327784904515e-15 1.9488521732525971e-16
4.723288106065518 3.5703002400636963e-23 4.476294064052528e-15 4.2594801940050945e-15 2.1681387004743434e-16
4.867139040275056 3.78683760870568e-23 4.8923764576177575e-15 4.6527285296295695e-15 2.396479279881879e-16
4.940699165968905 3.904249204150463e-23 5.120299614179682e-15 4.8688168424224466e-15 2.514827717572339e-16
5.015371051989984 4.023528801400737e-23 5.356481588105852e-15 5.092912613776879e-15 2.6356897432897475e-16
5.091171501069577 4.154699571196109e-23 5.614702957670563e-15 5.33854910347844e-15 2.761538541921227e-16
5.129500256944802 4.221045046127284e-23 5.747308054328536e-15 5.464773840546773e-15 2.8253421378176246e-16
5.168117569889187 4.288777500652434e-23 5.8834942563538885e-15 5.5944664142984315e-15 2.8902784205545704e-16
5.20702561229733 4.3647301227194816e-23 6.0327668699992445e-15 5.736689920528785e-15 2.960769494704606e-16
5.246226572918644 4.441610724273473e-23 6.185245884283878e-15 5.882040404804042e-15 3.032054794798357e-16
5.265937586045735 4.4804047144813645e-23 6.262711213728257e-15 5.955912210368358e-15 3.067990033598991e-16
5.285722656980489 4.5194376967506156e-23 6.341006650358273e-15 6.030594904270424e-15 3.104117460878476e-16
5.305582063971359 4.5587121745331435e-23 6.420142123887065e-15 6.106098635983274e-15 3.1404348790379215e-16
5.3255160863122235 4.599674187001744e-23 6.502168261848306e-15 6.184448761269448e-15 3.1771950057885726e-16
5.365609099470188 4.6937089235737797e-23 6.6850493338778116e-15 6.359723707210707e-15 3.2532562666710404e-16
5.406003951863644 4.789709672244135e-23 6.873136695186294e-15 6.5401200504551896e-15 3.330166447311058e-16
5.446702915881641 4.8877603033029515e-23 7.066640868768912e-15 6.725849988551417e-15 3.4079088021749586e-16
5.487708281020852 4.9907597916010445e-23 7.269877909555103e-15 6.921201608072903e-15 3.486763014821978e-16
5.529022354014368 5.121416016555146e-23 7.516364526003047e-15 7.159461312527982e-15 3.569032134750639e-16
5.570647458961463 5.2570711972877435e-23 7.773542308726967e-15 7.408320201677284e-15 3.6522210704968276e-16
5.612585937458331 5.398072579890375e-23 8.042131245790123e-15 7.668499897281427e-15 3.736313485086959e-16
5.654840148729818 5.549159678256156e-23 8.329462700245345e-15 7.947296249005915e-15 3.821664512394303e-16
5.67608639626678 5.646528310881656e-23 8.507460479360377e-15 8.120831547909614e-15 3.866289314507617e-16
5.686739436050992 5.69632871503943e-23 8.598601170917345e-15 8.209731359090846e-15 3.888698118264989e-16
5.6974124697621304 5.74689647701246e-23 8.691214505594978e-15 8.300097418270435e-15 3.9111708732454276e-16
5.718818669136295 5.850406681360239e-23 8.880998888558462e-15 8.485368161344416e-15 3.9563072721404443e-16
5.740305295436557 5.962708350201193e-23 9.08548239808077e-15 8.685281768096311e-15 4.0020062998445827e-16
5.7835210386641895 6.244696451127571e-23 9.586787156386572e-15 9.177128818571981e-15 4.096583378145929e-16
5.827062130521658 6.562447989775868e-23 1.015044205319076e-14 9.731138238382206e-15 4.1930381480855163e-16
5.8489554468988025 6.779906680123092e-23 1.0526196244145782e-14 1.0101697243562657e-14 4.2449900058312335e-16
5.870931020387893 7.01087138316276e-23 1.0925678346703269e-14 1.0495948078046017e-14 4.297302686572509e-16
5.892989160043636 7.25641102130736e-23 1.1350812494074698e-14 1.091581498967757e-14 4.349975043971292e-16
5.915130176081913 7.532993168281122e-23 1.1827727584878892e-14 1.138727349954687e-14 4.404540853320286e-16
5.95966208400165 8.295267893504425e-23 1.312264815838114e-14 1.266983881488476e-14 4.528093434963821e-16
6.004529249263818 9.376901262468145e-23 1.4945406803230965e-14 1.4478733971135143e-14 4.666728320958188e-16
6.027089341400364 1.0122545847267957e-22 1.619447281087888e-14 1.5719829019427206e-14 4.74643791451678e-16
6.049734195844842 1.0997457659690778e-22 1.7660297909087284e-14 1.7177217806274847e-14 4.830801028124335e-16
6.095279466722835 1.350962313060536e-22 2.1857792040803957e-14 2.1354111771481047e-14 5.036802693229078e-16
6.141167624020661 1.7345735300716936e-22 2.827568269321251e-14 2.7745434057667288e-14 5.302486355452141e-16
6.164241091010745 1.9792164934974476e-22 3.238488436227529e-14 3.183804233951326e-14 5.468420227620365e-16
6.187401249150058 2.2562089482847647e-22 3.705587144469942e-14 3.649196652718126e-14 5.639049175181621e-16
6.1990139391386085 2.3913697623176684e-22 3.934946023860676e-14 3.877686820221855e-14 5.725920363882027e-16
6.204828454712694 2.462419524259646e-22 4.0556573722907474e-14 3.9979591375676725e-14 5.769823472307421e-16
6.210648424152782 2.5143387864046345e-22 4.1450538126539115e-14 4.086979597292373e-14 5.807421536153847e-16
6.233982942956859 2.6903621018968276e-22 4.451903883042403e-14 4.392510580540893e-14 5.939330250150962e-16
6.239830258556775 2.712712616895858e-22 4.4930990856920217e-14 4.4335165668483044e-14 5.958251884371736e-16
6.245683058788269 2.7145334508050815e-22 4.5003321953086744e-14 4.440560063745816e-14 5.977213156285753e-16
6.257405133728602 2.709420379781236e-22 4.5002858511921774e-14 4.440178195265643e-14 6.010765592653537e-16
6.269149208991335 2.6745237012761857e-22 4.450660737176286e-14 4.3904122671975187e-14 6.024846997876738e-16
6.280915325867298 2.5874729399497673e-22 4.313881273439541e-14 4.2537330655729535e-14 6.014820786658814e-16
6.304513850009849 2.373025300784723e-22 3.9712150418018435e-14 3.911485852767417e-14 5.972918903442767e-16
6.32820103803542 2.1081365859323755e-22 3.541183614567686e-14 3.482105932654802e-14 5.907768191288439e-16
6.3519772230701035 1.8656688864328733e-22 3.145668359818553e-14 3.0871684678222543e-14 5.849989199629901e-16
6.375842739491607 1.661404005242081e-22 2.8117861201153183e-14 2.7537887229631702e-14 5.799739715214803e-16
6.399797922933955 1.4988557852649415e-22 2.5462177580486947e-14 2.4884457851428666e-14 5.777197290582814e-16
6.42384311029221 1.3635546165968415e-22 2.3250746266856e-14 2.2674729920272693e-14 5.760163465833115e-16
6.447978639727206 1.2656958122446976e-22 2.1663187883005743e-14 2.1086706027472695e-14 5.764818555330528e-16
6.472204850670314 1.1842179106211982e-22 2.0344794755017646e-14 1.9767413305927377e-14 5.773814490902678e-16
6.496522083828205 1.131962546983434e-22 1.9520116703564774e-14 1.8940070718003386e-14 5.800459855613922e-16
