Dust emission spectrum from A.P. Jones, M. Kohler, N. Ysard, M. Bocchio, and L. Verstraete (2017), A&A, 602A, 46J 
inside the DustPedia framework.

lambda    nu*dP/dnu     j_nu    j_nu(carb.) j_nu(sil)
 (um)   (erg s-1 H-1) (Jy cm2 sr-1 H-1)
0.9927057738263894 1.0391402332679455e-22 2.738193536647987e-15 2.738193536647953e-15 3.417560959120334e-29
1.0001793341362166 1.0563110254121371e-22 2.8043946034745242e-15 2.8043946034744836e-15 4.118083272457611e-29
1.0077091589558085 1.0734574208318879e-22 2.871372002909301e-15 2.8713720029092508e-15 4.955914216149792e-29
1.0114953028030835 1.0820193581945804e-22 2.9051484822096398e-15 2.9051484822095854e-15 5.434142570468067e-29
1.0152956718711033 1.0905726691565482e-22 2.9391149883348054e-15 2.939114988334746e-15 5.95661981482176e-29
1.0229392996569957 1.1076416797767497e-22 3.0075896833736063e-15 3.0075896833735346e-15 7.150346250361789e-29
1.0267826658714554 1.1161366821650076e-22 3.0420429602796034e-15 3.0420429602795256e-15 7.830643897162063e-29
1.0306404723013447 1.1246193023868067e-22 3.0766788005997997e-15 3.0766788005997137e-15 8.572922867523853e-29
1.03451277320114 1.1330887218745062e-22 3.1114957147409935e-15 3.1114957147408988e-15 9.382558526913227e-29
1.0383996230291617 1.1415441265955557e-22 3.146492194470745e-15 3.1464921944706428e-15 1.0265366998952129e-28
1.0403485208654093 1.1457663203119643e-22 3.164057295099813e-15 3.1640572950997058e-15 1.0736157390106536e-28
1.0423010764483396 1.1499847072086007e-22 3.1816667132741507e-15 3.1816667132740383e-15 1.122763905850829e-28
1.0462171883269815 1.1584096592161475e-22 3.217017726711071e-15 3.217017726710948e-15 1.2276176443771927e-28
1.0471985131304309 1.1605133614446928e-22 3.225882874689891e-15 3.225882874689766e-15 1.2552638597285922e-28
1.048180758391296 1.162616024448678e-22 3.2347589314661074e-15 3.234758931465979e-15 1.2835069408099266e-28
1.0501480137395462 1.1668181831137744e-22 3.2525436727736503e-15 3.2525436727735165e-15 1.3418330745299645e-28
1.0521189612883777 1.1710160360774665e-22 3.270371752696459e-15 3.2703717526963195e-15 1.4026972148547745e-28
1.0531058218030118 1.1731100946931969e-22 3.2792929748209735e-15 3.2792929748208303e-15 1.4341157412319352e-28
1.0540936079674168 1.1751924824493295e-22 3.2881954003069743e-15 3.2881954003068276e-15 1.4662153179994164e-28
1.058054026499678 1.183510216818006e-22 3.323910249751827e-15 3.323910249751666e-15 1.601640127314353e-28
1.0590464539527713 1.1855866354141146e-22 3.332865121873259e-15 3.3328651218730944e-15 1.6373253588902237e-28
1.06003981227728 1.1876618237564362e-22 3.341830406836694e-15 3.3418304068365266e-15 1.6737721475037405e-28
1.0620293250338977 1.1918084613479956e-22 3.3597921126767586e-15 3.359792112676582e-15 1.7490126091515544e-28
1.0660195594769086 1.2000864431062607e-22 3.3958393463449464e-15 3.395839346344757e-15 1.9093335358419467e-28
1.070024785945596 1.2083433949960546e-22 3.4320502926840607e-15 3.432050292683852e-15 2.083682713710099e-28
1.0740450607676866 1.2165785558830793e-22 3.468423278645193e-15 3.4684232786449652e-15 2.2732248172183544e-28
1.07808044048254 1.224791170718192e-22 3.5049566165611627e-15 3.504956616560915e-15 2.479215621151893e-28
1.0861967418109137 1.2411312627359856e-22 3.578455689842688e-15 3.578455689842393e-15 2.946062722308889e-28
1.0902777775684922 1.2492242642338772e-22 3.615322170329566e-15 3.6153221703292454e-15 3.209949305963179e-28
1.0943741465085532 1.2572911855853724e-22 3.652339402938291e-15 3.652339402937943e-15 3.4963589241011403e-28
1.1026131145906286 1.2733439198481825e-22 3.7268190406751484e-15 3.726819040674734e-15 4.144167695856644e-28
1.1109141095355224 1.2892837987731384e-22 3.8018803161640985e-15 3.8018803161636086e-15 4.905772656840161e-28
1.1192775983109025 1.3050904722121105e-22 3.8774647994028374e-15 3.877464799402258e-15 5.799999978464071e-28
1.1277040513999907 1.3206905348668916e-22 3.95335340320616e-15 3.953353403205474e-15 6.848586496068665e-28
1.1361939428280308 1.33615931965986e-22 4.0297689657639165e-15 4.029768965763109e-15 8.076592207432207e-28
1.1447477501889525 1.3514916667353765e-22 4.1066964606006845e-15 4.106696460599733e-15 9.512873997979092e-28
1.1533659546722406 1.3666908895467876e-22 4.184146287776603e-15 4.184146287775484e-15 1.1190632281859409e-27
1.1707974979042381 1.3967390253409686e-22 4.340767115520038e-15 4.340767115518495e-15 1.5428833029520784e-27
1.1884924949847024 1.4261899223246305e-22 4.499282267811569e-15 4.499282267809453e-15 2.1167819825437696e-27
1.2064549276569216 1.455273785738691e-22 4.660421970722436e-15 4.660421970719545e-15 2.890100696448214e-27
1.2246888378427687 1.4836730396764965e-22 4.8231791968193804e-15 4.823179196815453e-15 3.92696745608405e-27
1.2431983285522175 1.511321227429633e-22 4.987313090314055e-15 4.987313090308743e-15 5.310447447598824e-27
1.2619875648066055 1.5382079765601815e-22 5.15275588170121e-15 5.152755881694063e-15 7.147584924384204e-27
1.3004222497298317 1.5892502225434183e-22 5.485877498926745e-15 5.485877498913975e-15 1.2769254035783335e-26
1.3400274889804893 1.636599769552558e-22 5.8213756666069514e-15 5.821375666584551e-15 2.2401337364115212e-26
1.3808389325824078 1.6800807499768814e-22 6.1580415128599575e-15 6.158041512821349e-15 3.860855952358201e-26
1.4228933163050095 1.7199042792540108e-22 6.496000497404236e-15 6.496000497338833e-15 6.540437414240262e-26
1.466228494730424 1.7570278379849755e-22 6.838324897233379e-15 6.838324897124423e-15 1.0895815663904212e-25
1.5108834753276823 1.7907297955149856e-22 7.181752994493404e-15 7.181752994314824e-15 1.7858051459513289e-25
1.5568984535646726 1.8204261345940554e-22 7.523203024823236e-15 7.523203024534978e-15 2.882564063590196e-25
1.6043148490894465 1.8461706507444226e-22 7.86196088582864e-15 7.861960885369564e-15 4.590742852202158e-25
1.6531753430134553 1.8680411456260805e-22 8.19737475677551e-15 8.197374756054967e-15 7.205436180735829e-25
1.7035239163302658 1.8862968335750776e-22 8.529581120684828e-15 8.529581119569967e-15 1.1148588878943008e-24
1.755405889504358 1.9024373778420796e-22 8.864563477226262e-15 8.864563475524956e-15 1.7013096892288064e-24
1.8088679632656115 1.9160920761710674e-22 9.200102692571485e-15 9.200102690009894e-15 2.561591181179878e-24
1.8639582606462262 1.9270097151983075e-22 9.534315526626472e-15 9.534315522819519e-15 3.806950968616712e-24
1.9207263702978936 1.9353719028204565e-22 9.867323433366569e-15 9.867323427779854e-15 5.586717413897944e-24
1.979223391128241 1.9416018028111942e-22 1.0200569391585847e-14 1.0200569383486994e-14 8.098851434042301e-24
2.039501978296691 1.946205937589055e-22 1.0536160001067806e-14 1.053615998946556e-14 1.1602244013444351e-23
2.1016163906111602 1.9506036268449804e-22 1.0881578697751861e-14 1.0881578681319401e-14 1.6432459238710363e-23
2.1656225393682647 1.9556177865741668e-22 1.1241808279450438e-14 1.1241808256432453e-14 2.30179859760195e-23
2.231578038680979 1.9613071456641914e-22 1.161788631542237e-14 1.161788628352273e-14 3.189964053146543e-23
2.299542257339062 1.9681643765610917e-22 1.2013573082833141e-14 1.201357303908019e-14 4.375295301876805e-23
2.369576372248914 1.9772791376896651e-22 1.2436785038498337e-14 1.2436784979083934e-14 5.941440085741545e-23
2.4417434235010123 1.9899381638100171e-22 1.2897604071220718e-14 1.2897603991312486e-14 7.990823235322788e-23
2.5161083711144245 2.0083452409950215e-22 1.3413346609996576e-14 1.341334650351558e-14 1.0648099449922481e-22
2.5927381535095444 2.0361068410101016e-22 1.4012920390714424e-14 1.401292025007765e-14 1.4063676968186297e-22
2.6717017477616296 2.077528736546718e-22 1.4733449786541075e-14 1.4733449602372557e-14 1.8416851303502484e-22
2.753070231689431 2.139093784131459e-22 1.5632072093614046e-14 1.5632071854412528e-14 2.392015199104128e-22
2.836916847834745 2.2354896244950584e-22 1.683405330623428e-14 1.68340529979824e-14 3.0825187676182742e-22
2.9233170693905177 2.399064767556409e-22 1.8616041064300295e-14 1.8616040670076262e-14 3.9422403452953827e-22
2.967498994190263 2.5379817021279844e-22 1.9991643568927598e-14 1.999164312495889e-14 4.4396870709035e-22
3.0123486681368425 2.7002208309636433e-22 2.1591059527664214e-14 2.1591059028246996e-14 4.994172157452079e-22
3.0578761833420214 3.0632451684436524e-22 2.4864005124110883e-14 2.4864004562799285e-14 5.613115980884659e-22
3.1040917844459814 3.5310404836585222e-22 2.909421770484322e-14 2.9094217074958696e-14 6.298845211807082e-22
3.127460860933648 4.025912605099074e-22 3.3421478580497765e-14 3.342147791338383e-14 6.671139297961315e-22
3.1510058709225794 4.685260547538759e-22 3.918793620942504e-14 3.9187935503118276e-14 7.063067541792552e-22
3.162844764501044 5.299017966207683e-22 4.4487981541516395e-14 4.448798081474295e-14 7.267734468104854e-22
3.1747281389236908 6.012765128181403e-22 5.0669919470426916e-14 5.066991872266247e-14 7.477644470150219e-22
3.1986289994194426 8.00360669734848e-22 6.795462846311246e-14 6.795462767160257e-14 7.915098773927385e-22
3.2227097969389145 1.2696521563089652e-21 1.0861139379103176e-13 1.0861139295239604e-13 8.386357135910396e-22
3.2348180950136065 1.7146876284850764e-21 1.4723271182907748e-13 1.4723271096489884e-13 8.641786613189615e-22
3.240889293275058 2.0474097394894185e-21 1.7613205167074174e-13 1.7613205079292726e-13 8.778145294773277e-22
3.2469718861334385 2.4323181241858737e-21 2.0963719364106293e-13 2.0963719274902434e-13 8.920385335406066e-22
3.2714166318528037 4.485486586402676e-21 3.895066283854917e-13 3.8950662743383157e-13 9.516601886069931e-22
3.2744851364798273 4.613837169555772e-21 4.010280217437729e-13 4.0102802078509314e-13 9.586796551388418e-22
3.2775565192852394 4.7458743467397584e-21 4.1289141991075597e-13 4.1289141894500746e-13 9.657486338540192e-22
3.283707930232385 4.618897817266022e-21 4.0259864549043243e-13 4.025986445123164e-13 9.781160102325372e-22
3.2898708863219004 4.216212928292779e-21 3.68189011281461e-13 3.681890102923323e-13 9.891286042139368e-22
3.29141343181113 4.1212497518110756e-21 3.6006491392511117e-13 3.600649129332138e-13 9.918973020186502e-22
3.292184975758714 4.0745882061207784e-21 3.560716405146865e-13 3.5607163952140253e-13 9.932839902474136e-22
3.295272960557952 3.780055760137074e-21 3.306427725796761e-13 3.30642771581065e-13 9.98611181326804e-22
3.3076538914384823 2.759703815734632e-21 2.4229919226445726e-13 2.422991912444347e-13 1.020022556610871e-21
3.310756385682612 2.5520358859174265e-21 2.2427632722604615e-13 2.242763262006129e-13 1.0254331814215813e-21
3.313861789986515 2.3604297968903124e-21 2.0763229908373698e-13 2.0763229805286999e-13 1.0308670597647921e-21
3.3200813396944477 2.0917235852589897e-21 1.8434121691462622e-13 1.8434121587187186e-13 1.0427543438854988e-21
3.345076488085796 1.6123764492461174e-21 1.4316667275206579e-13 1.4316667165501904e-13 1.097046777052238e-21
3.3482140837626964 1.6303511893619604e-21 1.4489847561085407e-13 1.4489847450629724e-13 1.1045568015606345e-21
3.3513546224236106 1.6485246604290063e-21 1.466510801889241e-13 1.4665107907681097e-13 1.1121130801583799e-21
3.3576445397418455 1.7813414508358002e-21 1.5876374111905875e-13 1.5876373999095206e-13 1.1281066506327473e-21
3.3702598118196083 2.271226746405771e-21 2.0318577914803077e-13 2.0318577798590954e-13 1.1621212967640732e-21
3.382922481734668 2.3828031564100085e-21 2.139684033731395e-13 2.139684021782271e-13 1.1949124738436185e-21
3.389271646505754 2.4406075071297414e-21 2.1957038041759085e-13 2.1957037920596654e-13 1.2116242468697653e-21
3.395632727569191 2.502894620038929e-21 2.25596682341929e-13 2.255966811130065e-13 1.2289224765902246e-21
3.421196662673239 2.8019744190141284e-21 2.544553806445865e-13 2.5445537934336946e-13 1.3012170784088465e-21
3.4276182099114902 2.7417032221305365e-21 2.494493157185574e-13 2.49449314401252e-13 1.317305444468004e-21
3.4340518103208963 2.47759559681039e-21 2.2584303254729143e-13 2.2584303121487553e-13 1.3324159450130845e-21
3.4469541582030403 2.101457261271022e-21 1.9227618766492445e-13 1.9227618630360225e-13 1.3613222032416539e-21
3.472904465399547 1.9960400150707253e-21 1.840058002701379e-13 1.840057988400545e-13 1.4300834351360752e-21
3.4990501388274233 1.8348093580777085e-21 1.7041606979033696e-13 1.7041606828908892e-13 1.5012480181260321e-21
3.5253949054701885 1.2610268138926017e-21 1.1800530370140782e-13 1.1800530213125322e-13 1.5701545463509844e-21
3.5519380250092896 7.21734962051e-22 6.804755986135224e-14 6.804755822137573e-14 1.6399765152921534e-21
3.578680990867387 5.078964755603515e-22 4.82467005565459e-14 4.82466988379341e-14 1.7186118202592767e-21
3.605625307711299 4.2139689117992133e-22 4.033121947282248e-14 4.0331217669693405e-14 1.8031290932761835e-21
3.660119384959845 3.582798590604611e-22 3.480864189923878e-14 3.480863991383722e-14 1.985401550794077e-21
3.715437065384467 3.135733953025693e-22 3.092562966117267e-14 3.092562747743608e-14 2.18373659039761e-21
3.8285932144167436 2.9083996846438045e-22 2.9557163040900395e-14 2.9557160406975445e-14 2.6339249606724454e-21
3.94519561050918 2.8642563175988554e-22 2.9995068216645864e-14 2.9995065052976955e-14 3.1636689220623032e-21
4.06534921144712 2.895367531953956e-22 3.124431374984922e-14 3.1244309963199205e-14 3.786650014166839e-21
4.189162171576248 2.970091488192356e-22 3.3026795200324684e-14 3.3026790679338e-14 4.520986695112904e-21
4.316745939156006 3.0766458132309856e-22 3.525359612940706e-14 3.5253590743134815e-14 5.3862722451391196e-21
4.448215356677963 3.211084649669712e-22 3.791464487952107e-14 3.791463847871233e-14 6.400808749413104e-21
4.58368876423945 3.3739012223881494e-22 4.105035504737431e-14 4.1050347450694196e-14 7.596680121865188e-21
4.723288106065518 3.5688726455623163e-22 4.4745042053956295e-14 4.474503303725164e-14 9.01670466389925e-21
4.867139040275056 3.8035457622958437e-22 4.913962431383006e-14 4.913961362335423e-14 1.0690475829214265e-20
4.940699165968905 3.945225879630505e-22 5.1740392308588087e-14 5.174038066585524e-14 1.1642732837562533e-20
5.015371051989984 4.091988735245815e-22 5.447621578215144e-14 5.447620310174118e-14 1.2680410255406403e-20
5.091171501069577 4.271165263792237e-22 5.772095870799627e-14 5.772094488370246e-14 1.3824293827960474e-20
5.129500256944802 4.363142998739699e-22 5.940786375130208e-14 5.940784931674665e-14 1.443455543070967e-20
5.168117569889187 4.459048049063686e-22 6.117077321330197e-14 6.117075813918367e-14 1.5074118299244407e-20
5.20702561229733 4.57679063847796e-22 6.325868990390049e-14 6.325867414250154e-14 1.576139894457874e-20
5.246226572918644 4.697551189865522e-22 6.54166043965531e-14 6.541658791649574e-14 1.648005735441814e-20
5.265937586045735 4.759093434990164e-22 6.65226240079598e-14 6.652260715635094e-14 1.685160884104936e-20
5.285722656980489 4.821426976809667e-22 6.764713350545366e-14 6.764711627389378e-14 1.7231559887272674e-20
5.305582063971359 4.884564642495391e-22 6.87904785770897e-14 6.879046095698528e-14 1.7620104411092143e-20
5.3255160863122235 4.952403888953468e-22 7.00079224689554e-14 7.000790444985511e-14 1.8019100291355845e-20
5.365609099470188 5.121410624801173e-22 7.294206616411557e-14 7.294204730647702e-14 1.885763853392829e-20
5.406003951863644 5.296868294177431e-22 7.600899080219676e-14 7.600897106670931e-14 1.973548744204439e-20
5.446702915881641 5.4790890390005505e-22 7.921573916065503e-14 7.921571850613591e-14 2.0654519127507145e-20
5.487708281020852 5.6760089283234715e-22 8.268058100471874e-14 8.268055938481161e-14 2.161990711320015e-20
5.529022354014368 5.949779166394219e-22 8.732098489807572e-14 8.732096223820319e-14 2.265987252344876e-20
5.570647458961463 6.239713763160779e-22 9.226559259326953e-14 9.226556884249865e-14 2.375077090254953e-20
5.612585937458331 6.546976889967947e-22 9.753786491945671e-14 9.753784002433178e-14 2.4895124936267414e-20
5.654840148729818 6.884762811794671e-22 1.0334244888570458e-13 1.0334242278445363e-13 2.610125092238921e-20
5.67608639626678 7.114842527859306e-22 1.071972693486494e-13 1.0719724259711448e-13 2.6751534906348848e-20
5.686739436050992 7.233441225616653e-22 1.0918870610141505e-13 1.0918867901849632e-13 2.708291873587944e-20
5.6974124697621304 7.354488209711719e-22 1.1122426663704656e-13 1.1122423921851106e-13 2.741853551242119e-20
5.718818669136295 7.604162952921348e-22 1.154322535362796e-13 1.1543222543359253e-13 2.8102687051467684e-20
5.740305295436557 7.879395555455931e-22 1.2005972021790266e-13 1.2005969140573467e-13 2.881216802397872e-20
5.7835210386641895 8.59347545086375e-22 1.3192606033907107e-13 1.3192602998911243e-13 3.034995868101468e-20
5.827062130521658 9.416153958829673e-22 1.4564401161263558e-13 1.4564397962112726e-13 3.19915083360199e-20
5.8489554468988025 9.9933134289598e-22 1.551519559861825e-13 1.5515192306177355e-13 3.292440889997277e-20
5.870931020387893 1.0612698447387754e-21 1.653873296052505e-13 1.6538729571833202e-13 3.388691841992568e-20
5.892989160043636 1.1277708283332699e-21 1.7641110972228145e-13 1.7641107484227118e-13 3.488001032142121e-20
5.915130176081913 1.2034046168392108e-21 1.8894935471722397e-13 1.889493187827713e-13 3.5934452725438234e-20
5.95966208400165 1.4148857489731902e-21 2.2382698312397605e-13 2.238269446976824e-13 3.842629378268243e-20
6.004529249263818 1.7197197121642e-21 2.7409812651758783e-13 2.740980850539908e-13 4.146359706492718e-20
6.027089341400364 1.931623544296808e-21 3.090292248704505e-13 3.09029181533103e-13 4.3337347688689036e-20
6.049734195844842 2.182045165522397e-21 3.5040432858818335e-13 3.504042831826221e-13 4.5405561379304406e-20
6.095279466722835 2.9054246588265184e-21 4.700809739021059e-13 4.700809230571497e-13 5.084495612773373e-20
6.141167624020661 4.018716587977564e-21 6.551002485948612e-13 6.551001900820897e-13 5.851277137657401e-20
6.164241091010745 4.729668917469416e-21 7.738909890217744e-13 7.738909255352578e-13 6.348651666007179e-20
6.187401249150058 5.539571601697756e-21 9.098166784919221e-13 9.098166095750527e-13 6.891686900766243e-20
6.1990139391386085 5.935033963482254e-21 9.765967047040142e-13 9.765966329941622e-13 7.170985194658397e-20
6.204828454712694 6.143350874746137e-21 1.0118229660002417e-12 1.011822892844078e-12 7.315616393556575e-20
6.210648424152782 6.2954228385363556e-21 1.03784209909349e-12 1.0378420247229314e-12 7.437055831399035e-20
6.233982942956859 6.812090838614018e-21 1.1272376173705976e-12 1.1272375386700835e-12 7.870051421596907e-20
6.239830258556775 6.878144893892191e-21 1.139235551216175e-12 1.1392354718945523e-12 7.932162253343086e-20
6.245683058788269 6.883884817028621e-21 1.1412557270820309e-12 1.1412556471343532e-12 7.994767734952059e-20
6.257405133728602 6.869718700160319e-21 1.1410447082596317e-12 1.1410446272036814e-12 8.1055950519968e-20
6.269149208991335 6.768137482415789e-21 1.126282176614313e-12 1.1262820951282274e-12 8.148608586248572e-20
6.280915325867298 6.513359160884183e-21 1.0859189163875718e-12 1.0859188353150923e-12 8.107247931865909e-20
6.304513850009849 5.885051290194779e-21 9.848527193396753e-13 9.84852639877828e-13 7.946184728916891e-20
6.32820103803542 5.106237039401418e-21 8.577301421876158e-13 8.57730065296365e-13 7.689125083774333e-20
6.3519772230701035 4.3920100717919574e-21 7.40528355235422e-13 7.405282807481093e-13 7.448731273094873e-20
6.375842739491607 3.791157098634979e-21 6.416213561231453e-13 6.416212837247558e-13 7.23983895312343e-20
6.399797922933955 3.309596157891789e-21 5.622257052371608e-13 5.622256341326453e-13 7.110451553384855e-20
6.42384311029221 2.909238625974478e-21 4.960708452668375e-13 4.960707752180257e-13 7.004881175459799e-20
6.447978639727206 2.6175005984069063e-21 4.4800185556911895e-13 4.48001785851583e-13 6.971753604480711e-20
6.472204850670314 2.3744845127154487e-21 4.0793505677365607e-13 4.079349872096975e-13 6.956395859508293e-20
6.496522083828205 2.2165626679009324e-21 3.822349252940813e-13 3.8223485525596504e-13 7.003811628151866e-20
