Dust emission spectrum from A.P. Jones, M. Kohler, N. Ysard, M. Bocchio, and L. Verstraete (2017), A&A, 602A, 46J 
inside the DustPedia framework.

lambda    nu*dP/dnu     j_nu    j_nu(carb.) j_nu(sil)
 (um)   (erg s-1 H-1) (Jy cm2 sr-1 H-1)
0.9927057738263894 9.318834017288694e-20 2.455565693476111e-12 2.455565532082393e-12 1.613937172231048e-19
1.0001793341362166 9.474954035794789e-20 2.515500579555605e-12 2.5155003853975623e-12 1.9415804375745995e-19
1.0077091589558085 9.63176026654596e-20 2.5763822794817216e-12 2.576382046221904e-12 2.3325981697141857e-19
1.0114953028030835 9.71041481524109e-20 2.607180421355326e-12 2.607180165812963e-12 2.5554236286991685e-19
1.0152956718711033 9.789233975636441e-20 2.6382179854517616e-12 2.6382177055925414e-12 2.798592200036764e-19
1.0229392996569957 9.947280388062247e-20 2.700994231166039e-12 2.700993895845613e-12 3.353204258980494e-19
1.0267826658714554 1.002632862805888e-19 2.7326870362573773e-12 2.732686669383505e-12 3.6687387297186022e-19
1.0306404723013447 1.0105529248317715e-19 2.764621551591208e-12 2.7646211503297105e-12 4.012614969739182e-19
1.03451277320114 1.0184880373783738e-19 2.796798787808212e-12 2.796798349083414e-12 4.387247978616026e-19
1.0383996230291617 1.0264380209914537e-19 2.8292197786427497e-12 2.8292192991180925e-12 4.795246565215194e-19
1.0403485208654093 1.0304185356168759e-19 2.8455220116235756e-12 2.845521510360599e-12 5.012629749987893e-19
1.0423010764483396 1.0344027044584404e-19 2.8618855818394713e-12 2.8618850578966858e-12 5.239427865024343e-19
1.0462171883269815 1.042381924997403e-19 2.8947972800822035e-12 2.8947967077989164e-12 5.722832860374227e-19
1.0471985131304309 1.0443789832915391e-19 2.9030637550714452e-12 2.903063170052263e-12 5.850191821363186e-19
1.048180758391296 1.0463769381509323e-19 2.911345685235136e-12 2.9113450872091544e-12 5.980259817756704e-19
1.0501480137395462 1.0503755284444688e-19 2.9279559819348566e-12 2.9279553570605598e-12 6.24874296636419e-19
1.0521189612883777 1.054377677984576e-19 2.9446283129519253e-12 2.9446276600786295e-12 6.528732957339955e-19
1.0531058218030118 1.056377460923864e-19 2.9529804594110403e-12 2.952979792091205e-12 6.673198360232029e-19
1.0540936079674168 1.0583695404093048e-19 2.9613241290870272e-12 2.9613234470119725e-12 6.820750549968885e-19
1.058054026499678 1.066346308054293e-19 2.9948532532792907e-12 2.994852509003385e-12 7.442759052989209e-19
1.0590464539527713 1.0683426026439358e-19 3.0032742375841434e-12 3.003273476930872e-12 7.606532710305079e-19
1.06003981227728 1.0703397345342692e-19 3.011710740351018e-12 3.0117099629762285e-12 7.773747891062844e-19
1.0620293250338977 1.0743365029714748e-19 3.028630376530228e-12 3.028629564652355e-12 8.118778722264975e-19
1.0660195594769086 1.082340009846801e-19 3.0626567050017947e-12 3.0626558196770825e-12 8.85324711653952e-19
1.070024785945596 1.0903567229809953e-19 3.0969334758098104e-12 3.096932510715397e-12 9.650944143819242e-19
1.0740450607676866 1.098386546464406e-19 3.1314619580340353e-12 3.1314609063323735e-12 1.0517016621910164e-18
1.07808044048254 1.1064293943495468e-19 3.1662434537385127e-12 3.1662423080380676e-12 1.1457004455931408e-18
1.0861967418109137 1.1225416898226096e-19 3.2365357457648985e-12 3.2365343874627153e-12 1.3583021841692813e-18
1.0902777775684922 1.1305833267861527e-19 3.271968920041483e-12 3.2719674418054327e-12 1.4782360505038737e-18
1.0943741465085532 1.1386372754201013e-19 3.3076584281746347e-12 3.3076568199454937e-12 1.6082291403090631e-18
1.1026131145906286 1.1547819933784696e-19 3.3798123615062294e-12 3.379810459869591e-12 1.9016366378741926e-18
1.1109141095355224 1.1709757261738476e-19 3.453009778206068e-12 3.4530075325797224e-12 2.2456263459789146e-18
1.1192775983109025 1.1872060161377814e-19 3.527226376429605e-12 3.527223728050245e-12 2.6483793597596506e-18
1.1277040513999907 1.2034155666946927e-19 3.6023026594517312e-12 3.6022995401447754e-12 3.1193069552903576e-18
1.1361939428280308 1.219673036520846e-19 3.678453967751341e-12 3.678450298530359e-12 3.669220983086579e-18
1.1447477501889525 1.23597907642622e-19 3.75569529836391e-12 3.7556909878389626e-12 4.310524948601869e-18
1.1533659546722406 1.2523400963167744e-19 3.8340594827373655e-12 3.8340544253011195e-12 5.057436245992485e-18
1.1707974979042381 1.285276952019488e-19 3.994366754591158e-12 3.99435981906683e-12 6.935524328057045e-18
1.1884924949847024 1.3184464689399385e-19 4.159377882218678e-12 4.1593684190373475e-12 9.463181330048007e-18
1.2064549276569216 1.3520714129514036e-19 4.329922919422323e-12 4.329910071410586e-12 1.2848011736632018e-17
1.2246888378427687 1.3859460101459205e-19 4.50548455440571e-12 4.505467196698158e-12 1.7357707552787108e-17
1.2431983285522175 1.420047523617889e-19 4.686112703817825e-12 4.68608936760966e-12 2.3336208167651194e-17
1.2619875648066055 1.454431401741286e-19 4.87211747309525e-12 4.872086249919023e-12 3.122317622577291e-17
1.3004222497298317 1.5238639159927825e-19 5.2601727843664425e-12 5.260117679594124e-12 5.510477232072291e-17
1.3400274889804893 1.5944912883112481e-19 5.67159604875759e-12 5.671500585251886e-12 9.54635057036736e-17
1.3808389325824078 1.6666096348243018e-19 6.1086655014181e-12 6.108503085969171e-12 1.6241544893047219e-16
1.4228933163050095 1.7408413081178782e-19 6.575078706322258e-12 6.574807202732822e-12 2.715035894370945e-16
1.466228494730424 1.818452314374886e-19 7.077387999772702e-12 7.076941829797011e-12 4.461699756920612e-16
1.5108834753276823 1.8993425348516515e-19 7.617346274911743e-12 7.6166251777874e-12 7.210971243436673e-16
1.5568984535646726 1.9834891756237773e-19 8.19708719963225e-12 8.195939793267884e-12 1.1474063643690151e-15
1.6043148490894465 2.0713890530973386e-19 8.821058718606706e-12 8.819257820382484e-12 1.8008982242205305e-15
1.6531753430134553 2.1635641641658342e-19 9.49419465707378e-12 9.491409894938437e-12 2.784762135340439e-15
1.7035239163302658 2.2606106701928223e-19 1.0222178053042842e-11 1.0217934646555012e-11 4.243406487836428e-15
1.755405889504358 2.3641986894612077e-19 1.1016178298218709e-11 1.1009803225127214e-11 6.375073091491596e-15
1.8088679632656115 2.474344365521298e-19 1.1880547152551974e-11 1.1871101058638136e-11 9.44609391384259e-15
1.8639582606462262 2.591009939458166e-19 1.2819606512921643e-11 1.2805796716385415e-11 1.380979653622242e-14
1.9207263702978936 2.7145108058768637e-19 1.3839694606458475e-11 1.3819767147693824e-11 1.9927458764645444e-14
1.979223391128241 2.8453201691095893e-19 1.494842340188303e-11 1.492003035718108e-11 2.8393044701945934e-14
2.039501978296691 2.983841709066921e-19 1.61536007353539e-11 1.6113641254069396e-11 3.9959481284506194e-14
2.1016163906111602 3.1313512832865197e-19 1.7468462044491272e-11 1.7412890517076733e-11 5.5571527414539344e-14
2.1656225393682647 3.2884616860111463e-19 1.8903620156378462e-11 1.8827226718084287e-11 7.639343829417188e-14
2.231578038680979 3.4548200447307903e-19 2.046477351018482e-11 2.0360933830948905e-11 1.0383967923591581e-13
2.299542257339062 3.6305569385927164e-19 2.2160730898594594e-11 2.2021124935525118e-11 1.3960596306947888e-13
2.369576372248914 3.816116717680247e-19 2.4002793735569156e-11 2.381709242709479e-11 1.857013084743626e-13
2.4417434235010123 4.0120455869109347e-19 2.600371028443969e-11 2.5759241483872335e-11 2.44468800567356e-13
2.5161083711144245 4.2195376492882545e-19 2.8181469932825084e-11 2.786285527842297e-11 3.1861465440211976e-13
2.5927381535095444 4.440592002197444e-19 3.05610987405583e-11 3.0149879069182855e-11 4.1121967137544955e-13
2.6717017477616296 4.676835377832174e-19 3.316725202739917e-11 3.26415308446918e-11 5.257211827073623e-13
2.753070231689431 4.930642435127618e-19 3.6032154637410174e-11 3.5366250114476365e-11 6.659045229338211e-13
2.836916847834745 5.208712529602147e-19 3.922350764655351e-11 3.838759859712336e-11 8.359090494301449e-13
2.9233170693905177 5.525652360532589e-19 4.2877446512416357e-11 4.183748046171728e-11 1.0399660506990789e-12
2.967498994190263 5.711823345421726e-19 4.499194629914339e-11 4.383819664987833e-11 1.1537496492650565e-12
3.0123486681368425 5.909767681469948e-19 4.725470759358119e-11 4.59763575135479e-11 1.278350080033292e-12
3.0578761833420214 6.208423640910899e-19 5.039305335742645e-11 4.89780113421638e-11 1.4150420152626376e-12
3.1040917844459814 6.550737922541839e-19 5.397519403355444e-11 5.241198488178475e-11 1.5632091517696876e-12
3.127460860933648 6.847442660986293e-19 5.6844666209466365e-11 5.520235491087855e-11 1.6423112985878113e-12
3.1510058709225794 7.217103936777903e-19 6.036449965195945e-11 5.863990266394082e-11 1.72459698801863e-12
3.162844764501044 7.541266494697869e-19 6.331281130867294e-11 6.154569527162921e-11 1.7671160370437448e-12
3.1747281389236908 7.905549403902217e-19 6.662052202700338e-11 6.481006727058068e-11 1.8104547564226971e-12
3.1986289994194426 8.880498516470505e-19 7.539987908874864e-11 7.350002381676999e-11 1.899855271978659e-12
3.2227097969389145 1.1101049361950669e-18 9.496305249853826e-11 9.296863412181874e-11 1.9944183767194918e-12
3.2348180950136065 1.3170550197995976e-18 1.1308974239495532e-10 1.1104490156272217e-10 2.0448408322331327e-12
3.240889293275058 1.4713058939039654e-18 1.2657169726719446e-10 1.2450025945851496e-10 2.071437808679471e-12
3.2469718861334385 1.6499714112545278e-18 1.4220811529707227e-10 1.4010915752894676e-10 2.098957768125538e-12
3.2714166318528037 2.5844064026719976e-18 2.2442234635907518e-10 2.2220980032507336e-10 2.2125460340018233e-12
3.2744851364798273 2.642883148496166e-18 2.2971556251158672e-10 2.2748966980288776e-10 2.2258927086989967e-12
3.2775565192852394 2.702897826801811e-18 2.351523112592625e-10 2.329130087376484e-10 2.239302521614074e-12
3.283707930232385 2.6459359890123683e-18 2.306286667024171e-10 2.2836546327820328e-10 2.26320342421385e-12
3.2898708863219004 2.463869808391038e-18 2.1516223305284262e-10 2.1287735209713896e-10 2.2848809557036482e-12
3.29141343181113 2.420842230925347e-18 2.1150388886802107e-10 2.0921356641518966e-10 2.290322452831453e-12
3.292184975758714 2.39968627183734e-18 2.0970468285608288e-10 2.0741163633524702e-10 2.2930465208359258e-12
3.295272960557952 2.2678453919711125e-18 1.983692135155646e-10 1.9606558480452428e-10 2.303628711040325e-12
3.3076538914384823 1.807492729958139e-18 1.586960259994976e-10 1.56349930360136e-10 2.346095639361654e-12
3.310756385682612 1.7127816110996514e-18 1.5052153897892678e-10 1.4816474661350848e-10 2.3567923654183217e-12
3.313861789986515 1.6249993366365235e-18 1.429410646823265e-10 1.4057354357554766e-10 2.367521106778845e-12
3.3200813396944477 1.50268141421189e-18 1.3242960135027278e-10 1.300389692165305e-10 2.3906321337423135e-12
3.345076488085796 1.2912909262152372e-18 1.1465673884507956e-10 1.1216301989033914e-10 2.493718954740388e-12
3.3482140837626964 1.3004336930379767e-18 1.155768530017994e-10 1.1306916508744052e-10 2.5076879143589178e-12
3.3513546224236106 1.309654374153542e-18 1.1650552354720898e-10 1.1398380765522369e-10 2.5217158919852887e-12
3.3576445397418455 1.3722530099194169e-18 1.2230334701663978e-10 1.197522885599615e-10 2.551058456678326e-12
3.3702598118196083 1.5973055101747326e-18 1.4289624104502015e-10 1.4028364122588714e-10 2.612599819132995e-12
3.382922481734668 1.6523771150550572e-18 1.4837838875928062e-10 1.4570609642905523e-10 2.6722923302253547e-12
3.389271646505754 1.680724847000451e-18 1.512071863071461e-10 1.4850466201674658e-10 2.702524290399569e-12
3.395632727569191 1.7119262794961161e-18 1.5430329586240382e-10 1.5156961547895936e-10 2.7336803834444263e-12
3.421196662673239 1.8628258635244836e-18 1.6916859089116223e-10 1.6630607165270892e-10 2.862519238453328e-12
3.4276182099114902 1.8370347765020732e-18 1.671395591801283e-10 1.642484239195811e-10 2.8911352605471625e-12
3.4340518103208963 1.7173141405300434e-18 1.565402496811638e-10 1.5362211505334288e-10 2.9181346278208964e-12
3.4469541582030403 1.545762164738882e-18 1.4143197749018697e-10 1.3846215534502956e-10 2.9698221451573963e-12
3.472904465399547 1.5006806081514366e-18 1.383408820303625e-10 1.3525178605908477e-10 3.0890959712777886e-12
3.4990501388274233 1.43127072861087e-18 1.329356269641863e-10 1.2972477334366038e-10 3.2108536205258922e-12
3.5253949054701885 1.1781566851163396e-18 1.1025042124666372e-10 1.0692176061996861e-10 3.3286606266950963e-12
3.5519380250092896 9.373002492535547e-19 8.837176827057281e-11 8.492508579692272e-11 3.4466824736500718e-12
3.578680990867387 8.459140433940943e-19 8.035606370999956e-11 7.678007091511734e-11 3.5759927948822315e-12
3.605625307711299 8.1335797201516e-19 7.78451848267367e-11 7.413323276096727e-11 3.71195206576942e-12
3.660119384959845 7.985921408413466e-19 7.75871351713407e-11 7.359059660387289e-11 3.996538567467798e-12
3.715437065384467 7.914578089513825e-19 7.80561471691698e-11 7.376112675374357e-11 4.29502041542623e-12
3.8285932144167436 8.078177762274474e-19 8.209601261257349e-11 7.71648159930043e-11 4.931196619569186e-12
3.94519561050918 8.318443887329871e-19 8.711241739215918e-11 8.149545431805265e-11 5.6169630741065e-12
4.06534921144712 8.58426057353485e-19 9.26339498215554e-11 8.628428186431457e-11 6.3496679572408305e-12
4.189162171576248 8.859536821681426e-19 9.85161936400451e-11 9.138734636595831e-11 7.1288472740867925e-12
4.316745939156006 9.136306357925713e-19 1.0468792120032883e-10 9.673844088250746e-11 7.949480317821376e-12
4.448215356677963 9.409517352852245e-19 1.1110218130119358e-10 1.0230442340205006e-10 8.797757899143528e-12
4.58368876423945 9.67714930438949e-19 1.1774215918225788e-10 1.080693015908145e-10 9.672857591443363e-12
4.723288106065518 9.938870552534105e-19 1.2460942852498357e-10 1.1403086277367074e-10 1.0578565751312807e-11
4.867139040275056 1.0193242299989798e-18 1.316908296796719e-10 1.2020388373003105e-10 1.1486945949640902e-11
4.940699165968905 1.0321366750061421e-18 1.3536146753123554e-10 1.234168525927855e-10 1.1944614938450027e-11
5.015371051989984 1.0444107377041119e-18 1.390413033699305e-10 1.2663845496345468e-10 1.2402848406475821e-11
5.091171501069577 1.0574454463593424e-18 1.4290424550576538e-10 1.3003195657782054e-10 1.287228892794485e-11
5.129500256944802 1.0637332976064003e-18 1.448362403665844e-10 1.317297162812722e-10 1.310652408531215e-11
5.168117569889187 1.069991302842189e-18 1.467851312795536e-10 1.334420583833892e-10 1.3343072896164356e-11
5.20702561229733 1.0771790172707515e-18 1.4888365845630957e-10 1.3528005114921765e-10 1.3603607307091925e-11
5.246226572918644 1.0842362690588745e-18 1.5098729576047373e-10 1.3712286334854082e-10 1.3864432411932939e-11
5.265937586045735 1.0877157151011023e-18 1.5204093916548475e-10 1.3804603058889244e-10 1.3994908576592297e-11
5.285722656980489 1.091162263641239e-18 1.5309575293722388e-10 1.3897035016918125e-10 1.412540276804261e-11
5.305582063971359 1.0945758479461273e-18 1.5415170425643292e-10 1.3989580765257697e-10 1.4255896603855956e-11
5.3255160863122235 1.098140007126106e-18 1.5523471470172917e-10 1.4084712712807686e-10 1.4387587573652318e-11
5.365609099470188 1.1065864628078532e-18 1.576063879657739e-10 1.4294613295553417e-10 1.466025501023972e-11
5.406003951863644 1.1149683010412894e-18 1.5999570053827263e-10 1.4506259211146916e-10 1.4933108426803503e-11
5.446702915881641 1.12328981436828e-18 1.6240333439269986e-10 1.4719733423251152e-10 1.5206000160188317e-11
5.487708281020852 1.1318981603007421e-18 1.648799336182162e-10 1.4939979304535917e-10 1.5480140572857055e-11
5.529022354014368 1.1434918744991248e-18 1.6782276099958779e-10 1.520568296330386e-10 1.5765931366549118e-11
5.570647458961463 1.1552462081331804e-18 1.708243038548321e-10 1.54772480417801e-10 1.60518234370311e-11
5.612585937458331 1.1671859115689812e-18 1.738891456191861e-10 1.5755147863437053e-10 1.6337666984815555e-11
5.654840148729818 1.179846660183211e-18 1.7709868372527037e-10 1.604737221688816e-10 1.6624961556388787e-11
5.67608639626678 1.1885167574243648e-18 1.790703736198312e-10 1.6229471472253532e-10 1.677565889729587e-11
5.686739436050992 1.1929186557994397e-18 1.8007092398801647e-10 1.6321990155214424e-10 1.6851022435872226e-11
5.6974124697621304 1.1973669145451653e-18 1.8108161053258313e-10 1.6415521782302902e-10 1.6926392709554086e-11
5.718818669136295 1.2064081060510662e-18 1.831344320579158e-10 1.6605728815316053e-10 1.7077143904755258e-11
5.740305295436557 1.2162816221622612e-18 1.8532694574758943e-10 1.6809776461403266e-10 1.7229181133556786e-11
5.7835210386641895 1.241902940148101e-18 1.9065553064538088e-10 1.7311233833473417e-10 1.7543192310646754e-11
5.827062130521658 1.2705268713816357e-18 1.965182719173292e-10 1.786577226778491e-10 1.7860549239480158e-11
5.8489554468988025 1.2909542738699518e-18 2.0042809835145283e-10 1.8239502264548938e-10 1.8033075705963513e-11
5.870931020387893 1.3124538384665722e-18 2.0453161526282302e-10 1.8632575513745754e-10 1.8205860125365457e-11
5.892989160043636 1.3351128628610244e-18 2.0884450619271016e-10 1.904656233562649e-10 1.837888283644525e-11
5.915130176081913 1.360728887553138e-18 2.1365120396792052e-10 1.9509258422386145e-10 1.855861974405906e-11
5.95966208400165 1.4330201158421875e-18 2.2669573816663363e-10 2.077211037234314e-10 1.8974634443202215e-11
6.004529249263818 1.5363500725013265e-18 2.4487169250262443e-10 2.254252342232782e-10 1.9446458279346314e-11
6.027089341400364 1.6081803606613535e-18 2.5728342966951115e-10 2.3756113997736825e-10 1.9722289692142974e-11
6.049734195844842 1.6920717183369351e-18 2.7172180656717106e-10 2.5170662794983676e-10 2.001517861733423e-11
6.095279466722835 1.9339333042987106e-18 3.1289926874704676e-10 2.9215334336443633e-10 2.0745925382610408e-11
6.141167624020661 2.301702218115215e-18 3.752057808180622e-10 3.534980484297717e-10 2.170773238829052e-11
6.164241091010745 2.5357321987220567e-18 4.149085979179558e-10 3.9259079622642147e-10 2.2317801691534434e-11
6.187401249150058 2.797851913416152e-18 4.59517904596883e-10 4.3657490728406405e-10 2.2942997312819017e-11
6.1990139391386085 2.9248631413450345e-18 4.812797573060313e-10 4.58018866429357e-10 2.3260890876674185e-11
6.204828454712694 2.9913953314422608e-18 4.926891786665627e-10 4.692678568686518e-10 2.3421321797910896e-11
6.210648424152782 3.039269683156722e-18 5.01043712007743e-10 4.774871063415201e-10 2.3556605666222955e-11
6.233982942956859 3.1986487546604902e-18 5.292996359605973e-10 5.05277299879603e-10 2.4022336080994494e-11
6.239830258556775 3.2171169859949177e-18 5.328550211440611e-10 5.087725456531371e-10 2.408247549092401e-11
6.245683058788269 3.215816678786291e-18 5.331392519572877e-10 5.089965872939134e-10 2.414266466337433e-11
6.257405133728602 3.2047278965441858e-18 5.322980412106866e-10 5.080526425356474e-10 2.4245398675039324e-11
6.269149208991335 3.1648912044000314e-18 5.266678704001212e-10 5.023974101794101e-10 2.4270460220711247e-11
6.280915325867298 3.075046323317567e-18 5.126772359357039e-10 4.884775876936152e-10 2.4199648242088835e-11
6.304513850009849 2.8576520365317843e-18 4.782229143514809e-10 4.542513527548068e-10 2.3971561596674093e-11
6.32820103803542 2.5945243883246913e-18 4.358203027660167e-10 4.121687884105752e-10 2.3651514355441466e-11
6.3519772230701035 2.354990184759278e-18 3.970703572188799e-10 3.7370931466393853e-10 2.3361042554941334e-11
6.375842739491607 2.152737547568472e-18 3.64332669080218e-10 3.412316125810178e-10 2.3101056499200228e-11
6.399797922933955 1.992628658403954e-18 3.385026448243691e-10 3.1555291528549386e-10 2.2949729538875215e-11
6.42384311029221 1.8587313941059113e-18 3.1694287486963125e-10 2.9412265476483116e-10 2.282022010480005e-11
6.447978639727206 1.7614134908009336e-18 3.0147710865226876e-10 2.7870204024896034e-10 2.2775068403308507e-11
6.472204850670314 1.6797948426056079e-18 2.8858777592226445e-10 2.65841201097755e-10 2.274657482450942e-11
6.496522083828205 1.6262390385895882e-18 2.804366266866098e-10 2.5765052855147214e-10 2.2786098135137724e-11
6.520930681187647 1.580694280382869e-18 2.7360680736864723e-10 2.5077117998318134e-10 2.2835627385465953e-11
