Dust emission spectrum from A.P. Jones, M. Kohler, N. Ysard, M. Bocchio, and L. Verstraete (2017), A&A, 602A, 46J 
inside the DustPedia framework.

lambda    nu*dP/dnu     j_nu    j_nu(carb.) j_nu(sil)
 (um)   (erg s-1 H-1) (Jy cm2 sr-1 H-1)
0.9927057738263894 1.2429772331120256e-23 3.275315608947596e-16 3.2753156088713057e-16 7.628926962000759e-27
1.0001793341362166 1.2634937531011493e-23 3.3544429410250126e-16 3.3544429409331207e-16 9.189141570868914e-27
1.0077091589558085 1.2839806396457652e-23 3.434496785256102e-16 3.4344967851455603e-16 1.1054159301814155e-26
1.0114953028030835 1.2942104490078237e-23 3.474867148281459e-16 3.474867148160276e-16 1.2118259405531446e-26
1.0152956718711033 1.3044298324182285e-23 3.515464287819169e-16 3.5154642876863636e-16 1.3280485006152373e-26
1.0229392996569957 1.3248232962914557e-23 3.597304932604466e-16 3.5973049324451183e-16 1.593469654150888e-26
1.0267826658714554 1.3349726257324785e-23 3.6384827621632516e-16 3.638482761988786e-16 1.7446661324884912e-26
1.0306404723013447 1.345107045029785e-23 3.6798784452635863e-16 3.679878445072626e-16 1.9095880420457373e-26
1.03451277320114 1.3552255770590285e-23 3.7214902011826585e-16 3.721490200973716e-16 2.0894202577189967e-26
1.0383996230291617 1.3653272501548282e-23 3.763316227049735e-16 3.7633162268211914e-16 2.285444256606565e-26
1.0403485208654093 1.3703714624959173e-23 3.784309021866027e-16 3.7843090216270325e-16 2.3899568557137071e-26
1.0423010764483396 1.3754110982972568e-23 3.805354698274632e-16 3.8053546980247277e-16 2.4990454942880548e-26
1.0462171883269815 1.3854761612942233e-23 3.847603768976751e-16 3.847603768703579e-16 2.731721302930411e-26
1.0471985131304309 1.3879893799113375e-23 3.8581987245140493e-16 3.858198724234743e-16 2.793057456015816e-26
1.048180758391296 1.3905013499406276e-23 3.86880669657816e-16 3.86880669629259e-16 2.8557127473423265e-26
1.0501480137395462 1.395521484959711e-23 3.890061572414499e-16 3.890061572115991e-16 2.985089344913636e-26
1.0521189612883777 1.4005364480452405e-23 3.911368159954034e-16 3.9113681596420266e-16 3.120073588833981e-26
1.0531058218030118 1.403038099426595e-23 3.9220299984368435e-16 3.92202999811787e-16 3.189744998353632e-26
1.0540936079674168 1.4055257873272488e-23 3.932669326874773e-16 3.9326693265486803e-16 3.2609210483100156e-26
1.058054026499678 1.4154623527679074e-23 3.9753520972152063e-16 3.975352096859092e-16 3.56114270017308e-26
1.0590464539527713 1.417942874999221e-23 3.986054002070387e-16 3.9860540017063626e-16 3.640236584920659e-26
1.06003981227728 1.420421920636764e-23 3.9967683308264566e-16 3.996768330454355e-16 3.721011650956662e-26
1.0620293250338977 1.4253755244612107e-23 4.018234137447482e-16 4.018234137058707e-16 3.8877419842008624e-26
1.0660195594769086 1.4352643801478197e-23 4.0613134849668484e-16 4.061313484542557e-16 4.242917109469826e-26
1.070024785945596 1.4451280045816333e-23 4.10458815898648e-16 4.104588158523575e-16 4.629038800481384e-26
1.0740450607676866 1.454965489680498e-23 4.1480561609687256e-16 4.148056160463858e-16 5.048662933982393e-26
1.07808044048254 1.464775934672782e-23 4.1917154750556155e-16 4.19171547450516e-16 5.50454402960539e-26
1.0861967418109137 1.484294786049623e-23 4.279549860692673e-16 4.279549860038954e-16 6.537176602059205e-26
1.0902777775684922 1.4939619690972066e-23 4.3236062436065143e-16 4.3236062428944584e-16 7.12056698852382e-26
1.0943741465085532 1.5035978956726675e-23 4.367842472373309e-16 4.3678424715979554e-16 7.753522027345165e-26
1.1026131145906286 1.5227725590588567e-23 4.456846009359983e-16 4.456846008441547e-16 9.184362131330844e-26
1.1109141095355224 1.5418120186488527e-23 4.546543414649502e-16 4.546543413562971e-16 1.0865303586722544e-25
1.1192775983109025 1.560691958801202e-23 4.636864847159191e-16 4.636864845875444e-16 1.2837472427168528e-25
1.1277040513999907 1.5793246224050658e-23 4.727548358920908e-16 4.727548357406078e-16 1.5148305409536915e-25
1.1361939428280308 1.5978001155017798e-23 4.8188604638720485e-16 4.818860462086804e-16 1.7852438400835264e-25
1.1447477501889525 1.6161122887983515e-23 4.910783232850646e-16 4.910783230749373e-16 2.10127207870392e-25
1.1533659546722406 1.634265125236214e-23 5.003329142895979e-16 5.00332914042584e-16 2.4701387895823997e-25
1.1707974979042381 1.6701515355098833e-23 5.190474907441503e-16 5.190474904040729e-16 3.4007739070992986e-25
1.1884924949847024 1.705323440764884e-23 5.3798806160477e-16 5.379880611388833e-16 4.658869468121335e-25
1.2064549276569216 1.7400562631055535e-23 5.572419786805964e-16 5.572419780454707e-16 6.351257029118423e-25
1.2246888378427687 1.7739704694451636e-23 5.766888819295007e-16 5.766888810678529e-16 8.616477782773757e-25
1.2431983285522175 1.806986798585622e-23 5.963000288123959e-16 5.963000276490381e-16 1.1633577867829371e-24
1.2619875648066055 1.839093064090541e-23 6.160673814850472e-16 6.160673799217706e-16 1.563276740492452e-24
1.3004222497298317 1.900041972719156e-23 6.558688718303224e-16 6.558688690468553e-16 2.78346714768242e-24
1.3400274889804893 1.9565799447088647e-23 6.9595432504633405e-16 6.959543201802328e-16 4.86610130937489e-24
1.3808389325824078 2.0084987376714042e-23 7.361800083286189e-16 7.361799999721769e-16 8.356442099025868e-24
1.4228933163050095 2.056052814392854e-23 7.765618276604573e-16 7.765618135571907e-16 1.410326677527049e-23
1.466228494730424 2.100388773829849e-23 8.174680295573647e-16 8.174680061532589e-16 2.340410586325901e-23
1.5108834753276823 2.1406462578364508e-23 8.58509905339841e-16 8.585098671340493e-16 3.8205791762047513e-23
1.5568984535646726 2.1761296450015697e-23 8.993204841752105e-16 8.993204227590378e-16 6.141617234783131e-23
1.6043148490894465 2.2069057505621138e-23 9.398159743593277e-16 9.398158769616755e-16 9.739765248822651e-23
1.6531753430134553 2.2330701850390345e-23 9.799202339738564e-16 9.799200817687933e-16 1.5220506291655064e-22
1.7035239163302658 2.254935339946118e-23 1.019651497135586e-15 1.0196512626967797e-15 2.344388062759454e-22
1.755405889504358 2.274296105805728e-23 1.059726981331256e-15 1.059726625234655e-15 3.5609660117967417e-22
1.8088679632656115 2.2907120718118839e-23 1.0998837979590381e-15 1.09988326437967e-15 5.335793679307906e-22
1.8639582606462262 2.303885620634367e-23 1.139899413642821e-15 1.1398986246072404e-15 7.890355807730106e-22
1.9207263702978936 2.314036357282692e-23 1.1797910851450427e-15 1.1797899332162188e-15 1.1519288232463032e-21
1.979223391128241 2.3216725492167882e-23 1.219734237398047e-15 1.2197325764536321e-15 1.6609444146708719e-21
2.039501978296691 2.3274018455799923e-23 1.2599837333858318e-15 1.2599813672396135e-15 2.3661462181683134e-21
2.1016163906111602 2.3329226582269928e-23 1.3014372141984629e-15 1.3014338824961545e-15 3.3317023087095972e-21
2.1656225393682647 2.3392205544801814e-23 1.3446936910347347e-15 1.3446890525040279e-15 4.6385307069061276e-21
2.231578038680979 2.346367484130009e-23 1.3898807611591395e-15 1.3898743737961385e-15 6.3873630002948654e-21
2.299542257339062 2.3549540287016397e-23 1.4374517020754195e-15 1.437442999960033e-15 8.702115386310289e-21
2.369576372248914 2.3662836477154552e-23 1.4883564240270523e-15 1.4883446903754276e-15 1.1733651624865188e-20
2.4417434235010123 2.381895128116831e-23 1.5438037653793842e-15 1.543788102190948e-15 1.5663188436273883e-20
2.5161083711144245 2.4044226904549005e-23 1.6058670733341326e-15 1.605846366726229e-15 2.07066079039404e-20
2.5927381535095444 2.4381759554685052e-23 1.6780045562631026e-15 1.6779774381645983e-15 2.711809850435553e-20
2.6717017477616296 2.4882984353117897e-23 1.7646552562990536e-15 1.764620064154225e-15 3.5192144828171597e-20
2.753070231689431 2.5625327511662086e-23 1.87264798793018e-15 1.8726027213050374e-15 4.526662514297572e-20
2.836916847834745 2.6784205960248714e-23 2.0169485286778234e-15 2.0168908015320355e-15 5.772714578831899e-20
2.9233170693905177 2.874593820821709e-23 2.2306007463945036e-15 2.230527749784223e-15 7.299661028073081e-20
2.967498994190263 3.04092577931518e-23 2.3953326475387963e-15 2.395250950097284e-15 8.16974415119515e-20
3.0123486681368425 3.2351242401066485e-23 2.5868165761318268e-15 2.586725262318467e-15 9.131381336017156e-20
3.0578761833420214 3.669121015653376e-23 2.9781828981236696e-15 2.9780809435947787e-15 1.019545288911354e-19
3.1040917844459814 4.228252064530692e-23 3.4838933919259334e-15 3.4837797698342465e-15 1.136220916865666e-19
3.127460860933648 4.819482607500849e-23 4.000937192021019e-15 4.0008172877391624e-15 1.1990428185601226e-19
3.1510058709225794 5.607137289730131e-23 4.689859532846291e-15 4.689733054411632e-15 1.2647843465863017e-19
3.162844764501044 6.340226816637525e-23 5.322946541912944e-15 5.322816651341378e-15 1.2989057156742519e-19
3.1747281389236908 7.192720803213305e-23 6.061347418410042e-15 6.061214039301217e-15 1.3337910882497012e-19
3.1986289994194426 9.570462933543146e-23 8.125802247184023e-15 8.12566163921273e-15 1.4060797129296076e-19
3.2227097969389145 1.5175049030860236e-22 1.2981376181649994e-14 1.2981227886247359e-14 1.4829540263623685e-19
3.2348180950136065 2.048982736327765e-22 1.7593716765019876e-14 1.7593564359935332e-14 1.5240508454461069e-19
3.240889293275058 2.4463286426213583e-22 2.1044975735694815e-14 2.1044821162605334e-14 1.5457308947614278e-19
3.2469718861334385 2.905996930204726e-22 2.504627314659224e-14 2.504611633001843e-14 1.5681657381145351e-19
3.2714166318528037 5.357892122908328e-22 4.6526379153012075e-14 4.652621304259146e-14 1.6611042062627497e-19
3.2744851364798273 5.511166880319532e-22 4.7902261616379e-14 4.7902094404504735e-14 1.6721187425598487e-19
3.2775565192852394 5.6688436448898e-22 4.9318981725644153e-14 4.9318813406214984e-14 1.6831942917793745e-19
3.283707930232385 5.517207069365858e-22 4.8089829671349994e-14 4.8089659358872135e-14 1.7031247784856737e-19
3.2898708863219004 5.03632195974451e-22 4.398066308297878e-14 4.398049094525916e-14 1.721377196145046e-19
3.29141343181113 4.922917112383449e-22 4.3010490338564173e-14 4.3010317742201503e-14 1.7259636267409962e-19
3.292184975758714 4.867193965847806e-22 4.253361695592265e-14 4.253344412988779e-14 1.728260348644692e-19
3.295272960557952 4.515468804399902e-22 3.949696035514775e-14 3.9496786633579524e-14 1.737215682200421e-19
3.3076538914384823 3.2969785610910845e-22 2.894713692501626e-14 2.8946959600453624e-14 1.773245626436739e-19
3.310756385682612 3.0489825971173686e-22 2.6794866891606883e-14 2.6794688657603356e-14 1.7823400351861318e-19
3.313861789986515 2.8201668315064372e-22 2.4807250094741535e-14 2.4807070947805912e-14 1.7914693562358716e-19
3.3200813396944477 2.499280561085996e-22 2.2025874895158177e-14 2.2025693789779983e-14 1.81105378193048e-19
3.345076488085796 1.926871192685091e-22 1.7109139593766203e-14 1.7108949773062134e-14 1.8982070406889525e-19
3.3482140837626964 1.9483392910515662e-22 1.7315986585478367e-14 1.731579558453203e-14 1.9100094633568343e-19
3.3513546224236106 1.970044667957821e-22 1.7525317364755704e-14 1.7525125177572072e-14 1.9218718363635862e-19
3.3576445397418455 2.128658376890181e-22 1.89718690552528e-14 1.8971674389849504e-14 1.946654032929455e-19
3.3702598118196083 2.7136760380416464e-22 2.4276765013330162e-14 2.4276565148053423e-14 1.9986527674294685e-19
3.382922481734668 2.846927877729031e-22 2.556453775367354e-14 2.5564332811444797e-14 2.0494222874529832e-19
3.389271646505754 2.91596094309823e-22 2.6233577160134474e-14 2.623336963995214e-14 2.0752018233944004e-19
3.395632727569191 2.990348762676931e-22 2.69533025683165e-14 2.6953092391118262e-14 2.1017719823578769e-19
3.421196662673239 3.347531380878203e-22 3.0399898227506495e-14 3.039967702497238e-14 2.2120253410768887e-19
3.4276182099114902 3.27556196011701e-22 2.980215666486248e-14 2.9801932976954624e-14 2.2368790784752913e-19
3.4340518103208963 2.9601770724828183e-22 2.6983231960338605e-14 2.6983005909636905e-14 2.260507017019829e-19
3.4469541582030403 2.511009388704211e-22 2.297488135251736e-14 2.29746507419882e-14 2.306105291601326e-19
3.472904465399547 2.3851393318439405e-22 2.1987508677083092e-14 2.1987267595685205e-14 2.410813978876389e-19
3.4990501388274233 2.192623133666309e-22 2.0364961369188722e-14 2.036470951378356e-14 2.518554051697174e-19
3.5253949054701885 1.5074701863556522e-22 1.4106716463276326e-14 1.4106454048490231e-14 2.62414786099691e-19
3.5519380250092896 8.635026287355715e-23 8.141388447130086e-15 8.141115342996274e-15 2.731041338114826e-19
3.578680990867387 6.081800404931312e-23 5.77729551396609e-15 5.777010678590135e-15 2.848353759535616e-19
3.605625307711299 5.049208175534566e-23 4.832516028327958e-15 4.832218788445235e-15 2.972398827228032e-19
3.660119384959845 4.2961820408447857e-23 4.173951128200896e-15 4.173627611337941e-15 3.235168629548853e-19
3.715437065384467 3.7630188567340524e-23 3.7112117709819365e-15 3.71086023358268e-15 3.51537399255513e-19
3.8285932144167436 3.4929743318240076e-23 3.5498013690661827e-15 3.549388473299744e-15 4.1289576643931896e-19
3.94519561050918 3.4417431398168854e-23 3.6042626362966e-15 3.6037810762298485e-15 4.815600667506938e-19
4.06534921144712 3.480436221176976e-23 3.755787135162305e-15 3.7552291996049056e-15 5.579355573996288e-19
4.189162171576248 3.571271182383405e-23 3.971178746994857e-15 3.970536071925296e-15 6.426750695602658e-19
4.316745939156006 3.7001777691758837e-23 4.2398306662588705e-15 4.239094588317996e-15 7.36077940874672e-19
4.448215356677963 3.8624435498688115e-23 4.560551699424544e-15 4.5597141106966424e-15 8.375887279002447e-19
4.58368876423945 4.058657440959674e-23 4.938180402600262e-15 4.937232430249299e-15 9.479723509632854e-19
4.723288106065518 4.293330589866665e-23 5.382799468453786e-15 5.381730892579332e-15 1.0685758744510074e-18
4.867139040275056 4.57547252287347e-23 5.911247422366798e-15 5.910049906133832e-15 1.1975162329647026e-18
4.940699165968905 4.745637165339384e-23 6.22375337129929e-15 6.222487682615613e-15 1.2656886836766697e-18
5.015371051989984 4.9218836681080695e-23 6.552451976444535e-15 6.551115691014484e-15 1.3362854300527818e-18
5.091171501069577 5.1368564196381794e-23 6.941999641184192e-15 6.940588965076454e-15 1.4106761077383649e-18
5.129500256944802 5.247199505951912e-23 7.144503707889775e-15 7.14305489476316e-15 1.448813126612836e-18
5.168117569889187 5.362235595938427e-23 7.356101435693677e-15 7.354613577315027e-15 1.4878583786491312e-18
5.20702561229733 5.503359710652537e-23 7.606538136985069e-15 7.60500814725451e-15 1.5299897305578837e-18
5.246226572918644 5.648088620370079e-23 7.865348645322587e-15 7.863775740066025e-15 1.572905256561566e-18
5.265937586045735 5.721840924828889e-23 7.997991165234096e-15 7.996396506763985e-15 1.5946584701109554e-18
5.285722656980489 5.796538316981163e-23 8.132845385491398e-15 8.131228776113109e-15 1.6166093782846188e-18
5.305582063971359 5.872196092615316e-23 8.269952576636511e-15 8.26831381811635e-15 1.6387585201634168e-18
5.3255160863122235 5.953470287210222e-23 8.415914687772328e-15 8.414253453308508e-15 1.6612344638194874e-18
5.365609099470188 6.155830939080861e-23 8.767487330133346e-15 8.76577954260334e-15 1.7077875300042566e-18
5.406003951863644 6.365892673316511e-23 9.134927485091028e-15 9.133172270424364e-15 1.7552146666651567e-18
5.446702915881641 6.584027798643518e-23 9.519075616609896e-15 9.517272094518233e-15 1.8035220916646254e-18
5.487708281020852 6.819716936051144e-23 9.934060458339976e-15 9.932207588030745e-15 1.8528703092356038e-18
5.529022354014368 7.14720603730219e-23 1.0489482936976432e-14 1.048757845892822e-14 1.9044780482102644e-18
5.570647458961463 7.493987024345404e-23 1.1081231927171734e-14 1.1079274856588658e-14 1.9570705830763224e-18
5.612585937458331 7.861448671173073e-23 1.1712106693626587e-14 1.1710096037076734e-14 2.0106565498503024e-18
5.654840148729818 8.265351581043032e-23 1.2406551926858033e-14 1.2404486483751333e-14 2.065443106700973e-18
5.67608639626678 8.540388314532054e-23 1.286755543654183e-14 1.2865461353585538e-14 2.0940829562928516e-18
5.686739436050992 8.682153750211966e-23 1.310570037953652e-14 1.3103591871639907e-14 2.1085078966138645e-18
5.6974124697621304 8.826840908296731e-23 1.3349112524930799e-14 1.3346989521838408e-14 2.12300309238718e-18
5.718818669136295 9.12526184362792e-23 1.3852274671651041e-14 1.3850122466663207e-14 2.1522049878328804e-18
5.740305295436557 9.454203048774243e-23 1.4405533583513544e-14 1.4403351719448548e-14 2.1818640649999135e-18
5.7835210386641895 1.0307494516171465e-22 1.5823948660357223e-14 1.582170524954472e-14 2.243410812507453e-18
5.827062130521658 1.1290422975740334e-22 1.746341980154573e-14 1.746111317788749e-14 2.306623658238054e-18
5.8489554468988025 1.1979942997023525e-22 1.8599552608895223e-14 1.859721205503632e-14 2.3405538589020233e-18
5.870931020387893 1.2719855300707627e-22 1.9822507080346156e-14 1.9820132221355887e-14 2.3748589902671655e-18
5.892989160043636 1.3514215654407135e-22 2.113955886005302e-14 2.1137149318187243e-14 2.409541865785893e-18
5.915130176081913 1.4417621129293501e-22 2.2637441894586034e-14 2.2634996438301485e-14 2.4454562845498285e-18
5.95966208400165 1.6943510310959763e-22 2.6803682199671136e-14 2.6801156298911388e-14 2.5259007597444126e-18
6.004529249263818 2.0584092367362077e-22 3.280802745965278e-14 3.2805411675985374e-14 2.6157836674166176e-18
6.027089341400364 2.3114738085798108e-22 3.6979926108418144e-14 3.697725908814306e-14 2.6670202750812303e-18
6.049734195844842 2.610523317129666e-22 4.192116114991704e-14 4.1918439958734146e-14 2.72119118289069e-18
6.095279466722835 3.474350761502192e-22 5.6212994017340045e-14 5.621014216771883e-14 2.8518496212183194e-18
6.141167624020661 4.803735950977765e-22 7.830680633424091e-14 7.830378795666233e-14 3.0183775785880277e-18
6.164241091010745 5.6526906297155475e-22 9.249202044369038e-14 9.248889906896682e-14 3.121374723540919e-18
6.187401249150058 6.619757372355636e-22 1.0872258900116346e-13 1.0871936136362802e-13 3.2276375354501648e-18
6.1990139391386085 7.091961769656436e-22 1.1669666149761423e-13 1.1669337968400777e-13 3.281813606465149e-18
6.204828454712694 7.340699831461302e-22 1.2090288878858114e-13 1.2089957955835757e-13 3.309230223614269e-18
6.210648424152782 7.522282798932831e-22 1.2400980792315394e-13 1.2400647495552885e-13 3.3329676250700978e-18
6.233982942956859 8.139209982767635e-22 1.3468439992383709e-13 1.346809825473001e-13 3.4173765369898326e-18
6.239830258556775 8.218080424508411e-22 1.361170711984778e-13 1.361136408886343e-13 3.430309843448924e-18
6.245683058788269 8.224934088268779e-22 1.363583700571081e-13 1.3635492677393773e-13 3.4432831703472442e-18
6.257405133728602 8.208019292710535e-22 1.363333403887666e-13 1.3632987367459462e-13 3.466714171916481e-18
6.269149208991335 8.086728796351326e-22 1.3457082593412786e-13 1.345673471474503e-13 3.478786677552878e-18
6.280915325867298 7.782516515106355e-22 1.2975151058160647e-13 1.297480338263173e-13 3.47675528912233e-18
6.304513850009849 7.032298761931895e-22 1.1768425145991266e-13 1.17680791583262e-13 3.4598766506524455e-18
6.32820103803542 6.102385979040131e-22 1.025060206390142e-13 1.0250259128884885e-13 3.4293501653359818e-18
6.3519772230701035 5.249596586035663e-22 8.851243649175811e-14 8.850903334907428e-14 3.403142683848594e-18
6.375842739491607 4.532162481563106e-22 7.670302659412274e-14 7.669964526556247e-14 3.381328560273545e-18
6.399797922933955 3.957193208039839e-22 6.722378308437248e-14 6.722040712176712e-14 3.3759626053555133e-18
6.42384311029221 3.479168049594372e-22 5.932527568478652e-14 5.932190179459765e-14 3.3738901888885303e-18
6.447978639727206 3.130850470809044e-22 5.35864947379796e-14 5.358310992697394e-14 3.3848110056709503e-18
6.472204850670314 2.8407005264545227e-22 4.8803069648618514e-14 4.879967123833985e-14 3.3984102786765106e-18
6.496522083828205 2.652164161755913e-22 4.573521808866447e-14 4.5731795402219454e-14 3.4226864450219273e-18
