Dust emission spectrum from A.P. Jones, M. Kohler, N. Ysard, M. Bocchio, and L. Verstraete (2017), A&A, 602A, 46J 
inside the DustPedia framework.

lambda    nu*dP/dnu     j_nu    j_nu(carb.) j_nu(sil)
 (um)   (erg s-1 H-1) (Jy cm2 sr-1 H-1)
0.9927057738263894 8.239957396107678e-26 2.1712755758980404e-18 2.1712755743541657e-18 1.5438741507485015e-27
1.0001793341362166 8.376009112764486e-26 2.2237422680810603e-18 2.2237422662218007e-18 1.8592598386547582e-27
1.0077091589558085 8.511886531894585e-26 2.276829262653211e-18 2.2768292604170497e-18 2.2361613725517748e-27
1.0114953028030835 8.579743485513982e-26 2.3036028492391013e-18 2.303602846787938e-18 2.45116311766341e-27
1.0152956718711033 8.64753724632781e-26 2.3305284509396745e-18 2.3305284482537156e-18 2.685959279616066e-27
1.0229392996569957 8.782842687118846e-26 2.384813386743994e-18 2.3848133835219365e-18 3.2220582347733005e-27
1.0267826658714554 8.850190440046017e-26 2.4121292629727972e-18 2.4121292594454145e-18 3.527383095793402e-27
1.0306404723013447 8.917445795622186e-26 2.4395914578969316e-18 2.439591454036554e-18 3.860377418214191e-27
1.03451277320114 8.984602409163607e-26 2.467198848164015e-18 2.4671988439405904e-18 4.223424703648817e-27
1.0383996230291617 9.051653972956638e-26 2.494950296656281e-18 2.4949502920371788e-18 4.6191022687599926e-27
1.0403485208654093 9.085138400454059e-26 2.508879683696873e-18 2.5088796788668334e-18 4.8300394231847275e-27
1.0423010764483396 9.118594217507358e-26 2.5228446527884702e-18 2.522844647738274e-18 5.0501959967853516e-27
1.0462171883269815 9.185416912764933e-26 2.550880752806534e-18 2.5508807472868175e-18 5.5197161284580714e-27
1.0471985131304309 9.202103493270873e-26 2.557911787686147e-18 2.5579117820426707e-18 5.6434757675014286e-27
1.048180758391296 9.218782243598201e-26 2.5649515895724545e-18 2.5649515838025625e-18 5.7698922780997414e-27
1.0501480137395462 9.252115869318448e-26 2.579057420087025e-18 2.579057414056111e-18 6.0309141590877014e-27
1.0521189612883777 9.285417022791328e-26 2.593198095310691e-18 2.593198089007462e-18 6.303228869376851e-27
1.0531058218030118 9.302029694385724e-26 2.6002743277350217e-18 2.6002743212912472e-18 6.4437746924850234e-27
1.0540936079674168 9.318550451633622e-26 2.6073358356350196e-18 2.607335829047669e-18 6.587350485388161e-27
1.058054026499678 9.384544089499167e-26 2.6356664982750173e-18 2.6356664910821208e-18 7.192896256143075e-27
1.0590464539527713 9.401019680767577e-26 2.642770225992825e-18 2.6427702186404122e-18 7.352412963581358e-27
1.06003981227728 9.417485957219457e-26 2.649882340096815e-18 2.649882332581501e-18 7.515313927983023e-27
1.0620293250338977 9.450390192052655e-26 2.6641316502371473e-18 2.6641316423856035e-18 7.851543089420656e-27
1.0660195594769086 9.5160827843994e-26 2.692730055236358e-18 2.6927300466686525e-18 8.567705782121398e-27
1.070024785945596 9.581615939037406e-26 2.721460465968531e-18 2.7214604566223863e-18 9.346144610993966e-27
1.0740450607676866 9.646983776877427e-26 2.7503216244138617e-18 2.75032161422187e-18 1.0191990550296784e-26
1.07808044048254 9.712180468236399e-26 2.7793122621402035e-18 2.779312251029431e-18 1.1110772185823923e-26
1.0861967418109137 9.841922485639664e-26 2.8376437348045218e-18 2.837643721613101e-18 1.319142081799709e-26
1.0902777775684922 9.906195218724657e-26 2.8669061451373602e-18 2.866906130770755e-18 1.4366605458406144e-26
1.0943741465085532 9.970269438922505e-26 2.8962907198569146e-18 2.8962907042154938e-18 1.5641420771226136e-26
1.1026131145906286 1.00978002528967e-25 2.9554210504194815e-18 2.955421031896988e-18 1.8522493838082887e-26
1.1109141095355224 1.0224471314170007e-25 3.0150240210508803e-18 3.015023999144875e-18 2.190600481690303e-26
1.1192775983109025 1.0350122786782195e-25 3.0750540004496057e-18 3.0750539745752615e-18 2.5874344067914804e-26
1.1277040513999907 1.0474174834019843e-25 3.1353381910942567e-18 3.1353381605717545e-18 3.0522501357737575e-26
1.1361939428280308 1.0597225170129415e-25 3.1960536805349538e-18 3.1960536445751196e-18 3.595983437093776e-26
1.1447477501889525 1.0719234287572735e-25 3.2571892666907377e-18 3.2571892243786542e-18 4.231208243663977e-26
1.1533659546722406 1.0840229427527756e-25 3.3187537917134993e-18 3.3187537419898038e-18 4.972369596133804e-26
1.1707974979042381 1.107956877117446e-25 3.4432937652269217e-18 3.4432936968146854e-18 6.841223674791955e-26
1.1884924949847024 1.131435761915381e-25 3.569404594064301e-18 3.569404500406676e-18 9.365762583740538e-26
1.2064549276569216 1.1546426402851486e-25 3.697669800591121e-18 3.697669672999605e-18 1.2759151538338628e-25
1.2246888378427687 1.1773277590320332e-25 3.827300627124308e-18 3.8273004541487635e-18 1.7297554480303803e-25
1.2431983285522175 1.1994394778785894e-25 3.9581130076741825e-18 3.958112774299033e-18 2.3337515038885223e-25
1.2619875648066055 1.2209713147982509e-25 4.090062735069299e-18 4.090062421699308e-18 3.1336999183124244e-25
1.3004222497298317 1.2619471413338013e-25 4.35607139094731e-18 4.356070833825298e-18 5.57122013088009e-25
1.3400274889804893 1.3001089642002513e-25 4.624479869138745e-18 4.624478896692978e-18 9.724457669592633e-25
1.3808389325824078 1.3353309078118466e-25 4.894421392438117e-18 4.894419725176346e-18 1.6672617719181807e-24
1.4228933163050095 1.3677941279058476e-25 5.166096417340639e-18 5.166093608165637e-18 2.8091750031024196e-24
1.466228494730424 1.3982717154074205e-25 5.44205167263238e-18 5.442047018845195e-18 4.653787185272011e-24
1.5108834753276823 1.426210093630176e-25 5.719840389297595e-18 5.71983280565746e-18 7.583640136136042e-24
1.5568984535646726 1.4511648194919241e-25 5.997171405118962e-18 5.997159236385419e-18 1.216873354553706e-23
1.6043148490894465 1.4731970802077832e-25 6.273644214331057e-18 6.273624951994334e-18 1.9262336724064482e-23
1.6531753430134553 1.4923885603256944e-25 6.548928721596352e-18 6.5488986769849676e-18 3.004461138421539e-23
1.7035239163302658 1.5089640184038632e-25 6.823332772486482e-18 6.823286585244396e-18 4.6187242084546374e-23
1.755405889504358 1.5241324321889115e-25 7.101820459479733e-18 7.101750444217156e-18 7.001526257884847e-23
1.8088679632656115 1.5376217041493048e-25 7.382879850309138e-18 7.382775153665675e-18 1.0469664346360803e-22
1.8639582606462262 1.549251664246986e-25 7.66527230277189e-18 7.665117807636793e-18 1.5449513509865084e-22
1.9207263702978936 1.559185591709355e-25 7.949370611209343e-18 7.949145548823591e-18 2.250623857500321e-22
1.979223391128241 1.567777849627125e-25 8.236615109523488e-18 8.236291318406691e-18 3.23791116796752e-22
2.039501978296691 1.5754460477032242e-25 8.5289800586129e-18 8.528519848475788e-18 4.60210137115284e-22
2.1016163906111602 1.5833344464744478e-25 8.832741899511672e-18 8.832095417512156e-18 6.464819995154011e-22
2.1656225393682647 1.5921114563042528e-25 9.152203397905767e-18 9.151305523229597e-18 8.978746761654372e-22
2.231578038680979 1.601831408208402e-25 9.488516491758331e-18 9.487283188760412e-18 1.2333029979164424e-21
2.299542257339062 1.612895183782144e-25 9.845028390958142e-18 9.843352475363346e-18 1.675915594796749e-21
2.369576372248914 1.6261714338505728e-25 1.0228370983662506e-17 1.0226117242628248e-17 2.2537410342560814e-21
2.4417434235010123 1.6426827866142733e-25 1.0646899778933617e-17 1.064389953208993e-17 3.0002468436867696e-21
2.5161083711144245 1.6641756312317456e-25 1.1114704835589862e-17 1.1110749783776382e-17 3.955051813477894e-21
2.5927381535095444 1.6934986405312627e-25 1.1655017877045656e-17 1.1649853392512773e-17 5.164484532878723e-21
2.6717017477616296 1.7340265000585346e-25 1.229739541875621e-17 1.2290713611968799e-17 6.681806787409479e-21
2.753070231689431 1.7908285415722106e-25 1.3087018940838586e-17 1.3078451322390804e-17 8.567618447779743e-21
2.836916847834745 1.8754080919501877e-25 1.4122507859084175e-17 1.41116173855909e-17 1.0890473493265831e-20
2.9233170693905177 2.0130811453007161e-25 1.5620921024511542e-17 1.5607196457477584e-17 1.3724567033954913e-20
2.967498994190263 2.1268033268086917e-25 1.6752797711314897e-17 1.6737465255650122e-17 1.5332455664778454e-20
3.0123486681368425 2.2588809218763456e-25 1.8062090289382654e-17 1.8044984393611197e-17 1.7105895771455243e-20
3.0578761833420214 2.548352161306624e-25 2.068467840886516e-17 2.066561399870868e-17 1.906441015648287e-20
3.1040917844459814 2.9197236504068317e-25 2.4057236363062588e-17 2.4036029750243456e-17 2.120661281913769e-20
3.127460860933648 3.3097827250120443e-25 2.747646143882683e-17 2.7454103504945243e-17 2.2357933881586428e-20
3.1510058709225794 3.8284427730832286e-25 3.2021436086800414e-17 3.1997874879834534e-17 2.356120696588408e-20
3.162844764501044 4.310336804990282e-25 3.6187494634097436e-17 3.616330950272121e-17 2.4185131376218975e-20
3.1747281389236908 4.870239332600773e-25 4.104178851556528e-17 4.1016965911625957e-17 2.482260393932403e-20
3.1986289994194426 6.430305486887243e-25 5.459651339570444e-17 5.457037113700996e-17 2.614225869449177e-20
3.2227097969389145 1.0104360488545675e-24 8.643695602568775e-17 8.640941206534516e-17 2.7543960342585277e-20
3.2348180950136065 1.3587012658125603e-24 1.16665723020305e-16 1.1663743016397031e-16 2.829285633469604e-20
3.240889293275058 1.619055156605657e-24 1.3928208946205525e-16 1.392534015603687e-16 2.868790168657212e-20
3.2469718861334385 1.92025880504419e-24 1.6550370732806414e-16 1.6547461064742457e-16 2.9096680639625585e-20
3.2714166318528037 3.5262172235864675e-24 3.062064628345123e-16 3.0617567411741968e-16 3.078871709260113e-20
3.2744851364798273 3.6266298827978925e-24 3.1522139903244994e-16 3.1519041014460666e-16 3.098888784337411e-20
3.2775565192852394 3.7299212563962595e-24 3.245034257526693e-16 3.2447223562081476e-16 3.1190131854476985e-20
3.283707930232385 3.630687050063253e-24 3.1646287629292527e-16 3.1643132472516723e-16 3.155156775802678e-20
3.2898708863219004 3.315818077127551e-24 2.8956027605112705e-16 2.895283941278502e-16 3.1881923276958623e-20
3.29141343181113 3.2415598185102692e-24 2.8320825655423756e-16 2.83176291638534e-16 3.19649157035366e-20
3.292184975758714 3.205071297456647e-24 2.80085971175585e-16 2.8005396470302203e-16 3.200647256290856e-20
3.295272960557952 2.974810091702897e-24 2.602076580433773e-16 2.6017548965350467e-16 3.216838987269347e-20
3.3076538914384823 2.1769488674165595e-24 1.9113389964844626e-16 1.9110108017425042e-16 3.281947419584838e-20
3.310756385682612 2.0145183318680995e-24 1.770385655993621e-16 1.7700558185878866e-16 3.298374057345164e-20
3.313861789986515 1.8646331258556696e-24 1.6402015572721517e-16 1.6398700712011683e-16 3.314860709830644e-20
3.3200813396944477 1.6544723564890875e-24 1.4580676419013808e-16 1.457732616249044e-16 3.3502565233641454e-20
3.345076488085796 1.2798804330604804e-24 1.136435744936711e-16 1.1360849616443804e-16 3.507832923306635e-20
3.3482140837626964 1.2939902807100259e-24 1.1500419072501867e-16 1.1496889899174275e-16 3.529173327588101e-20
3.3513546224236106 1.3082552760635548e-24 1.1638106120150558e-16 1.1634555502039168e-16 3.550618111393552e-20
3.3576445397418455 1.4122610980708797e-24 1.2586910570202098e-16 1.2583315140800476e-16 3.59542940162279e-20
3.3702598118196083 1.795612535833792e-24 1.606369477282382e-16 1.606000533145844e-16 3.68944136537691e-20
3.382922481734668 1.8831292589891896e-24 1.6909922240418095e-16 1.6906141136675444e-16 3.7811037426492893e-20
3.389271646505754 1.928462413110342e-24 1.7349501074248463e-16 1.734567345319751e-16 3.827621050954081e-20
3.395632727569191 1.9773382000876827e-24 1.7822601648358834e-16 1.7818726085759484e-16 3.8755625993526173e-20
3.421196662673239 2.2120670791320706e-24 2.008841932361237e-16 2.008434498119395e-16 4.074342418426587e-20
3.4276182099114902 2.1650224106154235e-24 1.9698096952436886e-16 1.969397793837664e-16 4.1190140602386675e-20
3.4340518103208963 1.958453864168142e-24 1.785211276437152e-16 1.7847951347959865e-16 4.16141641165898e-20
3.4469541582030403 1.6642240565340004e-24 1.5227083743643384e-16 1.522284063314837e-16 4.243110495014808e-20
3.472904465399547 1.5819876019410054e-24 1.458362019372025e-16 1.4579189323501955e-16 4.430870218297111e-20
3.4990501388274233 1.4561206223995925e-24 1.3524367123894306e-16 1.3519743395168196e-16 4.6237287261136545e-20
3.5253949054701885 1.0075992497213319e-24 9.428987089151855e-17 9.424174859691864e-17 4.8122294599904594e-20
3.5519380250092896 5.858620347063338e-25 5.5237010777310503e-17 5.51869845573775e-17 5.00262199329865e-20
3.578680990867387 4.188348581084089e-25 3.978645443346577e-17 3.973433976090158e-17 5.211467256420608e-20
3.605625307711299 3.5149205171081795e-25 3.364073959067008e-17 3.358641949690861e-17 5.43200937614736e-20
3.660119384959845 3.0281797976652152e-25 2.9420248869097046e-17 2.936126935702093e-17 5.897951207610789e-20
3.715437065384467 2.685236467081761e-25 2.6482676712263098e-17 2.641874702190232e-17 6.392969036077839e-20
3.8285932144167436 2.521822394457651e-25 2.5628498059168016e-17 2.555379412631904e-17 7.470393284897943e-20
3.94519561050918 2.502166743621729e-25 2.620319337456296e-17 2.6116533560393625e-17 8.665981416932625e-20
4.06534921144712 2.541792835969356e-25 2.7428840027280002e-17 2.7329001876830302e-17 9.98381504497025e-20
4.189162171576248 2.6159396613709643e-25 2.908870107064869e-17 2.897438129823944e-17 1.1431977240924463e-19
4.316745939156006 2.7153562877805195e-25 3.1113777707266306e-17 3.098365993983981e-17 1.301177674264945e-19
4.448215356677963 2.8369183470283805e-25 3.349670389126693e-17 3.3349611220777305e-17 1.4709267048962427e-19
4.58368876423945 2.9809900266885957e-25 3.626979301475548e-17 3.6104461514093413e-17 1.653315006620683e-19
4.723288106065518 3.150516483618845e-25 3.9499866358777374e-17 3.931485207072186e-17 1.850142880555073e-19
4.867139040275056 3.35134504339142e-25 4.329745102865983e-17 4.309169369976883e-17 2.0575732889098866e-19
4.940699165968905 3.470931188188766e-25 4.552016711646938e-17 4.530356086606507e-17 2.1660625040429947e-19
5.015371051989984 3.594490144689624e-25 4.78530693553255e-17 4.762531327850057e-17 2.277560768249323e-19
5.091171501069577 3.7435686702051736e-25 5.0590965061747205e-17 5.0351536407981077e-17 2.394286537661236e-19
5.129500256944802 3.8199582356631207e-25 5.2011946082328657e-17 5.1766569471574715e-17 2.4537661075394937e-19
5.168117569889187 3.899425262180409e-25 5.349367303300202e-17 5.324222670822628e-17 2.514463247757291e-19
5.20702561229733 3.996122335173791e-25 5.523290960560002e-17 5.4974894697798274e-17 2.5801490780174746e-19
5.246226572918644 4.0951547733619195e-25 5.70278234177884e-17 5.676314404842353e-17 2.6467936936485324e-19
5.265937586045735 4.145569733214818e-25 5.794678764528134e-17 5.767874028382301e-17 2.6804736145833057e-19
5.285722656980489 4.196596514739832e-25 5.888043644891517e-17 5.860899736283474e-17 2.714390860804249e-19
5.305582063971359 4.248244875766266e-25 5.982903687550206e-17 5.955418241680593e-17 2.748544586961527e-19
5.3255160863122235 4.303593800377384e-25 6.083624596667625e-17 6.055793064191739e-17 2.783153247588442e-19
5.365609099470188 4.440558088179892e-25 6.324497401264149e-17 6.295949533553551e-17 2.8547867710598277e-19
5.406003951863644 4.582515614575123e-25 6.575817404824754e-17 6.5465427355188e-17 2.9274669305956403e-19
5.446702915881641 4.7297062704062055e-25 6.838129031233195e-17 6.808117145844445e-17 3.001188538874912e-19
5.487708281020852 4.8883936717257e-25 7.12076450305114e-17 7.090002450055091e-17 3.0762052996047333e-19
5.529022354014368 5.107622157880509e-25 7.496120189342331e-17 7.464574766265636e-17 3.154542307669472e-19
5.570647458961463 5.339378509843518e-25 7.89524874039942e-17 7.862908386310117e-17 3.2340354089299883e-19
5.612585937458331 5.584561806386856e-25 8.319965753054386e-17 8.286818943377165e-17 3.3146809677220996e-19
5.654840148729818 5.853566361617695e-25 8.78638667824883e-17 8.75241864349533e-17 3.3968034753502023e-19
5.67608639626678 6.03623063606798e-25 9.094613672916193e-17 9.060216390367799e-17 3.4397282548392856e-19
5.686739436050992 6.130324054325664e-25 9.253716600388037e-17 9.219103473962066e-17 3.4613126425969623e-19
5.6974124697621304 6.226316927746555e-25 9.416257316504484e-17 9.381427533137295e-17 3.4829783367189706e-19
5.718818669136295 6.424183604526649e-25 9.752000255550029e-17 9.7167347199567e-17 3.5265535593326936e-19
5.740305295436557 6.642085840471793e-25 1.0120661693626485e-16 1.0084954359745554e-16 3.5707333880930587e-19
5.7835210386641895 7.206443162780817e-25 1.1063249798747603e-16 1.10266271407951e-16 3.662265795250303e-19
5.827062130521658 7.855500570533673e-25 1.2150466329674074e-16 1.21129072349991e-16 3.7559094674973827e-19
5.8489554468988025 8.310426830779701e-25 1.2902417071589165e-16 1.2864354561548339e-16 3.806251004082649e-19
5.870931020387893 8.798177776390965e-25 1.3711000411848383e-16 1.3672430063120956e-16 3.857034872742269e-19
5.892989160043636 9.32138925464868e-25 1.4580946600615424e-16 1.454186397929722e-16 3.908262131819891e-19
5.915130176081913 9.916082894211887e-25 1.556947212904186e-16 1.5529859008331447e-16 3.9613120710410315e-19
5.95966208400165 1.1577974453079683e-24 1.83157056631602e-16 1.8274897877034662e-16 4.080778612554132e-19
6.004529249263818 1.3971173656203004e-24 2.2268003892319633e-16 2.2225858770012533e-16 4.214512230710524e-19
6.027089341400364 1.5634149939964816e-24 2.5012167881886963e-16 2.496925719055629e-16 4.291069133068014e-19
6.049734195844842 1.759820836097733e-24 2.826013174482993e-16 2.8216411329579567e-16 4.372041525036946e-19
6.095279466722835 2.327009052142664e-24 3.7649666054395343e-16 3.760398041481993e-16 4.568563957540295e-19
6.141167624020661 3.1994407766132537e-24 5.21548211285702e-16 5.210661577211639e-16 4.820535645382196e-19
6.164241091010745 3.75659515507075e-24 6.146720184100303e-16 6.141743016523893e-16 4.977167576409325e-19
6.187401249150058 4.390915101452492e-24 7.211618660040735e-16 7.206480215299702e-16 5.138444741029304e-19
6.1990139391386085 4.7006390124263095e-24 7.734797471732094e-16 7.729576869915198e-16 5.22060181689868e-19
6.204828454712694 4.8637580383278035e-24 8.010713020606555e-16 8.005450875695874e-16 5.262144910680434e-19
6.210648424152782 4.982849911309373e-24 8.214557693829903e-16 8.209259789832759e-16 5.297903997142255e-19
6.233982942956859 5.38738701212826e-24 8.914833115526016e-16 8.909408974885896e-16 5.424140640120555e-19
6.239830258556775 5.439070317717032e-24 9.008798690778238e-16 9.003355865966454e-16 5.442824811784218e-19
6.245683058788269 5.4435224213513016e-24 9.024629702546616e-16 9.019168146163687e-16 5.461556382926827e-19
6.257405133728602 5.432341422907393e-24 9.022995998254517e-16 9.017500965922872e-16 5.495032331642623e-19
6.269149208991335 5.352708707940477e-24 8.907414233272553e-16 8.901903587222772e-16 5.510646049779831e-19
6.280915325867298 5.153112316254026e-24 8.591361238139352e-16 8.585857121593881e-16 5.504116545469613e-19
6.304513850009849 4.6609379214771064e-24 7.799995548531939e-16 7.794524585427831e-16 5.470963104107379e-19
6.32820103803542 4.0510509849742576e-24 6.804832032941769e-16 6.799415604275385e-16 5.416428666385728e-19
6.3519772230701035 3.4918048520656095e-24 5.8874648774386875e-16 5.882096208931203e-16 5.368668507484425e-19
6.375842739491607 3.0212287252400618e-24 5.113174741676333e-16 5.107846937708087e-16 5.327803968245496e-19
6.399797922933955 2.644293754962924e-24 4.492058397195116e-16 4.486745839957685e-16 5.312557237430125e-19
6.42384311029221 2.3308396982268795e-24 3.974447503059697e-16 3.9691450959608783e-16 5.302407098819211e-19
6.447978639727206 2.1025436368467693e-24 3.5986370023972227e-16 3.593324620833491e-16 5.312381563731948e-19
6.472204850670314 1.912344642199153e-24 3.2853969609352216e-16 3.280070532992313e-16 5.326427942908814e-19
6.496522083828205 1.7888403643241055e-24 3.084763958728829e-16 3.079407042076085e-16 5.356916652745419e-19
