Dust emission spectrum from A.P. Jones, M. Kohler, N. Ysard, M. Bocchio, and L. Verstraete (2017), A&A, 602A, 46J 
inside the DustPedia framework.

lambda    nu*dP/dnu     j_nu    j_nu(carb.) j_nu(sil)
 (um)   (erg s-1 H-1) (Jy cm2 sr-1 H-1)
0.9927057738263894 5.306642183794005e-25 1.3983303565555952e-17 1.398330332841097e-17 2.371449832801917e-25
1.0001793341362166 5.395553288466459e-25 1.4324626138433846e-17 1.4324625852924842e-17 2.8550900443313514e-25
1.0077091589558085 5.484600033028297e-25 1.4670658264012494e-17 1.4670657920727595e-17 3.4328490330596184e-25
1.0114953028030835 5.529166898861367e-25 1.484543756307016e-17 1.4845437186836536e-17 3.762336223784913e-25
1.0152956718711033 5.573758878890797e-25 1.5021390802854035e-17 1.5021390390645203e-17 4.122088328795361e-25
1.0229392996569957 5.662963262122994e-25 1.5376696449268428e-17 1.5376695954943677e-17 4.943247470385435e-25
1.0267826658714554 5.707471484872159e-25 1.5555777109550376e-17 1.555577656847173e-17 5.410786440678091e-25
1.0306404723013447 5.751991193104026e-25 1.573601780398138e-17 1.5736017211922215e-17 5.920591652060755e-25
1.03451277320114 5.796519623991732e-25 1.5917417252750563e-17 1.5917416605121266e-17 6.476292989546751e-25
1.0383996230291617 5.8410540466271975e-25 1.609997418146743e-17 1.609997347328599e-17 7.081814415788149e-25
1.0403485208654093 5.863322660407038e-25 1.6191686304877333e-17 1.6191685564420354e-17 7.404569764258803e-25
1.0423010764483396 5.885591762986181e-25 1.628368732456273e-17 1.62836865504231e-17 7.741396253117716e-25
1.0462171883269815 5.930130108883915e-25 1.6468555428734538e-17 1.6468554582772633e-17 8.459619026832857e-25
1.0471985131304309 5.941264484813297e-25 1.651495277202448e-17 1.6514951907133622e-17 8.648908585775151e-25
1.048180758391296 5.952398694838045e-25 1.6561422203779828e-17 1.6561421319554684e-17 8.842251443899628e-25
1.0501480137395462 5.974666454921013e-25 1.6654577256439148e-17 1.6654576332296252e-17 9.241428969289442e-25
1.0521189612883777 5.996933066046681e-25 1.6748020435061763e-17 1.6748019469278613e-17 9.657831497444765e-25
1.0531058218030118 6.008050056265024e-25 1.6794805901858132e-17 1.6794804914585532e-17 9.872725996115194e-25
1.0540936079674168 6.01911492573583e-25 1.6841518566791015e-17 1.6841517557566826e-17 1.009224186923357e-24
1.058054026499678 6.063367406047579e-25 1.7029079075598624e-17 1.7029077973804108e-17 1.1017945148912058e-24
1.0590464539527713 6.074428581389484e-25 1.7076146567012863e-17 1.7076145440836193e-17 1.1261766710022476e-24
1.06003981227728 6.08548890123068e-25 1.7123284965308885e-17 1.712328381423414e-17 1.1510747403528675e-24
1.0620293250338977 6.1076068204248395e-25 1.7217774405951666e-17 1.7217773203491336e-17 1.2024603239600073e-24
1.0660195594769086 6.1518307076568305e-25 1.7407603334841095e-17 1.7407602022948662e-17 1.311892438640875e-24
1.070024785945596 6.196036646524842e-25 1.7598564674784513e-17 1.7598563243970552e-17 1.4308139685294128e-24
1.0740450607676866 6.240222256676942e-25 1.779065727758746e-17 1.779065571758335e-17 1.5600041061120216e-24
1.07808044048254 6.2843851994914e-25 1.7983880038146055e-17 1.7983878337843876e-17 1.700302178488552e-24
1.0861967418109137 6.372561790404562e-25 1.8373503820601274e-17 1.8373501802694712e-17 2.0179065655119563e-24
1.0902777775684922 6.416406898879597e-25 1.8569426466913404e-17 1.8569424269680232e-17 2.1972331710654133e-24
1.0943741465085532 6.460217541725625e-25 1.8766461858405756e-17 1.876645946668846e-17 2.391717301767777e-24
1.1026131145906286 6.5477270741278905e-25 1.9163867320239304e-17 1.916386448914728e-17 2.8310920264049352e-24
1.1109141095355224 6.635074151316147e-25 1.95657137987637e-17 1.9565710451919972e-17 3.3468437292964716e-24
1.1192775983109025 6.722169460931862e-25 1.997177668166121e-17 1.997177273021295e-17 3.9514482636884806e-24
1.1277040513999907 6.80865891881485e-25 2.038103113283805e-17 2.0381026473557804e-17 4.659280250360379e-24
1.1361939428280308 6.894931110972421e-25 2.0794660489401725e-17 2.0794655002523176e-17 5.486878552350777e-24
1.1447477501889525 6.980973201931009e-25 2.121266349290163e-17 2.1212657039654296e-17 6.453247327581289e-24
1.1533659546722406 7.066810883366187e-25 2.1635155945073473e-17 2.1635148364868723e-17 7.580204749213365e-24
1.1707974979042381 7.238138409668379e-25 2.2494591055477284e-17 2.2494580635878467e-17 1.0419598818054675e-23
1.1884924949847024 7.408500315675402e-25 2.3372016292937652e-17 2.3372002041767634e-17 1.4251170015905042e-23
1.2064549276569216 7.579119283014875e-25 2.4271648655692206e-17 2.4271629259775803e-17 1.93959164069478e-23
1.2246888378427687 7.748574479882798e-25 2.5189352530477406e-17 2.51893262613384e-17 2.626913900688908e-23
1.2431983285522175 7.916621120783294e-25 2.6124603711078056e-17 2.6124568304808958e-17 3.540626910626517e-23
1.2619875648066055 8.083378614077025e-25 2.707805272915484e-17 2.7078005235060563e-17 4.749409427997735e-23
1.3004222497298317 8.411315643241515e-25 2.903472755207907e-17 2.903464329169876e-17 8.426038030792707e-23
1.3400274889804893 8.732521176693319e-25 3.10615259954672e-17 3.1061379237724765e-17 1.4675774243746714e-22
1.3808389325824078 9.047360459622255e-25 3.316151398849622e-17 3.3161262930084784e-17 2.5105841144001994e-22
1.4228933163050095 9.358179411852597e-25 3.534541942099235e-17 3.53449973760602e-17 4.2204493213592323e-22
1.466228494730424 9.671162301765621e-25 3.7640012596040744e-17 3.7639315055792804e-17 6.975402479326688e-22
1.5108834753276823 9.984280177485016e-25 4.004212932744164e-17 4.004099536827436e-17 1.1339591672795215e-21
1.5568984535646726 1.0296145904281046e-24 4.255047460543171e-17 4.254865951492614e-17 1.8150905055743455e-21
1.6043148490894465 1.0608595867748763e-24 4.5176953567197794e-17 4.5174087564867736e-17 2.8660023300495302e-21
1.6531753430134553 1.0923679622445268e-24 4.7935504952769324e-17 4.7931046087755396e-17 4.458865013928872e-21
1.7035239163302658 1.1244231082549928e-24 5.0844903862008224e-17 5.0838067199165047e-17 6.8366628431782e-21
1.755405889504358 1.1579498026855563e-24 5.39556237114671e-17 5.3945287703463e-17 1.0336008004100407e-20
1.8088679632656115 1.192918239019828e-24 5.727788575147847e-17 5.726247216823047e-17 1.541358324796527e-20
1.8639582606462262 1.22932222520221e-24 6.082349189280687e-17 6.080081056946621e-17 2.2681323340637015e-20
1.9207263702978936 1.2673760309134364e-24 6.461605229720753e-17 6.458310573466684e-17 3.294656254069425e-20
1.979223391128241 1.3074074747027008e-24 6.868710489181476e-17 6.863984468935058e-17 4.7260202464191306e-20
2.039501978296691 1.3497517985774999e-24 7.307140851270189e-17 7.300443874217669e-17 6.696977052518434e-20
2.1016163906111602 1.3952403517199408e-24 7.78344584239108e-17 7.774067238022267e-17 9.378604368811154e-20
2.1656225393682647 1.444359281973844e-24 8.30285459974203e-17 8.289870187332446e-17 1.2984412409583536e-19
2.231578038680979 1.4971130529300716e-24 8.868212859330756e-17 8.850435581306122e-17 1.7777278024635525e-19
2.299542257339062 1.5537551178292558e-24 9.484040501476065e-17 9.45996369138389e-17 2.4076810092175595e-19
2.369576372248914 1.6147875847558275e-24 1.0156768304302079e-16 1.0124500997197413e-16 3.226730710466657e-19
2.4417434235010123 1.6807903545857737e-24 1.089389053108468e-16 1.0851086347635555e-16 4.2804183449127735e-19
2.5161083711144245 1.7527775855094518e-24 1.1706460027272507e-16 1.1650237748968568e-16 5.622227830394255e-19
2.5927381535095444 1.8323780647949968e-24 1.261081561659379e-16 1.2537674016433082e-16 7.314160016070714e-19
2.6717017477616296 1.9212945239054633e-24 1.3625465629019433e-16 1.3531197570225553e-16 9.426805879388267e-19
2.753070231689431 2.0220314456655384e-24 1.4776603797683608e-16 1.465620743210173e-16 1.203963655818823e-18
2.836916847834745 2.1405717408287186e-24 1.61192869768155e-16 1.59668713295585e-16 1.5241564725700027e-18
2.9233170693905177 2.2900040370378095e-24 1.776976168689741e-16 1.757849011960297e-16 1.9127156729444268e-18
2.967498994190263 2.3890156899264446e-24 1.881824053874786e-16 1.8605046098017343e-16 2.1319444073051694e-18
3.0123486681368425 2.498102054511706e-24 1.9974910772721435e-16 1.9737595890452052e-16 2.3731488226938804e-18
3.0578761833420214 2.6912334013546202e-24 2.1844428833444353e-16 2.158053826599586e-16 2.638905674484856e-18
3.1040917844459814 2.9256331816254435e-24 2.410592829639033e-16 2.381305750543242e-16 2.9287079095791807e-18
3.127460860933648 3.1503482373963643e-24 2.6152901581593176e-16 2.584449029357158e-16 3.0841128802159607e-18
3.1510058709225794 3.440796263414249e-24 2.87791261792555e-16 2.8454498721924965e-16 3.246274573305313e-18
3.162844764501044 3.703971093314206e-24 3.1096742581456354e-16 3.0763716529189764e-16 3.330260522665833e-18
3.1747281389236908 4.005592038413258e-24 3.375535576244442e-16 3.3413755658625954e-16 3.4160010381846993e-18
3.1986289994194426 4.832437713424144e-24 4.10298159073286e-16 4.0670487573716167e-16 3.59328333612443e-18
3.2227097969389145 6.753752100831986e-24 5.777444045170179e-16 5.739630852021252e-16 3.7813193148926844e-18
3.2348180950136065 8.563028164992984e-24 7.352697000062711e-16 7.313879877240995e-16 3.881712282171716e-18
3.240889293275058 9.914132415024492e-24 8.528808128211476e-16 8.489461450435131e-16 3.9346677776344996e-18
3.2469718861334385 1.1478261906875207e-23 9.892910759113146e-16 9.85301613716086e-16 3.989462195228417e-18
3.2714166318528037 1.975871478295961e-23 1.7157894083712824e-15 1.7115733584669414e-15 4.216049904340959e-18
3.2744851364798273 2.027757349937265e-23 1.7624972202910053e-15 1.7582544247630062e-15 4.242795527998977e-18
3.2775565192852394 2.0810860562487417e-23 1.8105464113505248e-15 1.806276732534518e-15 4.2696788160066856e-18
3.283707930232385 2.0304697707029376e-23 1.7698256418197577e-15 1.7655078001658375e-15 4.3178416539202565e-18
3.2898708863219004 1.8688085076224055e-23 1.6319734520013675e-15 1.6276116993952286e-15 4.361752606138873e-18
3.29141343181113 1.8306483508924986e-23 1.5993989216537796e-15 1.5950261406785118e-15 4.372780975267627e-18
3.292184975758714 1.8118923622083688e-23 1.583383284913088e-15 1.5790049821472471e-15 4.378302765841414e-18
3.295272960557952 1.69403877992564e-23 1.4817815254444662e-15 1.4773817288597075e-15 4.3997965847581335e-18
3.3076538914384823 1.2843517525825413e-23 1.1276477948824707e-15 1.1231616278387154e-15 4.486167043755056e-18
3.310756385682612 1.2005833158702677e-23 1.055088676840667e-15 1.0505807309665351e-15 4.507945874132033e-18
3.313861789986515 1.1231433658757747e-23 9.879592249032714e-16 9.834294255284993e-16 4.529799374772106e-18
3.3200813396944477 1.0148424643838072e-23 8.943691039272093e-16 8.897923369142033e-16 4.576767013006002e-18
3.345076488085796 8.242259336831073e-24 7.318494671424166e-16 7.270634892932435e-16 4.785977849173226e-18
3.3482140837626964 8.31873297921711e-24 7.393325656259502e-16 7.345182507293893e-16 4.814314896561101e-18
3.3513546224236106 8.395976115168568e-24 7.468975115055016e-16 7.420547274054123e-16 4.842784100089151e-18
3.3576445397418455 8.941002656665367e-24 7.968753157692525e-16 7.919730235289023e-16 4.9022922403503006e-18
3.3702598118196083 1.0929301334818205e-23 9.777441247435494e-16 9.727170029108913e-16 5.027121832658298e-18
3.382922481734668 1.1398413184123592e-23 1.0235424875249777e-15 1.018393866277981e-15 5.148621246996801e-18
3.389271646505754 1.1640856590161128e-23 1.0472750339501532e-15 1.0420647960864006e-15 5.210237863752536e-18
3.395632727569191 1.1904468100468687e-23 1.0730010312896396e-15 1.067727292713045e-15 5.273738576594533e-18
3.421196662673239 1.3174335281326159e-23 1.1963993946556977e-15 1.1908626065432657e-15 5.5367881124317875e-18
3.4276182099114902 1.2938637193657403e-23 1.177200423531051e-15 1.1716047487440085e-15 5.595674787042515e-18
3.4340518103208963 1.187406245274012e-23 1.0823696475869977e-15 1.07671818750501e-15 5.651460081987613e-18
3.4469541582030403 1.0354364523820455e-23 9.47389115650625e-16 9.416304020567067e-16 5.758713593918449e-18
3.472904465399547 9.94414049437803e-24 9.167048334959756e-16 9.10699316404953e-16 6.005517091022639e-18
3.4990501388274233 9.311422916030907e-24 8.648397668780912e-16 8.585812792423388e-16 6.2584876357522954e-18
3.5253949054701885 7.02089329515194e-24 6.570063668924838e-16 6.505014610907659e-16 6.504905801717677e-18
3.5519380250092896 4.854051990629113e-24 4.576560798215981e-16 4.509029675561772e-16 6.7531122654209924e-18
3.578680990867387 4.010381654945055e-24 3.8095890035489647e-16 3.7393366204522014e-16 7.025238309676428e-18
3.605625307711299 3.686314855767274e-24 3.5281127271154363e-16 3.4549910835396116e-16 7.312164357582448e-18
3.660119384959845 3.4856340700171384e-24 3.3864641024807885e-16 3.3072998877947974e-16 7.916421468599042e-18
3.715437065384467 3.356964029596429e-24 3.3107472738560626e-16 3.2251919120505367e-16 8.555536180552598e-18
3.8285932144167436 3.374020876203146e-24 3.428912665198272e-16 3.3295473466214646e-16 9.936531857680799e-18
3.94519561050918 3.4663042479205934e-24 3.6299835226753973e-16 3.5154473832770533e-16 1.1453613939834508e-17
4.06534921144712 3.5896658258855336e-24 3.8736583208622794e-16 3.742580605433668e-16 1.310777154286115e-17
4.189162171576248 3.7309993234325966e-24 4.1487930939983854e-16 3.999745129462002e-16 1.4904796453638374e-17
4.316745939156006 3.884963124216758e-24 4.451566064894145e-16 4.2831543918574306e-16 1.684116730367136e-17
4.448215356677963 4.0492601519725814e-24 4.781134022817724e-16 4.592196727422916e-16 1.8893729539480818e-17
4.58368876423945 4.2235826718168104e-24 5.138845414309272e-16 4.928167021378299e-16 2.106783929309719e-17
4.723288106065518 4.4090083520097824e-24 5.527831439214565e-16 5.294033604759931e-16 2.337978344546334e-17
4.867139040275056 4.607489772412593e-24 5.952611867866853e-16 5.694866533436369e-16 2.57745334430486e-17
4.940699165968905 4.715479416630848e-24 6.18420243563855e-16 5.914094444009558e-16 2.7010799162899364e-17
5.015371051989984 4.824202250767772e-24 6.422409732605935e-16 6.139711620981131e-16 2.826981116248037e-17
5.091171501069577 4.945534322855568e-24 6.683445027483494e-16 6.387668003942244e-16 2.957770235412482e-17
5.129500256944802 5.006495936670651e-24 6.816765541791531e-16 6.514372496492086e-16 3.023930452994456e-17
5.168117569889187 5.068698525318296e-24 6.953417064970839e-16 6.644298276563348e-16 3.091187884074898e-17
5.20702561229733 5.140219069239051e-24 7.104618712627945e-16 6.78818740924023e-16 3.164313033877161e-17
5.246226572918644 5.212374874300891e-24 7.25858753501813e-16 6.934771950674975e-16 3.238155843431541e-17
5.265937586045735 5.24869672800982e-24 7.336630048111836e-16 7.009096085364048e-16 3.275339627477856e-17
5.285722656980489 5.285184452828733e-24 7.41538926133501e-16 7.084119795695244e-16 3.312694656397663e-17
5.305582063971359 5.3218405940073825e-24 7.494873917478237e-16 7.159852104834118e-16 3.3502181264411956e-17
5.3255160863122235 5.360381008957798e-24 7.577514808843258e-16 7.23869669078711e-16 3.38818118056149e-17
5.365609099470188 5.4514158723053715e-24 7.764219008727611e-16 7.417546438480937e-16 3.4667257024667226e-17
5.406003951863644 5.54418604987557e-24 7.955795067321033e-16 7.601192200697023e-16 3.5460286662400986e-17
5.446702915881641 5.638779419221058e-24 8.152451556782235e-16 7.789844735040679e-16 3.626068217415543e-17
5.487708281020852 5.73861265177479e-24 8.359250913826776e-16 7.988537005638708e-16 3.707139081880713e-17
5.529022354014368 5.8703876151827935e-24 8.615580746031057e-16 8.236411300751353e-16 3.791694452797057e-17
5.570647458961463 6.007161566785248e-24 8.882688257837524e-16 8.494981926013763e-16 3.8770633182375964e-17
5.612585937458331 6.1493043134293334e-24 9.161327793763442e-16 8.765005408619787e-16 3.963223851436538e-17
5.654840148729818 6.302337724731326e-24 9.460006567876502e-16 9.054951661570309e-16 4.0505490630619576e-17
5.67608639626678 6.404034850921804e-24 9.64877361859129e-16 9.239151978017676e-16 4.096216405736124e-17
5.686739436050992 6.4560559855246524e-24 9.745408548856182e-16 9.333495034029597e-16 4.119135148265833e-17
5.6974124697621304 6.508883877951065e-24 9.843592311356497e-16 9.429381294985336e-16 4.142110163711573e-17
5.718818669136295 6.617037977009235e-24 1.0044755881091135e-15 9.625933113552661e-16 4.188227675384767e-17
5.740305295436557 6.735103120447445e-24 1.0262393740592629e-15 9.838904505454942e-16 4.2348923513768567e-17
5.7835210386641895 7.036887496259586e-24 1.0802949862822807e-15 1.0369807113047326e-15 4.331427497754826e-17
5.827062130521658 7.37804729276349e-24 1.1411967245694629e-15 1.0968992633598898e-15 4.429746120957303e-17
5.8489554468988025 7.61588085296433e-24 1.1824094373652861e-15 1.1375818938824453e-15 4.4827543482840746e-17
5.870931020387893 7.868424630179976e-24 1.2262081545395857e-15 1.1808472703885333e-15 4.53608841510523e-17
5.892989160043636 8.136840856244625e-24 1.2728021411984303e-15 1.2269046786076678e-15 4.589746259076244e-17
5.915130176081913 8.440188594708839e-24 1.3252136200462896e-15 1.2787601621299695e-15 4.645345791631981e-17
5.95966208400165 9.284910839924109e-24 1.4688207746692735e-15 1.4211050656902082e-15 4.771570897906465e-17
6.004529249263818 1.0490748371657578e-23 1.6720715905617432e-15 1.622937843599426e-15 4.913374696231747e-17
6.027089341400364 1.1325908007573846e-23 1.8119661995571375e-15 1.7620154455980974e-15 4.995075395903927e-17
6.049734195844842 1.2306093433867236e-23 1.9761774299503792e-15 1.9253616663824226e-15 5.081576356795655e-17
6.095279466722835 1.512895990109619e-23 2.447778565803743e-15 2.394844627127121e-15 5.293393867662178e-17
6.141167624020661 1.9444255416700574e-23 3.169652867616858e-15 3.1139796903709313e-15 5.567317724592686e-17
6.164241091010745 2.219784543153765e-23 3.632117354285451e-15 3.574729739325209e-15 5.738761496024312e-17
6.187401249150058 2.5311156976186453e-23 4.15709271847012e-15 4.097943117583973e-15 5.914960088614653e-17
6.1990139391386085 2.6828875455119166e-23 4.414632084937711e-15 4.354585620103066e-15 6.004646483464523e-17
6.204828454712694 2.762633059830121e-23 4.550115455814896e-15 4.489615833622566e-15 6.049962219232952e-17
6.210648424152782 2.820746179652621e-23 4.650186669242443e-15 4.589299836316383e-15 6.088683292606064e-17
6.233982942956859 3.017182589370856e-23 4.992713388282467e-15 4.930471761042126e-15 6.224162724033924e-17
6.239830258556775 3.041761520132205e-23 5.03810680861513e-15 4.9756735855564104e-15 6.243322305871914e-17
6.245683058788269 3.0431279595853604e-23 5.04509779642033e-15 4.982472612598423e-15 6.262518382190845e-17
6.257405133728602 3.035968190383249e-23 5.042674364527519e-15 4.979711065310138e-15 6.29632992173822e-17
6.269149208991335 2.9951724758969175e-23 4.984250666084831e-15 4.921152905323649e-15 6.309776076118248e-17
6.280915325867298 2.895505247912885e-23 4.8274382596479666e-15 4.7644580591848484e-15 6.298020046311759e-17
6.304513850009849 2.6508177232219774e-23 4.436095650582793e-15 4.373578844794492e-15 6.251680578830069e-17
6.32820103803542 2.349580091429307e-23 3.946753059742594e-15 3.884942540124427e-15 6.181051961816642e-17
6.3519772230701035 2.073977248967761e-23 3.496893075992317e-15 3.435711750857155e-15 6.118132513516147e-17
6.375842739491607 1.8416543569030593e-23 3.1168446340872973e-15 3.056213645569995e-15 6.063098851730375e-17
6.399797922933955 1.656683426316665e-23 2.8143313059346904e-15 2.7539617458603415e-15 6.036956007434839e-17
6.42384311029221 1.502502411373806e-23 2.562002424177234e-15 2.5018368290816494e-15 6.01655950955845e-17
6.447978639727206 1.3906612840829343e-23 2.3802051320121082e-15 2.320017664361204e-15 6.018746765090448e-17
6.472204850670314 1.297315778321175e-23 2.2287809537135885e-15 2.1685265802764393e-15 6.02543734371488e-17
6.496522083828205 1.2369306308138437e-23 2.133023776453054e-15 2.0725190139403162e-15 6.050476251273768e-17
