Dust emission spectrum from A.P. Jones, M. Kohler, N. Ysard, M. Bocchio, and L. Verstraete (2017), A&A, 602A, 46J 
inside the DustPedia framework.

lambda    nu*dP/dnu     j_nu    j_nu(carb.) j_nu(sil)
 (um)   (erg s-1 H-1) (Jy cm2 sr-1 H-1)
0.9927057738263894 2.4087228057555764e-21 6.34712140589002e-14 6.347121069087064e-14 3.368029571977947e-21
1.0001793341362166 2.449186187249683e-21 6.502331568249518e-14 6.502331162973057e-14 4.052764601798068e-21
1.0077091589558085 2.4898163087222254e-21 6.659964990238394e-14 6.659964503218746e-14 4.870196472930786e-21
1.0114953028030835 2.510192147483016e-21 6.739695414953406e-14 6.739694881340763e-14 5.336126447119781e-21
1.0152956718711033 2.530607604677169e-21 6.820037720414433e-14 6.820037135946938e-14 5.8446749613515256e-21
1.0229392996569957 2.5715348535981237e-21 6.982512338896659e-14 6.982511638412451e-14 7.004842098189827e-21
1.0267826658714554 2.5920002137969727e-21 7.064525455905236e-14 7.064524689400125e-14 7.66505111345544e-21
1.0306404723013447 2.612501648526971e-21 7.147154971905679e-14 7.147154133437697e-14 8.384679814753364e-21
1.03451277320114 2.6330385766027048e-21 7.230403135858246e-14 7.230402218977882e-14 9.168803636868833e-21
1.0383996230291617 2.6536104367185887e-21 7.314272249117673e-14 7.314271246827021e-14 1.0022906517430611e-20
1.0403485208654093 2.663909296441347e-21 7.356440395799473e-14 7.356439347996171e-14 1.0478033048763776e-20
1.0423010764483396 2.6742166879438124e-21 7.398764667719786e-14 7.398763572428625e-14 1.0952911603671999e-20
1.0462171883269815 2.6948568102140845e-21 7.48388280470056e-14 7.48388160817915e-14 1.1965214089692051e-20
1.0471985131304309 2.7000220742137637e-21 7.50526039583729e-14 7.505259172642703e-14 1.2231945879508508e-20
1.048180758391296 2.705189416296954e-21 7.526677287820611e-14 7.526676037384308e-14 1.2504363020754519e-20
1.0501480137395462 2.7155303048199185e-21 7.569629132447192e-14 7.56962782577556e-14 1.306671631839131e-20
1.0521189612883777 2.725879416860481e-21 7.61273865729323e-14 7.612737291971015e-14 1.365322217071605e-20
1.0531058218030118 2.7310502111372796e-21 7.634333564922616e-14 7.634332169336722e-14 1.3955858932180372e-20
1.0540936079674168 2.7362006722141307e-21 7.655905393420761e-14 7.655903966923254e-14 1.4264975058003128e-20
1.058054026499678 2.756821821703118e-21 7.742584879863019e-14 7.742583323042761e-14 1.5568202573154938e-20
1.0590464539527713 2.7619819021409477e-21 7.764352999538824e-14 7.764351408401113e-14 1.591137711296129e-20
1.06003981227728 2.7671438868324706e-21 7.78616050136293e-14 7.786158875185082e-14 1.6261778500850238e-20
1.0620293250338977 2.7774735437682227e-21 7.829893819486881e-14 7.829892121002614e-14 1.6984842667065587e-20
1.0660195594769086 2.7981554366089543e-21 7.917834905484682e-14 7.9178330530609e-14 1.8524237823029353e-20
1.070024785945596 2.8188671223909574e-21 8.006410903144756e-14 8.006408883499402e-14 2.0196453544421913e-20
1.0740450607676866 2.839608247705576e-21 8.095624652389034e-14 8.095622451155993e-14 2.20123304221292e-20
1.07808044048254 2.8603784840242016e-21 8.185479070339041e-14 8.185476671985079e-14 2.3983539646063773e-20
1.0861967418109137 2.901973427365855e-21 8.367030655595248e-14 8.36702781127976e-14 2.8443154866075667e-20
1.0902777775684922 2.9227255909237304e-21 8.458524965600481e-14 8.458521869638852e-14 3.09596163086078e-20
1.0943741465085532 2.9435045706323722e-21 8.55066658328973e-14 8.550663214525225e-14 3.368764505716708e-20
1.1026131145906286 2.9851422400603758e-21 8.736905062307983e-14 8.736901077625688e-14 3.9846822936876135e-20
1.1109141095355224 3.0268852380806648e-21 8.925773686830819e-14 8.925768979777854e-14 4.7070529643023965e-20
1.1192775983109025 3.068700276472741e-21 9.117204941181237e-14 9.117199388034922e-14 5.553146315440897e-20
1.1277040513999907 3.110437487471271e-21 9.310779703432878e-14 9.310773160594291e-14 6.542838586064851e-20
1.1361939428280308 3.1522743896132467e-21 9.507053028728326e-14 9.507045329753843e-14 7.698974482416573e-20
1.1447477501889525 3.1942117270073803e-21 9.706059102382063e-14 9.706050054607463e-14 9.047774596819837e-20
1.1533659546722406 3.236265460953569e-21 9.907879110249203e-14 9.90786849094058e-14 1.0619308620898803e-19
1.1707974979042381 3.32085004593032e-21 1.0320493960157359e-13 1.0320479386847077e-13 1.4573310281631307e-19
1.1884924949847024 3.40592093340318e-21 1.0744852015397324e-13 1.0744832116228355e-13 1.989916896832761e-19
1.2064549276569216 3.492052408448771e-21 1.1183076288966489e-13 1.1183049251996926e-13 2.7036969563189685e-19
1.2246888378427687 3.5786982506023874e-21 1.1633764645182817e-13 1.1633728090432454e-13 3.6554750364319614e-19
1.2431983285522175 3.665793434956384e-21 1.209700443077812e-13 1.2096955247673252e-13 4.918310486470817e-19
1.2619875648066055 3.753471348529498e-21 1.2573541330336255e-13 1.2573475473413572e-13 6.5856922684666e-19
1.3004222497298317 3.930068954442751e-21 1.356606816257283e-13 1.3565951748965016e-13 1.164136078152609e-18
1.3400274889804893 4.109071564487428e-21 1.4615943166357322e-13 1.4615741163333017e-13 2.0200302430517947e-18
1.3808389325824078 4.291188327799017e-21 1.572859867744456e-13 1.5728254431798603e-13 3.4424564596240343e-18
1.4228933163050095 4.477987853495913e-21 1.6913157130056457e-13 1.6912580693977643e-13 5.7643607881298386e-18
1.466228494730424 4.672726610178935e-21 1.8186178969706672e-13 1.8185230062846952e-13 9.489068597234179e-18
1.5108834753276823 4.875104470885882e-21 1.955169128248298e-13 1.9550154977686993e-13 1.536304795986796e-17
1.5568984535646726 5.085040515041846e-21 2.1014745645058732e-13 2.1012296739946752e-13 2.4489051119828382e-17
1.6043148490894465 5.303825767247119e-21 2.2586466050975876e-13 2.2582615513050016e-13 3.850537925853387e-17
1.6531753430134553 5.5328304369087235e-21 2.427927493097803e-13 2.42733099608646e-13 5.964970113432e-17
1.7035239163302658 5.773646954504744e-21 2.610765664453044e-13 2.609855052031335e-13 9.106124217099402e-17
1.755405889504358 6.0306842553354026e-21 2.8100469437353176e-13 2.8086763344616573e-13 1.3706092736607862e-16
1.8088679632656115 6.3040554389042565e-21 3.0268878066382096e-13 3.0248531029977563e-13 2.0347036404536327e-16
1.8639582606462262 6.593765883931844e-21 3.262414504207192e-13 3.2594341531546287e-13 2.980351052563363e-16
1.9207263702978936 6.900751709485018e-21 3.51828756796635e-13 3.513978589426359e-13 4.3089785399923553e-16
1.979223391128241 7.226372250788156e-21 3.7965102569882084e-13 3.790358661065719e-13 6.151595922489739e-16
2.039501978296691 7.571829982494484e-21 4.0991557293917584e-13 4.0904809081886537e-13 8.674821203104438e-16
2.1016163906111602 7.940599101277356e-21 4.4297187208456977e-13 4.4176302992391443e-13 1.208842160655522e-15
2.1656225393682647 8.334439812314028e-21 4.791026913842187e-13 4.774375083823037e-13 1.6651830019150251e-15
2.231578038680979 8.752619288141448e-21 5.184651270791368e-13 5.161969847301586e-13 2.268142348978108e-15
2.299542257339062 9.195639487763636e-21 5.612970560043347e-13 5.582412569959745e-13 3.055799008360063e-15
2.369576372248914 9.664849286014423e-21 6.079043201765216e-13 6.038308656093935e-13 4.073454567128197e-15
2.4417434235010123 1.0161864237689235e-20 6.586320316218919e-13 6.532578518354639e-13 5.374179786428235e-15
2.5161083711144245 1.0690024958968647e-20 7.139659412996134e-13 7.069463860897819e-13 7.019555209831442e-15
2.5927381535095444 1.1254862379869298e-20 7.745835697861234e-13 7.655035309103757e-13 9.080038875747584e-15
2.6717017477616296 1.186107067646278e-20 8.411652082211733e-13 8.295305225403651e-13 1.1634685680808236e-14
2.753070231689431 1.2515492857879447e-20 9.14607335558785e-13 8.998362473833437e-13 1.477108817544117e-14
2.836916847834745 1.323683079378897e-20 9.96781701630929e-13 9.781960651395426e-13 1.858563649138624e-14
2.9233170693905177 1.4065891914605432e-20 1.091472081243623e-12 1.0682940753140599e-12 2.3178005929562927e-14
2.967498994190263 1.4558326340340434e-20 1.1467571689432905e-12 1.1210099240423262e-12 2.5747244900964207e-14
3.0123486681368425 1.5083626727952863e-20 1.2060920308509469e-12 1.177527792626772e-12 2.856423822417535e-14
3.0578761833420214 1.5886873413414024e-20 1.2895190565432973e-12 1.2578609883872607e-12 3.1658068156036676e-14
3.1040917844459814 1.681310499288337e-20 1.3853257679178768e-12 1.3503086895063627e-12 3.501707841151402e-14
3.127460860933648 1.7624105822076264e-20 1.4630811272130251e-12 1.4262686157879558e-12 3.6812511425068875e-14
3.1510058709225794 1.863866967156798e-20 1.558954919810484e-12 1.5202731531419425e-12 3.8681766668542025e-14
3.162844764501044 1.9531510593700377e-20 1.6397707807590762e-12 1.6001225254372006e-12 3.9648255321875544e-14
3.1747281389236908 2.0537145728219554e-20 1.7306771477302778e-12 1.690043352508955e-12 4.0633795221323205e-14
3.1986289994194426 2.3236149975347097e-20 1.9728654820219747e-12 1.930197406049798e-12 4.266807597217667e-14
3.2227097969389145 2.939783466503973e-20 2.51481461402038e-12 2.4699932067986818e-12 4.482140722169833e-14
3.2348180950136065 3.514766459343925e-20 3.0179759196856833e-12 2.972005938603405e-12 4.596998108227867e-14
3.240889293275058 3.943445363677949e-20 3.392418767770843e-12 3.345842940754361e-12 4.657582701648141e-14
3.2469718861334385 4.4399883116949076e-20 3.826747332955828e-12 3.7795446361995975e-12 4.720269675623107e-14
3.2714166318528037 7.041091056047128e-20 6.114278985272058e-12 6.0644875953099315e-12 4.979138996212911e-14
3.2744851364798273 7.204016241080544e-20 6.261626224769221e-12 6.211530282957115e-12 5.00959418121059e-14
3.2775565192852394 7.371259567550356e-20 6.413001287038721e-12 6.362599318701886e-12 5.0401968336834554e-14
3.283707930232385 7.213013170170571e-20 6.287104515194066e-12 6.236156324122011e-12 5.094819107205428e-14
3.2898708863219004 6.706469124349404e-20 5.856554870637653e-12 5.805110552881446e-12 5.1444317756207136e-14
3.29141343181113 6.586769586782762e-20 5.754721909943098e-12 5.703153036765156e-12 5.156887317794205e-14
3.292184975758714 6.527917022197165e-20 5.704640581214583e-12 5.653009351691371e-12 5.1631229523211866e-14
3.295272960557952 6.160715846907451e-20 5.3887992610541834e-12 5.336925659746254e-12 5.187360130792855e-14
3.3076538914384823 4.8790691081565284e-20 4.283773125102894e-12 4.230926523947317e-12 5.284660115557713e-14
3.310756385682612 4.615548466767873e-20 4.056205729600781e-12 4.0031139748771065e-12 5.309175472367326e-14
3.313861789986515 4.3713684470092205e-20 3.845220400074482e-12 3.791882729514675e-12 5.3337670559805814e-14
3.3200813396944477 4.030997347986686e-20 3.552472046231153e-12 3.4986049844156698e-12 5.386706181548338e-14
3.345076488085796 3.4416549626506775e-20 3.055925866404918e-12 2.9996984159673433e-12 5.622745043757601e-14
3.3482140837626964 3.4669986487367246e-20 3.081316604819619e-12 3.024769351182904e-12 5.6547253636714456e-14
3.3513546224236106 3.492563668036439e-20 3.1069491821423206e-12 3.0500807367456063e-12 5.686844539671315e-14
3.3576445397418455 3.666655240528906e-20 3.267941152478299e-12 3.2104009980421018e-12 5.754015443619864e-14
3.3702598118196083 4.293509678556059e-20 3.841008436069056e-12 3.7820594311912185e-12 5.894900487783796e-14
3.382922481734668 4.4465610279202725e-20 3.992875202829451e-12 3.9325583867478814e-12 6.031681608156997e-14
3.389271646505754 4.5253886239749384e-20 4.071286754633399e-12 4.0102769495820904e-12 6.10098050513084e-14
3.395632727569191 4.6120291599995255e-20 4.157020711259285e-12 4.095296738764916e-12 6.172397249436846e-14
3.421196662673239 5.030885209279204e-20 4.568691998825507e-12 4.504013400672397e-12 6.467859815311184e-14
3.4276182099114902 4.959005999521113e-20 4.511869276148323e-12 4.446533018916905e-12 6.533625723141533e-14
3.4340518103208963 4.625460571199991e-20 4.216297622067812e-12 4.150340167953993e-12 6.59574541138188e-14
3.4469541582030403 4.1477494124140255e-20 3.795049554926661e-12 3.727901483359396e-12 6.714807156726565e-14
3.472904465399547 4.022384292982797e-20 3.708052119376509e-12 3.638158822593169e-12 6.989329678334003e-14
3.4990501388274233 3.82888934654077e-20 3.556251068956747e-12 3.483552341074934e-12 7.269872788181316e-14
3.5253949054701885 3.1218849594994494e-20 2.921420692311824e-12 2.846002601248161e-12 7.541809106366324e-14
3.5519380250092896 2.449186431097123e-20 2.3091739910739742e-12 2.2310276125288256e-12 7.81463785451485e-14
3.578680990867387 2.1932125149070724e-20 2.0834022789161266e-12 2.002266266136035e-12 8.113601278009097e-14
3.605625307711299 2.1012911583760163e-20 2.011112010045188e-12 1.9268303439810744e-12 8.42816660641141e-14
3.660119384959845 2.0580209968313126e-20 1.999468127727676e-12 1.908591432889089e-12 9.087669483858675e-14
3.715437065384467 2.03621320077691e-20 2.008179785075721e-12 1.910370709723573e-12 9.780907535214729e-14
3.8285932144167436 2.078517481066236e-20 2.1123327854699713e-12 1.999694826408919e-12 1.1263795906105216e-13
3.94519561050918 2.1428977228426953e-20 2.2440855932839654e-12 2.1153833752504707e-12 1.2870221803349477e-13
4.06534921144712 2.2151773327549654e-20 2.3904286703609736e-12 2.244471336577293e-12 1.4595733378368091e-13
4.189162171576248 2.2909454797616074e-20 2.5474833848046072e-12 2.383074179915201e-12 1.6440920488940722e-13
4.316745939156006 2.3680819709915686e-20 2.7134551870628113e-12 2.5294967862314546e-12 1.8395840083135685e-13
4.448215356677963 2.4453065033378254e-20 2.8872775965334133e-12 2.682979352605621e-12 2.042982439277935e-13
4.58368876423945 2.5221287957746577e-20 3.06868149709705e-12 2.843256516182033e-12 2.2542498091501567e-13
4.723288106065518 2.5985170734281635e-20 3.257912715743513e-12 3.010468853944975e-12 2.4744386179853717e-13
4.867139040275056 2.674244540971271e-20 3.454970185170547e-12 3.1852569483992956e-12 2.6971323677125163e-13
4.940699165968905 2.71292581258124e-20 3.5579165839851673e-12 3.2769123961439184e-12 2.8100418784124927e-13
5.015371051989984 2.7504550604909264e-20 3.661651902504887e-12 3.3692930236883325e-12 2.9235887881655484e-13
5.091171501069577 2.790518939102005e-20 3.771135474977571e-12 3.467103064920051e-12 3.0403241005752053e-13
5.129500256944802 2.8100492807292327e-20 3.8261185767284575e-12 3.5162407257716133e-12 3.0987785095684487e-13
5.168117569889187 2.8295881947962e-20 3.881727576074451e-12 3.565936888125853e-12 3.157906879485969e-13
5.20702561229733 2.8518119910572334e-20 3.941667964661551e-12 3.6193907485269537e-12 3.222772161345971e-13
5.246226572918644 2.873772296008746e-20 4.001923934737578e-12 3.6731385819332504e-12 3.287853528043284e-13
5.265937586045735 2.8846529875238943e-20 4.0321689141807445e-12 3.700122411195731e-12 3.320465029850136e-13
5.285722656980489 2.8954670891302396e-20 4.0624912433838745e-12 3.7271794192199486e-12 3.3531182416392503e-13
5.305582063971359 2.906214430518661e-20 4.09289048575042e-12 3.754309585335474e-12 3.3858090041494616e-13
5.3255160863122235 2.917420073439065e-20 4.124108673088381e-12 3.782226781419512e-12 3.4188189166886794e-13
5.365609099470188 2.9436924188136037e-20 4.192575501368692e-12 3.84386169884545e-12 3.487138025232415e-13
5.406003951863644 2.9699044230407865e-20 4.261752896942032e-12 3.9061869676534336e-12 3.5556592928859815e-13
5.446702915881641 2.9960690365663226e-20 4.331665749882496e-12 3.969230815861753e-12 3.6243493402074316e-13
5.487708281020852 3.0231884599820203e-20 4.40378057037174e-12 4.034430910214084e-12 3.69349660157656e-13
5.529022354014368 3.059065024360503e-20 4.489587988461426e-12 4.113030809808898e-12 3.7655717865252565e-13
5.570647458961463 3.095562894020385e-20 4.577356520947961e-12 4.193572389188798e-12 3.83784131759162e-13
5.612585937458331 3.1327560749347946e-20 4.667228004589664e-12 4.276200883357925e-12 3.910271212317389e-13
5.654840148729818 3.1722020159728943e-20 4.761574707108222e-12 4.363252620146575e-12 3.9832208696164735e-13
5.67608639626678 3.198784871591316e-20 4.819516414111422e-12 4.417371962433928e-12 4.021444516774934e-13
5.686739436050992 3.2122899745608655e-20 4.848947755360342e-12 4.444890044208778e-12 4.0405771115156316e-13
5.6974124697621304 3.2259428904506055e-20 4.878696137272442e-12 4.472723853835191e-12 4.0597228343725046e-13
5.718818669136295 3.2537088823669154e-20 4.939175435454499e-12 4.529370285762573e-12 4.0980514969192503e-13
5.740305295436557 3.28395277636337e-20 5.003815949638244e-12 4.590142180283834e-12 4.136737693544102e-13
5.7835210386641895 3.3617544147646665e-20 5.16092724420135e-12 4.739261440881693e-12 4.216658033196559e-13
5.827062130521658 3.4485987803485623e-20 5.334107354324031e-12 4.904349148294304e-12 4.29758206029726e-13
5.8489554468988025 3.510001009018335e-20 5.449479053509025e-12 5.015332691603158e-12 4.3414636190586687e-13
5.870931020387893 3.574642390157041e-20 5.570690264428675e-12 5.1321441123200154e-12 4.3854615210865936e-13
5.892989160043636 3.6427835328036513e-20 5.6982098610378384e-12 5.255252719375696e-12 4.4295714166214174e-13
5.915130176081913 3.7196838188616775e-20 5.840361982090686e-12 5.392826578233671e-12 4.475354038570133e-13
5.95966208400165 3.93554126805359e-20 6.225805367165611e-12 5.7677318753008554e-12 4.580734918647577e-13
6.004529249263818 4.243186260441595e-20 6.7630172302238625e-12 6.293025628548386e-12 4.699916016754751e-13
6.027089341400364 4.456584242860475e-20 7.129830127652541e-12 6.65289940882799e-12 4.769307188245489e-13
6.049734195844842 4.705768770755124e-20 7.556771842588908e-12 7.072479337773652e-12 4.842925048152585e-13
6.095279466722835 5.423297664333167e-20 8.774583226812813e-12 8.272015905191791e-12 5.02567321621022e-13
6.141167624020661 6.514139935323422e-20 1.0618849569483278e-11 1.009234181753265e-11 5.265077519506298e-13
6.164241091010745 7.208525336856837e-20 1.1794933006248278e-11 1.125329281786144e-11 5.416401883868385e-13
6.187401249150058 7.987009286964039e-20 1.311782712280977e-11 1.2560669062480388e-11 5.571580603293801e-13
6.1990139391386085 8.364662533963888e-20 1.3763867093082877e-11 1.3198816946719254e-11 5.650501463636253e-13
6.204828454712694 8.562546027611846e-20 1.4102695572519812e-11 1.3533661435578737e-11 5.690341369410728e-13
6.210648424152782 8.705345673364064e-20 1.4351338200309216e-11 1.3778933405272043e-11 5.724047950371741e-13
6.233982942956859 9.182139520777735e-20 1.5194238187627852e-11 1.461018204779764e-11 5.840561398302105e-13
6.239830258556775 9.238288532997956e-20 1.5301490287780725e-11 1.471589308313871e-11 5.855972046420123e-13
6.245683058788269 9.235882070279223e-20 1.5311853099700958e-11 1.4724713152178274e-11 5.871399475226879e-13
6.257405133728602 9.205969588502261e-20 1.5290906865101272e-11 1.4701110842662085e-11 5.897960224391903e-13
6.269149208991335 9.091020035312593e-20 1.5128318329256977e-11 1.4537760489355617e-11 5.905578399013549e-13
6.280915325867298 8.827944326712935e-20 1.4718107047996064e-11 1.4129126883372917e-11 5.889801646231479e-13
6.304513850009849 8.189662212265213e-20 1.3705252006318243e-11 1.312153956285603e-11 5.837124434622114e-13
6.32820103803542 7.41484899310882e-20 1.2455237451930895e-11 1.1879039772753333e-11 5.761976791775621e-13
6.3519772230701035 6.709002564584907e-20 1.1311919948296571e-11 1.0742517528129969e-11 5.694024201666011e-13
6.375842739491607 6.113134441912399e-20 1.0345964328925296e-11 9.782616815695292e-12 5.633475132300035e-13
6.399797922933955 5.641364775026218e-20 9.583405762591827e-12 9.023455581203687e-12 5.59950181388138e-13
6.42384311029221 5.2470454541593006e-20 8.947036005774372e-12 8.389951349274442e-12 5.570846564999305e-13
6.447978639727206 4.960882266924911e-20 8.490865148970635e-12 7.934579709390456e-12 5.562854395801773e-13
6.472204850670314 4.721145633844655e-20 8.110900710725815e-12 7.555006196247764e-12 5.558945144780515e-13
6.496522083828205 4.5645783334500074e-20 7.871382494849567e-12 7.314210137727385e-12 5.571723571221811e-13
