Dust emission spectrum from A.P. Jones, M. Kohler, N. Ysard, M. Bocchio, and L. Verstraete (2017), A&A, 602A, 46J 
inside the DustPedia framework.

lambda    nu*dP/dnu     j_nu    j_nu(carb.) j_nu(sil)
 (um)   (erg s-1 H-1) (Jy cm2 sr-1 H-1)
0.9927057738263894 1.172736598029257e-24 3.0902275459160746e-17 3.0902275459160715e-17 3.571580737623885e-32
1.0001793341362166 1.1921175328643846e-24 3.164946588120532e-17 3.164946588120528e-17 4.3040815749020266e-32
1.0077091589558085 1.2114710057114806e-24 3.240542065879567e-17 3.240542065879561e-17 5.180281518664717e-32
1.0114953028030835 1.2211350606372092e-24 3.278664694042564e-17 3.278664694042558e-17 5.680464012456114e-32
1.0152956718711033 1.2307893976849371e-24 3.317001854646788e-17 3.317001854646782e-17 6.226967195299624e-32
1.0229392996569957 1.2500556772086025e-24 3.3942877259485e-17 3.3942877259484934e-17 7.475730359400011e-32
1.0267826658714554 1.2596442609311649e-24 3.433174464788134e-17 3.433174464788126e-17 8.187473264986873e-32
1.0306404723013447 1.2692188876937701e-24 3.47226731463763e-17 3.472267314637621e-17 8.964123822017906e-32
1.03451277320114 1.278778633584795e-24 3.511564594799764e-17 3.5115645947997544e-17 9.81131804785336e-32
1.0383996230291617 1.2883225798075469e-24 3.55106460353334e-17 3.5510646035333294e-17 1.073515479573697e-31
1.0403485208654093 1.2930883423614104e-24 3.570890093665132e-17 3.570890093665121e-17 1.1227855287491647e-31
1.0423010764483396 1.2978498128564725e-24 3.5907656184557323e-17 3.590765618455722e-17 1.1742231413218824e-31
1.0462171883269815 1.3073594246894904e-24 3.630665896945977e-17 3.6306658969459646e-17 1.2839681951653096e-31
1.0471985131304309 1.3097339684554506e-24 3.6406718953932736e-17 3.6406718953932607e-17 1.312905591878363e-31
1.048180758391296 1.3121073404223322e-24 3.650690210025348e-17 3.650690210025334e-17 1.342468360070804e-31
1.0501480137395462 1.316850512896417e-24 3.670763676548172e-17 3.6707636765481587e-17 1.4035218093895812e-31
1.0521189612883777 1.3215888302174541e-24 3.690886073174491e-17 3.690886073174476e-17 1.4672346835620119e-31
1.0531058218030118 1.3239524966906378e-24 3.7009553843535573e-17 3.700955384353542e-17 1.5001248011555717e-31
1.0540936079674168 1.3263029927892195e-24 3.711003487031686e-17 3.7110034870316703e-17 1.5337285648115713e-31
1.058054026499678 1.335691651419158e-24 3.751314612726154e-17 3.751314612726138e-17 1.6755072042334423e-31
1.0590464539527713 1.3380354159725369e-24 3.761421929463963e-17 3.7614219294639455e-17 1.7128687374058506e-31
1.06003981227728 1.3403777931064658e-24 3.771541002710937e-17 3.77154100271092e-17 1.751028444847917e-31
1.0620293250338977 1.3450583305622833e-24 3.7918143029476214e-17 3.791814302947602e-17 1.8298076737955318e-31
1.0660195594769086 1.3544021577820619e-24 3.832500704087679e-17 3.832500704087657e-17 1.9976802684909026e-31
1.070024785945596 1.3637222672257074e-24 3.873371945221781e-17 3.8733719452217587e-17 2.1802583680353585e-31
1.0740450607676866 1.3730177997665977e-24 3.914426138514273e-17 3.914426138514249e-17 2.3787645828610084e-31
1.07808044048254 1.3822879031427964e-24 3.95566137962268e-17 3.9556613796226536e-17 2.594517320538416e-31
1.0861967418109137 1.400732072175161e-24 4.03862009129537e-17 4.0386200912953386e-17 3.08355797171312e-31
1.0902777775684922 1.4098672286595033e-24 4.080231544429506e-17 4.080231544429471e-17 3.3600283412657253e-31
1.0943741465085532 1.4189729668158264e-24 4.122013212072889e-17 4.1220132120728516e-17 3.6601246372120903e-31
1.1026131145906286 1.4370929507971863e-24 4.2060791972757405e-17 4.2060791972756973e-17 4.3389908012394085e-31
1.1109141095355224 1.4550856275535763e-24 4.290801925063703e-17 4.2908019250636525e-17 5.1372666880020585e-31
1.1192775983109025 1.4729280288576948e-24 4.376115453719516e-17 4.376115453719455e-17 6.074739409538845e-31
1.1277040513999907 1.490537308376551e-24 4.461772523621582e-17 4.4617725236215093e-17 7.174261548336981e-31
1.1361939428280308 1.507998485114913e-24 4.5480246302379865e-17 4.548024630237902e-17 8.46218641936696e-31
1.1447477501889525 1.5253057344131325e-24 4.634854816367009e-17 4.6348548163669105e-17 9.968868659928249e-31
1.1533659546722406 1.5424627943138921e-24 4.722274820315948e-17 4.72227482031583e-17 1.172924166831266e-30
1.1707974979042381 1.576381711540013e-24 4.89905828563046e-17 4.8990582856302977e-17 1.617763586142918e-30
1.1884924949847024 1.6096267890146305e-24 5.077980959088235e-17 5.077980959088013e-17 2.2203950026068917e-30
1.2064549276569216 1.6424578264495736e-24 5.259866985431334e-17 5.259866985431029e-17 3.032804906522244e-30
1.2246888378427687 1.6745163964894586e-24 5.443579840233484e-17 5.4435798402330715e-17 4.122600078088482e-30
1.2431983285522175 1.7057274805993824e-24 5.628847685127744e-17 5.628847685127185e-17 5.577406742569835e-30
1.2619875648066055 1.736079362034498e-24 5.815594041989001e-17 5.815594041988249e-17 7.510218020777978e-30
1.3004222497298317 1.793701035699831e-24 6.1916141410378e-17 6.191614141036458e-17 1.3429401854265905e-29
1.3400274889804893 1.847155570312017e-24 6.570321400198965e-17 6.570321400196606e-17 2.358202941953352e-29
1.3808389325824078 1.896244359364919e-24 6.95035133499172e-17 6.950351334987651e-17 4.0684139645907313e-29
1.4228933163050095 1.9412055590343462e-24 7.33184539928028e-17 7.331845399273382e-17 6.899241546087552e-29
1.466228494730424 1.9831197294161186e-24 7.718271006686764e-17 7.718271006675257e-17 1.15060699802322e-28
1.5108834753276823 2.0211723034784796e-24 8.105946681207291e-17 8.10594668118841e-17 1.887970634923844e-28
1.5568984535646726 2.0547040088484788e-24 8.491393921859039e-17 8.491393921828526e-17 3.0510990780279995e-28
1.6043148490894465 2.0837754509521485e-24 8.873806483506747e-17 8.873806483458096e-17 4.865181329612338e-28
1.6531753430134553 2.1084743373156244e-24 9.252448399484951e-17 9.252448399408494e-17 7.646172556953235e-28
1.7035239163302658 2.129093139222894e-24 9.62747342902348e-17 9.627473428905011e-17 1.1846934751232906e-27
1.755405889504358 2.147324428370681e-24 1.0005634836234067e-16 1.0005634836053012e-16 1.8105604045368907e-27
1.8088679632656115 2.1627497316870387e-24 1.0384427699118433e-16 1.0384427698845389e-16 2.7304426469502604e-27
1.8639582606462262 2.175085426728748e-24 1.0761726104564414e-16 1.076172610415792e-16 4.064951127543157e-27
1.9207263702978936 2.1845364310875802e-24 1.1137666867076115e-16 1.113766686647844e-16 5.976750226531504e-27
1.979223391128241 2.1915803136441947e-24 1.1513878404002987e-16 1.1513878403134712e-16 8.682719243290121e-27
2.039501978296691 2.1967887427006815e-24 1.1892738191063015e-16 1.1892738189816164e-16 1.2468506877900685e-26
2.1016163906111602 2.2017637123832623e-24 1.2282692793361046e-16 1.2282692791590293e-16 1.770758768347608e-26
2.1656225393682647 2.207434047982263e-24 1.268936625925225e-16 1.2689366256764037e-16 2.4882114890831698e-26
2.231578038680979 2.2138660045949384e-24 1.3113929460677192e-16 1.3113929457216292e-16 3.4609007929919187e-26
2.299542257339062 2.2216156477975164e-24 1.3560626472375696e-16 1.3560626467608487e-16 4.7672086893313946e-26
2.369576372248914 2.2319128783711028e-24 1.403839253844092e-16 1.4038392531934663e-16 6.506254876399733e-26
2.4417434235010123 2.246210027411444e-24 1.4558606956353907e-16 1.4558606947551294e-16 8.80261366315231e-26
2.5161083711144245 2.2669945200805643e-24 1.5140814756400156e-16 1.51408147445874e-16 1.181275890323941e-25
2.5927381535095444 2.298336990746819e-24 1.5817644061542415e-16 1.5817644045809553e-16 1.5732862219062625e-25
2.6717017477616296 2.3450972667007287e-24 1.6630996344686633e-16 1.6630996323878805e-16 2.0807828028789857e-25
2.753070231689431 2.41459240134314e-24 1.7645361215340235e-16 1.764536118799627e-16 2.7343966468948726e-25
2.836916847834745 2.523400239828868e-24 1.9002125388901546e-16 1.9002125353174529e-16 3.572702233486065e-25
2.9233170693905177 2.7080326500909555e-24 2.101354148471268e-16 2.1013541438274766e-16 4.643791568008138e-25
2.967498994190263 2.8648310718922546e-24 2.25662311223277e-16 2.2566231069543047e-16 5.278465372013445e-25
3.0123486681368425 3.0479526347837135e-24 2.4371535105753065e-16 2.437153504578244e-16 5.997062570236671e-25
3.0578761833420214 3.457704937689004e-24 2.806578924012243e-16 2.806578917199113e-16 6.813130503521715e-25
3.1040917844459814 3.9857110988001575e-24 3.284050323233732e-16 3.284050315499219e-16 7.734513035087185e-25
3.127460860933648 4.544282590980359e-24 3.7724774026594013e-16 3.7724773944163284e-16 8.243072209874573e-25
3.1510058709225794 5.288499760481886e-24 4.423348267498016e-16 4.423348258713158e-16 8.784858206877546e-25
3.162844764501044 5.9812619588868794e-24 5.021577079353966e-16 5.021577070281713e-16 9.07225225575378e-25
3.1747281389236908 6.786882830198252e-24 5.719345411474279e-16 5.71934540210541e-16 9.368868642051052e-25
3.1986289994194426 9.033981658000344e-24 7.670302781311897e-16 7.670302771316577e-16 9.995321741124076e-25
3.2227097969389145 1.433096999076241e-23 1.225931541438177e-15 1.2259315403684392e-15 1.0697378778800938e-24
3.2348180950136065 1.9354176879281717e-23 1.6618583465688549e-15 1.6618583454592735e-15 1.1095817968586282e-24
3.240889293275058 2.3109682216406873e-23 1.9880513722913417e-15 1.988051371159589e-15 1.1317532514441783e-24
3.2469718861334385 2.745422717729443e-23 2.366231243274814e-15 2.3662312421193067e-15 1.1555068817980656e-24
3.2714166318528037 5.0628781643740786e-23 4.396456361523585e-15 4.396456360265279e-15 1.2583052534030142e-24
3.2744851364798273 5.207750712165146e-23 4.526501237657228e-15 4.5265012363872485e-15 1.2699814309790072e-24
3.2775565192852394 5.356784415097997e-23 4.660406411360271e-15 4.6604064100784895e-15 1.2817821171428478e-24
3.283707930232385 5.2134645031946446e-23 4.544230745812422e-15 4.544230744512295e-15 1.3001272949052103e-24
3.2898708863219004 4.758946464809405e-23 4.1558427513504956e-15 4.155842750036144e-15 1.3143500664241356e-24
3.29141343181113 4.65175969108579e-23 4.0641445038245e-15 4.0641445025065746e-15 1.3179254330601147e-24
3.292184975758714 4.599091895757548e-23 4.019071654259944e-15 4.0190716529402295e-15 1.3197160768619687e-24
3.295272960557952 4.266647389707135e-23 3.732051091493551e-15 3.732051090167486e-15 1.32606330200541e-24
3.3076538914384823 3.114954841699172e-23 2.7348987155096402e-15 2.7348987141583708e-15 1.351269165220063e-24
3.310756385682612 2.880555374815393e-23 2.5314705933400276e-15 2.53147059198239e-15 1.3576383822317334e-24
3.313861789986515 2.664285145510448e-23 2.343605604817272e-15 2.3436056034532377e-15 1.3640349062760107e-24
3.3200813396944477 2.3609902989300284e-23 2.08071385672357e-15 2.080713855344013e-15 1.3795571171992377e-24
3.345076488085796 1.8199406982912973e-23 1.6159678746378441e-15 1.6159678731788703e-15 1.4589738330052166e-24
3.3482140837626964 1.8402293682867483e-23 1.635515292526803e-15 1.6355152910559296e-15 1.470873145643975e-24
3.3513546224236106 1.8607423525999093e-23 1.6552975063839399e-15 1.6552975049010677e-15 1.4828717641037379e-24
3.3576445397418455 2.0106563947056383e-23 1.792016523158147e-15 1.792016521648659e-15 1.5094878109039663e-24
3.3702598118196083 2.5636031236179676e-23 2.2934200599871854e-15 2.2934200584186097e-15 1.5685751773733892e-24
3.382922481734668 2.68954362042787e-23 2.4151275472221272e-15 2.415127545599522e-15 1.6226050115750213e-24
3.389271646505754 2.7547895833738834e-23 2.4783591586308503e-15 2.4783591569804997e-15 1.6503510464037986e-24
3.395632727569191 2.825095582958363e-23 2.5463804417156475e-15 2.5463804400361792e-15 1.679468150602771e-24
3.421196662673239 3.1626798475887507e-23 2.872120812431659e-15 2.8721208106284157e-15 1.8032435993223404e-24
3.4276182099114902 3.0946505887626003e-23 2.8156164588630574e-15 2.8156164570340937e-15 1.8289626436578988e-24
3.4340518103208963 2.79654464627137e-23 2.5491655069976033e-15 2.5491655051458493e-15 1.8517550764749767e-24
3.4469541582030403 2.3719858918452693e-23 2.1702863669144813e-15 2.1702863650212534e-15 1.893228155562944e-24
3.472904465399547 2.252998296032723e-23 2.076936090151825e-15 2.0769360881453593e-15 2.0064654581718394e-24
3.4990501388274233 2.0710121057025367e-23 1.923544492446874e-15 1.9235444903226225e-15 2.1242515235710255e-24
3.5253949054701885 1.423364729103518e-23 1.3319668169247812e-15 1.3319668146937908e-15 2.230990711241746e-24
3.5519380250092896 8.146454651583153e-24 7.680746946026762e-16 7.680746922653409e-16 2.337335344646065e-24
3.578680990867387 5.7327612036905285e-24 5.445732082536864e-16 5.445732057857093e-16 2.4679770334817494e-24
3.605625307711299 4.7563864377300594e-24 4.552261047311392e-16 4.552261021166422e-16 2.614496971688308e-24
3.660119384959845 4.043911584237683e-24 3.928858032294764e-16 3.9288580028769163e-16 2.941784714123981e-24
3.715437065384467 3.539228622358619e-24 3.490502552223002e-16 3.490502519125994e-16 3.3097007315854454e-24
3.8285932144167436 3.282468876859469e-24 3.335871210627598e-16 3.335871168678797e-16 4.194880159287328e-24
3.94519561050918 3.23242400960461e-24 3.385059433315465e-16 3.385059380144016e-16 5.317144911268243e-24
4.06534921144712 3.2672443079284365e-24 3.525728776319939e-16 3.5257287089083745e-16 6.741156558749426e-24
4.189162171576248 3.351192306635382e-24 3.7264556471797953e-16 3.7264555616687853e-16 8.551100944718254e-24
4.316745939156006 3.470941825468329e-24 3.977161777202616e-16 3.977161668692217e-16 1.0851039984079216e-23
4.448215356677963 3.622006560999366e-24 4.2766575003157143e-16 4.2766573626589085e-16 1.3765680584270456e-23
4.58368876423945 3.8049045507041476e-24 4.629438517385449e-16 4.62943834275062e-16 1.7463483093166652e-23
4.723288106065518 4.0238537169895e-24 5.044940564341573e-16 5.044940342738526e-16 2.216030483444431e-23
4.867139040275056 4.287319295470454e-24 5.538970020586441e-16 5.538969739582294e-16 2.810041458723749e-23
4.940699165968905 4.4463995313105026e-24 5.831312658130336e-16 5.831312341694041e-16 3.164362955041889e-23
5.015371051989984 4.611118727835117e-24 6.138733878982087e-16 6.138733522746454e-16 3.5623563124947393e-23
5.091171501069577 4.812317358446542e-24 6.50341427646004e-16 6.503413875220374e-16 4.0123966682568193e-23
5.129500256944802 4.9155705061188744e-24 6.69296291622302e-16 6.692962490460625e-16 4.25762397899366e-23
5.168117569889187 5.0232260343388105e-24 6.891036319068491e-16 6.891035867289976e-16 4.517785155333143e-23
5.20702561229733 5.155498196317652e-24 7.125736951110206e-16 7.125736471370945e-16 4.7973926268954584e-23
5.246226572918644 5.291143569541794e-24 7.368278315749234e-16 7.368277806390127e-16 5.0935910664965274e-23
5.265937586045735 5.360264909765243e-24 7.49258009001689e-16 7.492579565197307e-16 5.248195812786119e-23
5.285722656980489 5.430270581068382e-24 7.618952661424319e-16 7.618952120694863e-16 5.407294567558864e-23
5.305582063971359 5.501174885220064e-24 7.747434639276794e-16 7.747434082175928e-16 5.57100865920394e-23
5.3255160863122235 5.5773766555933494e-24 7.884263102124578e-16 7.884262528111198e-16 5.740133810228872e-23
5.365609099470188 5.767369067902906e-24 8.214217663130251e-16 8.214217053269948e-16 6.098603013579921e-23
5.406003951863644 5.964603519317459e-24 8.559085649475366e-16 8.559085001632099e-16 6.47843270127743e-23
5.446702915881641 6.169430790655649e-24 8.919658300925132e-16 8.91965761284527e-16 6.880798615438707e-23
5.487708281020852 6.3908063536214425e-24 9.309280324936726e-16 9.30927959407752e-16 7.308592082307478e-23
5.529022354014368 6.698875316093384e-24 9.831497505229e-16 9.831496727553587e-16 7.776754122492467e-23
5.570647458961463 7.025142884829426e-24 1.0387960023871956e-15 1.0387959196523107e-15 8.273488462475868e-23
5.612585937458331 7.370921351086189e-24 1.098131157566533e-15 1.0981310695625283e-15 8.80040046851513e-23
5.654840148729818 7.751100250013e-24 1.1634644551917932e-15 1.1634643615678806e-15 9.362391226749455e-23
5.67608639626678 8.01022724645799e-24 1.2068777127816533e-15 1.2068776160786308e-15 9.670302274156822e-23
5.686739436050992 8.143802645098456e-24 1.2293060050235997e-15 1.229305906744894e-15 9.827870579786924e-23
5.6974124697621304 8.280138079477694e-24 1.2522316431580616e-15 1.2522315432791243e-15 9.987893767062028e-23
5.718818669136295 8.5613552223172e-24 1.299625656045422e-15 1.2996255528909567e-15 1.0315446554245599e-22
5.740305295436557 8.871403860873234e-24 1.3517512326677849e-15 1.3517511260876322e-15 1.0658015273413576e-22
5.7835210386641895 9.676115680701509e-24 1.4854663034055123e-15 1.4854661892560485e-15 1.141494636658321e-22
5.827062130521658 1.0603339520200438e-23 1.6400676018733369e-15 1.640067479532866e-15 1.2234047072439564e-22
5.8489554468988025 1.1254069180348672e-23 1.7472591633870726e-15 1.7472590362699147e-15 1.2711715815282055e-22
5.870931020387893 1.1952443344438672e-23 1.862657925121139e-15 1.862657793044904e-15 1.3207623526654812e-22
5.892989160043636 1.2702298701889798e-23 1.9869520949890038e-15 1.986951957764746e-15 1.3722425776107954e-22
5.915130176081913 1.355521205402197e-23 2.128335336945779e-15 2.128335194202581e-15 1.4274319780154711e-22
5.95966208400165 1.59405479561132e-23 2.521705205490403e-15 2.5217050493947285e-15 1.560956746377635e-22
6.004529249263818 1.9379389872099442e-23 3.0887908183081834e-15 3.0887906454405805e-15 1.7286760157641152e-22
6.027089341400364 2.17701362488035e-23 3.4828775773392096e-15 3.482877393852279e-15 1.8348692963600618e-22
6.049734195844842 2.459558695487105e-23 3.949689158285853e-15 3.949688962937211e-15 1.9534864270097502e-22
6.095279466722835 3.275791392045595e-23 5.300041779417122e-15 5.3000415520851374e-15 2.273319824647069e-22
6.141167624020661 4.532065894325051e-23 7.387825015833657e-15 7.387824742276709e-15 2.7355695069318234e-22
6.164241091010745 5.334336552502267e-23 8.728295917591947e-15 8.728295613701132e-15 3.0389081712107036e-22
6.187401249150058 6.248290477662489e-23 1.0262163389850085e-14 1.0262163052519338e-14 3.373307468012127e-22
6.1990139391386085 6.694553961433415e-23 1.1015740395802416e-14 1.1015740041252162e-14 3.5455025375492205e-22
6.204828454712694 6.929633602150075e-23 1.1413254049097704e-14 1.1413253685597217e-14 3.6350048663393183e-22
6.210648424152782 7.101233185432354e-23 1.1706852652068928e-14 1.170685228111258e-14 3.709563452183193e-22
6.233982942956859 7.684228407300439e-23 1.2715554631299018e-14 1.2715554233826085e-14 3.9747293512309733e-22
6.239830258556775 7.758748462292285e-23 1.2850909972885701e-14 1.285090957171479e-14 4.0117091358069456e-22
6.245683058788269 7.765198367797287e-23 1.2873656873593567e-14 1.2873656468692297e-14 4.0490126620965823e-22
6.257405133728602 7.7491540688267e-23 1.2871169300595882e-14 1.2871168889151638e-14 4.114442443570693e-22
6.269149208991335 7.634453280802636e-23 1.2704453301521214e-14 1.2704452887872644e-14 4.1364856901614787e-22
6.280915325867298 7.346856683008154e-23 1.2248811175620761e-14 1.2248810765164203e-14 4.104565604562491e-22
6.304513850009849 6.637647127026692e-23 1.1107982752777437e-14 1.1107982353729228e-14 3.9904820668755563e-22
6.32820103803542 5.758576396815709e-23 9.673081201529963e-15 9.673080820154127e-15 3.8137583668798533e-22
6.3519772230701035 4.952400652418277e-23 8.350147312175512e-15 8.350146947490486e-15 3.6468502224123795e-22
6.375842739491607 4.274191368316474e-23 7.23370831310703e-15 7.233707963055423e-15 3.5005160662997975e-22
6.399797922933955 3.7305974770823754e-23 6.337443293518562e-15 6.337442953203807e-15 3.4031475617195993e-22
6.42384311029221 3.278658324115325e-23 5.590627017198522e-15 5.590626685070999e-15 3.3212752367470838e-22
6.447978639727206 2.949295701626876e-23 5.0479069527435685e-15 5.047906624244903e-15 3.284986640793248e-22
6.472204850670314 2.6749237729190516e-23 4.5955034675001944e-15 4.595503141493914e-15 3.2600628062799687e-22
6.496522083828205 2.4965787623148347e-23 4.30522272401121e-15 4.3052223965249436e-15 3.2748626751263142e-22
