Dust emission spectrum from A.P. Jones, M. Kohler, N. Ysard, M. Bocchio, and L. Verstraete (2017), A&A, 602A, 46J 
inside the DustPedia framework.

lambda    nu*dP/dnu     j_nu    j_nu(carb.) j_nu(sil)
 (um)   (erg s-1 H-1) (Jy cm2 sr-1 H-1)
0.9927057738263894 3.297447287696013e-25 8.688960894345903e-18 8.688960877738605e-18 1.6607298261106248e-26
1.0001793341362166 3.3520444983814546e-25 8.899325365083336e-18 8.899325345085364e-18 1.9997973409584838e-26
1.0077091589558085 3.406598825317792e-25 9.112250101714186e-18 9.112250077664697e-18 2.4049486250813866e-26
1.0114953028030835 3.4338536845407676e-25 9.219663903628262e-18 9.21966387726783e-18 2.6360431984366383e-26
1.0152956718711033 3.461090378730384e-25 9.327707264088447e-18 9.327707235204476e-18 2.888397156286205e-26
1.0229392996569957 3.515472745026064e-25 9.54559561378418e-18 9.545595579138918e-18 3.464526319576562e-26
1.0267826658714554 3.5425529592621727e-25 9.655267552211835e-18 9.655267514285663e-18 3.7926170272277805e-26
1.0306404723013447 3.569603868088382e-25 9.765548683166023e-18 9.765548641661869e-18 4.150415552246171e-26
1.03451277320114 3.596623072128213e-25 9.876435146183508e-18 9.876435100778721e-18 4.540478338343751e-26
1.0383996230291617 3.6236081875629654e-25 9.987923035433139e-18 9.987922985777445e-18 4.965569444663726e-26
1.0403485208654093 3.6370872214914077e-25 1.0043891282247555e-17 1.0043891230325805e-17 5.192175016531284e-26
1.0423010764483396 3.6505568466479484e-25 1.0100008401057773e-17 1.0100008346771009e-17 5.428676323283985e-26
1.0462171883269815 3.677466698219073e-25 1.0212687250523819e-17 1.021268719119355e-17 5.933026706274443e-26
1.0471985131304309 3.6841878235297996e-25 1.0240949222911814e-17 1.0240949162252204e-17 6.065961177413256e-26
1.048180758391296 3.6909063411044033e-25 1.0269247972695044e-17 1.0269247910677573e-17 6.201747000679791e-26
1.0501480137395462 3.70433540818974e-25 1.0325955549978011e-17 1.0325955485156944e-17 6.482106673404174e-26
1.0521189612883777 3.7177536104625493e-25 1.0382809471908611e-17 1.0382809404162762e-17 6.774585021271736e-26
1.0531058218030118 3.724448412376033e-25 1.0411262820973392e-17 1.0411262751718059e-17 6.925533468362094e-26
1.0540936079674168 3.7311071851794434e-25 1.043965960264584e-17 1.0439659531848508e-17 7.079733406916454e-26
1.058054026499678 3.757711950040404e-25 1.0553603246396745e-17 1.0553603169096175e-17 7.730056997497033e-26
1.0590464539527713 3.7643553827175474e-25 1.0582177958688731e-17 1.0582177879675116e-17 7.901361429311654e-26
1.06003981227728 3.7709956414632436e-25 1.0610788059880352e-17 1.061078797911738e-17 8.07629691304996e-26
1.0620293250338977 3.784266496737239e-25 1.066811416460671e-17 1.0668114080233157e-17 8.43735518727272e-26
1.0660195594769086 3.8107685797762027e-25 1.0783188125618424e-17 1.0783188033554831e-17 9.206359442511918e-26
1.070024785945596 3.8372159735322367e-25 1.089882086465683e-17 1.089882076423512e-17 1.0042170981292908e-25
1.0740450607676866 3.8636064726803004e-25 1.1015008085229211e-17 1.1015007975726338e-17 1.095028771751759e-25
1.07808044048254 3.889937892616777e-25 1.1131745460529758e-17 1.1131745341163426e-17 1.193663301361349e-25
1.0861967418109137 3.942369082107421e-25 1.1366721229975313e-17 1.1366721088275135e-17 1.4170017816381068e-25
1.0902777775684922 3.9683604845439545e-25 1.1484648553820875e-17 1.1484648399507647e-17 1.543132220327607e-25
1.0943741465085532 3.9942824642715184e-25 1.1603099900785668e-17 1.160309973279118e-17 1.679944872999887e-25
1.1026131145906286 4.0459099293310638e-25 1.184155664974268e-17 1.184155645083244e-17 1.9891024061420275e-25
1.1109141095355224 4.0972352608696523e-25 1.2082055249446878e-17 1.208205501423535e-17 2.352115280049529e-25
1.1192775983109025 4.148195909868329e-25 1.2324420386180807e-17 1.2324420108400506e-17 2.7778030105062245e-25
1.1277040513999907 4.198561820263017e-25 1.25679697268226e-17 1.256796939918944e-17 3.276331615635065e-25
1.1361939428280308 4.2485725954091705e-25 1.281341659027105e-17 1.2813416204330812e-17 3.8594023594921766e-25
1.1447477501889525 4.298213736096149e-25 1.3060723622195642e-17 1.3060723168149011e-17 4.540466369983937e-25
1.1533659546722406 4.347496986576083e-25 1.3309932418979188e-17 1.3309931885481885e-17 5.334973014552178e-25
1.1707974979042381 4.445147661757665e-25 1.381457125756054e-17 1.3814570523781232e-17 7.33779305428774e-25
1.1884924949847024 4.541186575956109e-25 1.4326338951210517e-17 1.4326337946977966e-17 1.0042325488657056e-24
1.2064549276569216 4.636350865452257e-25 1.484761949887243e-17 1.4847618131240535e-17 1.367631897202663e-24
1.2246888378427687 4.729660464209773e-25 1.537535518200806e-17 1.537535332853879e-17 1.8534692702979898e-24
1.2431983285522175 4.820917706315959e-25 1.5908878633914278e-17 1.5908876134112125e-17 2.4998021520876953e-24
1.2619875648066055 4.910113473542998e-25 1.6448111351754634e-17 1.6448107996264155e-17 3.355490472336475e-24
1.3004222497298317 5.08098200949449e-25 1.7538864857749556e-17 1.7538858896516658e-17 5.961232899767484e-24
1.3400274889804893 5.241792585351998e-25 1.8645025114546755e-17 1.8645014717064355e-17 1.0397482400487259e-23
1.3808389325824078 5.392163947668095e-25 1.9764031838555302e-17 1.9764014025685878e-17 1.78128694208451e-23
1.4228933163050095 5.532944637470109e-25 2.089768108066187e-17 2.0897651091338448e-17 2.9989323423405633e-23
1.466228494730424 5.667356386668255e-25 2.2057262521744712e-17 2.2057212880486915e-17 4.9641257794578213e-23
1.5108834753276823 5.79334481975545e-25 2.3234310174331035e-17 2.323422934797746e-17 8.082635357550158e-23
1.5568984535646726 5.90928557873057e-25 2.4421070592003864e-17 2.4420941008114318e-17 1.2958388954728567e-22
1.6043148490894465 6.015574886475183e-25 2.561746631827926e-17 2.561726137292469e-17 2.049453545712495e-22
1.6531753430134553 6.112698875465173e-25 2.682386497472697e-17 2.682354559289852e-17 3.1938182844793197e-22
1.7035239163302658 6.201700622133599e-25 2.804325788027395e-17 2.804276734448621e-17 4.905357877474033e-22
1.755405889504358 6.287570834486196e-25 2.92974535871877e-17 2.9296710676283475e-17 7.429109042253725e-22
1.8088679632656115 6.369364599434238e-25 3.0582459543553146e-17 3.058134969920559e-17 1.1098443475519268e-21
1.8639582606462262 6.446462015941355e-25 3.1895325906061836e-17 3.189368977126231e-17 1.6361347995246834e-21
1.9207263702978936 6.519611619624577e-25 3.323966645223046e-17 3.323728538656802e-17 2.381065662450541e-21
1.979223391128241 6.590309001348603e-25 3.462342493858218e-17 3.4620002888357064e-17 3.422050225118618e-21
2.039501978296691 6.660258395279925e-25 3.605658925696983e-17 3.605173056987843e-17 4.858687091403178e-21
2.1016163906111602 6.734095384166457e-25 3.756662187668455e-17 3.7559804013762e-17 6.817862922547364e-21
2.1656225393682647 6.814495093645367e-25 3.9172913996766596e-17 3.916345546291477e-17 9.458533851811387e-21
2.231578038680979 6.901565403495387e-25 4.088171627453499e-17 4.086873908193211e-17 1.297719260286941e-20
2.299542257339062 6.996814608710387e-25 4.270819279619641e-17 4.269057904272184e-17 1.7613753474561514e-20
2.369576372248914 7.103553633860412e-25 4.4680271930139343e-17 4.4656613941311996e-17 2.3657988827343367e-20
2.4417434235010123 7.225671735284737e-25 4.683253725426327e-17 4.6801082281815107e-17 3.145497244815949e-20
2.5161083711144245 7.36990965781394e-25 4.9222190839878945e-17 4.918077879538818e-17 4.141204449077123e-20
2.5927381535095444 7.547312682662154e-25 5.194221131024104e-17 5.188820725033832e-17 5.4004059902723235e-20
2.6717017477616296 7.77073237080477e-25 5.510859762171418e-17 5.5038822568618634e-17 6.977505309553665e-20
2.753070231689431 8.05949154194898e-25 5.889716185247748e-17 5.880782016884093e-17 8.934168363654773e-20
2.836916847834745 8.457980327114585e-25 6.369168084235166e-17 6.357828203936153e-17 1.1339880299012958e-19
2.9233170693905177 9.064054196292909e-25 7.033441006225971e-17 7.019171620314134e-17 1.4269385911834856e-19
2.967498994190263 9.541589873944103e-25 7.515895945224594e-17 7.499967802860037e-17 1.5928142364557994e-19
3.0123486681368425 1.009029380694855e-24 8.068233965875252e-17 8.050477914387085e-17 1.7756051488170387e-19
3.0578761833420214 1.1250782231735877e-24 9.132129218447904e-17 9.11235620889444e-17 1.9773009553460288e-19
3.1040917844459814 1.2726612005338861e-24 1.0486167520366727e-16 1.0464190789672282e-16 2.1976730694446797e-19
3.127460860933648 1.42578205515803e-24 1.183625902772162e-16 1.1813098867848735e-16 2.3160159872885774e-19
3.1510058709225794 1.6286002275865128e-24 1.36217572495177e-16 1.3597360961985284e-16 2.4396287532416043e-19
3.162844764501044 1.8165246064231675e-24 1.5250658457023414e-16 1.5225621480394672e-16 2.503697662873996e-19
3.1747281389236908 2.034433532543355e-24 1.7144289035797825e-16 1.7118597648168042e-16 2.5691387629787246e-19
3.1986289994194426 2.6402603138853244e-24 2.2417132108130373e-16 2.2390086585765593e-16 2.704552236477805e-19
3.2227097969389145 4.064883340910735e-24 3.4772724408056293e-16 3.474424130312241e-16 2.848310493388501e-19
3.2348180950136065 5.41420369737381e-24 4.648939430814247e-16 4.6460143332942e-16 2.925097520047384e-19
3.240889293275058 6.422841609088817e-24 5.525363332730538e-16 5.522397730499168e-16 2.965602231368761e-19
3.2469718861334385 7.589900957110129e-24 6.541601284966593e-16 6.538593770544453e-16 3.0075144221444933e-19
3.2714166318528037 1.3805841208145308e-23 1.198859155506437e-15 1.1985410616660491e-15 3.1809384038801213e-19
3.2744851364798273 1.419461806774962e-23 1.2337755741965478e-15 1.23345543036938e-15 3.2014382716740605e-19
3.2775565192852394 1.4594491642735085e-23 1.2697218546007546e-15 1.2693996499543105e-15 3.222046464445037e-19
3.283707930232385 1.4210928086694597e-23 1.2386722168821845e-15 1.2383463142608032e-15 3.259026213813919e-19
3.2898708863219004 1.2992805057206744e-23 1.134622024348938e-15 1.1342927447649084e-15 3.29279584029656e-19
3.29141343181113 1.2705480122902189e-23 1.1100510481849839e-15 1.1097209203187598e-15 3.301278662243032e-19
3.292184975758714 1.256428968182608e-23 1.0979728533521775e-15 1.097642300737568e-15 3.30552614609391e-19
3.295272960557952 1.1673928253080759e-23 1.0211225043820169e-15 1.020790297391525e-15 3.322069904919715e-19
3.3076538914384823 8.587143021277846e-24 7.539424361599917e-16 7.536035783850354e-16 3.38857774956273e-19
3.310756385682612 7.958271244949302e-24 6.993835218912881e-16 6.990429864838883e-16 3.4053540739976384e-19
3.313861789986515 7.377792322857273e-24 6.489784123956241e-16 6.486361933629463e-16 3.422190326776051e-19
3.3200813396944477 6.564151892349583e-24 5.784912291354908e-16 5.781453941183008e-16 3.4583501718995886e-19
3.345076488085796 5.1163387424164146e-24 4.542916728700229e-16 4.539297369499995e-16 3.619359200234245e-19
3.3482140837626964 5.1713082612868795e-24 4.596032369366567e-16 4.592391203962138e-16 3.6411654044278754e-19
3.3513546224236106 5.226874854735957e-24 4.64977480688627e-16 4.646111730414103e-16 3.663076472168175e-19
3.3576445397418455 5.6303587626544856e-24 5.018110483995569e-16 5.014401616890163e-16 3.7088671054065526e-19
3.3702598118196083 7.115442149757232e-24 6.365532016867448e-16 6.361727087834665e-16 3.804929032784862e-19
3.382922481734668 7.456021216954994e-24 6.695278000687694e-16 6.691379468686843e-16 3.898532000850943e-19
3.389271646505754 7.632382295324728e-24 6.866507945998253e-16 6.862561923733311e-16 3.946022264940215e-19
3.395632727569191 7.822800820432156e-24 7.051027628497463e-16 7.047032662738807e-16 3.9949657586545164e-19
3.421196662673239 8.737923562264824e-24 7.935160474668793e-16 7.930962642882396e-16 4.1978317863951537e-19
3.4276182099114902 8.556469199549435e-24 7.78496144136237e-16 7.780718082708187e-16 4.2433586541847777e-19
3.4340518103208963 7.756658429359442e-24 7.070513300779457e-16 7.06622675836261e-16 4.2865424168445823e-19
3.4469541582030403 6.616920962535648e-24 6.054257491713e-16 6.049887811912024e-16 4.369679800978847e-19
3.472904465399547 6.299482933000245e-24 5.807205214439119e-16 5.802644377030498e-16 4.5608374086199e-19
3.4990501388274233 5.813377595111472e-24 5.399432685497234e-16 5.39467564945875e-16 4.757036038482608e-19
3.5253949054701885 4.078642708937947e-24 3.8167425645141465e-16 3.811793996418345e-16 4.948568095803233e-19
3.5519380250092896 2.4457378016616074e-24 2.3059225091548226e-16 2.3007806787329326e-16 5.141830421890194e-19
3.578680990867387 1.8001351143236444e-24 1.7100055621822534e-16 1.7046517794269478e-16 5.353782755306186e-19
3.605625307711299 1.5411513126595232e-24 1.4750111624615926e-16 1.4694336819743352e-16 5.577480487257469e-19
3.660119384959845 1.3566466808927974e-24 1.318048651208696e-16 1.3119991092966144e-16 6.04954191208165e-19
3.715437065384467 1.2274719014193602e-24 1.210572772162714e-16 1.2040225199956423e-16 6.550252167071579e-19
3.8285932144167436 1.1718430974196098e-24 1.1909077583683995e-16 1.1832705595369446e-16 7.637198831454679e-19
3.94519561050918 1.171740809791562e-24 1.2270705420452564e-16 1.2182315972487657e-16 8.838944796490803e-19
4.06534921144712 1.194393699234612e-24 1.288886853495417e-16 1.278728498886931e-16 1.015835460848605e-18
4.189162171576248 1.2301846256263028e-24 1.3679395348819866e-16 1.3563373180409555e-16 1.1602216841030901e-18
4.316745939156006 1.275481844569765e-24 1.4615046563202745e-16 1.4483343728965342e-16 1.3170283423740145e-18
4.448215356677963 1.3290259264436547e-24 1.5692375485015834e-16 1.5543906820386298e-16 1.4846866462953984e-18
4.58368876423945 1.3909154970694325e-24 1.6923309614612822e-16 1.675692010403983e-16 1.6638951057299268e-18
4.723288106065518 1.462254675961764e-24 1.8333141433572883e-16 1.8147515588491535e-16 1.856258450813481e-18
4.867139040275056 1.5452370391814603e-24 1.9963574077089275e-16 1.975780229125875e-16 2.0577178583052317e-18
4.940699165968905 1.5939851670571314e-24 2.090461240848659e-16 2.0688353666941772e-16 2.1625874154482017e-18
5.015371051989984 1.644090122613047e-24 2.188759893528686e-16 2.166059796357611e-16 2.2700097171075402e-18
5.091171501069577 1.7040004779078066e-24 2.302803454071798e-16 2.2789819344727763e-16 2.382151959902164e-18
5.129500256944802 1.734586309852268e-24 2.3617852357885815e-16 2.337393786468176e-16 2.4391449320406418e-18
5.168117569889187 1.766317615344e-24 2.4230959855558396e-16 2.3981237529793374e-16 2.4972232576502066e-18
5.20702561229733 1.804764420617234e-24 2.49447793992572e-16 2.4688762243163385e-16 2.560171560938191e-18
5.246226572918644 1.8440438285786942e-24 2.5679568087365743e-16 2.541717517034005e-16 2.623929170256955e-18
5.265937586045735 1.864004006740459e-24 2.605505426265757e-16 2.57894434539749e-16 2.656108086826757e-18
5.285722656980489 1.884182385944116e-24 2.643606094702811e-16 2.6167212425373007e-16 2.6884852165509694e-18
5.305582063971359 1.904582478367363e-24 2.682268528838579e-16 2.655057937572797e-16 2.721059126578062e-18
5.3255160863122235 1.926415419891677e-24 2.7232096651001534e-16 2.695669190441814e-16 2.7540474658338973e-18
5.365609099470188 1.98032663343574e-24 2.8204947211831474e-16 2.7922715868900816e-16 2.822313429306639e-18
5.406003951863644 2.036070102130588e-24 2.9217194966994145e-16 2.8928049592645466e-16 2.891453743486756e-18
5.446702915881641 2.0937346711365792e-24 3.027086042949747e-16 2.997471462732327e-16 2.9614580217420586e-18
5.487708281020852 2.1557774460352638e-24 3.1402510814533106e-16 3.1099253570480057e-16 3.0325724405304625e-18
5.529022354014368 2.2414306696420757e-24 3.289599969682827e-16 3.2585320046668526e-16 3.1067965015974708e-18
5.570647458961463 2.3317661235204024e-24 3.447943148381522e-16 3.4161233765776387e-16 3.1819771803882918e-18
5.612585937458331 2.4271211288587003e-24 3.6159622492716357e-16 3.5833811999846425e-16 3.2581049286994244e-18
5.654840148729818 2.531555906035606e-24 3.7999448052530905e-16 3.7665898709490758e-16 3.3354934304014206e-18
5.67608639626678 2.602535330151903e-24 3.921164518866869e-16 3.8874050380444327e-16 3.3759480822436373e-18
5.686739436050992 2.6390661494961775e-24 3.9836670982968523e-16 3.949704338570339e-16 3.396275972651192e-18
5.6974124697621304 2.6763131388658927e-24 4.0474735654395615e-16 4.0133068580436304e-16 3.4166707395929596e-18
5.718818669136295 2.7530244743375708e-24 4.1791295252455145e-16 4.144552921309344e-16 3.4576603936171416e-18
5.740305295436557 2.8374706932615547e-24 4.323503435788208e-16 4.288511552298646e-16 3.499188348956101e-18
5.7835210386641895 3.056259409955326e-24 4.691934778135586e-16 4.656083019485589e-16 3.5851758649997336e-18
5.827062130521658 3.3074222596532023e-24 5.115743095312468e-16 5.079013078663433e-16 3.6730016649033785e-18
5.8489554468988025 3.48370355108934e-24 5.408650733010999e-16 5.371448134630812e-16 3.7202598380187596e-18
5.870931020387893 3.6724611414883435e-24 5.723130118893645e-16 5.68545124197353e-16 3.767887692011531e-18
5.892989160043636 3.874693730658528e-24 6.060974478916417e-16 6.022815627723743e-16 3.815885119267332e-18
5.915130176081913 4.1044676740364474e-24 6.444520052647536e-16 6.405864072008784e-16 3.865598063875172e-18
5.95966208400165 4.746999141703829e-24 7.509486172652129e-16 7.469707588650414e-16 3.977858400171364e-18
6.004529249263818 5.671832521314903e-24 9.040070059192898e-16 8.999033339308626e-16 4.103671988427302e-18
6.027089341400364 6.314541476358543e-24 1.0102267926961795e-15 1.0060509382882062e-15 4.175854407973323e-18
6.049734195844842 7.073016001191134e-24 1.1358222378488238e-15 1.1315700131818178e-15 4.252224667005948e-18
6.095279466722835 9.263397009516063e-24 1.4987642769005538e-15 1.494326121360825e-15 4.438155539728687e-18
6.141167624020661 1.2630536223884078e-23 2.0589328057883576e-15 2.0542555387037382e-15 4.67726708461897e-18
6.164241091010745 1.4781058411549368e-23 2.418547283648535e-15 2.413721017881292e-15 4.826265767242751e-18
6.187401249150058 1.7226995301909296e-23 2.829353743017873e-15 2.824374167973222e-15 4.979575044651303e-18
6.1990139391386085 1.842108699347712e-23 3.0311490996658943e-15 3.0260914506077483e-15 5.057649058144282e-18
6.204828454712694 1.904975548171787e-23 3.13753527774655e-15 3.1324381615570387e-15 5.09711618951271e-18
6.210648424152782 1.950862372127961e-23 3.216125669808884e-15 3.2109946717392187e-15 5.1309980696655246e-18
6.233982942956859 2.1066235730169365e-23 3.4859566517869484e-15 3.4807064295198266e-15 5.2502222671216785e-18
6.239830258556775 2.126463096048718e-23 3.5220868340810017e-15 3.516819248111317e-15 5.2675859696842745e-18
6.245683058788269 2.1280791116777673e-23 3.528069597966073e-15 3.52278460827382e-15 5.284989692252662e-18
6.257405133728602 2.123560563333342e-23 3.5271859725548944e-15 3.521870036965549e-15 5.315935589346101e-18
6.269149208991335 2.0926351123665704e-23 3.482343015843256e-15 3.4770133826763777e-15 5.329633166879369e-18
6.280915325867298 2.0154350892065585e-23 3.360169513243263e-15 3.3548475504847047e-15 5.321962758558826e-18
6.304513850009849 1.8251948775669793e-23 3.054430709026483e-15 3.0491434657396907e-15 5.2872432867922176e-18
6.32820103803542 1.589669140670373e-23 2.6702777946601205e-15 2.665045890479828e-15 5.231904180292208e-18
6.3519772230701035 1.3737500327023836e-23 2.316253459333804e-15 2.3110703602184737e-15 5.183099115331365e-18
6.375842739491607 1.1919976759093986e-23 2.017355507604787e-15 2.0122145506609424e-15 5.14095694384418e-18
6.399797922933955 1.0465135566266868e-23 1.7777903839164605e-15 1.7726669361913926e-15 5.123447725068283e-18
6.42384311029221 9.254669236778817e-24 1.5780663538440664e-15 1.5729555178719925e-15 5.110835972074059e-18
6.447978639727206 8.37328855879523e-24 1.4331415296863986e-15 1.4280239914675733e-15 5.1175382188252094e-18
6.472204850670314 7.63858947250393e-24 1.3123052239128078e-15 1.3071770994506538e-15 5.128124462154033e-18
6.496522083828205 7.161422996233741e-24 1.2349508649610905e-15 1.229796408280693e-15 5.154456680397341e-18
