Dust emission spectrum from A.P. Jones, M. Kohler, N. Ysard, M. Bocchio, and L. Verstraete (2017), A&A, 602A, 46J 
inside the DustPedia framework.

lambda    nu*dP/dnu     j_nu    j_nu(carb.) j_nu(sil)
 (um)   (erg s-1 H-1) (Jy cm2 sr-1 H-1)
0.9927057738263894 1.7644562173146833e-23 4.649442351736587e-16 4.649442255914085e-16 9.582250227963262e-24
1.0001793341362166 1.7941579614619657e-23 4.763300565703797e-16 4.763300450360002e-16 1.1534379553489237e-23
1.0077091589558085 1.823951803904815e-23 4.878855968343429e-16 4.878855829684907e-16 1.3865852103712578e-23
1.0114953028030835 1.8388814726933794e-23 4.937271850914429e-16 4.937271698962245e-16 1.5195218404015467e-23
1.0152956718711033 1.8538320391759368e-23 4.996114139199229e-16 4.996113972734079e-16 1.6646515057915875e-23
1.0229392996569957 1.8837785877955687e-23 5.115041398185729e-16 5.115041198599991e-16 1.9958573849279183e-23
1.0267826658714554 1.8987402545556383e-23 5.17503771452658e-16 5.175037496086625e-16 2.184399555442979e-23
1.0306404723013447 1.9137193739295715e-23 5.235460404752259e-16 5.235460165756269e-16 2.3899599027049453e-23
1.03451277320114 1.928715304283924e-23 5.296310243302779e-16 5.29630998190306e-16 2.613997199361746e-23
1.0383996230291617 1.9437274165725342e-23 5.357588026547756e-16 5.357587740738943e-16 2.8580881298235205e-23
1.0403485208654093 1.9512393478923396e-23 5.388387652644192e-16 5.388387353826107e-16 2.988180842998153e-23
1.0423010764483396 1.958755094682723e-23 5.419294574217073e-16 5.419294261823455e-16 3.123936199380122e-23
1.0462171883269815 1.9737977357790937e-23 5.481430730852289e-16 5.481430389514162e-16 3.41338126539769e-23
1.0471985131304309 1.977560664666842e-23 5.497031997863086e-16 5.497031648897188e-16 3.489658971548033e-23
1.048180758391296 1.981324482775576e-23 5.5126601835976e-16 5.512659826840859e-16 3.5675674054220763e-23
1.0501480137395462 1.9888547506447712e-23 5.543997367278517e-16 5.543996994437543e-16 3.728409730091564e-23
1.0521189612883777 1.996388467918009e-23 5.575442395099794e-16 5.575442005481671e-16 3.896181224820446e-23
1.0531058218030118 2.0001514865804717e-23 5.59119109808399e-16 5.591190699808055e-16 3.98275935677994e-23
1.0540936079674168 2.003898595092238e-23 5.606919922879961e-16 5.60691951576031e-16 4.0711964835364415e-23
1.058054026499678 2.018894530978479e-23 5.67010248777531e-16 5.670102043364755e-16 4.444105553197973e-23
1.0590464539527713 2.0226453481376478e-23 5.6859650179613575e-16 5.685964563729562e-16 4.5423179538322744e-23
1.06003981227728 2.026396881868675e-23 5.701854333188173e-16 5.701853868927673e-16 4.6426050148055015e-23
1.0620293250338977 2.0339020661147497e-23 5.733713378708754e-16 5.733712893751705e-16 4.84957048983806e-23
1.0660195594769086 2.0489206745876736e-23 5.797753557064705e-16 5.797753028036362e-16 5.2902834208274405e-23
1.070024785945596 2.0639498459510453e-23 5.862224018615699e-16 5.862223441701121e-16 5.769145779119305e-23
1.0740450607676866 2.0789890855465704e-23 5.927125795115536e-16 5.927125166187192e-16 6.289283460410213e-23
1.07808044048254 2.094037914821086e-23 5.992459955910991e-16 5.992459270504692e-16 6.854062989865745e-23
1.0861967418109137 2.1241389390511983e-23 6.124361943561074e-16 6.124361130328841e-16 8.13232235467076e-23
1.0902777775684922 2.1391366603762484e-23 6.190776480287062e-16 6.190775594896892e-16 8.85390171870123e-23
1.0943741465085532 2.154141289058808e-23 6.257623691096449e-16 6.257622727460649e-16 9.636357995428049e-23
1.1026131145906286 2.184169731877027e-23 6.392621206214386e-16 6.392620065847212e-16 1.1403671730809823e-22
1.1109141095355224 2.2142213768498303e-23 6.529365122159888e-16 6.529363774401742e-16 1.3477581461399875e-22
1.1192775983109025 2.244269449562321e-23 6.667795050486564e-16 6.667793459681798e-16 1.5908047646116893e-22
1.1277040513999907 2.2742005074681133e-23 6.807588968356156e-16 6.807587093094948e-16 1.8752612056182277e-22
1.1361939428280308 2.3041443218066853e-23 6.949148311910447e-16 6.949146104164921e-16 2.2077455246074653e-22
1.1447477501889525 2.3340992857344115e-23 7.092487146865205e-16 7.092484551005943e-16 2.5958592595361496e-22
1.1533659546722406 2.3640756586651625e-23 7.237655908064965e-16 7.237652859738869e-16 3.0483260988090077e-22
1.1707974979042381 2.42418369995948e-23 7.533846120033055e-16 7.53384193226677e-16 4.187766284447538e-22
1.1884924949847024 2.4843638451308196e-23 7.83756358127242e-16 7.83755785690561e-16 5.724366810066371e-22
1.2064549276569216 2.5450306896610953e-23 8.150299317209848e-16 8.150291530973895e-16 7.786235954480997e-22
1.2246888378427687 2.605751584348849e-23 8.470873634295375e-16 8.470863095315695e-16 1.0538979681654534e-21
1.2431983285522175 2.666463305773752e-23 8.799246055945903e-16 8.799231860020654e-16 1.4195925250358394e-21
1.2619875648066055 2.727238033155595e-23 9.135820402886805e-16 9.135801372414957e-16 1.903047184865488e-21
1.3004222497298317 2.848515544119281e-23 9.832691609643691e-16 9.832657890731737e-16 3.3718911956267665e-21
1.3400274889804893 2.969838628306892e-23 1.0563698374039095e-15 1.056363972303098e-15 5.8651008112798296e-21
1.3808389325824078 3.091548042634139e-23 1.1331527479142859e-15 1.1331427281277777e-15 1.0019786508024459e-20
1.4228933163050095 3.214627502376247e-23 1.2141502353527995e-15 1.214133414924178e-15 1.682042862157171e-20
1.466228494730424 3.341317700415788e-23 1.3004356292114279e-15 1.3004078686595734e-15 2.776055185452764e-20
1.5108834753276823 3.4711880145228297e-23 1.3921259913240963e-15 1.3920809280575357e-15 4.5063266560590144e-20
1.5568984535646726 3.603984547633107e-23 1.4894044276185781e-15 1.4893324035948721e-15 7.202402370542563e-20
1.6043148490894465 3.740482425863191e-23 1.592893187550564e-15 1.5927796341411295e-15 1.1355340943434414e-19
1.6531753430134553 3.8815095088848924e-23 1.7032916079400992e-15 1.7031152156042117e-15 1.7639233588750125e-19
1.7035239163302658 4.02808374254816e-23 1.8214454072882146e-15 1.821175373645757e-15 2.700336424574596e-19
1.755405889504358 4.183307864767034e-23 1.9492467160243892e-15 1.9488391188057586e-15 4.075972186308533e-19
1.8088679632656115 4.347083433921572e-23 2.087249068174955e-15 2.086642230336889e-15 6.068378380659507e-19
1.8639582606462262 4.519266051614585e-23 2.236008886983253e-15 2.2351174024662182e-15 8.91484517035063e-19
1.9207263702978936 4.7003804604358894e-23 2.3964476385859816e-15 2.395154880912173e-15 1.2927576738085753e-18
1.979223391128241 4.8912461662680407e-23 2.5697079523775625e-15 2.56785677094422e-15 1.851181433342849e-18
2.039501978296691 5.092577127469106e-23 2.756964532708275e-15 2.7543459709857636e-15 2.6185617225110204e-18
2.1016163906111602 5.306705160278575e-23 2.960382572482852e-15 2.9567221061397076e-15 3.660466343143947e-18
2.1656225393682647 5.534681986849747e-23 3.181594798894155e-15 3.176536347040855e-15 5.058451853300335e-18
2.231578038680979 5.775750762141936e-23 3.4212905351984126e-15 3.414377958976811e-15 6.912576221602108e-18
2.299542257339062 6.029969696844318e-23 3.680662169431347e-15 3.6713181345300355e-15 9.34403490131166e-18
2.369576372248914 6.298050229687389e-23 3.961377803227531e-15 3.948879826400334e-15 1.249797682719573e-17
2.4417434235010123 6.580874529653318e-23 4.26533425356994e-15 4.248788579577455e-15 1.6545673992484023e-17
2.5161083711144245 6.880627864327969e-23 4.595437306033397e-15 4.573749942336874e-15 2.1687363696524097e-17
2.5927381535095444 7.201277995709102e-23 4.956072698779098e-15 4.927918665829003e-15 2.815403295009498e-17
2.6717017477616296 7.546505938479238e-23 5.3518425209959836e-15 5.3156352876288464e-15 3.620723336713677e-17
2.753070231689431 7.922050553864863e-23 5.7892770436688846e-15 5.743137379453837e-15 4.6139664215047495e-17
2.836916847834745 8.343667193753316e-23 6.283086119929876e-15 6.224809354040995e-15 5.827676588888106e-17
2.9233170693905177 8.846796289233328e-23 6.864855223380071e-15 6.791894082536574e-15 7.29611408434989e-17
2.967498994190263 9.163892396001733e-23 7.218384211803672e-15 7.137164043538366e-15 8.122016826530675e-17
3.0123486681368425 9.506806541086664e-23 7.601675521973386e-15 7.511380575912535e-15 9.029494606085158e-17
3.0578761833420214 1.0085210140789229e-22 8.186047894616341e-15 8.085766869209562e-15 1.0028102540678046e-16
3.1040917844459814 1.077209796825329e-22 8.875734075456982e-15 8.764581590841015e-15 1.1115248461596623e-16
3.127460860933648 1.1416424331321767e-22 9.477448188315906e-15 9.36047311847584e-15 1.1697506984006985e-16
3.1510058709225794 1.2240411522045476e-22 1.023798913712517e-14 1.0114943577074789e-14 1.2304556005038544e-16
3.162844764501044 1.298529484800858e-22 1.090182296405357e-14 1.0775635425717092e-14 1.2618753833647718e-16
3.1747281389236908 1.3832481177142597e-22 1.165671188513562e-14 1.152731814477881e-14 1.2939374035680877e-16
3.1986289994194426 1.613739202841967e-22 1.3701453871017278e-14 1.3565435126539997e-14 1.3601874447728027e-16
3.2227097969389145 2.1478537875335383e-22 1.8373646070238782e-14 1.8230605898880966e-14 1.4304017135781135e-16
3.2348180950136065 2.6496170400841823e-22 2.27511002960224e-14 2.2604312755754713e-14 1.4678754026769784e-16
3.240889293275058 3.024368017601211e-22 2.6017661910718298e-14 2.5868897721722677e-14 1.4876418899562443e-16
3.2469718861334385 3.4585037420252803e-22 2.98082315576204e-14 2.9657422106307357e-14 1.5080945131305417e-16
3.2714166318528037 5.744978899902185e-22 4.988772830644702e-14 4.9728465675506823e-14 1.5926263094018804e-16
3.2744851364798273 5.888138608580605e-22 5.117884509521089e-14 5.101858592701711e-14 1.6025916819377865e-16
3.2775565192852394 6.035190551116689e-22 5.250620252502844e-14 5.2344941806740666e-14 1.6126071828778532e-16
3.283707930232385 5.895129706893149e-22 5.138393029855805e-14 5.1220877760982215e-14 1.6305253757582641e-16
3.2898708863219004 5.448279426626623e-22 4.7578161952248596e-14 4.7413478091142744e-14 1.6468386110584799e-16
3.29141343181113 5.342722727258762e-22 4.6678243609739564e-14 4.651315009766792e-14 1.6509351207164916e-16
3.292184975758714 5.290829229504538e-22 4.623569666752462e-14 4.6070398056609375e-14 1.652986109152547e-16
3.295272960557952 4.96614266877001e-22 4.3439020089185265e-14 4.327292355658812e-14 1.660965325971341e-16
3.3076538914384823 3.834618672752224e-22 3.366756250263532e-14 3.34982607981885e-14 1.6930170444682973e-16
3.310756385682612 3.6024525468687355e-22 3.165883484147753e-14 3.1488725179074874e-14 1.701096624026516e-16
3.313861789986515 3.3875123689264776e-22 2.9797835218883464e-14 2.962691492732867e-14 1.709202915547876e-16
3.3200813396944477 3.0872083074836302e-22 2.7207215154100395e-14 2.703455159454447e-14 1.7266355955593105e-16
3.345076488085796 2.5614588741476784e-22 2.2743791908796293e-14 2.2563360501522575e-14 1.804314072737247e-16
3.3482140837626964 2.58284085239385e-22 2.2955158661476535e-14 2.2773675016170826e-14 1.8148364530570838e-16
3.3513546224236106 2.6044255933768463e-22 2.3168705674138896e-14 2.2986165013501258e-14 1.8254066063763648e-16
3.3576445397418455 2.755765347294739e-22 2.456101922388288e-14 2.4376268718852336e-14 1.8475050503054097e-16
3.3702598118196083 3.305292681797177e-22 2.95694152918037e-14 2.9380029485405595e-14 1.8938580639809608e-16
3.382922481734668 3.4362812213664976e-22 3.085674972768821e-14 3.066285659942015e-14 1.938931282680672e-16
3.389271646505754 3.5038776655210617e-22 3.152279707850058e-14 3.132661898560083e-14 1.9617809289974665e-16
3.395632727569191 3.577880795022833e-22 3.224898206699171e-14 3.2050449168396504e-14 1.985328985952122e-16
3.421196662673239 3.935779526957834e-22 3.574194935075803e-14 3.5533666587066156e-14 2.0828276369187483e-16
3.4276182099114902 3.870949242712763e-22 3.5219189005643335e-14 3.5008728329501605e-14 2.104606761417315e-16
3.4340518103208963 3.576105285700171e-22 3.259767104327533e-14 3.238514943780597e-14 2.1252160546935519e-16
3.4469541582030403 3.15399905815551e-22 2.885801800385472e-14 2.8641538669218454e-14 2.1647933463626274e-16
3.472904465399547 3.0391015127124074e-22 2.8016086938468453e-14 2.779049377228961e-14 2.255931661788357e-16
3.4990501388274233 2.863358748071866e-22 2.659471634466781e-14 2.6359792329601586e-14 2.349240150662271e-16
3.5253949054701885 2.231948148191099e-22 2.0886290138436104e-14 2.064229394785728e-14 2.439961905788205e-16
3.5519380250092896 1.6321583438513747e-22 1.5388528815455083e-14 1.5135408408036403e-14 2.531204074186763e-16
3.578680990867387 1.3990359529233311e-22 1.3289887198776826e-14 1.302676557162387e-14 2.631216271529539e-16
3.605625307711299 1.310144279013955e-22 1.2539180417307337e-14 1.226552222839148e-14 2.73658188915856e-16
3.660119384959845 1.2561705911766005e-22 1.2204312122731549e-14 1.1908502576030346e-14 2.9580954670119984e-16
3.715437065384467 1.2213185885065462e-22 1.2045041745335244e-14 1.1725859069316787e-14 3.191826760184598e-16
3.8285932144167436 1.2270333872368232e-22 1.2469959364484252e-14 1.210046911570732e-14 3.694902487769325e-16
3.94519561050918 1.25220756193072e-22 1.311336943231353e-14 1.2688912503933364e-14 4.2445692838016634e-16
4.06534921144712 1.2845811164633348e-22 1.386209349830835e-14 1.3378051037147041e-14 4.8404246116131e-16
4.189162171576248 1.3205084546841662e-22 1.4683777407710167e-14 1.4135399069573924e-14 5.483783381362431e-16
4.316745939156006 1.3584562939261782e-22 1.5565805247901346e-14 1.4948557251620296e-14 6.172479962810509e-16
4.448215356677963 1.397732516140089e-22 1.6503623469241733e-14 1.5813901155710912e-14 6.89722313530815e-16
4.58368876423945 1.4382078083409374e-22 1.7498716551788077e-14 1.6732811835765912e-14 7.659047160221678e-16
4.723288106065518 1.4801371926099155e-22 1.8557344995570833e-14 1.7711061814399118e-14 8.462831811717182e-16
4.867139040275056 1.5239453884601686e-22 1.9688498191888397e-14 1.8759727332735e-14 9.287708591534003e-16
4.940699165968905 1.5475927587323492e-22 2.0296190614627416e-14 1.932513394745644e-14 9.71056667170973e-16
5.015371051989984 1.5709625240565697e-22 2.091405890467045e-14 1.9900149213194955e-14 1.013909691475502e-15
5.091171501069577 1.5973240487601567e-22 2.1586398504260572e-14 2.0528153845350237e-14 1.0582446589103302e-15
5.129500256944802 1.6103838535686522e-22 2.1926731392424587e-14 2.084614806121785e-14 1.0805833312067336e-15
5.168117569889187 1.62365363103116e-22 2.2273845661209385e-14 2.1170598254971355e-14 1.103247406238029e-15
5.20702561229733 1.6393713914097458e-22 2.2658778755281356e-14 2.1530813492114158e-14 1.127965263167202e-15
5.246226572918644 1.6551035714627134e-22 2.304844613578293e-14 2.1895583321858544e-14 1.152862813924385e-15
5.265937586045735 1.6629761920909377e-22 2.3245086794746407e-14 2.207971080157219e-14 1.1653759931742096e-15
5.285722656980489 1.6708538130044575e-22 2.3442949877714343e-14 2.2265019385523588e-14 1.1779304921907581e-15
5.305582063971359 1.67873694962865e-22 2.3642049317009836e-14 2.245152423394081e-14 1.1905250830690288e-15
5.3255160863122235 1.6870957718597362e-22 2.38490382938088e-14 2.264578117078105e-14 1.2032571230277512e-15
5.365609099470188 1.7074890716248184e-22 2.431903824189005e-14 2.3089439091174126e-14 1.22959915071592e-15
5.406003951863644 1.7281429200084066e-22 2.4798502061339045e-14 2.3542375872016912e-14 1.2561261893221275e-15
5.446702915881641 1.7490766916965067e-22 2.52878538740969e-14 2.400502539322952e-14 1.2828284808673777e-15
5.487708281020852 1.7712130316618357e-22 2.580068572657891e-14 2.4490876719681617e-14 1.309809006897298e-15
5.529022354014368 1.8017356535412495e-22 2.644288592790702e-14 2.510494810512651e-14 1.3379378227805004e-15
5.570647458961463 1.833272210851433e-22 2.710828626749339e-14 2.5742025700286086e-14 1.3662605672073112e-15
5.612585937458331 1.865907003401932e-22 2.7798568455154104e-14 2.6403801122219034e-14 1.394767332935072e-15
5.654840148729818 1.9011023670190504e-22 2.853614271991822e-14 2.7112555034260887e-14 1.4235876856573303e-15
5.67608639626678 1.9252751422569373e-22 2.9007562315911515e-14 2.756889425514478e-14 1.438668060766732e-15
5.686739436050992 1.9376223280897748e-22 2.924838514870187e-14 2.780215664915377e-14 1.4462284995481138e-15
5.6974124697621304 1.9501491814759724e-22 2.949272693864361e-14 2.803892470605266e-14 1.4538022325909447e-15
5.718818669136295 1.9757599704498164e-22 2.9992311743947767e-14 2.8523322786962075e-14 1.4689889569856805e-15
5.740305295436557 2.0038630006955907e-22 3.053320899113034e-14 2.9048868711714185e-14 1.4843402794161555e-15
5.7835210386641895 2.0769519272771709e-22 3.188513039293983e-14 3.0369053241434365e-14 1.516077151505469e-15
5.827062130521658 2.1595476234128334e-22 3.340272265274966e-14 3.1854397617266747e-14 1.548325035482917e-15
5.8489554468988025 2.21821954940118e-22 3.443913816402784e-14 3.287339225279061e-14 1.5657459112372333e-15
5.870931020387893 2.28036887427773e-22 3.553706161551744e-14 3.395381191396506e-14 1.583249701552383e-15
5.892989160043636 2.3462699953932224e-22 3.6701436426328256e-14 3.5100601160724486e-14 1.6008352656037676e-15
5.915130176081913 2.42090954380423e-22 3.801126318860518e-14 3.6392196448260786e-14 1.619066740344405e-15
5.95966208400165 2.630825280930807e-22 4.1618179148695853e-14 3.995751490411497e-14 1.6606642445808856e-15
6.004529249263818 2.9316724627858923e-22 4.672656386554757e-14 4.501905786637433e-14 1.7075059991732487e-15
6.027089341400364 3.140820627201459e-22 5.0248163869556185e-14 4.8513565107941644e-14 1.7345987616145281e-15
6.049734195844842 3.3859803577599955e-22 5.437385956168422e-14 5.261055592678593e-14 1.7633036348982902e-15
6.095279466722835 4.0934491787214083e-22 6.622964979340842e-14 6.439569274083955e-14 1.8339570525688755e-15
6.141167624020661 5.174065590205364e-22 8.43436350930994e-14 8.241785880174149e-14 1.9257762913579166e-15
6.164241091010745 5.863349848814306e-22 9.593892707203257e-14 9.39554639476289e-14 1.9834631244036755e-15
6.187401249150058 6.640112281597774e-22 1.0905689708939196e-13 1.0701420125765958e-13 2.0426958317323967e-15
6.1990139391386085 7.017998366406632e-22 1.1547961006493684e-13 1.1340677534225971e-13 2.0728347226771045e-15
6.204828454712694 7.216337630453387e-22 1.188546168658522e-13 1.1676655961229683e-13 2.088057253555348e-15
6.210648424152782 7.360203825879672e-22 1.2133782883728977e-13 1.1923681512888233e-13 2.1010137084074554e-15
6.233982942956859 7.84386508574466e-22 1.297971503860655e-13 1.2765101975679278e-13 2.146130629272728e-15
6.239830258556775 7.90280365307788e-22 1.308951034727722e-13 1.2874275377477328e-13 2.152349697998931e-15
6.245683058788269 7.903411860471382e-22 1.3102796297431877e-13 1.2886938439847951e-13 2.158578575839259e-15
6.257405133728602 7.879765346043719e-22 1.308811167220134e-13 1.2871165977546115e-13 2.1694569465523032e-15
6.269149208991335 7.771704497147644e-22 1.2932852324279898e-13 1.2715518604416387e-13 2.1733371986351445e-15
6.280915325867298 7.516102588090568e-22 1.253098098279777e-13 1.231412453489155e-13 2.168564479062181e-15
6.304513850009849 6.892177577152387e-22 1.1533934870439857e-13 1.1318815813404151e-13 2.1511905703570886e-15
6.32820103803542 6.128800248209146e-22 1.0294971948564619e-13 1.0082423205770335e-13 2.1254874279428833e-15
6.3519772230701035 5.431522009982441e-22 9.157984600969322e-14 8.947741107925831e-14 2.1024349304348935e-15
6.375842739491607 4.8434171650117e-22 8.197074953195279e-14 7.988864905948777e-14 2.0821004724649974e-15
6.399797922933955 4.375730775315356e-22 7.433379191033198e-14 7.226214628424723e-14 2.0716456260847737e-15
6.42384311029221 3.9853520247925255e-22 6.79565069009253e-14 6.589334789898732e-14 2.0631590019379957e-15
6.447978639727206 3.701632602783612e-22 6.335579352652385e-14 6.129341590947633e-14 2.0623776170475274e-15
6.472204850670314 3.4642940149986647e-22 5.951636947393607e-14 5.745324437471635e-14 2.0631250992197335e-15
6.496522083828205 3.3095465868947406e-22 5.70714426764645e-14 5.500132597310983e-14 2.0701167033546716e-15
