Dust emission spectrum from A.P. Jones, M. Kohler, N. Ysard, M. Bocchio, and L. Verstraete (2017), A&A, 602A, 46J 
inside the DustPedia framework.

lambda    nu*dP/dnu     j_nu    j_nu(carb.) j_nu(sil)
 (um)   (erg s-1 H-1) (Jy cm2 sr-1 H-1)
0.9927057738263894 1.1087231246041065e-21 2.921548407548098e-14 2.921548316602363e-14 9.094573551402092e-22
1.0001793341362166 1.1273641176548785e-21 2.9930330855617264e-14 2.9930329761170344e-14 1.0944469132523255e-21
1.0077091589558085 1.1460791407386767e-21 3.065626539043464e-14 3.065626407512478e-14 1.3153098598053073e-21
1.0114953028030835 1.1554635554599056e-21 3.102341163280042e-14 3.102341019159017e-14 1.4412102485475347e-21
1.0152956718711033 1.164865462584504e-21 3.139335541136889e-14 3.1393353832734536e-14 1.5786343558175914e-21
1.0229392996569957 1.1837113045179882e-21 3.2141422380192244e-14 3.2141420488021313e-14 1.8921709303966187e-21
1.0267826658714554 1.1931338315306174e-21 3.251899548573887e-14 3.2518993415130827e-14 2.0706080533461762e-21
1.0306404723013447 1.2025721299398013e-21 3.2899383556066375e-14 3.2899381290950413e-14 2.265115972053283e-21
1.03451277320114 1.2120259093454553e-21 3.3282596060479685e-14 3.328259358341112e-14 2.477068567322077e-21
1.0383996230291617 1.2214948882226505e-21 3.366864269050016e-14 3.3668639982549755e-14 2.7079504115861066e-21
1.0403485208654093 1.22623499196842e-21 3.386273189447516e-14 3.386272906348913e-14 2.830986036681628e-21
1.0423010764483396 1.2309787941453228e-21 3.405753337003364e-14 3.4057530410668535e-14 2.9593650997842435e-21
1.0462171883269815 1.2404773640084043e-21 3.4449278265679977e-14 3.444927503263582e-14 3.2330441591322186e-21
1.0471985131304309 1.2428542677875925e-21 3.4547661676209946e-14 3.454765837105136e-14 3.305158590742658e-21
1.048180758391296 1.2452320683002577e-21 3.464622429053818e-14 3.464622091172694e-14 3.378811242579386e-21
1.0501480137395462 1.2499903442482463e-21 3.484388779718183e-14 3.484388426632526e-14 3.530856574318459e-21
1.0521189612883777 1.2547521616836276e-21 3.504227012936905e-14 3.5042266439932136e-14 3.689436925066836e-21
1.0531058218030118 1.2571312350690122e-21 3.514164310953255e-14 3.5141639338266394e-14 3.771266163119016e-21
1.0540936079674168 1.2595008494786025e-21 3.524090701556062e-14 3.5240903160712056e-14 3.8548485662797744e-21
1.058054026499678 1.2689875616066874e-21 3.563974947485111e-14 3.5639745267607155e-14 4.207243959391712e-21
1.0590464539527713 1.2713612860232985e-21 3.573990766188876e-14 3.5739903361846174e-14 4.30004258509174e-21
1.06003981227728 1.2737358222414707e-21 3.5840245227219016e-14 3.5840240832422135e-14 4.394796900367196e-21
1.0620293250338977 1.2784873169074998e-21 3.604145920095848e-14 3.6041454610628557e-14 4.5903299263472736e-21
1.0660195594769086 1.2879999052671486e-21 3.644604754532228e-14 3.6446042538685305e-14 5.0066369672736626e-21
1.070024785945596 1.2975251272933218e-21 3.685352616924354e-14 3.6853520710351896e-14 5.458891635326822e-21
1.0740450607676866 1.3070627945217721e-21 3.7263907055140015e-14 3.726390110510934e-14 5.950030674087316e-21
1.07808044048254 1.3166127296202758e-21 3.767720251792225e-14 3.767719603470616e-14 6.483216091649503e-21
1.0861967418109137 1.3357341307602578e-21 3.8512166632554636e-14 3.85121589429559e-14 7.689598734123188e-21
1.0902777775684922 1.3452720587589867e-21 3.8932896505488557e-14 3.893288813509012e-14 8.3703984342495e-21
1.0943741465085532 1.3548210869916136e-21 3.93565666941929e-14 3.935655758570977e-14 9.108483124782876e-21
1.1026131145906286 1.3739519928001833e-21 4.021278436977018e-14 4.0212773594718544e-14 1.07750516284061e-20
1.1109141095355224 1.3931260704683213e-21 4.1080936488061144e-14 4.108092375813961e-14 1.2729921532660242e-20
1.1192775983109025 1.4123277274271547e-21 4.1960700540838574e-14 4.196068552092486e-14 1.5019913712927603e-20
1.1277040513999907 1.4314875657164424e-21 4.2850130974420665e-14 4.2850113275495996e-14 1.7698924670253838e-20
1.1361939428280308 1.4506872562542505e-21 4.375177718904626e-14 4.375175636013597e-14 2.0828910292263384e-20
1.1447477501889525 1.4699268907701141e-21 4.466578454197273e-14 4.4665760060978424e-14 2.4480994316554056e-20
1.1533659546722406 1.4892136348113431e-21 4.5592516562896634e-14 4.5592487826141403e-14 2.8736755221925214e-20
1.1707974979042381 1.527986905007608e-21 4.7486575443706264e-14 4.7486535997084036e-14 3.9446622227914344e-20
1.1884924949847024 1.5669547289675693e-21 4.9433609901097754e-14 4.943355602466873e-14 5.387642900125651e-20
1.2064549276569216 1.6063804663524612e-21 5.144331528605315e-14 5.1443242064971773e-14 7.322108136994516e-20
1.2246888378427687 1.6460088394221697e-21 5.3509064192558614e-14 5.350896516910126e-14 9.902345735844567e-20
1.2431983285522175 1.685807699170448e-21 5.563113025365384e-14 5.5630996984962597e-14 1.332686912516225e-19
1.2619875648066055 1.7258351792864587e-21 5.78127763373176e-14 5.781259783936872e-14 1.7849794887487084e-19
1.3004222497298317 1.8063301021626627e-21 6.235207975764485e-14 6.235176405404773e-14 3.1570359710993584e-19
1.3400274889804893 1.8877347916584577e-21 6.714661449678875e-14 6.71460663668013e-14 5.481299874686197e-19
1.3808389325824078 1.9703455877490227e-21 7.221956399539661e-14 7.221862934411939e-14 9.346512772340394e-19
1.4228933163050095 2.0548515875277223e-21 7.761081297188035e-14 7.760924696729876e-14 1.5660045815799732e-18
1.466228494730424 2.1427156754255905e-21 8.339415935355458e-14 8.339157987898892e-14 2.5794745656353005e-18
1.5108834753276823 2.2337487071921907e-21 8.958488046048174e-14 8.958070162036602e-14 4.178840115713304e-18
1.5568984535646726 2.327854513282269e-21 9.620232198863078e-14 9.619565660337153e-14 6.665385259273231e-18
1.6043148490894465 2.425559168733751e-21 1.0329300437724116e-13 1.0328251735053251e-13 1.048702670864197e-17
1.6531753430134553 2.5274105832587086e-21 1.1090832642376543e-13 1.1089207014725505e-13 1.625627651035305e-17
1.7035239163302658 2.634044122189762e-21 1.1910794004302397e-13 1.1908310685004e-13 2.4833192983940246e-17
1.755405889504358 2.7473740032323454e-21 1.2801615196900317e-13 1.2797874924675152e-13 3.740272225163938e-17
1.8088679632656115 2.8673060874496365e-21 1.3767350109962496e-13 1.376179381011373e-13 5.556299848763174e-17
1.8639582606462262 2.993672266786078e-21 1.4811869265491617e-13 1.48037250108805e-13 8.144254611119641e-17
1.9207263702978936 3.12670135797643e-21 1.5941211884774397e-13 1.5929428713133813e-13 1.1783171640587593e-16
1.979223391128241 3.2667812611571268e-21 1.7162648331556984e-13 1.7145814450758283e-13 1.683388079870322e-16
2.039501978296691 3.4141930030398154e-21 1.8483390200276603e-13 1.8459634364611447e-13 2.3755835665158844e-16
2.1016163906111602 3.57022118882291e-21 1.9916728493628082e-13 1.988360031131545e-13 3.3128182312636566e-16
2.1656225393682647 3.735318397669237e-21 2.1472362123921107e-13 2.142669398975294e-13 4.566813416816704e-16
2.231578038680979 3.9087546598463136e-21 2.3153674514143187e-13 2.3091422971420075e-13 6.22515427231088e-16
2.299542257339062 4.0903237502220174e-21 2.4967123625923963e-13 2.488318951251495e-13 8.393411340901589e-16
2.369576372248914 4.280179588723046e-21 2.6921678612011673e-13 2.6809704889660907e-13 1.1197372235075367e-15
2.4417434235010123 4.478571591282073e-21 2.902745634988878e-13 2.8879609942805627e-13 1.4784640708314202e-15
2.5161083711144245 4.6865224620502295e-21 3.1300370521887817e-13 3.1107102685259765e-13 1.9326783662804766e-15
2.5927381535095444 4.906073440550754e-21 3.3764641014285083e-13 3.351443632656274e-13 2.502046877223437e-15
2.6717017477616296 5.1389127771216365e-21 3.644421953218714e-13 3.6123351318030165e-13 3.208682141569586e-15
2.753070231689431 5.3877876627119804e-21 3.937288107393335e-13 3.896516701709696e-13 4.077140568363921e-15
2.836916847834745 5.661056282980874e-21 4.2629821312106566e-13 4.2116370454129367e-13 5.13450857977197e-15
2.9233170693905177 5.977711405617812e-21 4.638529251165824e-13 4.574440120842491e-13 6.408913032333436e-15
2.967498994190263 6.1708747376662455e-21 4.860788718866112e-13 4.789561115253703e-13 7.122760361240896e-15
3.0123486681368425 6.377477271164869e-21 5.099452971366999e-13 5.020394797932007e-13 7.905817343499191e-15
3.0578761833420214 6.71318759035614e-21 5.449016368824905e-13 5.361354364316379e-13 8.766200450852528e-15
3.1040917844459814 7.105569618844362e-21 5.854676273589001e-13 5.757667260357979e-13 9.700901323102138e-15
3.127460860933648 7.465990002102951e-21 6.197959305461717e-13 6.095951939139836e-13 1.0200736632188144e-14
3.1510058709225794 7.922788705736719e-21 6.626690986571975e-13 6.519478108221418e-13 1.0721287835055959e-14
3.162844764501044 8.333771988164336e-21 6.996630257624807e-13 6.88672526680972e-13 1.0990499081508795e-14
3.1747281389236908 8.798554853304122e-21 7.414593059414835e-13 7.301942448140516e-13 1.126506112743188e-14
3.1986289994194426 1.005529044706821e-20 8.537445082672243e-13 8.419125812523637e-13 1.183192701486049e-14
3.2227097969389145 1.295720331279974e-20 1.108413752888151e-12 1.095981618773324e-12 1.2432134114827126e-14
3.2348180950136065 1.567703303243322e-20 1.3461181199740947e-12 1.3333657976886261e-12 1.2752322285468757e-14
3.240889293275058 1.7707980444170026e-20 1.5233604033527938e-12 1.5104391896311817e-12 1.2921213721612265e-14
3.2469718861334385 2.006143032660443e-20 1.7290591688135928e-12 1.715963202677918e-12 1.3095966135674921e-14
3.2714166318528037 3.240848283775202e-20 2.8142585287153125e-12 2.8004407757089335e-12 1.3817753006379626e-14
3.2744851364798273 3.318055948104968e-20 2.8840060106234952e-12 2.8701033019724707e-12 1.3902708651024553e-14
3.2775565192852394 3.3973257736916595e-20 2.9556759410678007e-12 2.9416878618184514e-12 1.3988079249349293e-14
3.283707930232385 3.3214675289699467e-20 2.8951026437628982e-12 2.880962106731889e-12 1.414053703100892e-14
3.2898708863219004 3.0799285700705435e-20 2.6896076510323983e-12 2.675328564205484e-12 1.4279086826914136e-14
3.29141343181113 3.0228472217949114e-20 2.6409979745732267e-12 2.6266841021666258e-12 1.4313872406601315e-14
3.292184975758714 2.9947814401986113e-20 2.617090823540381e-12 2.6027595361021967e-12 1.4331287438184313e-14
3.295272960557952 2.8197220043076425e-20 2.4664204989780157e-12 2.4520215072508277e-12 1.4398991727188346e-14
3.3076538914384823 2.2087192067141042e-20 1.939233031727928e-12 1.924562204886129e-12 1.4670826841799532e-14
3.310756385682612 2.083085523865233e-20 1.830643421466978e-12 1.8159040965183416e-12 1.4739324948635797e-14
3.313861789986515 1.9666692901462083e-20 1.729956412126303e-12 1.715148373063037e-12 1.4808039063266466e-14
3.3200813396944477 1.8041472864286842e-20 1.5899744527301184e-12 1.5750185256592485e-12 1.495592707086998e-14
3.345076488085796 1.5208134963041035e-20 1.3503658419477433e-12 1.3347506256350795e-12 1.561521631266371e-14
3.3482140837626964 1.5324725462850358e-20 1.3619945035221905e-12 1.3462899661102044e-12 1.5704537411985936e-14
3.3513546224236106 1.5442366890245944e-20 1.3737372812723969e-12 1.3579430309679622e-12 1.5794250304434657e-14
3.3576445397418455 1.626233542124366e-20 1.4493960209583747e-12 1.433414167531107e-12 1.5981853427268037e-14
3.3702598118196083 1.9229015670459363e-20 1.720243272687295e-12 1.7038679323918864e-12 1.6375340295408604e-14
3.382922481734668 1.9940991720426857e-20 1.790639796920998e-12 1.7738822967237208e-12 1.6757500197277343e-14
3.389271646505754 2.0307953192016183e-20 1.8270143785297235e-12 1.8100632344923862e-12 1.6951144037337278e-14
3.395632727569191 2.0711463929306017e-20 1.8668135332135147e-12 1.849662827517593e-12 1.715070569592221e-14
3.421196662673239 2.2667010900566315e-20 2.0584566538648013e-12 2.040480185064379e-12 1.7976468800422584e-14
3.4276182099114902 2.2318021168488874e-20 2.0305681022417992e-12 2.0124076815664386e-12 1.8160420675360572e-14
3.4340518103208963 2.0725300998168404e-20 1.889196458819817e-12 1.870862212671421e-12 1.8334246148395577e-14
3.4469541582030403 1.8441208366249917e-20 1.6873078058472805e-12 1.6686402504529496e-12 1.86675553943314e-14
3.472904465399547 1.7816679499804304e-20 1.6424382000186946e-12 1.6230023557962008e-12 1.9435844222494934e-14
3.4990501388274233 1.6867064520235448e-20 1.5666035448227864e-12 1.546382238960915e-12 2.0221305861871168e-14
3.5253949054701885 1.3472492805348491e-20 1.260738937186138e-12 1.2397557432062173e-12 2.098319397992055e-14
3.5519380250092896 1.0241949608493838e-20 9.656448914438064e-13 9.438968885907021e-13 2.1748002853104187e-14
3.578680990867387 8.991222295765867e-21 8.541047843707836e-13 8.315186611219786e-13 2.2586123248805132e-14
3.605625307711299 8.519726904856444e-21 8.154093749627743e-13 7.91941144215969e-13 2.346823074680546e-14
3.660119384959845 8.244080111960026e-21 8.00952733314061e-13 7.756339800439261e-13 2.5318753270134827e-14
3.715437065384467 8.069262884897282e-21 7.958169900740124e-13 7.685514074014378e-13 2.726558267257455e-14
3.8285932144167436 8.1242078367063e-21 8.256380196833146e-13 7.942022724945191e-13 3.143574718879523e-14
3.94519561050918 8.279617113487058e-21 8.670581560764298e-13 8.310962372134132e-13 3.5961918863016494e-14
4.06534921144712 8.469093222878989e-21 9.139116292216572e-13 8.730780962302941e-13 4.0833532991362966e-14
4.189162171576248 8.67273929203312e-21 9.643904423904268e-13 9.183362639558205e-13 4.605417843460635e-14
4.316745939156006 8.881833419698101e-21 1.0177205543782863e-12 9.661225983335615e-13 5.159795604472516e-14
4.448215356677963 9.092036744237964e-21 1.0735355245922803e-12 1.0161550572837138e-12 5.738046730856647e-14
4.58368876423945 9.302259353929643e-21 1.1318086216859597e-12 1.0684060662332531e-12 6.340255545270664e-14
4.723288106065518 9.513488051039679e-21 1.192761595045682e-12 1.1230656593157716e-12 6.969593572991075e-14
4.867139040275056 9.726925198967262e-21 1.2566628085407022e-12 1.1805813118460103e-12 7.608149669469196e-14
4.940699165968905 9.839797668426095e-21 1.2904584100750605e-12 1.2111314292967763e-12 7.93269807782843e-14
5.015371051989984 9.949036864675664e-21 1.3245048169275874e-12 1.241908475596469e-12 8.259634133111829e-14
5.091171501069577 1.0071854769254297e-20 1.361120624803203e-12 1.2751584767713006e-12 8.596214803190258e-14
5.129500256944802 1.0131710792176356e-20 1.3795176882423304e-12 1.291867819286682e-12 8.764986895564817e-14
5.168117569889187 1.0192089951565208e-20 1.3981863755150238e-12 1.3088282191544089e-12 8.935815636061468e-14
5.20702561229733 1.0264975541685583e-20 1.4187865601791137e-12 1.327557008915623e-12 9.12295512634907e-14
5.246226572918644 1.0337228787708132e-20 1.4395296162414395e-12 1.3464208187399126e-12 9.310879750152654e-14
5.265937586045735 1.0373122038338586e-20 1.4499553466877991e-12 1.3559042627658333e-12 9.4051083921966e-14
5.285722656980489 1.0408861971023849e-20 1.4604175875325847e-12 1.365422593205519e-12 9.4994994327066e-14
5.305582063971359 1.0444450449865085e-20 1.4709166476582196e-12 1.3749762336190549e-12 9.594041403916472e-14
5.3255160863122235 1.0482336778605282e-20 1.4817988131520374e-12 1.384903520874853e-12 9.689529227718383e-14
5.365609099470188 1.0576623902859011e-20 1.5063834108112722e-12 1.407512077430304e-12 9.887133338096815e-14
5.406003951863644 1.0671358968342003e-20 1.5313184708845185e-12 1.4304634901316001e-12 1.0085498075291829e-13
5.446702915881641 1.0766626605987389e-20 1.556620596579394e-12 1.4537752815649434e-12 1.0284531501445074e-13
5.487708281020852 1.0867159171766428e-20 1.5829838281417186e-12 1.4781333001246443e-12 1.0485052801707424e-13
5.529022354014368 1.1009706455888425e-20 1.6158220066334156e-12 1.508881364143693e-12 1.0694064248972275e-13
5.570647458961463 1.1156129483496664e-20 1.6496380073060462e-12 1.54059969612696e-12 1.0903831117908615e-13
5.612585937458331 1.1306812271852632e-20 1.6845062180248765e-12 1.573363620531627e-12 1.111425974932497e-13
5.654840148729818 1.1469140884490251e-20 1.7215540143051294e-12 1.6082902833101626e-12 1.1326373099496674e-13
5.67608639626678 1.1583109533116699e-20 1.7451935269887302e-12 1.6308187769981075e-12 1.143747499906227e-13
5.686739436050992 1.1641226130194674e-20 1.7572416488136718e-12 1.6423105916023498e-12 1.1493105721132193e-13
5.6974124697621304 1.1700124362392057e-20 1.7694470569017448e-12 1.6539591804467782e-12 1.154878764549658e-13
5.718818669136295 1.1820349197651e-20 1.7943454840699043e-12 1.6777424927379151e-12 1.1660299133198945e-13
5.740305295436557 1.1952642225558749e-20 1.821244880226395e-12 1.7035160130979346e-12 1.1772886712846076e-13
5.7835210386641895 1.230044445918416e-20 1.8883502806267e-12 1.7682952079771157e-12 1.2005507264958475e-13
5.827062130521658 1.2692946783882561e-20 1.963276829237534e-12 1.8408645660276924e-12 1.224122632098421e-13
5.8489554468988025 1.297512939206066e-20 2.0144636898089995e-12 1.890774381387444e-12 1.2368930842155576e-13
5.870931020387893 1.3273436121170735e-20 2.068520240775003e-12 1.943549917197316e-12 1.2497032357768677e-13
5.892989160043636 1.3589150109833867e-20 2.125677478820219e-12 1.9994222883164467e-12 1.2625519050377175e-13
5.915130176081913 1.3947165138211036e-20 2.189876801305014e-12 2.062288406427276e-12 1.2758839487773856e-13
5.95966208400165 1.496044511685624e-20 2.366658438059653e-12 2.236007580744495e-12 1.3065085731515886e-13
6.004529249263818 1.6415710041451675e-20 2.616423674155246e-12 2.4823128505175345e-12 1.3411082363771163e-13
6.027089341400364 1.7429514916797097e-20 2.788446796741949e-12 2.6523245254635054e-12 1.3612227127844317e-13
6.049734195844842 1.8616668058055477e-20 2.9895628076379754e-12 2.85130724382656e-12 1.3825556381141544e-13
6.095279466722835 2.2045469033965082e-20 3.5668299028619896e-12 3.4232888294087347e-12 1.4354107345325546e-13
6.141167624020661 2.7276487957109284e-20 4.446403136502242e-12 4.295950356788372e-12 1.5045277971386885e-13
6.164241091010745 3.060969667498315e-20 5.008504579668057e-12 4.853688879694631e-12 1.5481569997342534e-13
6.187401249150058 3.4355967301363995e-20 5.642608184164332e-12 5.48331722483e-12 1.5929095933433233e-13
6.1990139391386085 3.6174502814195726e-20 5.952434385383323e-12 5.7908671819492945e-12 1.615672034340301e-13
6.204828454712694 3.712818176428981e-20 6.115090568791939e-12 5.952374168619871e-12 1.6271640017206657e-13
6.210648424152782 3.781666301252338e-20 6.2343270544720454e-12 6.070637105684619e-12 1.6368994878742573e-13
6.233982942956859 4.01191679688946e-20 6.638759873223996e-12 6.471699257345761e-12 1.670606158782348e-13
6.239830258556775 4.039242392640067e-20 6.690246577622004e-12 6.52273601075653e-12 1.6751056686547326e-13
6.245683058788269 4.0382902867724114e-20 6.694943393007077e-12 6.526982338045242e-12 1.6796105496183513e-13
6.257405133728602 4.024316392633782e-20 6.684298330978391e-12 6.515559163228675e-12 1.6873916774971995e-13
6.269149208991335 3.9694162116753376e-20 6.605484510899879e-12 6.436509700166657e-12 1.6897481073322119e-13
6.280915325867298 3.843118503969641e-20 6.40731606886118e-12 6.2387757499921145e-12 1.6854031886906492e-13
6.304513850009849 3.536420866249676e-20 5.918136538008476e-12 5.751070553547989e-12 1.6706598446048662e-13
6.32820103803542 3.1633127286758615e-20 5.313636354157789e-12 5.148688682783618e-12 1.6494767137417083e-13
6.3519772230701035 2.823095485115784e-20 4.759966899193314e-12 4.5969316565835556e-12 1.630352426097594e-13
6.375842739491607 2.536115178244745e-20 4.292160988358344e-12 4.130826477573776e-12 1.6133451078456914e-13
6.399797922933955 2.3081840700967413e-20 3.921083886724016e-12 3.760688095987036e-12 1.6039579073698222e-13
6.42384311029221 2.1178077452296047e-20 3.6111945885387873e-12 3.451585208594588e-12 1.5960937994419833e-13
6.447978639727206 1.9792713126738587e-20 3.3876485884751995e-12 3.2282327697800693e-12 1.5941581869512984e-13
6.472204850670314 1.863233327893537e-20 3.2010240089020264e-12 3.0416845409250223e-12 1.59339467977004e-13
