Dust emission spectrum from A.P. Jones, M. Kohler, N. Ysard, M. Bocchio, and L. Verstraete (2017), A&A, 602A, 46J 
inside the DustPedia framework.

lambda    nu*dP/dnu     j_nu    j_nu(carb.) j_nu(sil)
 (um)   (erg s-1 H-1) (Jy cm2 sr-1 H-1)
0.9927057738263894 3.475134231022508e-23 9.15717608242812e-16 9.157176082428094e-16 2.5282937236970687e-30
1.0001793341362166 3.5325651585912115e-23 9.378588719463623e-16 9.378588719463591e-16 3.0468252663229993e-30
1.0077091589558085 3.5899147089243416e-23 9.602598471068706e-16 9.60259847106867e-16 3.667080268592032e-30
1.0114953028030835 3.6185519054096884e-23 9.71556608131155e-16 9.715566081311508e-16 4.021155495405262e-30
1.0152956718711033 3.647160305213733e-23 9.829169408952691e-16 9.829169408952648e-16 4.408020771222307e-30
1.0229392996569957 3.7042514783152875e-23 1.0058188251861365e-15 1.0058188251861314e-15 5.2920103271407785e-30
1.0267826658714554 3.7326650333386985e-23 1.0173420127832631e-15 1.017342012783257e-15 5.79584749428777e-30
1.0306404723013447 3.7610372301402493e-23 1.02892627662362e-15 1.0289262766236136e-15 6.345632273940754e-30
1.03451277320114 3.7893653309212e-23 1.040571118671434e-15 1.0405711186714271e-15 6.94535435816198e-30
1.0383996230291617 3.817646613039725e-23 1.0522760346550356e-15 1.052276034655028e-15 7.599331076870784e-30
1.0403485208654093 3.831768850548207e-23 1.058150861112083e-15 1.0581508611120749e-15 7.94810985368616e-30
1.0423010764483396 3.845878369533066e-23 1.0640405141861446e-15 1.0640405141861363e-15 8.312232640158802e-30
1.0462171883269815 3.87405790962821e-23 1.0758640408793184e-15 1.075864040879309e-15 9.089109186490859e-30
1.0471985131304309 3.881094322096823e-23 1.0788290875964193e-15 1.07882908759641e-15 9.293954726503543e-30
1.048180758391296 3.8881272622098356e-23 1.0817977839307966e-15 1.0817977839307872e-15 9.503227221700682e-30
1.0501480137395462 3.902182559240966e-23 1.0877460924714883e-15 1.0877460924714782e-15 9.935419755098129e-30
1.0521189612883777 3.916223469148707e-23 1.0937089003197567e-15 1.0937089003197462e-15 1.0386438146456201e-29
1.0531058218030118 3.923227649273833e-23 1.0966927083047371e-15 1.0966927083047265e-15 1.0619264684597903e-29
1.0540936079674168 3.930192802034187e-23 1.0996702316401684e-15 1.0996702316401575e-15 1.0857143066707742e-29
1.058054026499678 3.958013925253747e-23 1.1116155034286845e-15 1.1116155034286722e-15 1.186078282886836e-29
1.0590464539527713 3.964959130636205e-23 1.1146105734849615e-15 1.1146105734849493e-15 1.2125262163837393e-29
1.06003981227728 3.971900224721878e-23 1.1176091273115778e-15 1.1176091273115652e-15 1.2395391711260362e-29
1.0620293250338977 3.9857699173456175e-23 1.1236166519656855e-15 1.1236166519656729e-15 1.2953063635088848e-29
1.0660195594769086 4.013458193045609e-23 1.1356731279771648e-15 1.1356731279771504e-15 1.4141420440460733e-29
1.070024785945596 4.041076186598942e-23 1.1477843770578788e-15 1.1477843770578635e-15 1.5433876350248987e-29
1.0740450607676866 4.0686213521822806e-23 1.1599498397913673e-15 1.1599498397913503e-15 1.683908612689384e-29
1.07808044048254 4.096091164314192e-23 1.1721689518697564e-15 1.1721689518697379e-15 1.8366382673193254e-29
1.0861967418109137 4.150746202988031e-23 1.1967518515674562e-15 1.1967518515674343e-15 2.1828262719674616e-29
1.0902777775684922 4.1778161311799273e-23 1.2090824454068973e-15 1.2090824454068736e-15 2.3785374574279077e-29
1.0943741465085532 4.2047988849560326e-23 1.2214634783911096e-15 1.221463478391084e-15 2.590973249107842e-29
1.1026131145906286 4.2584932761300206e-23 1.2463744930718066e-15 1.246374493071776e-15 3.071537231229228e-29
1.1109141095355224 4.311810421764941e-23 1.2714801182748634e-15 1.2714801182748266e-15 3.636630410565684e-29
1.1192775983109025 4.3646822608212793e-23 1.2967608136949095e-15 1.2967608136948666e-15 4.3002599270512955e-29
1.1277040513999907 4.41686329731336e-23 1.3221433096505108e-15 1.32214330965046e-15 5.0786029428776e-29
1.1361939428280308 4.4686054654400274e-23 1.3477021310196238e-15 1.347702131019564e-15 5.990314761041561e-29
1.1447477501889525 4.519891505167738e-23 1.3734322529275254e-15 1.3734322529274546e-15 7.056883188933582e-29
1.1533659546722406 4.570732493324105e-23 1.3993371537512717e-15 1.3993371537511887e-15 8.303037302595042e-29
1.1707974979042381 4.6712433781533184e-23 1.4517228542052616e-15 1.451722854205147e-15 1.1452020328656864e-28
1.1884924949847024 4.769757494591193e-23 1.5047424596996022e-15 1.5047424596994454e-15 1.5718000408284539e-28
1.2064549276569216 4.8670446991294105e-23 1.5586401865129005e-15 1.558640186512686e-15 2.1468985789914255e-28
1.2246888378427687 4.9620428750356346e-23 1.6130792518691362e-15 1.6130792518688441e-15 2.9183559517342745e-28
1.2431983285522175 5.054529722203409e-23 1.6679791027483745e-15 1.66797910274798e-15 3.948202070080155e-28
1.2619875648066055 5.144470520774061e-23 1.723317076630692e-15 1.7233170766301597e-15 5.316423869550271e-28
1.3004222497298317 5.315219058614295e-23 1.834741957050262e-15 1.834741957049312e-15 9.50656723603425e-28
1.3400274889804893 5.473619242659499e-23 1.946963115863148e-15 1.946963115861479e-15 1.669353189901903e-27
1.3808389325824078 5.619082548450753e-23 2.059576219656276e-15 2.0595762196533955e-15 2.8799980310453415e-27
1.4228933163050095 5.752314696945364e-23 2.1726231850990174e-15 2.1726231850941336e-15 4.883918460946783e-27
1.466228494730424 5.876517678722245e-23 2.287131500291122e-15 2.287131500282977e-15 8.145055831719461e-27
1.5108834753276823 5.989277712512855e-23 2.4020102448969307e-15 2.4020102448835662e-15 1.3364794631460447e-26
1.5568984535646726 6.088641196946063e-23 2.516228645560645e-15 2.516228645539046e-15 2.1598488781435615e-26
1.6043148490894465 6.174787722416902e-23 2.629547790306473e-15 2.6295477902720323e-15 3.444023339786077e-26
1.6531753430134553 6.247977190222682e-23 2.741749592612695e-15 2.741749592558569e-15 5.41266500919443e-26
1.7035239163302658 6.309076271946948e-23 2.852879615779593e-15 2.8528796156957303e-15 8.386351304077697e-26
1.755405889504358 6.363100513949777e-23 2.9649390342540403e-15 2.9649390341258717e-15 1.2816813740042928e-25
1.8088679632656115 6.408809869119583e-23 3.0771855729860928e-15 3.077185572792808e-15 1.9328587296032537e-25
1.8639582606462262 6.445363890078538e-23 3.188989268048884e-15 3.1889892677611294e-15 2.877546716118777e-25
1.9207263702978936 6.473369807076979e-23 3.300390663785717e-15 3.3003906633626264e-15 4.230894160297697e-25
1.979223391128241 6.494242793207052e-23 3.411872308832864e-15 3.4118723082182207e-15 6.146428200875222e-25
2.039501978296691 6.509676870165253e-23 3.5241387221475874e-15 3.5241387212649514e-15 8.826357290817534e-25
2.1016163906111602 6.524419204501423e-23 3.639692865010143e-15 3.6396928637566385e-15 1.2535061109029508e-24
2.1656225393682647 6.541222203170133e-23 3.7602013249297184e-15 3.760201323168334e-15 1.7613852109822864e-24
2.231578038680979 6.560282281037252e-23 3.886011117976119e-15 3.886011115526174e-15 2.449944267277303e-24
2.299542257339062 6.583247353033628e-23 4.0183799757734525e-15 4.018379972398784e-15 3.374669283497508e-24
2.369576372248914 6.613762186870819e-23 4.159955822422217e-15 4.15995581781649e-15 4.605726309219214e-24
2.4417434235010123 6.656130827357575e-23 4.314110941675514e-15 4.314110935444214e-15 6.231300511348468e-24
2.5161083711144245 6.717724826982019e-23 4.486637540976077e-15 4.486637532613919e-15 8.36215849189407e-24
2.5927381535095444 6.810607590286035e-23 4.687205015613428e-15 4.68720500447626e-15 1.113716858902928e-23
2.6717017477616296 6.949181678781164e-23 4.928231197035531e-15 4.928231182305835e-15 1.472969670117462e-23
2.753070231689431 7.155131911461414e-23 5.2288281471818604e-15 5.228828127825282e-15 1.935657734855509e-23
2.836916847834745 7.477586539911785e-23 5.6308957570441745e-15 5.630895731753298e-15 2.5290876217376846e-23
2.9233170693905177 8.024745416482318e-23 6.2269677844484394e-15 6.226967751575406e-15 3.287303280553405e-23
2.967498994190263 8.489411200391653e-23 6.687096391829435e-15 6.6870963544635975e-15 3.73658384093886e-23
3.0123486681368425 9.032086594947329e-23 7.222087804608578e-15 7.222087762155849e-15 4.245273107569519e-23
3.0578761833420214 1.0246338528208244e-22 8.316833934587852e-15 8.31683388635824e-15 4.822961135758312e-23
3.1040917844459814 1.1811018853607035e-22 9.731759107072381e-15 9.731759052320375e-15 5.475200534168465e-23
3.127460860933648 1.3466249193725055e-22 1.1179128886645356e-14 1.1179128828293303e-14 5.835205547130577e-23
3.1510058709225794 1.567160115447805e-22 1.3107866683398296e-14 1.3107866621210982e-14 6.218731564442696e-23
3.162844764501044 1.77244617186753e-22 1.488059732581092e-14 1.4880597261589168e-14 6.422175536000534e-23
3.1747281389236908 2.0111753921194079e-22 1.694829134136107e-14 1.6948291275039597e-14 6.632147927194471e-23
3.1986289994194426 2.6770557481791317e-22 2.2729543769663276e-14 2.272954369890718e-14 7.075609115651498e-23
3.2227097969389145 4.246701109356326e-22 3.632807018908178e-14 3.632807011335589e-14 7.572589733599573e-23
3.2348180950136065 5.735215432139297e-22 4.924578138724191e-14 4.9245781308695504e-14 7.854641681130073e-23
3.240889293275058 6.848074345014839e-22 5.89117733064036e-14 5.891177322628768e-14 8.011591652562537e-23
3.2469718861334385 8.135481647163893e-22 7.011827624318927e-14 7.011827616139186e-14 8.179741720979322e-23
3.2714166318528037 1.5002733244497993e-21 1.3027937839220947e-13 1.3027937830313504e-13 8.907443253796921e-23
3.2744851364798273 1.5432030472697114e-21 1.3413296621716714e-13 1.3413296612726615e-13 8.990097990315058e-23
3.2775565192852394 1.5873658335018394e-21 1.3810094516358987e-13 1.3810094507285353e-13 9.07363411326774e-23
3.283707930232385 1.54489643923743e-21 1.346583619007477e-13 1.346583618087127e-13 9.203498174040854e-23
3.2898708863219004 1.4102106459154579e-21 1.2314939312812317e-13 1.231493930350814e-13 9.304180047436777e-23
3.29141343181113 1.3784483540783718e-21 1.2043213050685132e-13 1.2043213041355646e-13 9.329489784748429e-23
3.292184975758714 1.3628414859109179e-21 1.1909650229704445e-13 1.190965022036228e-13 9.342165610435112e-23
3.295272960557952 1.2643292965350155e-21 1.1059131679181628e-13 1.1059131669794529e-13 9.387097114639978e-23
3.3076538914384823 9.230520646568131e-22 8.104303382457315e-14 8.10430337289179e-14 9.565527424487515e-23
3.310756385682612 8.53593262642558e-22 7.501491767681395e-14 7.501491758070778e-14 9.610614607386211e-23
3.313861789986515 7.895066424240749e-22 6.944797914530399e-14 6.944797904874504e-14 9.655895094606512e-23
3.3200813396944477 6.996323718521484e-22 6.165780398948964e-14 6.165780389183189e-14 9.76577559665336e-23
3.345076488085796 5.393055549142461e-22 4.7886200477487555e-14 4.788620037420796e-14 1.0327960239474767e-22
3.3482140837626964 5.453177400347372e-22 4.846545319202809e-14 4.846545308790615e-14 1.0412194531433957e-22
3.3513546224236106 5.513963967965106e-22 4.9051663674503596e-14 4.905166356953228e-14 1.0497131801436807e-22
3.3576445397418455 5.958201927499638e-22 5.310303804522115e-14 5.310303793836569e-14 1.0685544689225575e-22
3.3702598118196083 7.596736910381712e-22 6.796102197022763e-14 6.796102185918945e-14 1.1103819477810688e-22
3.382922481734668 7.96993737873807e-22 7.156758926246179e-14 7.156758914759886e-14 1.1486292395937297e-22
3.389271646505754 8.163281257144666e-22 7.344133646441988e-14 7.344133634759283e-14 1.1682704379505527e-22
3.395632727569191 8.371619498378077e-22 7.545701563071496e-14 7.545701551182674e-14 1.1888822054581443e-22
3.421196662673239 9.371984031453824e-22 8.510969079288174e-14 8.510969066523154e-14 1.2765018655287914e-22
3.4276182099114902 9.170397690059623e-22 8.343534085628684e-14 8.343534072681605e-14 1.294708173365567e-22
3.4340518103208963 8.287031829108654e-22 7.553970476502493e-14 7.553970463394065e-14 1.3108427560818862e-22
3.4469541582030403 7.028954858232436e-22 6.431254483816415e-14 6.431254470414402e-14 1.340201220376399e-22
3.472904465399547 6.676374527519499e-22 6.154644338609916e-14 6.154644324406307e-14 1.420361010258378e-22
3.4990501388274233 6.1371133540995255e-22 5.700116652768558e-14 5.70011663773115e-14 1.5037408333016214e-22
3.5253949054701885 4.2179729355144924e-22 3.947126038686263e-14 3.947126022893256e-14 1.5793006590721968e-22
3.5519380250092896 2.4141878374865555e-22 2.2761761591966004e-14 2.2761761426507873e-14 1.6545811830017439e-22
3.578680990867387 1.6989617183930738e-22 1.6138977376031262e-14 1.6138977201325128e-14 1.7470614000823724e-22
3.605625307711299 1.4096536849643546e-22 1.3491568955285943e-14 1.3491568770207768e-14 1.8507817041655934e-22
3.660119384959845 1.1985695749816052e-22 1.1644690057728583e-14 1.1644689849481974e-14 2.0824661055081788e-22
3.715437065384467 1.0490670897623821e-22 1.0346241356480858e-14 1.0346241122189764e-14 2.342910941038982e-22
3.8285932144167436 9.731064478190055e-23 9.889378714418453e-15 9.889378417466205e-15 2.9695224488872776e-22
3.94519561050918 9.584457031556877e-23 1.003703616588558e-14 1.0037035789489103e-14 3.763964780505263e-22
4.06534921144712 9.689908521192866e-23 1.045651506077267e-14 1.0456514583571536e-14 4.77201135015762e-22
4.189162171576248 9.941684051536847e-23 1.1054944415745106e-14 1.1054943810419443e-14 6.053256649495335e-22
4.316745939156006 1.0300495498909316e-22 1.1802772574265818e-14 1.1802771806129287e-14 7.681365284096936e-22
4.448215356677963 1.0753290776372822e-22 1.269686867689213e-14 1.2696867702430502e-14 9.744616286284465e-22
4.58368876423945 1.1301893723857176e-22 1.3751047214821332e-14 1.3751045978595194e-14 1.2362261402416806e-21
4.723288106065518 1.195914316539845e-22 1.4993876694659264e-14 1.4993875125948832e-14 1.5687104322724545e-21
4.867139040275056 1.2750522649335451e-22 1.647294214267932e-14 1.6472940153473223e-14 1.9892060981789242e-21
4.940699165968905 1.3228226711645753e-22 1.7348401853016253e-14 1.7348399612988772e-14 2.2400274798364154e-21
5.015371051989984 1.372336983030964e-22 1.8269777961382996e-14 1.8269775439619173e-14 2.5217638261889286e-21
5.091171501069577 1.4327422889625502e-22 1.936222398170126e-14 1.9362221141357424e-14 2.840343830526347e-21
5.129500256944802 1.4637634894208276e-22 1.993037174549661e-14 1.9930368731558305e-14 3.0139383020396945e-21
5.168117569889187 1.4961120568478165e-22 2.0524185952726296e-14 2.0524182754621955e-14 3.1981043387639166e-21
5.20702561229733 1.535780342792279e-22 2.1226981992235307e-14 2.122697859619905e-14 3.396036253896854e-21
5.246226572918644 1.5764729880370556e-22 2.195346162970165e-14 2.195345802398887e-14 3.6057127839339336e-21
5.265937586045735 1.597213748216081e-22 2.2325859133535195e-14 2.232585541837893e-14 3.71515625964206e-21
5.285722656980489 1.6182231394590108e-22 2.270451409574868e-14 2.2704510267967668e-14 3.8277810083709815e-21
5.305582063971359 1.6395055310439838e-22 2.3089543974728477e-14 2.3089540031055567e-14 3.9436729175266975e-21
5.3255160863122235 1.6623649323982362e-22 2.349943944637337e-14 2.349943538297809e-14 4.0633952727716e-21
5.365609099470188 1.719246528324146e-22 2.4486494680616323e-14 2.4486490363463537e-14 4.317152783395342e-21
5.406003951863644 1.7783036029658e-22 2.5518297736404525e-14 2.5518293150373312e-14 4.586031211751497e-21
5.446702915881641 1.8396412582310398e-22 2.6597221002232855e-14 2.6597216131369995e-14 4.870862856375157e-21
5.487708281020852 1.9059154106629304e-22 2.7762851589805974e-14 2.776284641611151e-14 5.173694464220171e-21
5.529022354014368 1.9979211962064914e-22 2.932217175166549e-14 2.932216624656282e-14 5.505102665469566e-21
5.570647458961463 2.0953551121746741e-22 3.0983661824288643e-14 3.098365596755168e-14 5.856736971505265e-21
5.612585937458331 2.1986073724850285e-22 3.275518953441979e-14 3.275518330468598e-14 6.229733808389311e-21
5.654840148729818 2.3120934135335615e-22 3.4705247216030356e-14 3.4705240588467746e-14 6.627562616191898e-21
5.67608639626678 2.3893172639539893e-22 3.599915040994126e-14 3.5999143564410844e-14 6.845530408552362e-21
5.686739436050992 2.4291219770135817e-22 3.666756628827285e-14 3.6667559331201093e-14 6.957071764451603e-21
5.6974124697621304 2.4697472317506664e-22 3.735077367689617e-14 3.735076660654524e-14 7.07035091162911e-21
5.718818669136295 2.5535383383811526e-22 3.876306790313888e-14 3.876306060091595e-14 7.302222936050052e-21
5.740305295436557 2.6458867805217576e-22 4.031583696515007e-14 4.0315829420425457e-14 7.54472461982371e-21
5.7835210386641895 2.8853467315469194e-22 4.429551572954575e-14 4.429550764899561e-14 8.080550147151737e-21
5.827062130521658 3.1611660691745356e-22 4.8895218759310625e-14 4.8895210098925596e-14 8.660385051029679e-21
5.8489554468988025 3.3545706645441636e-22 5.208164477155505e-14 5.208163577303207e-14 8.99852297181441e-21
5.870931020387893 3.562108483654408e-22 5.551157538267945e-14 5.551156603310732e-14 9.349572114002038e-21
5.892989160043636 3.7849167507846068e-22 5.920541190085212e-14 5.92054021868556e-14 9.713996550086165e-21
5.915130176081913 4.0382894225674628e-22 6.340612042520218e-14 6.340611032052424e-14 1.0104677945547429e-20
5.95966208400165 4.74653402087873e-22 7.508750377616057e-14 7.508749272627135e-14 1.1049889208033844e-20
6.004529249263818 5.767165565521107e-22 9.192016964419999e-14 9.192015740703933e-14 1.223716063568469e-20
6.027089341400364 6.476541074802004e-22 1.0361441669610145e-13 1.0361440370720698e-13 1.2988894460434099e-20
6.049734195844842 7.314798261572309e-22 1.1746489092450214e-13 1.174648770959264e-13 1.3828575735969482e-20
6.095279466722835 9.735963174872177e-22 1.57522276036834e-13 1.5752225994418297e-13 1.6092651032817213e-20
6.141167624020661 1.3461820349457172e-21 2.1944423460592609e-13 2.1944421524104613e-13 1.936487993188733e-20
6.164241091010745 1.5841130649901607e-21 2.5920013598826657e-13 2.592001144760763e-13 2.151219031737555e-20
6.187401249150058 1.8551490915842764e-21 3.046888290233897e-13 3.046888051440133e-13 2.387937646104992e-20
6.1990139391386085 1.9874942284573793e-21 3.270377770493659e-13 3.270377519510341e-13 2.5098331723564442e-20
6.204828454712694 2.0572083806005647e-21 3.388265993232615e-13 3.388265735913499e-13 2.5731911622102087e-20
6.210648424152782 2.1081041960541457e-21 3.4753492180825393e-13 3.475348955485479e-13 2.625970594759789e-20
6.233982942956859 2.2810324960988806e-21 3.774561580230713e-13 3.77456129886277e-13 2.813679435060852e-20
6.239830258556775 2.303147068395127e-21 3.814730658443973e-13 3.814730374458259e-13 2.839857131749099e-20
6.245683058788269 2.3050806362308594e-21 3.821514373652573e-13 3.8215140870261727e-13 2.866264002632997e-20
6.257405133728602 2.3003667763300547e-21 3.8208570856422703e-13 3.8208567943841475e-13 2.91258122685286e-20
6.269149208991335 2.2664040836133044e-21 3.7715110412745964e-13 3.7715107484560503e-13 2.928185466571787e-20
6.280915325867298 2.181181108585307e-21 3.636504248229519e-13 3.63650395767057e-13 2.905589490725674e-20
6.304513850009849 1.9709983749116863e-21 3.2984302321715347e-13 3.298429949688469e-13 2.8248306577326036e-20
6.32820103803542 1.710456174450477e-21 2.8731721743357926e-13 2.8731719043628577e-13 2.6997293498380735e-20
6.3519772230701035 1.4715233935561015e-21 2.4811072390732087e-13 2.4811069809155684e-13 2.5815763959805094e-20
6.375842739491607 1.2705191324994535e-21 2.1502464486850594e-13 2.1502462008862993e-13 2.4779876055705548e-20
6.399797922933955 1.1094372381495863e-21 1.8846835199142552e-13 1.8846832790081338e-13 2.4090612121608805e-20
6.42384311029221 9.755216479144933e-22 1.6634175145909336e-13 1.6634172794804897e-13 2.3511044415937358e-20
6.447978639727206 8.779548362279276e-22 1.5026754758924746e-13 1.502675243350871e-13 2.3254160318581356e-20
6.472204850670314 7.96688709468591e-22 1.3687065642569094e-13 1.3687063334796448e-13 2.307772646757926e-20
6.496522083828205 7.438995312657027e-22 1.2828167950194696e-13 1.2828165631945337e-13 2.3182493567260302e-20
