Dust emission spectrum from A.P. Jones, M. Kohler, N. Ysard, M. Bocchio, and L. Verstraete (2017), A&A, 602A, 46J 
inside the DustPedia framework.

lambda    nu*dP/dnu     j_nu    j_nu(carb.) j_nu(sil)
 (um)   (erg s-1 H-1) (Jy cm2 sr-1 H-1)
0.9927057738263894 1.1139394439661482e-20 2.9352937053481035e-13 2.9352935718119145e-13 1.3353618853845798e-20
1.0001793341362166 1.132634964252799e-20 3.0070266285612265e-13 3.007026467889956e-13 1.6067127057345452e-20
1.0077091589558085 1.1514096083062904e-20 3.079884911140049e-13 3.07988471807851e-13 1.9306153931318223e-20
1.0114953028030835 1.1608258325904627e-20 3.1167385131509527e-13 3.1167383016286653e-13 2.115222872037785e-20
1.0152956718711033 1.170260930269359e-20 3.1538764336332117e-13 3.153876201962668e-13 2.3167054325789736e-20
1.0229392996569957 1.1891773933092553e-20 3.228984359399428e-13 3.228984081767895e-13 2.776315321875308e-20
1.0267826658714554 1.198637312880259e-20 3.266899348297549e-13 3.2668990445134124e-13 3.037841385780505e-20
1.0306404723013447 1.2081145339314092e-20 3.3051009949363645e-13 3.305100662647455e-13 3.322889085946683e-20
1.03451277320114 1.2176088045308725e-20 3.34359040416635e-13 3.3435900408197596e-13 3.6334659000194655e-20
1.0383996230291617 1.2271198820621625e-20 3.3823687062396277e-13 3.3823683090655573e-13 3.971740719236785e-20
1.0403485208654093 1.2318816502124639e-20 3.4018665525035513e-13 3.401866137304576e-13 4.151989761164472e-20
1.0423010764483396 1.2366475334503755e-20 3.4214370578737866e-13 3.421436623868191e-13 4.3400559671386e-20
1.0462171883269815 1.246191535386743e-20 3.460796643330126e-13 3.460796169236071e-13 4.74094055785261e-20
1.0471985131304309 1.2485800654229156e-20 3.4706821864703897e-13 3.470681701813801e-13 4.8465658906651564e-20
1.048180758391296 1.2509696007517808e-20 3.4805860266233097e-13 3.4805855311792076e-13 4.9544410253156817e-20
1.0501480137395462 1.2557516745513844e-20 3.5004486755060793e-13 3.500448157793705e-13 5.177123746730579e-20
1.0521189612883777 1.2605377317175603e-20 3.520384746246519e-13 3.5203842053101576e-13 5.409363610067126e-20
1.0531058218030118 1.2629290984131037e-20 3.5303715643212564e-13 3.530371011401592e-13 5.529196638919485e-20
1.0540936079674168 1.2653111388080964e-20 3.540347924890127e-13 3.5403473597307757e-13 5.65159350769642e-20
1.058054026499678 1.2748486953214558e-20 3.5804360495126587e-13 3.5804354327529727e-13 6.167596846923745e-20
1.0590464539527713 1.2772354191911234e-20 3.590503851754693e-13 3.5905032214077696e-13 6.303469243960504e-20
1.06003981227728 1.2796230715095643e-20 3.6005900030827317e-13 3.600589358862644e-13 6.442200866649782e-20
1.0620293250338977 1.2844011509409732e-20 3.6208174353482823e-13 3.6208167625011423e-13 6.728471393437189e-20
1.0660195594769086 1.2939683375526187e-20 3.6614934022687483e-13 3.6614926684777327e-13 7.337910143154629e-20
1.070024785945596 1.3035500982188631e-20 3.70246530468683e-13 3.702464504697672e-13 7.99989158824642e-20
1.0740450607676866 1.3131462873867196e-20 3.7437345327302724e-13 3.7437336608602473e-13 8.718700250113297e-20
1.07808044048254 1.3227567710930911e-20 3.78530251342785e-13 3.785301563532994e-13 9.498948568365749e-20
1.0861967418109137 1.3420055307807729e-20 3.8692984953392196e-13 3.8692973689395964e-13 1.1263996226900138e-19
1.0902777775684922 1.351610372900742e-20 3.911633072378927e-13 3.911631846390845e-13 1.2259880811041843e-19
1.0943741465085532 1.3612285240549224e-20 3.9542698078286493e-13 3.954268473886199e-13 1.3339424502581393e-19
1.1026131145906286 1.3805044851919368e-20 4.040456251414123e-13 4.0404546737624383e-13 1.5776516858059894e-19
1.1109141095355224 1.399833007253123e-20 4.12787127338199e-13 4.127869409936031e-13 1.8634459584112463e-19
1.1192775983109025 1.4191988752337738e-20 4.216484450111514e-13 4.2164822519658915e-13 2.198145622726431e-19
1.1277040513999907 1.438533078596799e-20 4.3061031269285713e-13 4.3061005373294766e-13 2.58959909336974e-19
1.1361939428280308 1.4579176872357538e-20 4.396984225022308e-13 4.3969811781968067e-13 3.046825502022465e-19
1.1447477501889525 1.4773531923571255e-20 4.489144310275693e-13 4.4891407301006445e-13 3.5801750488430353e-19
1.1533659546722406 1.496847059570397e-20 4.582621509789753e-13 4.582617308274422e-13 4.201515332429894e-19
1.1707974979042381 1.5360691021026272e-20 4.773775289872616e-13 4.773769525384652e-13 5.764487963670391e-19
1.1884924949847024 1.5755360151358404e-20 4.970432860473987e-13 4.970424991316148e-13 7.869157838639793e-19
1.2064549276569216 1.6155133533702217e-20 5.173579019854595e-13 5.173568330777419e-13 1.0689077175500488e-18
1.2246888378427687 1.6557507204035008e-20 5.382575686291469e-13 5.382561238111853e-13 1.4448179614636293e-18
1.2431983285522175 1.6962187059185077e-20 5.597469024140212e-13 5.597449589761362e-13 1.943437885020244e-18
1.2619875648066055 1.7369802615130942e-20 5.81861191418697e-13 5.818585898219286e-13 2.601596768243259e-18
1.3004222497298317 1.8191534574409724e-20 6.27947246928737e-13 6.279426506595841e-13 4.596269153066686e-18
1.3400274889804893 1.9025427477723753e-20 6.767333261686593e-13 6.767253550888925e-13 7.971079766639627e-18
1.3808389325824078 1.987476742828025e-20 7.284747645818263e-13 7.284611883226977e-13 1.3576259128516539e-17
1.4228933163050095 2.0746750639771286e-20 7.835953669115313e-13 7.835726468095713e-13 2.2720101960057546e-17
1.466228494730424 2.1656290416984113e-20 8.428594398937774e-13 8.42822061085501e-13 3.7378808276364783e-17
1.5108834753276823 2.260183727499036e-20 9.064506154823531e-13 9.063901346946036e-13 6.048078774952175e-17
1.5568984535646726 2.3582745919315878e-20 9.745948053717555e-13 9.74498456568874e-13 9.634880288164902e-17
1.6043148490894465 2.4604570663227593e-20 1.0477913950636263e-12 1.0476399944421155e-12 1.514006215110953e-16
1.6531753430134553 2.5673097962303884e-20 1.1265919150505697e-12 1.126357523140529e-12 2.3439191004092073e-16
1.7035239163302658 2.679495212536207e-20 1.2116317734837858e-12 1.2112741779775775e-12 3.5759550620821177e-16
1.755405889504358 2.79895537462788e-20 1.3041962840561918e-12 1.3036583954710939e-12 5.378885850980792e-16
1.8088679632656115 2.9256312356355685e-20 1.4047397900746277e-12 1.4039418027056724e-12 7.979873689555998e-16
1.8639582606462262 3.059387851707952e-20 1.5137011955079712e-12 1.5125331104393465e-12 1.1680850686243776e-15
1.9207263702978936 3.2004951795029046e-20 1.6317443193767108e-12 1.6300566417380858e-12 1.6876776386247408e-15
1.979223391128241 3.349391277284388e-20 1.759665555215499e-12 1.7572578298816059e-12 2.407725333893016e-15
2.039501978296691 3.5064120303004734e-20 1.8982635633452486e-12 1.8948705981822685e-12 3.392965162980312e-15
2.1016163906111602 3.6729133440315325e-20 2.048960386059939e-12 2.044235581726622e-12 4.7248043333174715e-15
2.1656225393682647 3.849430448972089e-20 2.2128331716715983e-12 2.20632937350403e-12 6.50379816756857e-15
2.231578038680979 4.035320819368856e-20 2.3903394544462325e-12 2.381487042570118e-12 8.852411876114026e-15
2.299542257339062 4.23049125583515e-20 2.5822698796664546e-12 2.570352040482285e-12 1.191783918416911e-14
2.369576372248914 4.435211584677988e-20 2.7896806286718146e-12 2.7738056892380727e-12 1.5874939433741588e-14
2.4417434235010123 4.649858841096081e-20 3.0137639153921014e-12 2.9928356756748816e-12 2.092823971722072e-14
2.5161083711144245 4.875582601035904e-20 3.2563066358532207e-12 3.228991959581454e-12 2.7314676271765592e-14
2.5927381535095444 5.1145218643686223e-20 3.519922740714874e-12 3.484617877598511e-12 3.530486311636341e-14
2.6717017477616296 5.368409768237005e-20 3.8071769772662235e-12 3.761975143539166e-12 4.5201833727057904e-14
2.753070231689431 5.639952369509785e-20 4.121565061745238e-12 4.064224434715993e-12 5.734062702924467e-14
2.836916847834745 5.937228177726084e-20 4.470949654158776e-12 4.39886053902952e-12 7.208911512925651e-14
2.9233170693905177 6.278308930839724e-20 4.8717841406975455e-12 4.78195795368139e-12 8.982618701615734e-14
2.967498994190263 6.482364157385054e-20 5.1061484647338335e-12 5.0064106300245946e-12 9.973783470923842e-14
3.0123486681368425 6.69982926881066e-20 5.35720674802933e-12 5.246606297842044e-12 1.1060045018728575e-13
3.0578761833420214 7.041052112299336e-20 5.7151401919386644e-12 5.59261440360789e-12 1.225257883307736e-13
3.1040917844459814 7.436005087610296e-20 6.126940539891523e-12 5.991474702121587e-12 1.3546583776993775e-13
3.127460860933648 7.789591234666537e-20 6.466599803247196e-12 6.324220283780641e-12 1.4237951946655376e-13
3.1510058709225794 8.234245855766821e-20 6.887196518836571e-12 6.737621181645162e-12 1.495753371914082e-13
3.162844764501044 8.63010712492949e-20 7.2454188478613804e-12 7.0921237666045865e-12 1.5329508125679291e-13
3.1747281389236908 9.076387370055018e-20 7.648724128064974e-12 7.491636551786435e-12 1.5708757627853924e-13
3.1986289994194426 1.0277439129426932e-19 8.726060437525424e-12 8.561146406958163e-12 1.6491403056726157e-13
3.2227097969389145 1.3035057153110296e-19 1.1150736983433663e-11 1.0977540632809125e-11 1.731963506245381e-13
3.2348180950136065 1.561334690114658e-19 1.340649670992796e-11 1.3228883149658194e-11 1.7761356026977168e-13
3.240889293275058 1.7537209388164378e-19 1.50866952058511e-11 1.4906751663269668e-11 1.799435425814271e-13
3.2469718861334385 1.9766253969717047e-19 1.7036184411095327e-11 1.685383003283193e-11 1.8235437826340233e-13
3.2714166318528037 3.144104873595344e-19 2.730249360943188e-11 2.7110185321816945e-11 1.9230828761493785e-13
3.2744851364798273 3.217112861514348e-19 2.796267746708897e-11 2.776919864688558e-11 1.934788202033781e-13
3.2775565192852394 3.292054965976354e-19 2.8640902603331575e-11 2.8446247628971905e-11 1.9465497435966805e-13
3.283707930232385 3.220495976673286e-19 2.807092447833161e-11 2.7874171254377274e-11 1.9675322395434497e-13
3.2898708863219004 2.9924097540267865e-19 2.6131801391972158e-11 2.5933143324325934e-11 1.9865806764622944e-13
3.29141343181113 2.938504545869297e-19 2.567309554370048e-11 2.547395927824096e-11 1.9913626545951608e-13
3.292184975758714 2.9119999597126385e-19 2.5447494332703252e-11 2.5248118670054278e-11 1.993756626489837e-13
3.295272960557952 2.7468019405602463e-19 2.4026370693567248e-11 2.3826064705647857e-11 2.0030598791939192e-13
3.3076538914384823 2.1700252962501697e-19 1.905260171316208e-11 1.8848561414070253e-11 2.0404029909182748e-13
3.310756385682612 2.0513737900544435e-19 1.8027747256218286e-11 1.7822766169826435e-11 2.049810863918501e-13
3.313861789986515 1.9414064818440321e-19 1.7077342940357633e-11 1.6871418180274628e-11 2.0592476008300558e-13
3.3200813396944477 1.7880107237506982e-19 1.5757534838514277e-11 1.554957814159967e-11 2.079566969146105e-13
3.345076488085796 1.5215998938187875e-19 1.3510641026776761e-11 1.329362328525919e-11 2.1701774151757304e-13
3.3482140837626964 1.532785945320068e-19 1.3622730388631065e-11 1.3404484929548025e-11 2.1824545908303726e-13
3.3513546224236106 1.5440700293375794e-19 1.373589022506778e-11 1.3516411768757318e-11 2.1947845631046285e-13
3.3576445397418455 1.6218825285665603e-19 1.4455181389848044e-11 1.4233124184977136e-11 2.220572048709104e-13
3.3702598118196083 1.9026119929219392e-19 1.7020920558020143e-11 1.6793454725462198e-11 2.274658325579432e-13
3.382922481734668 1.9705317672016592e-19 1.7694769913744404e-11 1.7462054749922858e-11 2.3271516382154854e-13
3.389271646505754 2.0055153785924707e-19 1.804271163325028e-11 1.780733727828962e-11 2.3537435496065673e-13
3.395632727569191 2.0440181744444262e-19 1.8423617003663415e-11 1.8185502185542362e-11 2.381148181210542e-13
3.421196662673239 2.230512397645121e-19 2.025592658247594e-11 2.0006475873874798e-11 2.4945070860113605e-13
3.4276182099114902 2.1978153298596116e-19 1.999645788369479e-11 1.9744485878604756e-11 2.519720050900346e-13
3.4340518103208963 2.047608179899426e-19 1.8664791034197045e-11 1.8410438454207852e-11 2.543525799891962e-13
3.4469541582030403 1.8322194358942857e-19 1.6764184292106665e-11 1.6505270872648026e-11 2.589134194586422e-13
3.472904465399547 1.774143136933818e-19 1.6355014190119473e-11 1.6085581792332632e-11 2.6943239778684285e-13
3.4990501388274233 1.6855087183955432e-19 1.5654910965096083e-11 1.5374733032035874e-11 2.8017793306021105e-13
3.5253949054701885 1.366560977048206e-19 1.2788105799691609e-11 1.2497518716612602e-11 2.9058708307900595e-13
3.5519380250092896 1.0629904997610981e-19 1.0022226089614144e-11 9.721201076338856e-12 3.0102501327528955e-13
3.578680990867387 9.464121913401273e-20 8.990270221559311e-12 8.677807992689146e-12 3.124622288701658e-13
3.605625307711299 9.0343504440474e-20 8.646631671463745e-12 8.322138499851245e-12 3.2449317161250135e-13
3.660119384959845 8.804796434851657e-20 8.554290684945406e-12 8.204588470380632e-12 3.4970221456477375e-13
3.715437065384467 8.670368588035023e-20 8.550999925255418e-12 8.1748200657243e-12 3.7617985953111877e-13
3.8285932144167436 8.783834148186991e-20 8.926737938151989e-12 8.493993147775026e-12 4.3274479037696494e-13
3.94519561050918 8.992273628590084e-20 9.41688979631608e-12 8.922976004130907e-12 4.939137921851722e-13
4.06534921144712 9.232504009485923e-20 9.962923490215695e-12 9.403430501873484e-12 5.594929883422098e-13
4.189162171576248 9.48521323390047e-20 1.0547358428278548e-11 9.917877041056404e-12 6.294813872221409e-13
4.316745939156006 9.741462466383489e-20 1.1162207298051369e-11 1.0458732497543397e-11 7.034748005079749e-13
4.448215356677963 9.99623658691054e-20 1.1802982533125457e-11 1.1022701014847349e-11 7.802815182781111e-13
4.58368876423945 1.0247886340848757e-19 1.2468633343071302e-11 1.1608768462048335e-11 8.598648810229643e-13
4.723288106065518 1.049677449905983e-19 1.3160419634904763e-11 1.2217818027865774e-11 9.426016070389921e-13
4.867139040275056 1.0742764362060544e-19 1.3879033876143411e-11 1.2853004468951573e-11 1.0260294071918401e-12
4.940699165968905 1.0869499677583538e-19 1.42550057886398e-11 1.3186772468384871e-11 1.0682333202549264e-12
5.015371051989984 1.0991354352182356e-19 1.4632674480996732e-11 1.3522065800022895e-11 1.110608680973842e-12
5.091171501069577 1.112450157471666e-19 1.5033763771321367e-11 1.387964517764372e-11 1.1541185936776457e-12
5.129500256944802 1.1188988740650033e-19 1.523474978499201e-11 1.4058871613464834e-11 1.1758781715271733e-12
5.168117569889187 1.1253578931439902e-19 1.543805128535567e-11 1.4240175701483683e-11 1.1978755838719859e-12
5.20702561229733 1.132982155102653e-19 1.5659655963665897e-11 1.4437615638493489e-11 1.2220403251724101e-12
5.246226572918644 1.140500182926826e-19 1.588224295281313e-11 1.4635976645271315e-11 1.2462663075418136e-12
5.265937586045735 1.1442194170075572e-19 1.599390285144885e-11 1.4735504546179127e-11 1.2583983052697255e-12
5.285722656980489 1.1479121894504105e-19 1.6105806331981907e-11 1.4835265488314133e-11 1.270540843667776e-12
5.305582063971359 1.1515785614097816e-19 1.6217953114860453e-11 1.4935260800964942e-11 1.2826923138955102e-12
5.3255160863122235 1.1554476659399324e-19 1.633358111087985e-11 1.5038621334978543e-11 1.2949597759013113e-12
5.365609099470188 1.164878037481983e-19 1.6590860820974415e-11 1.5270508383803085e-11 1.3203524371713259e-12
5.406003951863644 1.1742935269900342e-19 1.6850875070875384e-11 1.5505075656889596e-11 1.345799413985793e-12
5.446702915881641 1.1837008497095172e-19 1.7113745932469673e-11 1.5742458145134676e-11 1.3712877873349977e-12
5.487708281020852 1.1935381531256666e-19 1.738588314392892e-11 1.5988956491826176e-11 1.3969266521027386e-12
5.529022354014368 1.2072083304544284e-19 1.7717400502500903e-11 1.6293748572487128e-11 1.4236519300137745e-12
5.570647458961463 1.2211633340341303e-19 1.805713578290123e-11 1.6606709080026824e-11 1.4504267028744074e-12
5.612585937458331 1.235436516374825e-19 1.8405722530558957e-11 1.6928484699133255e-11 1.477237831425703e-12
5.654840148729818 1.2507073980588813e-19 1.8773510270164304e-11 1.726928929493969e-11 1.5042209752246157e-12
5.67608639626678 1.2613374589135766e-19 1.9004205756242068e-11 1.7485841241516246e-11 1.5183645147258156e-12
5.686739436050992 1.2667472505151582e-19 1.9121534125617206e-11 1.7596092425425563e-11 1.5254417001916474e-12
5.6974124697621304 1.2722225813592398e-19 1.9240227134216638e-11 1.7707704916493654e-11 1.5325222177229818e-12
5.718818669136295 1.2833772319726794e-19 1.9481845265670663e-11 1.793515285511518e-11 1.546692410555483e-12
5.740305295436557 1.2956156203846575e-19 1.974152050097522e-11 1.818052984906184e-11 1.5609906519133808e-12
5.7835210386641895 1.3276471539877428e-19 2.038188850919195e-11 1.879136270622435e-11 1.5905258029676014e-12
5.827062130521658 1.3636387510322302e-19 2.1092031731760532e-11 1.9471620330179132e-11 1.6204114015813997e-12
5.8489554468988025 1.389462515612004e-19 2.1572207116206042e-11 1.9935575854015443e-11 1.6366312621906e-12
5.870931020387893 1.416706847486233e-19 2.2077830958901277e-11 2.0424943624838867e-11 1.6528873340624132e-12
5.892989160043636 1.4454859162535104e-19 2.2610956780206324e-11 2.0941778862884406e-11 1.6691779173219213e-12
5.915130176081913 1.478082467935928e-19 2.3207716226723685e-11 2.1521625088212914e-11 1.6860911385107709e-12
5.95966208400165 1.570277736558322e-19 2.4840912327773738e-11 2.3115815169153512e-11 1.7250971586202244e-12
6.004529249263818 1.7024467421714714e-19 2.7134506816690858e-11 2.536525224260161e-11 1.7692545740892467e-12
6.027089341400364 1.7944536636762194e-19 2.8708421285767543e-11 2.6913419888397536e-11 1.7950013973700163e-12
6.049734195844842 1.9020646775273506e-19 3.054435842077118e-11 2.8722033626105364e-11 1.8223247946658154e-12
6.095279466722835 2.21264999550036e-19 3.579940239129789e-11 3.390912838965314e-11 1.8902740016447534e-12
6.141167624020661 2.685760686423844e-19 4.3781203646112605e-11 4.18017652908797e-11 1.9794383552329002e-12
6.164241091010745 2.987008592531604e-19 4.887485940829111e-11 4.68389909808078e-11 2.0358684274833147e-12
6.187401249150058 3.3250189862785515e-19 5.460995808938341e-11 5.251623633783825e-11 2.0937217515451616e-12
6.1990139391386085 3.488933128691251e-19 5.740962254600803e-11 5.528648013948738e-11 2.1231424065206474e-12
6.204828454712694 3.5748464766752746e-19 5.887848242388662e-11 5.674048973660077e-11 2.1379926872858557e-12
6.210648424152782 3.636751614999204e-19 5.99542560809137e-11 5.780371433964317e-11 2.150541741270525e-12
6.233982942956859 3.84327630304646e-19 6.359700311372261e-11 6.140314698988716e-11 2.1938561238354475e-12
6.239830258556775 3.867477586483554e-19 6.405750428384118e-11 6.185796809851081e-11 2.1995361853303945e-12
6.245683058788269 3.8661581530109125e-19 6.409571413824318e-11 6.18904922477153e-11 2.205221890527865e-12
6.257405133728602 3.852599588720125e-19 6.399080611044149e-11 6.177582526564952e-11 2.2149808447919687e-12
6.269149208991335 3.8020379919419334e-19 6.326951301240728e-11 6.105188067051577e-11 2.217632341891517e-12
6.280915325867298 3.687010962555256e-19 6.147050777134775e-11 5.925900008332647e-11 2.211507688021264e-12
6.304513850009849 3.4082588449465675e-19 5.703659706843493e-11 5.484525947515214e-11 2.1913375932827838e-12
6.32820103803542 3.07006676856881e-19 5.1570046310241194e-11 4.940730413292553e-11 2.1627421773156713e-12
6.3519772230701035 2.7619639650665497e-19 4.6568942211822864e-11 4.4432093575542074e-11 2.136848636280799e-12
6.375842739491607 2.5019830719096667e-19 4.2343952778264925e-11 4.023021572736673e-11 2.1137370508981818e-12
6.399797922933955 2.295801084505382e-19 3.900047988460592e-11 3.6899893719426547e-11 2.1005861651793703e-12
6.42384311029221 2.123505273009224e-19 3.620909767611183e-11 3.4119666863758884e-11 2.089430812352938e-12
6.447978639727206 1.998176196087283e-19 3.420005497404606e-11 3.211403922739553e-11 2.086015746650531e-12
6.472204850670314 1.893141476032256e-19 3.252406033268278e-11 3.0439930762297016e-11 2.084129570385775e-12
