Dust emission spectrum from A.P. Jones, M. Kohler, N. Ysard, M. Bocchio, and L. Verstraete (2017), A&A, 602A, 46J 
inside the DustPedia framework.

lambda    nu*dP/dnu     j_nu    j_nu(carb.) j_nu(sil)
 (um)   (erg s-1 H-1) (Jy cm2 sr-1 H-1)
0.9927057738263894 3.8805491859611573e-26 1.022546751580119e-18 1.0225467515181438e-18 6.197510980393727e-29
1.0001793341362166 3.944387054906817e-26 1.047193251294483e-18 1.047193251219833e-18 7.464982437175403e-29
1.0077091589558085 4.008127774904238e-26 1.0721269100756958e-18 1.0721269099858953e-18 8.980066789627212e-29
1.0114953028030835 4.039953869241654e-26 1.0847001731103721e-18 1.0847001730119277e-18 9.844509732894125e-29
1.0152956718711033 4.071746300371671e-26 1.097343709280257e-18 1.0973437091723703e-18 1.0788666880732643e-28
1.0229392996569957 4.135186459030456e-26 1.1228309985150577e-18 1.1228309983856089e-18 1.2944868561061506e-28
1.0267826658714554 4.166756971062643e-26 1.1356542539601937e-18 1.1356542538184622e-18 1.4173143309732763e-28
1.0306404723013447 4.198279890919686e-26 1.1485449975794911e-18 1.1485449974243619e-18 1.551291933652192e-28
1.03451277320114 4.2297521850478174e-26 1.1615026735435332e-18 1.1615026733737945e-18 1.6973822208978608e-28
1.0383996230291617 4.261170837246243e-26 1.1745267192331654e-18 1.1745267190475028e-18 1.8566262261907566e-28
1.0403485208654093 4.276859109946894e-26 1.181063453083266e-18 1.1810634528891132e-18 1.9415291206313858e-28
1.0423010764483396 4.2925328492466434e-26 1.187616565374597e-18 1.1876165651715823e-18 2.030149452004548e-28
1.0462171883269815 4.3238352412798265e-26 1.2007716361746775e-18 1.200771635952761e-18 2.2191682859900473e-28
1.0471985131304309 4.33165117628288e-26 1.20407052714207e-18 1.2040705269151706e-18 2.2689959333290647e-28
1.048180758391296 4.339463153825753e-26 1.2073734491370403e-18 1.2073734489050507e-18 2.319895208929099e-28
1.0501480137395462 4.3550750526295366e-26 1.2139913494563159e-18 1.2139913492138164e-18 2.4249968684466856e-28
1.0521189612883777 4.370670570667414e-26 1.2206252633851078e-18 1.2206252631316427e-18 2.5346540113231423e-28
1.0531058218030118 4.378450045774295e-26 1.2239448403576584e-18 1.2239448400985328e-18 2.5912529704772618e-28
1.0540936079674168 4.3861858856223294e-26 1.2272573616140853e-18 1.227257361349178e-18 2.649074254300944e-28
1.058054026499678 4.4170843928365007e-26 1.2405462900727781e-18 1.2405462897834819e-18 2.8929653012614433e-28
1.0590464539527713 4.424797581479338e-26 1.2438781857144123e-18 1.243878185418691e-18 2.957218796102794e-28
1.06003981227728 4.432506105106074e-26 1.247213927756132e-18 1.2472139274538485e-18 3.0228380320957633e-28
1.0620293250338977 4.4479089784881677e-26 1.2538969128417001e-18 1.2538969125258713e-18 3.1582847438255413e-28
1.0660195594769086 4.478656782831062e-26 1.2673086184147273e-18 1.2673086180700455e-18 3.4468183409807814e-28
1.070024785945596 4.5093249682996377e-26 1.2807807897448596e-18 1.2807807893688104e-18 3.7604919980610567e-28
1.0740450607676866 4.539910719977044e-26 1.2943128043802671e-18 1.2943128039701292e-18 4.1013820325197705e-28
1.07808044048254 4.5704112460501494e-26 1.3079040346000993e-18 1.3079040341529265e-18 4.471726133320529e-28
1.0861967418109137 4.631091434680101e-26 1.3352459963082878e-18 1.3352459957772273e-18 5.3106057999125985e-28
1.0902777775684922 4.661142530589356e-26 1.348959703423664e-18 1.3489597028452103e-18 5.78453461636081e-28
1.0943741465085532 4.691095332160852e-26 1.3627290575980563e-18 1.3627290569681829e-18 6.298728266740783e-28
1.1026131145906286 4.750695461621113e-26 1.3904320762712324e-18 1.3904320755251224e-18 7.461099764004775e-28
1.1109141095355224 4.8098709038922576e-26 1.418349748146962e-18 1.4183497472642974e-18 8.826646082466688e-28
1.1192775983109025 4.868545973989539e-26 1.4464603060369855e-18 1.4464603049941083e-18 1.0428776775834928e-27
1.1277040513999907 4.926447113237478e-26 1.4746820656813046e-18 1.474682064450702e-18 1.2306028039694277e-27
1.1361939428280308 4.983855584998212e-26 1.5030981912686575e-18 1.5030981898183793e-18 1.450278441033876e-27
1.1447477501889525 5.040752385696801e-26 1.531703116683645e-18 1.5317031149766343e-18 1.7070102840015668e-27
1.1533659546722406 5.097150120956739e-26 1.560500762825279e-18 1.5605007608186123e-18 2.006666513791511e-27
1.1707974979042381 5.208632354816201e-26 1.6187318913854007e-18 1.6187318886227141e-18 2.7626865134140886e-27
1.1884924949847024 5.317879844654535e-26 1.6776617274372025e-18 1.6776617236524765e-18 3.7847255356173165e-27
1.2064549276569216 5.425752933627047e-26 1.737562953953162e-18 1.737562948793592e-18 5.159570326059389e-27
1.2246888378427687 5.531069614539548e-26 1.798060569114589e-18 1.7980605621148215e-18 6.99976758580531e-27
1.2431983285522175 5.633584463746733e-26 1.859065368202282e-18 1.8590653587515128e-18 9.450769016682283e-27
1.2619875648066055 5.733261235046026e-26 1.920552747117882e-18 1.9205527344182915e-18 1.2699590401602547e-26
1.3004222497298317 5.92244529129151e-26 2.0443482656950278e-18 2.0443482430829775e-18 2.2612050541065172e-26
1.3400274889804893 6.097897797033803e-26 2.1690186271267676e-18 2.1690185875960224e-18 3.9530744527009293e-26
1.3808389325824078 6.2589862417199e-26 2.294121702511075e-18 2.2941216346258507e-18 6.788522404700149e-26
1.4228933163050095 6.406520667022122e-26 2.419713814402336e-18 2.4197136998316355e-18 1.1457070040220913e-25
1.466228494730424 6.54409005129687e-26 2.5469496248188252e-18 2.5469494346909036e-18 1.9012792148285582e-25
1.5108834753276823 6.669031309755445e-26 2.6746266074962195e-18 2.6746262971238506e-18 3.1037236827560877e-25
1.5568984535646726 6.77919663920265e-26 2.801611759616596e-18 2.8016112606900753e-18 4.989265222574151e-25
1.6043148490894465 6.874813606112265e-26 2.9276554497723726e-18 2.927654658543125e-18 7.912292478168195e-25
1.6531753430134553 6.956199885353169e-26 3.0525332633488343e-18 3.0525320268806683e-18 1.236468166427334e-24
1.7035239163302658 7.024347664527302e-26 3.1763157398150787e-18 3.1763138353047212e-18 1.9045103565094776e-24
1.755405889504358 7.084864730739981e-26 3.3012510090841728e-18 3.3012481162625104e-18 2.8928216618098707e-24
1.8088679632656115 7.136398337927515e-26 3.426536667028517e-18 3.426532332390321e-18 4.334638196221031e-24
1.8639582606462262 7.178040334714336e-26 3.551497476854966e-18 3.5514910669675244e-18 6.4098874414573686e-24
1.9207263702978936 7.210492067482787e-26 3.676205965369801e-18 3.676196607447236e-18 9.357922566264385e-24
1.979223391128241 7.235353033745195e-26 3.80122847982934e-18 3.801214986818105e-18 1.349301123411332e-23
2.039501978296691 7.254529907324734e-26 3.92737923360731e-18 3.927360011750539e-18 1.9221856770747144e-23
2.1016163906111602 7.27332318375268e-26 4.057474185373171e-18 4.0574471196326605e-18 2.706574051265605e-23
2.1656225393682647 7.294813124651133e-26 4.193400732226195e-18 4.19336305021151e-18 3.76820146859324e-23
2.231578038680979 7.319233278262459e-26 4.335578969917682e-18 4.3355270809277724e-18 5.1888989908957614e-23
2.299542257339062 7.348431185807953e-26 4.4854442111753065e-18 4.4853735178554774e-18 7.069331982956955e-23
2.369576372248914 7.386468770939609e-26 4.645976511191766e-18 4.645881190622651e-18 9.532056911278239e-23
2.4417434235010123 7.438138557760365e-26 4.820962173075489e-18 4.8208349301993234e-18 1.2724287616354377e-22
2.5161083711144245 7.511638332142207e-26 5.016876904492827e-18 5.0167086905096445e-18 1.6821398318246016e-22
2.5927381535095444 7.620373958728652e-26 5.244503455337496e-18 5.244283156526605e-18 2.2029881089184297e-22
2.6717017477616296 7.780334562629237e-26 5.5176694591252e-18 5.517383569508396e-18 2.858896168035359e-22
2.753070231689431 8.015580400352489e-26 5.857626795982006e-18 5.857259064831153e-18 3.677311508548249e-22
2.836916847834745 8.380630015750777e-26 6.310920474830749e-18 6.310451518975989e-18 4.689558547581138e-22
2.9233170693905177 8.995540821338643e-26 6.980276630722196e-18 6.979683631614017e-18 5.929991081801798e-22
2.967498994190263 9.515209437069846e-26 7.495116114907434e-18 7.49445243375063e-18 6.636811568062431e-22
3.0123486681368425 1.0121568275096584e-25 8.093241139204823e-18 8.09249933863587e-18 7.418005689527291e-22
3.0578761833420214 1.147326616448833e-25 9.312716841697138e-18 9.311888600524965e-18 8.282411721733802e-22
3.1040917844459814 1.321398137029065e-25 1.088773840215642e-17 1.0886815378904099e-17 9.230232523203667e-22
3.127460860933648 1.5052954905558115e-25 1.249634702234001e-17 1.249537296546732e-17 9.740568726894272e-22
3.1510058709225794 1.7502436000520472e-25 1.46391932431217e-17 1.4638165780930613e-17 1.0274621910880544e-21
3.162844764501044 1.9781547189854185e-25 1.6607626391474237e-17 1.6606571210742274e-17 1.055180731964027e-21
3.1747281389236908 2.243174741104007e-25 1.8903363272433923e-17 1.8902279752543007e-17 1.0835198909178516e-21
3.1986289994194426 2.982302843964734e-25 2.5321244457607707e-17 2.5320102214092795e-17 1.1422435149170255e-21
3.2227097969389145 4.724278413300192e-25 4.0413467623848473e-17 4.04122629318428e-17 1.2046920056864907e-21
3.2348180950136065 6.376100510185169e-25 5.474878067667225e-17 5.4747542600066896e-17 1.2380766053593669e-21
3.240889293275058 7.611020697980319e-25 6.547515453248054e-17 6.547389884440579e-17 1.2556880747377533e-21
3.2469718861334385 9.03963204361972e-25 7.79109884652345e-17 7.790971455261974e-17 1.2739126147640857e-21
3.2714166318528037 1.665955460677619e-24 1.4466673392715485e-16 1.44665384518047e-16 1.3494091078692677e-21
3.2744851364798273 1.7135874849071668e-24 1.4894253392634852e-16 1.4894117556977626e-16 1.3583565721883038e-21
3.2775565192852394 1.7625871560093664e-24 1.5334521320841777e-16 1.533438458548236e-16 1.3673535941178906e-21
3.283707930232385 1.7154578608318198e-24 1.495250682067705e-16 1.4952368466272917e-16 1.3835440413283683e-21
3.2898708863219004 1.5660073658814266e-24 1.367546453439765e-16 1.3675324697241282e-16 1.398371563624265e-21
3.29141343181113 1.5307631612351904e-24 1.3373955452412645e-16 1.3373815242673288e-16 1.4020973935219757e-21
3.292184975758714 1.5134453990597328e-24 1.322575334761644e-16 1.3225612951300726e-16 1.4039631571071412e-21
3.295272960557952 1.4041392395865697e-24 1.228205404165747e-16 1.2281912917840793e-16 1.4112381668293347e-21
3.3076538914384823 1.025466097614845e-24 9.00348819065279e-17 9.003344139881943e-17 1.4405077084730108e-21
3.310756385682612 9.483950808927785e-25 8.334622827038233e-17 8.334478037467507e-17 1.4478957072760186e-21
3.313861789986515 8.77284448980417e-25 7.716924575862651e-17 7.716779044655875e-17 1.4553120677839865e-21
3.3200813396944477 7.775616390961806e-25 6.85256215435243e-17 6.852415032188325e-17 1.4712216410435956e-21
3.345076488085796 5.996843435505165e-25 5.3247374214487237e-17 5.324583219413097e-17 1.542020356250617e-21
3.3482140837626964 6.063570965153273e-25 5.389036394991599e-17 5.3888812342000094e-17 1.551607915893429e-21
3.3513546224236106 6.13103549251911e-25 5.4541069311063575e-17 5.453950806689121e-17 1.5612441723509942e-21
3.3576445397418455 6.623971483256869e-25 5.903677216147367e-17 5.903519078592655e-17 1.5813755471349623e-21
3.3702598118196083 8.441981122853158e-25 7.552264496331528e-17 7.552102134782506e-17 1.6236154901981997e-21
3.382922481734668 8.856092197931626e-25 7.952498730829649e-17 7.952332245103057e-17 1.6648572659180104e-21
3.389271646505754 9.070623713455e-25 8.160428473525385e-17 8.160259893643618e-17 1.685798817679913e-21
3.395632727569191 9.301801821266918e-25 8.384114991814125e-17 8.383944253557117e-17 1.707382570073196e-21
3.421196662673239 1.0411825214696233e-24 9.455278857051816e-17 9.45509916260304e-17 1.796944487723372e-21
3.4276182099114902 1.0188189702806117e-24 9.26955525040718e-17 9.269373536997159e-17 1.8171341001554113e-21
3.4340518103208963 9.208153856633683e-25 8.393611103528854e-17 8.393427470717562e-17 1.83632811293757e-21
3.4469541582030403 7.812391992978417e-25 7.148072799945192e-17 7.147885462960662e-17 1.873369845307445e-21
3.472904465399547 7.42130902259275e-25 6.841365380672431e-17 6.84116953785307e-17 1.958428193630338e-21
3.4990501388274233 6.823159397839961e-25 6.337312391686862e-17 6.337107796790781e-17 2.0459489608143324e-21
3.5253949054701885 4.694321822793384e-25 4.392887338064632e-17 4.392674165352404e-17 2.1317271222775977e-21
3.5519380250092896 2.6934936032328714e-25 2.5395148751184732e-17 2.5392930189915025e-17 2.218561269714627e-21
3.578680990867387 1.9003333839106936e-25 1.8051870832533916e-17 1.8049556974644406e-17 2.3138578895070358e-21
3.605625307711299 1.5796824336075162e-25 1.5118886793112327e-17 1.5116472170202477e-17 2.4146229098556487e-21
3.660119384959845 1.3460957147468287e-25 1.3077978711835749e-17 1.307535063562565e-17 2.6280762101012605e-21
3.715437065384467 1.1808389850144585e-25 1.1645818710096724e-17 1.1642963018841015e-17 2.8556912557091792e-21
3.8285932144167436 1.0977418596767516e-25 1.1156009710288723e-17 1.1152655602280138e-17 3.354108008591687e-21
3.94519561050918 1.0826463723085708e-25 1.1337690552472342e-17 1.1333778692145174e-17 3.911860327169014e-21
4.06534921144712 1.0955010064779728e-25 1.182170373257391e-17 1.1817171497432894e-17 4.5322351410166694e-21
4.189162171576248 1.1245621468263138e-25 1.2504895509422344e-17 1.2499674980388315e-17 5.220529034023647e-21
4.316745939156006 1.1654510356110755e-25 1.3354263900427529e-17 1.3348284735481976e-17 5.979164945553403e-21
4.448215356677963 1.2166954647644232e-25 1.436604185374306e-17 1.435923823432911e-17 6.803619413949694e-21
4.58368876423945 1.278469120770238e-25 1.5555171258859402e-17 1.554747116666429e-17 7.700092195107096e-21
4.723288106065518 1.3521632471152125e-25 1.6952860851231474e-17 1.6944181342812142e-17 8.679508419333604e-21
4.867139040275056 1.440563102246559e-25 1.861124699654802e-17 1.8601520448748906e-17 9.726547799110221e-21
4.940699165968905 1.4937821316391564e-25 1.9590481222790592e-17 1.9580201126780654e-17 1.0280096009943997e-20
5.015371051989984 1.5488738917468226e-25 2.0619995265229357e-17 2.0609141963367978e-17 1.0853301861375984e-20
5.091171501069577 1.6159800916619592e-25 2.1838518152057445e-17 2.1827060866671724e-17 1.1457285385720638e-20
5.129500256944802 1.650412166551183e-25 2.247175055969633e-17 2.245998364972237e-17 1.1766909973958601e-20
5.168117569889187 1.6862965742281632e-25 2.3133203360331348e-17 2.3121119460074488e-17 1.2083900256849397e-20
5.20702561229733 1.7302826857540086e-25 2.3915320693061243e-17 2.3902894747087043e-17 1.2425945974209758e-20
5.246226572918644 1.775381067366739e-25 2.4723392304402947e-17 2.471061795637058e-17 1.2774348032367061e-20
5.265937586045735 1.7983584352152843e-25 2.513746024354249e-17 2.5124509299851117e-17 1.2950943691367715e-20
5.285722656980489 1.8216273550044117e-25 2.5558381258054348e-17 2.554525211651234e-17 1.3129141542006395e-20
5.305582063971359 1.8451925270894643e-25 2.5986282564684793e-17 2.5972973618828705e-17 1.3308945856098313e-20
5.3255160863122235 1.8705011949018305e-25 2.6441684799348597e-17 2.6428193398904725e-17 1.3491400443870567e-20
5.365609099470188 1.9334852890727948e-25 2.7537805931811447e-17 2.7523936631604297e-17 1.3869300207140764e-20
5.406003951863644 1.998850511785593e-25 2.868310135864371e-17 2.8668847076235604e-17 1.425428240810381e-20
5.446702915881641 2.0667118979681095e-25 2.988016976258662e-17 2.98655233660713e-17 1.4646396515323172e-20
5.487708281020852 2.1400159655726114e-25 3.117291844098279e-17 3.115787149707964e-17 1.5046943903141437e-20
5.529022354014368 2.2418390380332807e-25 3.290199305038376e-17 3.288652723808706e-17 1.5465812296695185e-20
5.570647458961463 2.349635996093404e-25 3.4743670268653167e-17 3.47277776124328e-17 1.5892656220354822e-20
5.612585937458331 2.4638368875984674e-25 3.6706619492486184e-17 3.6690291948086996e-17 1.63275443991913e-20
5.654840148729818 2.5893390432164788e-25 3.8866791062567495e-17 3.8850018907171736e-17 1.677215539576801e-20
5.67608639626678 2.6747956910967704e-25 4.030037109442225e-17 4.0283366530274135e-17 1.7004564148106086e-20
5.686739436050992 2.7188401262378666e-25 4.1040858178150554e-17 4.102373655966054e-17 1.7121618490009704e-20
5.6974124697621304 2.763789963742565e-25 4.1797675526920956e-17 4.178043628549566e-17 1.7239241425304848e-20
5.718818669136295 2.8564930609912e-25 4.3361962819889884e-17 4.334448662094937e-17 1.7476198940500237e-20
5.740305295436557 2.9586716682542114e-25 4.508179468934933e-17 4.506407783211124e-17 1.7716857238082078e-20
5.7835210386641895 3.2237237367169278e-25 4.949024112984067e-17 4.9472024915311904e-17 1.8216214528752428e-20
5.827062130521658 3.528993036964568e-25 5.458456872135292e-17 5.456583966952721e-17 1.8729051825700182e-20
5.8489554468988025 3.7431561705554522e-25 5.81146589218785e-17 5.809565463441765e-17 1.9004287460841426e-20
5.870931020387893 3.9729455839935298e-25 6.191402347490584e-17 6.189474092220585e-17 1.9282552699982328e-20
5.892989160043636 4.2196186023091775e-25 6.600521857248899e-17 6.598565470268673e-17 1.9563869802268346e-20
5.915130176081913 4.500143258240937e-25 7.065779479997632e-17 7.063793964134764e-17 1.985515862867217e-20
5.95966208400165 5.2845160940381915e-25 8.359807818101638e-17 8.357757065999625e-17 2.050752102015042e-20
6.004529249263818 6.414990701459367e-25 1.0224555318290565e-16 1.0222431693178016e-16 2.1236251125496812e-20
6.027089341400364 7.200815839815185e-25 1.1520166773609288e-16 1.151800161809794e-16 2.165155511348387e-20
6.049734195844842 8.12937307757528e-25 1.3054576321790538e-16 1.3052367263363035e-16 2.209058427507605e-20
6.095279466722835 1.0811596778648512e-24 1.749254081569157e-16 1.7490225896592097e-16 2.3149190994710316e-20
6.141167624020661 1.4939208709420197e-24 2.4352748259555353e-16 2.435029846920356e-16 2.449790351801318e-20
6.164241091010745 1.757517806408809e-24 2.875734469280402e-16 2.8754811501335527e-16 2.5331914684987e-20
6.187401249150058 2.0577628179051782e-24 3.3796601375039234e-16 3.379398215801201e-16 2.6192170272138192e-20
6.1990139391386085 2.2043671670857045e-24 3.6272373916972934e-16 3.6269710843024276e-16 2.663073948656431e-20
6.204828454712694 2.2815901526788498e-24 3.757827548106398e-16 3.757559021485103e-16 2.6852662129427317e-20
6.210648424152782 2.337963904012219e-24 3.85428815184872e-16 3.8540177035348235e-16 2.704483138967417e-20
6.233982942956859 2.5294843494420592e-24 4.185689795970795e-16 4.185412514202514e-16 2.772817682824633e-20
6.239830258556775 2.5539641515842656e-24 4.230162060994314e-16 4.229883731833385e-16 2.783291609315857e-20
6.245683058788269 2.5560838959331135e-24 4.237644095844967e-16 4.2373647160695567e-16 2.7937977541119854e-20
6.257405133728602 2.5508156215152702e-24 4.2368469419396703e-16 4.2365656644692063e-16 2.812774704629656e-20
6.269149208991335 2.5131407423111698e-24 4.182104209233685e-16 4.1818219528724676e-16 2.8225636121609613e-20
6.280915325867298 2.4186722549683178e-24 4.0324537451967225e-16 4.0321716508206623e-16 2.8209437606057754e-20
6.304513850009849 2.185712483055121e-24 3.6577504196403785e-16 3.657469685808006e-16 2.807338323721679e-20
6.32820103803542 1.896970782230156e-24 3.1864737304846337e-16 3.186195460210334e-16 2.782702742989999e-20
6.3519772230701035 1.632178978764026e-24 2.7519855256179116e-16 2.7517093689068455e-16 2.761567110664679e-20
6.375842739491607 1.4094055931669162e-24 2.3853000666759535e-16 2.385025668495611e-16 2.743981803418339e-20
6.399797922933955 1.230879246112622e-24 2.0909860877052682e-16 2.090712116240021e-16 2.7397146524663276e-20
6.42384311029221 1.08244486750758e-24 1.845738385242881e-16 1.845464574342462e-16 2.738109004189149e-20
6.447978639727206 9.742884441789526e-25 1.6675565656694717e-16 1.6672818639064091e-16 2.747017630624269e-20
6.472204850670314 8.84187879974251e-25 1.5190296297337812e-16 1.518753820544819e-16 2.758091889617469e-20
6.496522083828205 8.2563980708505545e-25 1.423773731061868e-16 1.423495950668883e-16 2.777803929852395e-20
6.520930681187647 7.763207889390542e-25 1.3437554319743335e-16 1.3434755349368403e-16 2.7989703749351687e-20
