Dust emission spectrum from A.P. Jones, M. Kohler, N. Ysard, M. Bocchio, and L. Verstraete (2017), A&A, 602A, 46J 
inside the DustPedia framework.

lambda    nu*dP/dnu     j_nu    j_nu(carb.) j_nu(sil)
 (um)   (erg s-1 H-1) (Jy cm2 sr-1 H-1)
0.9927057738263894 1.8181026097000523e-22 4.7908036427262905e-15 4.790803477858638e-15 1.6486765326608245e-22
1.0001793341362166 1.8486938432386429e-22 4.908087592318961e-15 4.908087393899013e-15 1.9841994707563442e-22
1.0077091589558085 1.879400591221251e-22 5.027174935082045e-15 5.027174696598909e-15 2.3848313621232497e-22
1.0114953028030835 1.8947957718312783e-22 5.087397946204742e-15 5.087397684882156e-15 2.613225862781773e-22
1.0152956718711033 1.910218040699652e-22 5.148075532417337e-15 5.14807524616338e-15 2.862539572755984e-22
1.0229392996569957 1.9411265470424173e-22 5.270758841599484e-15 5.270758498458998e-15 3.431404846322245e-22
1.0267826658714554 1.9565776151330217e-22 5.3326740850509304e-15 5.332673709532941e-15 3.7551799002755687e-22
1.0306404723013447 1.9720527750773218e-22 5.395046087033602e-15 5.39504567621997e-15 4.1081363356234965e-22
1.03451277320114 1.9875515065613717e-22 5.457876224610101e-15 5.4578757753330005e-15 4.49277102033426e-22
1.0383996230291617 2.003073303464953e-22 5.521165908059732e-15 5.521165416881513e-15 4.9117822026740495e-22
1.0403485208654093 2.0108426972582012e-22 5.552983529683141e-15 5.552983016175048e-15 5.135080961201413e-22
1.0423010764483396 2.0186176742295593e-22 5.584916582510743e-15 5.584916045702274e-15 5.368084686763253e-22
1.0462171883269815 2.034184142224005e-22 5.6491297295960594e-15 5.649129143113451e-15 5.864826064305502e-22
1.0471985131304309 2.0380791575102727e-22 5.665255454956795e-15 5.665254855384554e-15 5.995722401699965e-22
1.048180758391296 2.0419755179062625e-22 5.681410203781337e-15 5.681409590840053e-15 6.129412860108372e-22
1.0501480137395462 2.0497722461074736e-22 5.7138068691322524e-15 5.713806228591844e-15 6.405404069268356e-22
1.0521189612883777 2.0575742716082734e-22 5.7463199218712844e-15 5.746319252544632e-15 6.69326653609316e-22
1.0531058218030118 2.0614720582614495e-22 5.762605631839263e-15 5.7626049476582405e-15 6.841810231606283e-22
1.0540936079674168 2.065354127411265e-22 5.778872859707528e-15 5.778872160353657e-15 6.993538707652146e-22
1.058054026499678 2.080894622798973e-22 5.844230887986142e-15 5.844230124658835e-15 7.633273069006062e-22
1.0590464539527713 2.0847827694435114e-22 5.86064280029071e-15 5.8606420201161954e-15 7.801745142894772e-22
1.06003981227728 2.0886721126768575e-22 5.877083725717876e-15 5.877082928340833e-15 7.973770409980606e-22
1.0620293250338977 2.096454364379185e-22 5.910052719428782e-15 5.910051886552119e-15 8.328766626390863e-22
1.0660195594769086 2.1120329607633574e-22 5.976340012952358e-15 5.976339104490239e-15 9.0846211890744e-22
1.070024785945596 2.127630037804145e-22 6.0430944748061115e-15 6.0430934842265624e-15 9.905795500473076e-22
1.0740450607676866 2.1432452389373406e-22 6.110317860386629e-15 6.110316780623529e-15 1.0797631012071462e-21
1.07808044048254 2.158878225520021e-22 6.178011976073621e-15 6.178010799485685e-15 1.1765879367944947e-21
1.0861967418109137 2.1901722373829054e-22 6.314750534380451e-15 6.3147491386953066e-15 1.39568514502621e-21
1.0902777775684922 2.205777984377225e-22 6.3836400541215045e-15 6.383638534780815e-15 1.5193406910163485e-21
1.0943741465085532 2.2213994008387813e-22 6.45300361154571e-15 6.453001958135709e-15 1.6534100002375516e-21
1.1026131145906286 2.252688304162065e-22 6.593161151355206e-15 6.5931591951906615e-15 1.9561645462920192e-21
1.1109141095355224 2.2840372733648088e-22 6.7352404173960704e-15 6.735238106055001e-15 2.3113410684235812e-21
1.1192775983109025 2.315420261442462e-22 6.879186348169214e-15 6.879183620706856e-15 2.727462358473495e-21
1.1277040513999907 2.3467227139494874e-22 7.024676850969061e-15 7.0246736366281544e-15 3.214340905941276e-21
1.1361939428280308 2.3780785504957313e-22 7.172129101622448e-15 7.172125318364052e-15 3.783258396788136e-21
1.1447477501889525 2.409487507253411e-22 7.321564802394454e-15 7.321560355226239e-15 4.447168217207048e-21
1.1533659546722406 2.440961075394851e-22 7.4730418563099e-15 7.473036635379452e-15 5.220930447904535e-21
1.1707974979042381 2.5041975362830273e-22 7.782512064922129e-15 7.782504896341873e-15 7.168580255776364e-21
1.1884924949847024 2.5676970849979856e-22 8.100459681283062e-15 8.10044988779203e-15 9.793491036203982e-21
1.2064549276569216 2.631890919770256e-22 8.428463693390971e-15 8.428450379886626e-15 1.3313504343524532e-20
1.2246888378427687 2.696354206984447e-22 8.765407991250851e-15 8.765389981246058e-15 1.8010004789423074e-20
1.2431983285522175 2.7610317277918567e-22 9.1113189101487e-15 9.111294664976807e-15 2.42451718917643e-20
1.2619875648066055 2.8260144566598713e-22 9.46670595603759e-15 9.46667347323193e-15 3.2482805659748894e-20
1.3004222497298317 2.956478166238717e-22 1.02053640252324e-14 1.0205306540668674e-14 5.748456372594538e-20
1.3400274889804893 3.0881172828887654e-22 1.0984414846368901e-14 1.0984314981443089e-14 9.986492581196011e-20
1.3808389325824078 3.221397422910922e-22 1.1807467623195203e-14 1.180729723376039e-14 1.703894348155168e-19
1.4228933163050095 3.3574376307781957e-22 1.2680889734746559e-14 1.2680604070839897e-14 2.856639066634919e-19
1.466228494730424 3.4986388671002546e-22 1.3616647815186543e-14 1.3616176980633626e-14 4.708345529152333e-19
1.5108834753276823 3.6446884915411214e-22 1.4617086594347704e-14 1.4616323333697772e-14 7.632606499332299e-19
1.5568984535646726 3.7954421445435023e-22 1.5685273508083656e-14 1.5684055284439007e-14 1.2182236446449369e-18
1.6043148490894465 3.951796924302202e-22 1.682881960834665e-14 1.682690163803185e-14 1.9179703147979634e-18
1.6531753430134553 4.114702700418239e-22 1.8056219011567777e-14 1.805324390242244e-14 2.975109145335842e-18
1.7035239163302658 4.285280533132205e-22 1.9377463441406906e-14 1.9372915535277692e-14 4.5479061292088585e-18
1.755405889504358 4.466780342766478e-22 2.0813330493008627e-14 2.0806475862302892e-14 6.854630705727184e-18
1.8088679632656115 4.659173840618489e-22 2.2370990585113114e-14 2.2360800605106085e-14 1.0189980007029513e-17
1.8639582606462262 4.862350215429883e-22 2.4057575210562912e-14 2.4042628323903966e-14 1.494688665894716e-17
1.9207263702978936 5.076882868143981e-22 2.5884040798716552e-14 2.586239974486766e-14 2.1641053848888436e-17
1.979223391128241 5.303642408454437e-22 2.7863680563783333e-14 2.783274041385745e-14 3.0940149925880713e-17
2.039501978296691 5.543366284846976e-22 3.0010079094725807e-14 2.9966383689849646e-14 4.3695404876154935e-17
2.1016163906111602 5.798474444853576e-22 3.234719505809248e-14 3.228621387547429e-14 6.098118261818734e-17
2.1656225393682647 6.0700603903033755e-22 3.489355416020025e-14 3.4809424338755334e-14 8.412982144492217e-17
2.231578038680979 6.357317598539463e-22 3.765784124844629e-14 3.754307051497319e-14 1.1477073347310312e-16
2.299542257339062 6.66032089108402e-22 4.0654252629023026e-14 4.049938167607476e-14 1.5487095294826655e-16
2.369576372248914 6.979780239137937e-22 4.3901756102855964e-14 4.369497810223411e-14 2.0677800062185293e-16
2.4417434235010123 7.316584721760579e-22 4.74217815462832e-14 4.714853018803107e-14 2.732513582521138e-16
2.5161083711144245 7.672931766477914e-22 5.124601647056992e-14 5.088851211439176e-14 3.575043561781585e-16
2.5927381535095444 8.052740646450674e-22 5.542067406924628e-14 5.495744631874573e-14 4.632277505005401e-16
2.6717017477616296 8.4594153372060755e-22 5.999260992239873e-14 5.939802944639548e-14 5.945804760032483e-16
2.753070231689431 8.898176049555494e-22 6.502610149222566e-14 6.426990923560579e-14 7.561922566198744e-16
2.836916847834745 9.383724796529222e-22 7.066287479257973e-14 6.970969221944344e-14 9.531825731362946e-16
2.9233170693905177 9.948853231509444e-22 7.720019184355837e-14 7.600930104492139e-14 1.1908907986369887e-15
2.967498994190263 1.029278569428747e-21 8.107611759337087e-14 7.975190486677967e-14 1.324212726591197e-15
3.0123486681368425 1.0661373927567122e-21 8.524871613357621e-14 8.377818070834819e-14 1.470535425228045e-15
3.0578761833420214 1.1251215442366843e-21 9.132480850483729e-14 8.969342602419688e-14 1.6313824806404127e-15
3.1040917844459814 1.1940082639326442e-21 9.8381019795744e-14 9.657478250015765e-14 1.8062372955863402e-15
3.127460860933648 1.2564701303784438e-21 1.0430700730137926e-13 1.0240722050957843e-13 1.8997867918007997e-15
3.1510058709225794 1.33544867592428e-21 1.1169811580825193e-13 1.0970086945744978e-13 1.997246350802179e-15
3.162844764501044 1.4060049281670214e-21 1.1804134594459692e-13 1.159936842462515e-13 2.047661698345411e-15
3.1747281389236908 1.4858126258633791e-21 1.2521028926904334e-13 1.231112013367396e-13 2.0990879323036923e-15
3.1986289994194426 1.70140749207521e-21 1.4445801544275053e-13 1.4225272498531513e-13 2.2052904574354537e-15
3.2227097969389145 2.1976499502042873e-21 1.8799623422085916e-13 1.85678461207942e-13 2.3177730129171505e-15
3.2348180950136065 2.6623315936679134e-21 2.2860274595336785e-13 2.262249593194074e-13 2.3777866339604428e-15
3.240889293275058 3.0091409200463375e-21 2.588666810515014e-13 2.564572387293255e-13 2.40944232217597e-15
3.2469718861334385 3.410933720202927e-21 2.9398233959973923e-13 2.915401429907108e-13 2.442196609028401e-15
3.2714166318528037 5.520296352554268e-21 4.793665031772119e-13 4.76788992696819e-13 2.5775104803932257e-15
3.2744851364798273 5.6523600416989276e-21 4.912949205626859e-13 4.887014754859353e-13 2.5934450767504718e-15
3.2775565192852394 5.787961294606867e-21 5.035530616103295e-13 5.009436033863603e-13 2.6094582239690463e-15
3.283707930232385 5.659036038620747e-21 4.932605859808388e-13 4.906225148198795e-13 2.6380711609591445e-15
3.2898708863219004 5.247294521952226e-21 4.582302210060621e-13 4.555661323060811e-13 2.664088699980942e-15
3.29141343181113 5.150004435330207e-21 4.4994504468122264e-13 4.4727442340445135e-13 2.6706212767712004e-15
3.292184975758714 5.102170934167631e-21 4.4587042489013855e-13 4.431965330915854e-13 2.6738917985531615e-15
3.295272960557952 4.803475720015132e-21 4.20161667146245e-13 4.1747505775950766e-13 2.6866093867373614e-15
3.3076538914384823 3.7613972521973535e-21 3.302468586653593e-13 3.275091803440545e-13 2.737678321304876e-15
3.310756385682612 3.547262758468494e-21 3.1173819598898406e-13 3.0898764760231015e-13 2.7505483866738153e-15
3.313861789986515 3.3488926278926513e-21 2.9458121424750047e-13 2.918177546014282e-13 2.7634596460722925e-15
3.3200813396944477 3.072052131135403e-21 2.707364549836316e-13 2.679452144085241e-13 2.7912405751075405e-15
3.345076488085796 2.5900533167409546e-21 2.2997688646570744e-13 2.270618165445382e-13 2.9150699211692333e-15
3.3482140837626964 2.610162613302854e-21 2.3197982510261426e-13 2.2904797949957355e-13 2.9318456030407595e-15
3.3513546224236106 2.6304540867419895e-21 2.3400252508670024e-13 2.3105382941919066e-13 2.948695667509668e-15
3.3576445397418455 2.7708473075770395e-21 2.469543862094476e-13 2.439704572208486e-13 2.9839289885990715e-15
3.3702598118196083 3.278419646199898e-21 2.9329006944880757e-13 2.902322393022386e-13 3.0578301465689838e-15
3.382922481734668 3.400837231795589e-21 3.053847358988555e-13 3.02255104857171e-13 3.1296310416845467e-15
3.389271646505754 3.463941278825216e-21 3.116350753302084e-13 3.084690568868731e-13 3.166018443335231e-15
3.395632727569191 3.533226199045424e-21 3.1846490942388706e-13 3.1526139155541987e-13 3.2035178684673005e-15
3.421196662673239 3.868486045265861e-21 3.5130837829445315e-13 3.4794966293080424e-13 3.3587153636488354e-15
3.4276182099114902 3.809343617488471e-21 3.4658680452690914e-13 3.4319348677697747e-13 3.3933177499316615e-15
3.4340518103208963 3.537839499305337e-21 3.22488626560897e-13 3.190625968054441e-13 3.4260297554529105e-15
3.4469541582030403 3.1488784573974135e-21 2.8811166249576097e-13 2.8462287836598315e-13 3.4887841297778263e-15
3.472904465399547 3.0443914396528876e-21 2.8064852355629647e-13 2.770151332909262e-13 3.6333902653702775e-15
3.4990501388274233 2.8842580257362264e-21 2.678882766993098e-13 2.641069827683874e-13 3.781293930922457e-15
3.5253949054701885 2.3058473011119472e-21 2.1577829119814505e-13 2.1185342724142364e-13 3.924863956721431e-15
3.5519380250092896 1.755652704291384e-21 1.6552874500012225e-13 1.6145967588076675e-13 4.069069119355564e-15
3.578680990867387 1.543751324867227e-21 1.4664584514485339e-13 1.4241873714002825e-13 4.227108004825152e-15
3.605625307711299 1.4650024738449402e-21 1.4021303321775304e-13 1.3581954133540674e-13 4.3934918823462956e-15
3.660119384959845 1.4216614953013315e-21 1.3812137255398831e-13 1.333786029376794e-13 4.742769616308931e-15
3.715437065384467 1.3957564070866495e-21 1.3765404332571262e-13 1.3254348358017538e-13 5.110559745537227e-15
3.8285932144167436 1.4135491918723972e-21 1.4365461580505695e-13 1.377550686397628e-13 5.899547165294092e-15
3.94519561050918 1.449145671038256e-21 1.5175744919047151e-13 1.4499980330870902e-13 6.757645881762544e-15
4.06534921144712 1.4911608608561157e-21 1.6091324252932408e-13 1.5322997655206205e-13 7.683265977262002e-15
4.189162171576248 1.5361495046423903e-21 1.7081660712674547e-13 1.6213911227521382e-13 8.677494851531615e-15
4.316745939156006 1.5825704174661653e-21 1.8133806011654377e-13 1.716021877209087e-13 9.735872395635065e-15
4.448215356677963 1.6296171726624305e-21 1.9241584427685672e-13 1.815730130169253e-13 1.0842831259931444e-14
4.58368876423945 1.6770529594172938e-21 2.0404752504461329e-13 1.9204857832707013e-13 1.1998946717543124e-14
4.723288106065518 1.7250003409694677e-21 2.1627337387828357e-13 2.0306268821692952e-13 1.3210685661354044e-14
4.867139040275056 1.7735930535696987e-21 2.2913802484507816e-13 2.1469355453456393e-13 1.4444470310514253e-14
4.940699165968905 1.7990438036274627e-21 2.3593891711147656e-13 2.2086571800048018e-13 1.5073199110996397e-14
5.015371051989984 1.8239131122078264e-21 2.4281563488360907e-13 2.2710791552328424e-13 1.5707719360324834e-14
5.091171501069577 1.8511969253269343e-21 2.501726219610014e-13 2.338106824672558e-13 1.6361939493745674e-14
5.129500256944802 1.864584246295835e-21 2.53878836629383e-13 2.3718836332810613e-13 1.669047330127693e-14
5.168117569889187 1.8780736366464146e-21 2.576406785508902e-13 2.4061743148790335e-13 1.70232470629869e-14
5.20702561229733 1.8937688551946973e-21 2.617496543391492e-13 2.4436238771615914e-13 1.738726662299007e-14
5.246226572918644 1.9093647529239085e-21 2.658920651257902e-13 2.4813890997057077e-13 1.7753155155219437e-14
5.265937586045735 1.917125740964374e-21 2.6797590041939985e-13 2.5003915170868264e-13 1.793674871071723e-14
5.285722656980489 1.9248622860873714e-21 2.7006821149187217e-13 2.51947464226321e-13 1.8120747265551145e-14
5.305582063971359 1.9325745659656416e-21 2.721690447539478e-13 2.5386391504078393e-13 1.830512971316389e-14
5.3255160863122235 1.9406910596284457e-21 2.7433899230576203e-13 2.558475857213923e-13 1.8491406584369754e-14
5.365609099470188 1.960173133852555e-21 2.791790951699868e-13 2.603022417165774e-13 1.8876853453409357e-14
5.406003951863644 1.9797464619815535e-21 2.8408962100275484e-13 2.6482546380269587e-13 1.926415720005894e-14
5.446702915881641 1.9994249104415753e-21 2.8907345919997555e-13 2.694203103010852e-13 1.9653148898890377e-14
5.487708281020852 2.0200372485366727e-21 2.942522738587688e-13 2.742068773996322e-13 2.004539645913668e-14
5.529022354014368 2.0480320590826317e-21 3.0057615837582516e-13 2.8012189454261094e-13 2.04542638332143e-14
5.570647458961463 2.076727064501744e-21 3.0708212032417434e-13 2.8621710273768556e-13 2.086501758648881e-14
5.612585937458331 2.1061894291880277e-21 3.1378332853705126e-13 2.925058429170637e-13 2.1277485619987552e-14
5.654840148729818 2.1377172570435844e-21 3.208780642227066e-13 2.991844337978808e-13 2.169363042482592e-14
5.67608639626678 2.1592567103122795e-21 3.253289475654314e-13 3.034174230530832e-13 2.1911524512348123e-14
5.686739436050992 2.1702285950425327e-21 3.275957387996676e-13 3.05575069334951e-13 2.202066946471649e-14
5.6974124697621304 2.1813399886360294e-21 3.298909911932756e-13 3.077610484643652e-13 2.2129942728910424e-14
5.718818669136295 2.2039960660669526e-21 3.3456967488244556e-13 3.1222081163501326e-13 2.2348863247432376e-14
5.740305295436557 2.228784208124724e-21 3.396037254002924e-13 3.170337510874527e-13 2.256997431283978e-14
5.7835210386641895 2.2930410957459188e-21 3.520250679565736e-13 3.2899817588249515e-13 2.3026892074078433e-14
5.827062130521658 2.3652233155377345e-21 3.658400378124972e-13 3.423497589606671e-13 2.3490278851830064e-14
5.8489554468988025 2.4164867603589313e-21 3.7517350991704767e-13 3.514324177106159e-13 2.37410922064318e-14
5.870931020387893 2.4706116936076242e-21 3.850178844927478e-13 3.610250737037763e-13 2.3992810788971497e-14
5.892989160043636 2.5278255341699617e-21 3.9541411824447565e-13 3.7116870493230753e-13 2.4245413312168312e-14
5.915130176081913 2.592526199718121e-21 4.070585617419869e-13 3.8255111893595555e-13 2.4507442806031306e-14
5.95966208400165 2.7744934174162805e-21 4.389092842077836e-13 4.1380123093590817e-13 2.5108053271875452e-14
6.004529249263818 3.034672130849089e-21 4.836822766973382e-13 4.578963761117027e-13 2.578590058563527e-14
6.027089341400364 3.215410865033369e-21 5.144148973515539e-13 4.882355643094001e-13 2.617933304215362e-14
6.049734195844842 3.426841886962968e-21 5.5030035562607e-13 5.237038943022159e-13 2.6596461323854354e-14
6.095279466722835 4.036425344774623e-21 6.530703700715351e-13 6.254425367471522e-13 2.7627833324382817e-14
6.141167624020661 4.96526856487578e-21 8.093998668433925e-13 7.804259359682813e-13 2.8973930875111304e-14
6.164241091010745 5.557087206865361e-21 9.092771163572879e-13 8.794547139360835e-13 2.9822402421204255e-14
6.187401249150058 6.222125131432523e-21 1.0219189546184553e-12 9.91225970301148e-13 3.0692984317307086e-14
6.1990139391386085 6.545133656394424e-21 1.0769872590470887e-12 1.045851423861726e-12 3.113583518536249e-14
6.204828454712694 6.714512659430059e-21 1.105894527730591e-12 1.0745350843559034e-12 3.135944337468751e-14
6.210648424152782 6.837003462668386e-21 1.1271252475322096e-12 1.0955761030564788e-12 3.154914447573063e-14
6.233982942956859 7.247203952431965e-21 1.1992383997040633e-12 1.1670313129640914e-12 3.2207086739972087e-14
6.239830258556775 7.296245534171297e-21 1.2084860716312324e-12 1.17619028032012e-12 3.2295791311112635e-14
6.245683058788269 7.295256122681e-21 1.2094555693239642e-12 1.1770709573128323e-12 3.238461201113141e-14
6.257405133728602 7.271902906255183e-21 1.2078465934808466e-12 1.1753080328835493e-12 3.253856059729777e-14
6.269149208991335 7.176069262974457e-21 1.1941658883313773e-12 1.1615780950507561e-12 3.258779328062088e-14
6.280915325867298 6.953765461977807e-21 1.1593442444618992e-12 1.1268366130632619e-12 3.250763139863694e-14
6.304513850009849 6.413076537542818e-21 1.073216792155345e-12 1.040986426397362e-12 3.223036575798294e-14
6.32820103803542 5.754503400209066e-21 9.666239505910297e-13 9.347952610210906e-13 3.1828689569938755e-14
6.3519772230701035 5.153862500147495e-21 8.689828251661008e-13 8.37516098922022e-13 3.14667262440789e-14
6.375842739491607 4.6470800931504825e-21 7.8647910223864e-13 7.553335381957023e-13 3.114556404293763e-14
6.399797922933955 4.244971618814674e-21 7.211248890318076e-13 6.901531814179279e-13 3.097170761387968e-14
6.42384311029221 3.909114084859287e-21 6.665653037213795e-13 6.357380431816129e-13 3.0827260539766785e-14
6.447978639727206 3.665163101252999e-21 6.273159483990888e-13 5.9651844847971e-13 3.079749991937891e-14
6.472204850670314 3.46093462286249e-21 5.945865531263254e-13 5.63796120639701e-13 3.0790432486624455e-14
6.496522083828205 3.327587970164645e-21 5.738255712796359e-13 5.4294944715183e-13 3.0876124127806063e-14
