Dust emission spectrum from A.P. Jones, M. Kohler, N. Ysard, M. Bocchio, and L. Verstraete (2017), A&A, 602A, 46J 
inside the DustPedia framework.

lambda    nu*dP/dnu     j_nu    j_nu(carb.) j_nu(sil)
 (um)   (erg s-1 H-1) (Jy cm2 sr-1 H-1)
0.9927057738263894 1.2754829627661568e-25 3.3609700528748166e-18 3.3609700528128414e-18 6.197510980407492e-29
1.0001793341362166 1.2965360205480104e-25 3.4421666836399157e-18 3.4421666835652666e-18 7.464982437194997e-29
1.0077091589558085 1.3175586699048644e-25 3.524314056186235e-18 3.524314056096433e-18 8.980066789655028e-29
1.0114953028030835 1.3280560041169411e-25 3.565740164840848e-18 3.565740164742403e-18 9.84450973292724e-29
1.0152956718711033 1.338542639716668e-25 3.607398980536677e-18 3.607398980428791e-18 1.0788666880772037e-28
1.0229392996569957 1.3594694232075402e-25 3.69137988101438e-18 3.691379880884931e-18 1.2944868561117143e-28
1.0267826658714554 1.3698841727994643e-25 3.733634572586317e-18 3.733634572444585e-18 1.4173143309798829e-28
1.0306404723013447 1.3802836223168942e-25 3.77611281487401e-18 3.7761128147188796e-18 1.5512919336600311e-28
1.03451277320114 1.3906667690817205e-25 3.8188127805844605e-18 3.818812780414723e-18 1.6973822209071565e-28
1.0383996230291617 1.4010326160175287e-25 3.8617326196974416e-18 3.861732619511779e-18 1.8566262262017732e-28
1.0403485208654093 1.4062087420420649e-25 3.8832744075422664e-18 3.883274407348114e-18 1.941529120643375e-28
1.0423010764483396 1.411380171840968e-25 3.9048704599051704e-18 3.904870459702154e-18 2.0301494520175947e-28
1.0462171883269815 1.4217084512488943e-25 3.948224407052563e-18 3.948224406830647e-18 2.219168286005489e-28
1.0471985131304309 1.4242873942799882e-25 3.959096436532903e-18 3.959096436306003e-18 2.268995933345169e-28
1.048180758391296 1.4268650560701206e-25 3.9699818229397346e-18 3.9699818227077455e-18 2.3198952089458943e-28
1.0501480137395462 1.432016475101276e-25 3.991792545577872e-18 3.991792545335373e-18 2.4249968684649504e-28
1.0521189612883777 1.4371625869421579e-25 4.013656332249303e-18 4.013656331995838e-18 2.5346540113430027e-28
1.0531058218030118 1.4397296602325731e-25 4.024596993751745e-18 4.024596993492619e-18 2.591252970497969e-28
1.0540936079674168 1.4422824048754445e-25 4.035514556535294e-18 4.035514556270387e-18 2.649074254322535e-28
1.058054026499678 1.4524788262877642e-25 4.079313545113073e-18 4.079313544823777e-18 2.892965301286949e-28
1.0590464539527713 1.4550242178643375e-25 4.0902953207692974e-18 4.0902953204735755e-18 2.957218796129382e-28
1.06003981227728 1.4575680942311732e-25 4.101289845227586e-18 4.101289844925302e-18 3.02283803212348e-28
1.0620293250338977 1.4626512421581112e-25 4.1233170147504005e-18 4.123317014434572e-18 3.1582847438556542e-28
1.0660195594769086 1.4727987061079068e-25 4.167522951514846e-18 4.167522951170164e-18 3.4468183410163103e-28
1.070024785945596 1.482920278955171e-25 4.211929322816253e-18 4.211929322440204e-18 3.7604919981029495e-28
1.0740450607676866 1.4930150288691758e-25 4.256534077849266e-18 4.256534077439128e-18 4.101382032569139e-28
1.07808044048254 1.5030820315208453e-25 4.301335148035071e-18 4.301335147587899e-18 4.471726133378667e-28
1.0861967418109137 1.5231113297005084e-25 4.391466533536233e-18 4.3914665330051725e-18 5.3106057999930855e-28
1.0902777775684922 1.5330313238369674e-25 4.4366750563210605e-18 4.436675055742608e-18 5.784534616455421e-28
1.0943741465085532 1.5429192440770627e-25 4.482068128132737e-18 4.482068127502863e-18 6.298728266851933e-28
1.1026131145906286 1.5625953530677074e-25 4.5733992395216845e-18 4.5733992387755746e-18 7.461099764157896e-28
1.1109141095355224 1.582132722382406e-25 4.665442364597025e-18 4.665442363714359e-18 8.826646082677124e-28
1.1192775983109025 1.6015064004774916e-25 4.758125835785405e-18 4.758125834742526e-18 1.042877677612343e-27
1.1277040513999907 1.6206263352484115e-25 4.851180854737909e-18 4.851180853507306e-18 1.230602804008886e-27
1.1361939428280308 1.6395849891313489e-25 4.944880905082359e-18 4.944880903632081e-18 1.4502784410877146e-27
1.1447477501889525 1.6583760520043027e-25 5.039207588724628e-18 5.0392075870176174e-18 1.707010284074853e-27
1.1533659546722406 1.6770036109511806e-25 5.134173708932978e-18 5.134173706926313e-18 2.006666513891036e-27
1.1707974979042381 1.7138285013093402e-25 5.32621360551482e-18 5.326213602752133e-18 2.762686513596367e-27
1.1884924949847024 1.749920200332646e-25 5.520572543808647e-18 5.520572540023923e-18 3.784725535948095e-27
1.2064549276569216 1.785561332607847e-25 5.7181468848723204e-18 5.718146879712749e-18 5.159570326654253e-27
1.2246888378427687 1.8203624394199765e-25 5.9177015512772336e-18 5.917701544277465e-18 6.999767586865547e-27
1.2431983285522175 1.85424218644811e-25 6.118941599737296e-18 6.118941590286527e-18 9.450769018555319e-27
1.2619875648066055 1.8871880681743655e-25 6.321784548216684e-18 6.321784535517094e-18 1.2699590404882739e-26
1.3004222497298317 1.9497308522512523e-25 6.730208031187611e-18 6.730208008575559e-18 2.2612050550869607e-26
1.3400274889804893 2.0077473316470065e-25 7.141545342109117e-18 7.141545302578373e-18 3.953074455534833e-26
1.3808389325824078 2.0610238111950445e-25 7.554321533953992e-18 7.554321466068764e-18 6.788522412629057e-26
1.4228933163050095 2.1098213986394205e-25 7.968699781908993e-18 7.968699667338293e-18 1.1457070061715754e-25
1.466228494730424 2.1553166650288217e-25 8.388458790039182e-18 8.388458599911259e-18 1.9012792204806625e-25
1.5108834753276823 2.1966267347405245e-25 8.80960972979746e-18 8.80960941942509e-18 3.103723697183669e-25
1.5568984535646726 2.233037771078219e-25 9.228386801679491e-18 9.228386302752963e-18 4.989265258353718e-25
1.6043148490894465 2.2646183052241044e-25 9.643930007133574e-18 9.643929215904315e-18 7.912292564449866e-25
1.6531753430134553 2.291466407445023e-25 1.0055457787089246e-17 1.0055456550621065e-17 1.2364681866760832e-24
1.7035239163302658 2.313902586481483e-25 1.0463156946168248e-17 1.0463155041657848e-17 1.9045104027942488e-24
1.755405889504358 2.333768605342337e-25 1.0874386817757446e-17 1.087438392493568e-17 2.89282176496029e-24
1.8088679632656115 2.350612452525081e-25 1.1286449238328416e-17 1.1286444903689995e-17 4.33463842050299e-24
1.8639582606462262 2.364128624332447e-25 1.1697059995151764e-17 1.169705358526385e-17 6.409887917566945e-24
1.9207263702978936 2.3745423421886964e-25 1.2106395294079708e-17 1.2106385936156154e-17 9.3579235537006e-24
1.979223391128241 2.3823750114576964e-25 1.2516254149521663e-17 1.2516240656508428e-17 1.349301323638521e-23
2.039501978296691 2.3882499874248143e-25 1.2929250447785464e-17 1.292923122592472e-17 1.922186074318105e-23
2.1016163906111602 2.393909876919523e-25 1.3354593605036648e-17 1.3354566539288418e-17 2.7065748229763524e-23
2.1656225393682647 2.4003657596946774e-25 1.3798428228818719e-17 1.3798390546789343e-17 3.7682029376079905e-23
2.231578038680979 2.4076911629745757e-25 1.426206103206388e-17 1.4262009143046558e-17 5.188901732491385e-23
2.299542257339062 2.4164917581691905e-25 1.475014012374002e-17 1.4750069430369998e-17 7.069337002183984e-23
2.369576372248914 2.4281046803092214e-25 1.527240913251221e-17 1.52723138118529e-17 9.532065931105318e-23
2.4417434235010123 2.444108483174245e-25 1.5841267882785724e-17 1.5841140639750365e-17 1.2724303536462326e-22
2.5161083711144245 2.4672057230921304e-25 1.6477986377285432e-17 1.647781816302608e-17 1.6821425934586164e-22
2.5927381535095444 2.501818084382048e-25 1.721804423146249e-17 1.7217823932180452e-17 2.20299282042725e-22
2.6717017477616296 2.553222848195545e-25 1.8106984498451256e-17 1.810669860804349e-17 2.8589040776382597e-22
2.753070231689431 2.6293642548042806e-25 1.921487122088066e-17 1.9214503488422652e-17 3.6773245800744633e-22
2.836916847834745 2.7482417065700723e-25 2.06952637488831e-17 2.0694794790900313e-17 4.689579827840742e-22
2.9233170693905177 2.9494961266777433e-25 2.2887227454536193e-17 2.2886634452013035e-17 5.93002523160492e-22
2.967498994190263 3.1201502476997544e-25 2.4577376417337595e-17 2.4576712731876502e-17 6.636854610923301e-22
3.0123486681368425 3.3193969916420257e-25 2.6542013608907475e-17 2.6541271802931644e-17 7.418059758355927e-22
3.0578761833420214 3.764710067667775e-25 3.0557714210267344e-17 3.055688596231655e-17 8.282479507961789e-22
3.1040917844459814 4.3384267711054945e-25 3.574672495521295e-17 3.574580192348863e-17 9.230317243195719e-22
3.127460860933648 4.945099302895934e-25 4.1052190308563254e-17 4.1051216242214084e-17 9.740663491758264e-22
3.1510058709225794 5.7533318291889365e-25 4.8121379467860975e-17 4.812035199507027e-17 1.0274727907160873e-21
3.162844764501044 6.505582026000768e-25 5.461770745734436e-17 5.461665226537888e-17 1.0551919654627345e-21
3.1747281389236908 7.380359042565174e-25 6.21947124787696e-17 6.219362894697591e-17 1.0835317936808895e-21
3.1986289994194426 9.820259888126233e-25 8.33789236957265e-17 8.337778143882672e-17 1.1422568997729763e-21
3.2227097969389145 1.5571389601371902e-24 1.3320422601295733e-16 1.3320302130567575e-16 1.2047072815873381e-21
3.2348180950136065 2.1025143921605502e-24 1.8053369632750962e-16 1.8053245823440734e-16 1.23809310226696e-21
3.240889293275058 2.5102507702742236e-24 2.1594877168393181e-16 2.1594751597860914e-16 1.2557053227478642e-21
3.2469718861334385 2.9819393286936606e-24 2.5700807236491365e-16 2.570067984341984e-16 1.2739307152201162e-21
3.2714166318528037 5.497952181343815e-24 4.774262002413756e-16 4.774248508102422e-16 1.349431133525308e-21
3.2744851364798273 5.6552349464192434e-24 4.915448031030359e-16 4.915434447240241e-16 1.3583790117767808e-21
3.2775565192852394 5.817034835544603e-24 5.06082461826722e-16 5.060810944502668e-16 1.3673764550927223e-21
3.283707930232385 5.661432108321977e-24 4.93469435462767e-16 4.934680518953836e-16 1.3835673834922729e-21
3.2898708863219004 5.167970573274738e-24 4.513031025869428e-16 4.513017041918438e-16 1.3983950990316116e-21
3.29141343181113 5.0515998786741395e-24 4.4134764574740754e-16 4.4134624362643016e-16 1.4021209774049216e-21
3.292184975758714 4.994419417971124e-24 4.364541950285785e-16 4.364527910418133e-16 1.4039867652526744e-21
3.295272960557952 4.6334958407374626e-24 4.052934688620246e-16 4.0529205760021566e-16 1.4112618090853514e-21
3.3076538914384823 3.3831391420390354e-24 2.970361807526489e-16 2.97034740221196e-16 1.4405314529212767e-21
3.310756385682612 3.1286574319365514e-24 2.749505999720518e-16 2.7494915205257453e-16 1.447919477261451e-21
3.313861789986515 2.8938575100248287e-24 2.545546106979242e-16 2.5455315536206087e-16 1.455335863305156e-21
3.3200813396944477 2.564578963240339e-24 2.260134227529109e-16 2.2601195150724877e-16 1.4712456621394964e-21
3.345076488085796 1.977197375736593e-24 1.755599753337229e-16 1.7555843328737262e-16 1.5420463502079892e-21
3.3482140837626964 1.9992264983220437e-24 1.776824980396146e-16 1.7768094640533096e-16 1.5516342836675629e-21
3.3513546224236106 2.021499102167623e-24 1.7983050787767634e-16 1.7982894660675739e-16 1.5612709189806572e-21
3.3576445397418455 2.184259945296135e-24 1.9467423290970758e-16 1.9467265150647688e-16 1.5814032306544484e-21
3.3702598118196083 2.784574885435726e-24 2.4911031828444966e-16 2.4910869463900986e-16 1.6236454397667256e-21
3.382922481734668 2.9213097417202204e-24 2.623246404188995e-16 2.6232297552982753e-16 1.6648890719817116e-21
3.389271646505754 2.9921472495925123e-24 2.6918990781566546e-16 2.6918822198407325e-16 1.6858315921896714e-21
3.395632727569191 3.0684795133926406e-24 2.7657528707492675e-16 2.7657357965853596e-16 1.7074163907789775e-21
3.421196662673239 3.434999143372885e-24 3.119421821303817e-16 3.119403851474759e-16 1.79698290579365e-21
3.4276182099114902 3.3611467918794046e-24 3.0580836047324124e-16 3.058065432999061e-16 1.8171733350896686e-21
3.4340518103208963 3.037513443685928e-24 2.7688184803377177e-16 2.768800116658095e-16 1.8363679622375683e-21
3.4469541582030403 2.5765979189612462e-24 2.3574994083087036e-16 2.3574806742024033e-16 1.8734106300746128e-21
3.472904465399547 2.447432622014057e-24 2.2561762029854973e-16 2.2561566182572913e-16 1.9584728206505033e-21
3.4990501388274233 2.2498781625591066e-24 2.089674288407402e-16 2.0896538284312249e-16 2.0459976177369865e-21
3.5253949054701885 1.5468039165050384e-24 1.447479656441705e-16 1.4474583386531566e-16 2.131778854843828e-21
3.5519380250092896 8.85992013638551e-25 8.353425807919922e-17 8.35320394632962e-17 2.2186159030253047e-21
3.578680990867387 6.23988181609308e-25 5.927462071028009e-17 5.927230679329165e-17 2.3139169884223604e-21
3.605625307711299 5.180240549634366e-25 4.9579250085192154e-17 4.957683539771885e-17 2.414687473304224e-21
3.660119384959845 4.407423518667994e-25 4.282027668591538e-17 4.2817648532152095e-17 2.6281537632968202e-21
3.715437065384467 3.8602093638592395e-25 3.8070642149379976e-17 3.806778636520119e-17 2.8557841787733677e-21
3.8285932144167436 3.5828522439724366e-25 3.641141500794747e-17 3.640806076683465e-17 3.3542411128292467e-21
3.94519561050918 3.5299765627638693e-25 3.6966624513558054e-17 3.69627124643062e-17 3.912049251852431e-21
4.06534921144712 3.5693101625228887e-25 3.851692241403636e-17 3.8512389913252735e-17 4.532500783618895e-21
4.189162171576248 3.662067357196614e-25 4.0721421914695526e-17 4.0716201015583146e-17 5.220899112382275e-21
4.316745939156006 3.7937916559388806e-25 4.3470976822362803e-17 4.346499714639562e-17 5.97967596718232e-21
4.448215356677963 3.959625716765153e-25 4.675298825348993e-17 4.67461839343975e-17 6.80431909242703e-21
4.58368876423945 4.160147877931695e-25 5.061664114689072e-17 5.060894010441977e-17 7.701042470954361e-21
4.723288106065518 4.399956790014981e-25 5.5164829669563865e-17 5.515614888031486e-17 8.680789248992678e-21
4.867139040275056 4.688262565322659e-25 6.05696567209146e-17 6.055992845894541e-17 9.728261969188618e-21
4.940699165968905 4.862176917240965e-25 6.376591577954723e-17 6.375563370507734e-17 1.0282074469889102e-20
5.015371051989984 5.0422634303841625e-25 6.712712288235513e-17 6.711626730113517e-17 1.0855581219955373e-20
5.091171501069577 5.2620123427636045e-25 7.11113661961077e-17 7.109990628737998e-17 1.1459908727733013e-20
5.129500256944802 5.374788226623756e-25 7.318226488373137e-17 7.317049516132417e-17 1.176972240718205e-20
5.168117569889187 5.492358549270045e-25 7.534608632308543e-17 7.533399940878554e-17 1.2086914299872886e-20
5.20702561229733 5.63667517296112e-25 7.790801787121757e-17 7.789558869447716e-17 1.2429176740415936e-20
5.246226572918644 5.78466790234288e-25 8.055544611187852e-17 8.05426683023029e-17 1.2777809575626654e-20
5.265937586045735 5.860079524323296e-25 8.191221126006497e-17 8.189925673392027e-17 1.2954526144684144e-20
5.285722656980489 5.936454874651948e-25 8.329155608624591e-17 8.327842323752046e-17 1.3132848725453114e-20
5.305582063971359 6.01380953457719e-25 8.469390134709845e-17 8.468058856540118e-17 1.3312781697264467e-20
5.3255160863122235 6.0969207571302745e-25 8.618698418693363e-17 8.617348881742513e-17 1.3495369508495764e-20
5.365609099470188 6.303973772068849e-25 8.978480845732749e-17 8.977093490470058e-17 1.3873552626893426e-20
5.406003951863644 6.5189021800742205e-25 9.354493038657458e-17 9.353067155014343e-17 1.4258836431141733e-20
5.446702915881641 6.742087018292131e-25 9.747594953063405e-17 9.746129825920082e-17 1.4651271433286393e-20
5.487708281020852 6.983254768039857e-25 1.0172280713731166e-16 1.017077549757902e-16 1.5052161521477073e-20
5.529022354014368 7.318583547589628e-25 1.0741002406341014e-16 1.0739455265612768e-16 1.5471407282463604e-20
5.570647458961463 7.673676402405428e-25 1.1346935572863105e-16 1.1345345707540172e-16 1.5898653229296437e-20
5.612585937458331 8.049957251786469e-25 1.1992949665597398e-16 1.199131626864556e-16 1.6333969518378325e-20
5.654840148729818 8.463595733799762e-25 1.2704122617137366e-16 1.2702444713233328e-16 1.6779039040411996e-20
5.67608639626678 8.745389586250337e-25 1.3176424908426156e-16 1.3174723738369067e-16 1.7011700570935208e-20
5.686739436050992 8.890641054228905e-25 1.3420411707853715e-16 1.341869881940864e-16 1.7128884450760626e-20
5.6974124697621304 9.038888227060375e-25 1.3669798436027835e-16 1.3668073772121358e-16 1.7246639064765637e-20
5.718818669136295 9.344658412766257e-25 1.4185321721675623e-16 1.4183573335026937e-16 1.748386648688527e-20
5.740305295436557 9.681734234284107e-25 1.4752226807389667e-16 1.4750454326598078e-16 1.7724807915905365e-20
5.7835210386641895 1.0556351558736996e-24 1.6205991169246957e-16 1.6204168689727446e-16 1.8224795195094507e-20
5.827062130521658 1.1563944975824102e-24 1.7886488939228588e-16 1.7884615107493043e-16 1.8738317355510453e-20
5.8489554468988025 1.2270932100407523e-24 1.9051329978649875e-16 1.9049428583039054e-16 1.9013956108155197e-20
5.870931020387893 1.3029615863482691e-24 2.0305235130599937e-16 2.030330586653142e-16 1.9292640685132756e-20
5.892989160043636 1.3844157826535114e-24 2.1655669609391146e-16 2.1653712169996938e-16 1.9574393942084968e-20
5.915130176081913 1.4770572664648084e-24 2.3191619300244205e-16 2.318963268505558e-16 1.9866151886227174e-20
5.95966208400165 1.7361149534596063e-24 2.7464364007573947e-16 2.746231204171139e-16 2.0519658625529868e-20
6.004529249263818 2.1095376166159876e-24 3.362293892678314e-16 3.3620813942747777e-16 2.124984035360786e-20
6.027089341400364 2.3691299085979767e-24 3.790233254471747e-16 3.790016593760193e-16 2.166607115537318e-20
6.049734195844842 2.675903410962362e-24 4.297106920152208e-16 4.296885858758913e-16 2.2106139329626247e-20
6.095279466722835 3.562085488060859e-24 5.763249135589405e-16 5.763017459897265e-16 2.316756921387043e-20
6.141167624020661 4.925931401431768e-24 8.02987425212579e-16 8.029629048202886e-16 2.4520392290410834e-20
6.164241091010745 5.7968996905088225e-24 9.485163788479705e-16 9.484910217378298e-16 2.535711014073977e-20
6.187401249150058 6.789059644993531e-24 1.1150320169881925e-15 1.1150057966309042e-15 2.62203572879425e-20
6.1990139391386085 7.273512941665145e-24 1.1968404585648706e-15 1.1968137980974642e-15 2.6660467406525497e-20
6.204828454712694 7.52870490234418e-24 1.2399937232537177e-15 1.239966840061953e-15 2.6883191764320026e-20
6.210648424152782 7.714992818013189e-24 1.2718676006518363e-15 1.2718405246245565e-15 2.707602727959184e-20
6.233982942956859 8.347892309459408e-24 1.3813759181895935e-15 1.3813481564496822e-15 2.776173991135834e-20
6.239830258556775 8.42879517045815e-24 1.396071653074954e-15 1.3960437862687483e-15 2.786680620599248e-20
6.245683058788269 8.435807412518208e-24 1.3985436680001066e-15 1.398515695802492e-15 2.797219761464699e-20
6.257405133728602 8.418412886569503e-24 1.3982793030434639e-15 1.3982511404994345e-15 2.816254402932704e-20
6.269149208991335 8.293926707342246e-24 1.380187954055975e-15 1.3801596934385384e-15 2.826061743678693e-20
6.280915325867298 7.981760350066863e-24 1.3307333951830292e-15 1.3307051510679816e-15 2.8244115047700615e-20
6.304513850009849 7.211949102435486e-24 1.2069066750712788e-15 1.2068785680732174e-15 2.810699806156028e-20
6.32820103803542 6.25776667809521e-24 1.0511605828641151e-15 1.0511327238540457e-15 2.785901006942933e-20
6.3519772230701035 5.382715792916311e-24 9.075693378821694e-16 9.075416917738035e-16 2.764610836635113e-20
6.375842739491607 4.6465515709761704e-24 7.863896543193371e-16 7.863621854223548e-16 2.746889698255138e-20
6.399797922933955 4.056546818957482e-24 6.891157673958425e-16 6.890883420902649e-16 2.7425305577507764e-20
6.42384311029221 3.566015141840984e-24 6.080615491123062e-16 6.08034140642417e-16 2.740846988898423e-20
6.447978639727206 3.2085582823635817e-24 5.491651329804552e-16 5.491376357931329e-16 2.7497187322328646e-20
6.472204850670314 2.9107850454867663e-24 5.000711760501799e-16 5.000435683864509e-16 2.760766372903344e-20
6.496522083828205 2.7172623256279878e-24 4.685780271777348e-16 4.685502223017263e-16 2.78048760083452e-20
