Dust emission spectrum from A.P. Jones, M. Kohler, N. Ysard, M. Bocchio, and L. Verstraete (2017), A&A, 602A, 46J 
inside the DustPedia framework.

lambda    nu*dP/dnu     j_nu    j_nu(carb.) j_nu(sil)
 (um)   (erg s-1 H-1) (Jy cm2 sr-1 H-1)
0.9927057738263894 2.8780193793854303e-21 7.583744532917922e-14 7.583744271692021e-14 2.6122590174965597e-21
1.0001793341362166 2.9264457633839985e-21 7.769405514813131e-14 7.769405200425023e-14 3.143881081166264e-21
1.0077091589558085 2.9750552460373658e-21 7.957921921076323e-14 7.957921543209767e-14 3.778665558404411e-21
1.0114953028030835 2.9994262602133212e-21 8.053255777140599e-14 8.053255363085893e-14 4.140547093121805e-21
1.0152956718711033 3.0238402188262122e-21 8.149309404897585e-14 8.14930895134016e-14 4.535574240147764e-21
1.0229392996569957 3.072769594602116e-21 8.343519660592872e-14 8.343519116901122e-14 5.436917475873813e-21
1.0267826658714554 3.0972293408279116e-21 8.441533069552916e-14 8.441532474560368e-14 5.949925508422794e-21
1.0306404723013447 3.1217272934806938e-21 8.540269729251373e-14 8.540269078334353e-14 6.5091702194110755e-21
1.03451277320114 3.146262630251222e-21 8.639731825484217e-14 8.639731113623439e-14 7.118607791714013e-21
1.0383996230291617 3.1708345513075036e-21 8.739921596725114e-14 8.739920818473768e-14 7.782513486867249e-21
1.0403485208654093 3.1831339872848846e-21 8.790290075036099e-14 8.790289261404e-14 8.13632103128439e-21
1.0423010764483396 3.195442279877442e-21 8.84084133671068e-14 8.840840486160112e-14 8.505505690100923e-21
1.0462171883269815 3.2200850628277436e-21 8.942493397062986e-14 8.942492467805822e-14 9.292571628835526e-21
1.0471985131304309 3.2262511498517734e-21 8.968021118515489e-14 8.968020168518353e-14 9.49997140128458e-21
1.048180758391296 3.2324193709466687e-21 8.993594798740331e-14 8.993593827560497e-14 9.71179834162865e-21
1.0501480137395462 3.2447621712387638e-21 9.044880189948891e-14 9.044879175039401e-14 1.0149094870447668e-20
1.0521189612883777 3.2571133764660663e-21 9.096349882111902e-14 9.096348821591811e-14 1.0605200910574461e-20
1.0531058218030118 3.263283880222302e-21 9.1221309505978e-14 9.12212986654158e-14 1.0840562183940899e-20
1.0540936079674168 3.2694295105501215e-21 9.147882784114319e-14 9.147881676017361e-14 1.1080969608872298e-20
1.058054026499678 3.2940314236882243e-21 9.251347944962927e-14 9.251346735502732e-14 1.2094601950416016e-20
1.0590464539527713 3.3001866995423066e-21 9.277328891897216e-14 9.277327655743326e-14 1.236153890590349e-20
1.06003981227728 3.3063438746328802e-21 9.303355782506294e-14 9.303354519095717e-14 1.2634105747415434e-20
1.0620293250338977 3.3186638837796247e-21 9.355547558990112e-14 9.355546239331872e-14 1.3196582406192276e-20
1.0660195594769086 3.3433262726706957e-21 9.460484258964891e-14 9.460482819544655e-14 1.4394202350535958e-20
1.070024785945596 3.36801799951031e-21 9.566160752690908e-14 9.566159183159041e-14 1.569531870501314e-20
1.0740450607676866 3.392738501291299e-21 9.672579825881358e-14 9.67257811504188e-14 1.710839477611884e-20
1.07808044048254 3.4174872433859295e-21 9.779744345066718e-14 9.779742480812336e-14 1.864254380335382e-20
1.0861967418109137 3.467029378930285e-21 9.9962118273738e-14 9.996209615969058e-14 2.2114047440200723e-20
1.0902777775684922 3.491735275318633e-21 1.0105269578255544e-13 1.0105267170923763e-13 2.4073317853026163e-20
1.0943741465085532 3.51646606839984e-21 1.0215078040758402e-13 1.0215075420999403e-13 2.619758998915823e-20
1.1026131145906286 3.5660008657663506e-21 1.0436960288926984e-13 1.0436957189466067e-13 3.0994609157875685e-20
1.1109141095355224 3.615631133182998e-21 1.0661885962453878e-13 1.0661882300230614e-13 3.6622232614393425e-20
1.1192775983109025 3.6653156527113e-21 1.0889767969877928e-13 1.0889763648327886e-13 4.32155004311606e-20
1.1277040513999907 3.7148731071275685e-21 1.1120096534970618e-13 1.1120091441981877e-13 5.092988740066318e-20
1.1361939428280308 3.76451549164514e-21 1.1353532079715513e-13 1.1353526085300797e-13 5.994414711889723e-20
1.1447477501889525 3.814242401425078e-21 1.1590109029412487e-13 1.1590101983060428e-13 7.046352057291736e-20
1.1533659546722406 3.8640720350066006e-21 1.1829919102142929e-13 1.1829910829796975e-13 8.272345952695589e-20
1.1707974979042381 3.964190646603679e-21 1.2319859391219262e-13 1.231984803290364e-13 1.135831562154713e-19
1.1884924949847024 4.064727674460164e-21 1.282322702110551e-13 1.2823211503728536e-13 1.5517376978009484e-19
1.2064549276569216 4.1663657381464e-21 1.334252194632001e-13 1.3342500851629157e-13 2.1094690854683484e-19
1.2246888378427687 4.268432525733685e-21 1.3875978339294247e-13 1.3875949803194847e-13 2.853609940113424e-19
1.2431983285522175 4.3708407150642864e-21 1.442363854770425e-13 1.442360013224334e-13 3.8415460916883785e-19
1.2619875648066055 4.473734476963118e-21 1.498631003779566e-13 1.4986258570148542e-13 5.146764712015455e-19
1.3004222497298317 4.6803185559551954e-21 1.6155828635237123e-13 1.6155737553349935e-13 9.108188718960134e-19
1.3400274889804893 4.8887745999106844e-21 1.7389342235595528e-13 1.7389184003796986e-13 1.5823179854624993e-18
1.3808389325824078 5.099840797921282e-21 1.8692572570103102e-13 1.869230259516941e-13 2.6997493369097656e-18
1.4228933163050095 5.315289670120176e-21 2.007560813554371e-13 2.0075155513030213e-13 4.526225134961138e-18
1.466228494730424 5.538922956591141e-21 2.1557401618265426e-13 2.1556655600606877e-13 7.460176585498865e-18
1.5108834753276823 5.770247139765142e-21 2.3141676526947873e-13 2.314046717236801e-13 1.2093545798644148e-17
1.5568984535646726 6.009034978547057e-21 2.4833300988043e-13 2.48313707636248e-13 1.9302244181975724e-17
1.6043148490894465 6.256707734695047e-21 2.6644336190914595e-13 2.6641297247161313e-13 3.0389437532876927e-17
1.6531753430134553 6.5147702229660875e-21 2.858824233983155e-13 2.8583528403811366e-13 4.71393602018276e-17
1.7035239163302658 6.78499803592213e-21 3.06808505008189e-13 3.067364453375296e-13 7.20596706594686e-17
1.755405889504358 7.0725366643753e-21 3.295506645137479e-13 3.2944205575685766e-13 1.0860875689026157e-16
1.8088679632656115 7.377342230739935e-21 3.5422257085202936e-13 3.540611148803203e-13 1.614559717090793e-16
1.8639582606462262 7.699239794613068e-21 3.8093726740472344e-13 3.807004402364777e-13 2.368271682457618e-16
1.9207263702978936 8.039137409129078e-21 4.0986835049920684e-13 4.095254570513718e-13 3.42893447835051e-16
1.979223391128241 8.398413421152247e-21 4.4122640779202024e-13 4.4073617405577536e-13 4.902337362449229e-16
2.039501978296691 8.778234975902824e-21 4.752266265699316e-13 4.74534291153313e-13 6.923354166184105e-16
2.1016163906111602 9.182432724130064e-21 5.122484288930021e-13 5.11282207557063e-13 9.662213359391976e-16
2.1656225393682647 9.612737152505331e-21 5.525852180886621e-13 5.512522162513939e-13 1.3330018372681735e-15
2.231578038680979 1.0067870202180986e-20 5.963745745073317e-13 5.945560802331652e-13 1.818494274166483e-15
2.299542257339062 1.0547949153031393e-20 6.438413352718116e-13 6.413874697901809e-13 2.453865481630611e-15
2.369576372248914 1.105409611920301e-20 6.952858329859325e-13 6.920095220417109e-13 3.2763109442215647e-15
2.4417434235010123 1.1587716496759567e-20 7.510473550525172e-13 7.467178015561486e-13 4.3295534963688934e-15
2.5161083711144245 1.2152286348806558e-20 8.116275308308717e-13 8.059630238174078e-13 5.6645070134637675e-15
2.5927381535095444 1.275400632238122e-20 8.777578448168956e-13 8.704181948344706e-13 7.339649982425127e-15
2.6717017477616296 1.3398258790772892e-20 9.501797479300275e-13 9.40758868944412e-13 9.420878985615638e-15
2.753070231689431 1.4093298273972328e-20 1.029910218475969e-12 1.0179286684133833e-12 1.1981550062586121e-14
2.836916847834745 1.4862381698808732e-20 1.1191916215306063e-12 1.1040888422852145e-12 1.5102779245391736e-14
2.9233170693905177 1.575738282023932e-20 1.2227268292813103e-12 1.2038576626137132e-12 1.886916666759712e-14
2.967498994190263 1.630197174961745e-20 1.284103854711891e-12 1.2631222578518095e-12 2.0981596860081457e-14
3.0123486681368425 1.6885566638574535e-20 1.3501757718152811e-12 1.3268757529882458e-12 2.330001882703541e-14
3.0578761833420214 1.7819211451350176e-20 1.446364689964044e-12 1.4205161168111168e-12 2.5848573152927177e-14
3.1040917844459814 1.890948838087376e-20 1.558058521805237e-12 1.5294394472347373e-12 2.861907457049978e-14
3.127460860933648 1.9897896821694133e-20 1.6518419490301867e-12 1.6217406218150861e-12 3.0101327215100546e-14
3.1510058709225794 2.1147581637121288e-20 1.7688025495496985e-12 1.7371570163803506e-12 3.1645533169347534e-14
3.162844764501044 2.2263936444132505e-20 1.869171985987642e-12 1.8367276427204526e-12 3.244434326718937e-14
3.1747281389236908 2.352661896797147e-20 1.9826017865412422e-12 1.9493426161037236e-12 3.3259170437518546e-14
3.1986289994194426 2.693750477297419e-20 2.2871290379338805e-12 2.252187132900145e-12 3.494190503373555e-14
3.2227097969389145 3.478817955185183e-20 2.9759274221717147e-12 2.939203278087223e-12 3.672414408449217e-14
3.2348180950136065 4.213941067564714e-20 3.6183265135797336e-12 3.580651478767858e-12 3.767503481187483e-14
3.240889293275058 4.762589536502416e-20 4.097102060962979e-12 4.058925455009928e-12 3.817660595305174e-14
3.2469718861334385 5.398222711518295e-20 4.652632600313856e-12 4.6139370163836694e-12 3.869558393018728e-14
3.2714166318528037 8.735134833500992e-20 7.585337403089476e-12 7.544497827456608e-12 4.083957563286834e-14
3.2744851364798273 8.944053900740295e-20 7.77404167154191e-12 7.732949618893707e-12 4.109205264820421e-14
3.2775565192852394 9.158568601853098e-20 7.96796147156096e-12 7.926615697291875e-12 4.1345774269087206e-14
3.283707930232385 8.954618869385985e-20 7.80514653132503e-12 7.763347397035431e-12 4.1799134289600766e-14
3.2898708863219004 8.303268247928031e-20 7.2509908266119634e-12 7.208779455297237e-12 4.221137131472528e-14
3.29141343181113 8.149360625123239e-20 7.119924801306247e-12 7.077609924044241e-12 4.231487726200791e-14
3.292184975758714 8.073690556847709e-20 7.055466948208906e-12 7.013100250897017e-12 4.2366697311893156e-14
3.295272960557952 7.60117865628683e-20 6.648777016180833e-12 6.606208814002726e-12 4.256820217810955e-14
3.3076538914384823 5.95267532454808e-20 5.226388479542753e-12 5.183011111453718e-12 4.3377368089035986e-14
3.310756385682612 5.613922688004587e-20 4.933590349353651e-12 4.890009060461174e-12 4.35812888924781e-14
3.313861789986515 5.300106673237519e-20 4.6621735389171645e-12 4.6183876765190735e-12 4.37858623980907e-14
3.3200813396944477 4.862156098907749e-20 4.28496278580016e-12 4.240736746199642e-12 4.422603960051841e-14
3.345076488085796 4.099682988687314e-20 3.640204327612427e-12 3.5940162638097e-12 4.618806380272608e-14
3.3482140837626964 4.131499085616164e-20 3.671895499568416e-12 3.6254416321021235e-12 4.6453867466290795e-14
3.3513546224236106 4.1636033229370033e-20 3.7038992466634115e-12 3.657178396972407e-12 4.672084969100368e-14
3.3576445397418455 4.385708735334642e-20 3.908804378596622e-12 3.861525271667746e-12 4.727910692887634e-14
3.3702598118196083 5.1886751865733157e-20 4.6418307295752545e-12 4.593380689704269e-12 4.8450039870986163e-14
3.382922481734668 5.38235373118808e-20 4.833188302414726e-12 4.783600607388201e-12 4.9587695026523547e-14
3.389271646505754 5.482190769823801e-20 4.932078219605458e-12 4.881913981417213e-12 5.016423818824622e-14
3.395632727569191 5.591809629840043e-20 5.040139088076919e-12 4.989380687179944e-12 5.0758400896974817e-14
3.421196662673239 6.122245685754598e-20 5.559787933097861e-12 5.506570492794283e-12 5.321744030357513e-14
3.4276182099114902 6.028692150746996e-20 5.4851054612433746e-12 5.431339760600074e-12 5.376570064330197e-14
3.4340518103208963 5.599184878076379e-20 5.103887391007825e-12 5.0496033823173885e-12 5.4284008690435476e-14
3.4469541582030403 4.9838602865271655e-20 4.560062549968146e-12 4.504784224460767e-12 5.527832550737828e-14
3.472904465399547 4.8185763222110276e-20 4.4420251379567736e-12 4.384455588706097e-12 5.756954925067676e-14
3.4990501388274233 4.5652665815430174e-20 4.240194137590493e-12 4.180281116613356e-12 5.991302097713675e-14
3.5253949054701885 3.6502754341370357e-20 3.4158818547994417e-12 3.3536940268053527e-12 6.218782799409012e-14
3.5519380250092896 2.779902587152107e-20 2.6209841237342464e-12 2.556511425245661e-12 6.447269848858501e-14
3.578680990867387 2.444703824544896e-20 2.3223018675632587e-12 2.2553251090272388e-12 6.69767585360202e-14
3.605625307711299 2.3201520772776103e-20 2.2205802794842e-12 2.150967237991641e-12 6.961304149255971e-14
3.660119384959845 2.251642463435455e-20 2.1875808592862663e-12 2.112433658169263e-12 7.514720111700363e-14
3.715437065384467 2.210711874626154e-20 2.1802760612480135e-12 2.0993013793456416e-12 8.097468190237226e-14
3.8285932144167436 2.2389621929646926e-20 2.275387764937615e-12 2.181911907329171e-12 9.347585760844376e-14
3.94519561050918 2.295374595850055e-20 2.403762441309588e-12 2.2966903684019044e-12 1.070720729076829e-13
4.06534921144712 2.361937822136992e-20 2.5487999557238012e-12 2.427061819504624e-12 1.2173813621917681e-13
4.189162171576248 2.4332011497222144e-20 2.7056687099554294e-12 2.568177433018621e-12 1.3749127693680772e-13
4.316745939156006 2.5067256705736105e-20 2.8723193946336937e-12 2.7180585681342683e-12 1.5426082649942585e-13
4.448215356677963 2.5812346553482376e-20 3.0477737582628915e-12 2.8759736315009493e-12 1.7180012676194187e-13
4.58368876423945 2.6563527665659917e-20 3.2319921957117696e-12 3.041873903025848e-12 1.901182926859203e-13
4.723288106065518 2.732273236580249e-20 3.425610634374984e-12 3.2162928448909685e-12 2.0931778948401453e-13
4.867139040275056 2.809206033223982e-20 3.6293326732434922e-12 3.4004660819832006e-12 2.2886659126029144e-13
4.940699165968905 2.8494952794580547e-20 3.737023129698156e-12 3.4981945935407327e-12 2.388285361574239e-13
5.015371051989984 2.8888619580677176e-20 3.845911549976239e-12 3.597029305837958e-12 2.488822441382821e-13
5.091171501069577 2.93204600404247e-20 3.962396579780606e-12 3.703148491238062e-12 2.5924808854254417e-13
5.129500256944802 2.95323403642428e-20 4.0210766713875574e-12 3.756623102065567e-12 2.644535693219905e-13
5.168117569889187 2.974582787373776e-20 4.080636205049202e-12 3.810909974647395e-12 2.6972623040180706e-13
5.20702561229733 2.999420976255308e-20 4.145687588001361e-12 3.870193619913443e-12 2.754939680879178e-13
5.246226572918644 3.0241010228925646e-20 4.211266940455368e-12 3.929975621598501e-12 2.812913188568659e-13
5.265937586045735 3.0363821858968983e-20 4.244256038593702e-12 3.960055756633809e-12 2.8420028195989323e-13
5.285722656980489 3.0486244175770793e-20 4.277378958050406e-12 3.990263295942505e-12 2.871156621079e-13
5.305582063971359 3.0608279961705594e-20 4.310636425340868e-12 4.020599300464558e-12 2.900371248763093e-13
5.3255160863122235 3.073670828007229e-20 4.344987077935837e-12 4.051998473941697e-12 2.929886039941403e-13
5.365609099470188 3.1044959779371164e-20 4.42160114895515e-12 4.122505300526467e-12 2.990958484286824e-13
5.406003951863644 3.1354640620471034e-20 4.4993276369498035e-12 4.194095122638019e-12 3.052325143117846e-13
5.446702915881641 3.166596971056882e-20 4.578212142577613e-12 4.266816217486966e-12 3.1139592509064795e-13
5.487708281020852 3.1992058172985035e-20 4.660179345525547e-12 4.342568421894268e-12 3.176109236312781e-13
5.529022354014368 3.2434921494209995e-20 4.760259516795861e-12 4.436170260625444e-12 3.2408925617041513e-13
5.570647458961463 3.2888837629755366e-20 4.863216821785821e-12 4.532619344187617e-12 3.305974775982036e-13
5.612585937458331 3.335486778198362e-20 4.969259312814507e-12 4.63212645173616e-12 3.3713286107834576e-13
5.654840148729818 3.3853545977329584e-20 5.081523416854018e-12 4.737796915392321e-12 3.4372650146169725e-13
5.67608639626678 3.419423894573354e-20 5.15194683239286e-12 4.804767890247291e-12 3.4717894214556853e-13
5.686739436050992 3.436777940393679e-20 5.187812062957366e-12 4.838903764690852e-12 3.489082982665141e-13
5.6974124697621304 3.4543524036249447e-20 5.2241271158984374e-12 4.873487428463834e-12 3.506396874346033e-13
5.718818669136295 3.4901859141196195e-20 5.2981508658047656e-12 4.944042474316934e-12 3.5410839148783124e-13
5.740305295436557 3.5293910284146925e-20 5.377794482187596e-12 5.020182678347676e-12 3.5761180383991963e-13
5.7835210386641895 3.6310200385709496e-20 5.574300775511488e-12 5.2094493008512304e-12 3.6485147466025737e-13
5.827062130521658 3.7451785181503695e-20 5.792840962178585e-12 5.420647317838553e-12 3.7219364434003437e-13
5.8489554468988025 3.826255097626992e-20 5.940481770326323e-12 5.56431409328755e-12 3.761676770387743e-13
5.870931020387893 3.911854742681879e-20 6.0961989347302895e-12 5.716042882035209e-12 3.801560526950798e-13
5.892989160043636 4.0023369160027586e-20 6.260639831214467e-12 5.876481397193599e-12 3.841584340208679e-13
5.915130176081913 4.104658194288188e-20 6.444819192921084e-12 6.0565090111677225e-12 3.883101817533623e-13
5.95966208400165 4.3924345429927256e-20 6.948584880730406e-12 6.550758277362297e-12 3.978266033681082e-13
6.004529249263818 4.803893966324349e-20 7.656703164154491e-12 7.2481363536273956e-12 4.085668105270968e-13
6.027089341400364 5.089722707101173e-20 8.142751560597687e-12 7.727950977363306e-12 4.148005832343815e-13
6.049734195844842 5.424083168483174e-20 8.710279012046898e-12 8.288869205668625e-12 4.214098063782727e-13
6.095279466722835 6.388084786574117e-20 1.0335553216702048e-11 9.897801752393914e-12 4.377514643081354e-13
6.141167624020661 7.856938694434243e-20 1.2807776759666318e-11 1.2348696942747547e-11 4.590798169187733e-13
6.164241091010745 8.792824588492084e-20 1.4387239013600827e-11 1.3914715519958655e-11 4.725234936421716e-13
6.187401249150058 9.844469256419653e-20 1.616851078817458e-11 1.568219328856908e-11 4.863174996055019e-13
6.1990139391386085 1.0355247075281128e-19 1.703932990500008e-11 1.6545995618643526e-11 4.933342863565509e-13
6.204828454712694 1.0623085996116038e-19 1.749644876194692e-11 1.6999571497371017e-11 4.968772645759004e-13
6.210648424152782 1.0816776986895494e-19 1.783217239164156e-11 1.7332289392475574e-11 4.998829991659851e-13
6.233982942956859 1.1465395582018531e-19 1.8972479234753564e-11 1.8462171415643598e-11 5.10307819109967e-13
6.239830258556775 1.1542930291041296e-19 1.9118696618970116e-11 1.860698331303796e-11 5.117133059321537e-13
6.245683058788269 1.1541347897865953e-19 1.9134006068932326e-11 1.8620885436164566e-11 5.131206327677529e-13
6.257405133728602 1.1504382149449067e-19 1.910851804327749e-11 1.8592958159563152e-11 5.155598837143432e-13
6.269149208991335 1.1352798717014005e-19 1.889213226368855e-11 1.8375792308702563e-11 5.163399549859907e-13
6.280915325867298 1.100122208709735e-19 1.834143469241462e-11 1.782636486891478e-11 5.150698234998389e-13
6.304513850009849 1.0146136992063215e-19 1.6979377264009554e-11 1.6468700598597495e-11 5.106766654120539e-13
6.32820103803542 9.104655846684233e-20 1.529372352612371e-11 1.4789411251875072e-11 5.043122742486394e-13
6.3519772230701035 8.154800012603967e-20 1.374965116631332e-11 1.3251074049537796e-11 4.985771167755273e-13
6.375842739491607 7.353367846364504e-20 1.244495473784373e-11 1.1951466301789523e-11 4.9348843605421e-13
6.399797922933955 6.717480738978582e-20 1.1411483956686302e-11 1.0920750203013249e-11 4.907337536730532e-13
6.42384311029221 6.186356919212612e-20 1.0548709475518533e-11 1.0060264425301293e-11 4.884450502172414e-13
6.447978639727206 5.80057619516454e-20 9.928054650246905e-12 9.44008114460218e-12 4.879735056447227e-13
6.472204850670314 5.477608986684921e-20 9.410500346501854e-12 8.922638821365385e-12 4.878615251364676e-13
6.496522083828205 5.266732502443001e-20 9.082211542079374e-12 8.592992268728758e-12 4.89219273350618e-13
6.520930681187647 5.087953162676604e-20 8.806880863413822e-12 8.316083970448602e-12 4.907968929652187e-13
6.57002334288761 4.8978086557976295e-20 8.541578961856701e-12 8.04560141603675e-12 4.959775458199533e-13
