Dust emission spectrum from A.P. Jones, M. Kohler, N. Ysard, M. Bocchio, and L. Verstraete (2017), A&A, 602A, 46J 
inside the DustPedia framework.

lambda    nu*dP/dnu     j_nu    j_nu(carb.) j_nu(sil)
 (um)   (erg s-1 H-1) (Jy cm2 sr-1 H-1)
0.9927057738263894 2.0411005096745268e-22 5.37841577518689e-15 5.378415663693636e-15 1.1149325221038688e-22
1.0001793341362166 2.075449658768921e-22 5.510100418163947e-15 5.5101002839447574e-15 1.3421918989995553e-22
1.0077091589558085 2.1098900343423974e-22 5.6437070127412886e-15 5.643706851376821e-15 1.613644686372995e-22
1.0114953028030835 2.1271421273663133e-22 5.711232129038431e-15 5.711231952194817e-15 1.7684361446154948e-22
1.0152956718711033 2.1444142833476986e-22 5.779239054524419e-15 5.779238860780876e-15 1.9374354326021805e-22
1.0229392996569957 2.1789984438042405e-22 5.916654599882584e-15 5.916654367567468e-15 2.3231511549055655e-22
1.0267826658714554 2.1962706266898186e-22 5.9859600580736994e-15 5.985959803799343e-15 2.542743589012978e-22
1.0306404723013447 2.213558498546695e-22 6.055745701600752e-15 6.0557454233835505e-15 2.7821720117955067e-22
1.03451277320114 2.23086121820517e-22 6.126012011790224e-15 6.126011707476392e-15 3.043138329668041e-22
1.0383996230291617 2.248177958277169e-22 6.196759488042578e-15 6.196759155294365e-15 3.3274821694761925e-22
1.0403485208654093 2.2568413312748663e-22 6.232313824828395e-15 6.23231347692482e-15 3.479035751020044e-22
1.0423010764483396 2.26550790555012e-22 6.2679886493836225e-15 6.267988285664491e-15 3.6371912986750325e-22
1.0462171883269815 2.2828502613779847e-22 6.339700036038519e-15 6.339699638597242e-15 3.974412774339727e-22
1.0471985131304309 2.287187696998712e-22 6.357703295862644e-15 6.357702889534174e-15 4.063284679227057e-22
1.048180758391296 2.291525847001729e-22 6.375736738868159e-15 6.375736323462353e-15 4.154058070984973e-22
1.0501480137395462 2.300204242069337e-22 6.4118942110282685e-15 6.411893776881783e-15 4.341464867384582e-22
1.0521189612883777 2.3088853510192004e-22 6.4481725267239e-15 6.448172073028721e-15 4.536951790948484e-22
1.0531058218030118 2.313220930859703e-22 6.4663403563677925e-15 6.4663398925843e-15 4.637834925383666e-22
1.0540936079674168 2.3175376183034314e-22 6.48448373381447e-15 6.484483259725884e-15 4.74088587628818e-22
1.058054026499678 2.3348097641064556e-22 6.557356240658033e-15 6.5573557231145346e-15 5.175434991441725e-22
1.0590464539527713 2.3391290925234424e-22 6.575649164016897e-15 6.575648635028275e-15 5.28988622680014e-22
1.06003981227728 2.3434489151373993e-22 6.593972025390856e-15 6.5939714847151414e-15 5.406757146751747e-22
1.0620293250338977 2.352089998300876e-22 6.630707601839818e-15 6.630707037044474e-15 5.6479534418628e-22
1.0660195594769086 2.369377607496146e-22 6.704538453961717e-15 6.704537837803295e-15 6.161584220606782e-22
1.070024785945596 2.3866718953705067e-22 6.778849465282935e-15 6.778848793311435e-15 6.719714980735313e-22
1.0740450607676866 2.403972183035687e-22 6.8536413374508075e-15 6.85364060485123e-15 7.325995779233476e-22
1.07808044048254 2.421277809397714e-22 6.928914807252363e-15 6.928914008816561e-15 7.9843580049887e-22
1.0861967418109137 2.455875097897696e-22 7.0808305950185534e-15 7.0808296475603045e-15 9.474582517226977e-22
1.0902777775684922 2.4731031603505266e-22 7.15729348293658e-15 7.157292451346027e-15 1.0315905536745735e-21
1.0943741465085532 2.490333009785798e-22 7.234236175642842e-15 7.234235052815485e-15 1.1228273570161788e-21
1.1026131145906286 2.524795844992206e-22 7.389564659056384e-15 7.389563330132038e-15 1.328924346537325e-21
1.1109141095355224 2.559259356859169e-22 7.546823889403227e-15 7.546822318592358e-15 1.5708108705081831e-21
1.1192775983109025 2.5936915107931515e-22 7.705938973383216e-15 7.705937119057364e-15 1.854325850267417e-21
1.1277040513999907 2.6279594796574094e-22 7.866530635383566e-15 7.866528449188033e-15 2.1861955329070634e-21
1.1361939428280308 2.6622132327593975e-22 8.029060687426745e-15 8.029058113269345e-15 2.574157402494254e-21
1.1447477501889525 2.6964499554440606e-22 8.19354033825293e-15 8.193537311152418e-15 3.027100511496264e-21
1.1533659546722406 2.7306808982164363e-22 8.360023785015242e-15 8.360020229787138e-15 3.555228105692794e-21
1.1707974979042381 2.79922977586261e-22 8.699409366673007e-15 8.699404481147381e-15 4.885525624111885e-21
1.1884924949847024 2.8677271574254656e-22 9.04698157402149e-15 9.046974893939758e-15 6.680081734448488e-21
1.2064549276569216 2.9366500623928294e-22 9.404435512560263e-15 9.404426423691053e-15 9.08886921173751e-21
1.2246888378427687 3.0054836787045095e-22 9.770337512278656e-15 9.770325206440886e-15 1.230583777056078e-20
1.2431983285522175 3.0741484202000925e-22 1.0144594265844804e-14 1.0144577684914022e-14 1.6580930785852018e-20
1.2619875648066055 3.142716534657494e-22 1.0527608330759736e-14 1.0527586096151887e-14 2.2234607854680707e-20
1.3004222497298317 3.2789920356576165e-22 1.1318638419811634e-14 1.1318598998687104e-14 3.942112453106549e-20
1.3400274889804893 3.4145339789067695e-22 1.214547709672774e-14 1.2145408482505874e-14 6.861422186600082e-20
1.3808389325824078 3.549665103746176e-22 1.3010675270173822e-14 1.3010557972983209e-14 1.1729719061036667e-19
1.4228933163050095 3.685461633516208e-22 1.391982152336382e-14 1.3919624479148824e-14 1.9704421499640433e-19
1.466228494730424 3.8244671029145423e-22 1.488476621890277e-14 1.4884440787807023e-14 3.2543109574288596e-19
1.5108834753276823 3.9661155974184486e-22 1.5906175593663752e-14 1.5905646948000627e-14 5.286456631222676e-19
1.5568984535646726 4.1100644248711036e-22 1.6985500551662776e-14 1.698465500720791e-14 8.455444548697586e-19
1.6043148490894465 4.257185331222375e-22 1.8129323280216747e-14 1.8127989203853188e-14 1.3340763635563797e-18
1.6531753430134553 4.408425876869963e-22 1.9345140809550084e-14 1.934306690979886e-14 2.0738997512253224e-18
1.7035239163302658 4.564988584461628e-22 2.0642265709775883e-14 2.0639088397908854e-14 3.177311867029913e-18
1.755405889504358 4.730520206607125e-22 2.204224808668119e-14 2.2037448392199326e-14 4.799694481867358e-18
1.8088679632656115 4.904978666948795e-22 2.3551220738294236e-14 2.354406915690017e-14 7.151581394061416e-18
1.8639582606462262 5.088323998615486e-22 2.5175631509212804e-14 2.5165116805061518e-14 1.0514704151288533e-17
1.9207263702978936 5.281327036826732e-22 2.6926381412176207e-14 2.6911121178426177e-14 1.526023375002825e-17
1.979223391128241 5.4851426924854e-22 2.881722636249951e-14 2.8795355745218436e-14 2.1870617281078583e-17
2.039501978296691 5.700862714069081e-22 3.0862716292995086e-14 3.0831752773506264e-14 3.096351948881392e-17
2.1016163906111602 5.931481907524471e-22 3.308918648706498e-14 3.3045864626236644e-14 4.332186082834264e-17
2.1656225393682647 6.178570367650696e-22 3.551732040436141e-14 3.5457399338135416e-14 5.992106622598989e-17
2.231578038680979 6.441682008643857e-22 3.815757742073693e-14 3.8075617518044257e-14 8.1959902692671e-17
2.299542257339062 6.721331004304011e-22 4.102665518985026e-14 4.0915762160736017e-14 1.1089302911424511e-16
2.369576372248914 7.018860458029499e-22 4.414756473571279e-14 4.399909877471905e-14 1.484659609937258e-16
2.4417434235010123 7.335848445197104e-22 4.754663762590432e-14 4.7349894972342475e-14 1.9674265356187056e-16
2.5161083711144245 7.675444325289283e-22 5.1262797361388366e-14 5.1004655972812324e-14 2.581413885760451e-16
2.5927381535095444 8.042963313463964e-22 5.535338438384435e-14 5.5017925932667e-14 3.354584511773504e-16
2.6717017477616296 8.443567497650485e-22 5.988021997360525e-14 5.944835142103688e-14 4.3186855256837064e-16
2.753070231689431 8.885011996687826e-22 6.492990121106075e-14 6.4378966443135e-14 5.509347679257629e-16
2.836916847834745 9.38722673251475e-22 7.068924564950944e-14 6.999261496546211e-14 6.96630684047312e-16
2.9233170693905177 9.994366176452203e-22 7.755335898746779e-14 7.6680198566922e-14 8.731604205457521e-16
2.967498994190263 1.0380392364140407e-21 8.176619400979743e-14 8.079359518518412e-14 9.72598824613313e-16
3.0123486681368425 1.0799872741849526e-21 8.635615746185273e-14 8.527422847527857e-14 1.0819289865741707e-15
3.0578761833420214 1.1509218738150146e-21 9.34189912801758e-14 9.221668138034244e-14 1.2023098998333612e-15
3.1040917844459814 1.2355305416867085e-21 1.0180227252328578e-13 1.004688032249755e-13 1.3334692983102876e-15
3.127460860933648 1.3148088923540885e-21 1.0915005253120433e-13 1.077462945819454e-13 1.4037579492589667e-15
3.1510058709225794 1.4163315748155085e-21 1.1846323345757436e-13 1.1698616371167366e-13 1.4770697459006867e-15
3.162844764501044 1.507871402411336e-21 1.2659356043939637e-13 1.2507853407455016e-13 1.5150263648462046e-15
3.1747281389236908 1.6121756721560239e-21 1.3585897625945423e-13 1.343052091909216e-13 1.5537670685326096e-15
3.1986289994194426 1.8963367291803305e-21 1.6100848373158432e-13 1.5937464121005687e-13 1.633842521527529e-15
3.2227097969389145 2.5543397641324487e-21 2.1850898344063373e-13 2.167902423786724e-13 1.7187410619614386e-15
3.2348180950136065 3.1725952141533027e-21 2.724168467515185e-13 2.706527868842364e-13 1.7640598672820462e-15
3.240889293275058 3.634237223960157e-21 3.1264169851703085e-13 3.1085373394885933e-13 1.787964568171587e-15
3.2469718861334385 4.168902429137105e-21 3.593103209310817e-13 3.574976217382863e-13 1.812699192795308e-15
3.2714166318528037 6.989087721107111e-21 6.0691207994942e-13 6.049971253130235e-13 1.914954636396386e-15
3.2744851364798273 7.165804506958079e-21 6.228413140779942e-13 6.209142973675766e-13 1.92701671041744e-15
3.2775565192852394 7.34735777499441e-21 6.392206709800037e-13 6.372815308422153e-13 1.9391401377884716e-15
3.283707930232385 7.175117175535627e-21 6.254073093601431e-13 6.234464651532008e-13 1.960844206942089e-15
3.2898708863219004 6.624656886095857e-21 5.785110739077881e-13 5.765304561532003e-13 1.9806177545876808e-15
3.29141343181113 6.494654913714816e-21 5.674243259468508e-13 5.6543874238897e-13 1.9855835578808312e-15
3.292184975758714 6.4307481788636025e-21 5.619726308403598e-13 5.599845610137306e-13 1.9880698266288637e-15
3.295272960557952 6.030295948201541e-21 5.274720528770829e-13 5.254743078554739e-13 1.997745021608868e-15
3.3076538914384823 4.635785250374316e-21 4.0701723687626006e-13 4.049806206412721e-13 2.036616234988012e-15
3.310756385682612 4.349965402337565e-21 3.8228077801732193e-13 3.802343617178266e-13 2.04641629949527e-15
3.313861789986515 4.0854718612365295e-21 3.593734990585165e-13 3.5731724971759644e-13 2.0562493409200346e-15
3.3200813396944477 3.715906086199098e-21 3.274785706380005e-13 3.2540118146866384e-13 2.077389169336685e-15
3.345076488085796 3.068477855805544e-21 2.724573192783072e-13 2.702857489951409e-13 2.171570283166349e-15
3.3482140837626964 3.094892550120423e-21 2.750604996137903e-13 2.728761721256908e-13 2.1843274880995652e-15
3.3513546224236106 3.1215618724021646e-21 2.77690975120267e-13 2.7549383175028075e-13 2.1971433699861877e-15
3.3576445397418455 3.3081903574949446e-21 2.948455936078183e-13 2.926216591557544e-13 2.2239344520638643e-15
3.3702598118196083 3.98635473756153e-21 3.5662251450396407e-13 3.543423824123374e-13 2.28013209162671e-15
3.382922481734668 4.148011623749382e-21 3.724787009448463e-13 3.701438975706956e-13 2.3348033741508025e-15
3.389271646505754 4.231468868349972e-21 3.8068604904090595e-13 3.783235253392685e-13 2.3625237016373436e-15
3.395632727569191 4.3226339203461864e-21 3.896176305631352e-13 3.8722653910949095e-13 2.391091453644226e-15
3.421196662673239 4.762843485204078e-21 4.3252755762295975e-13 4.3001815578907755e-13 2.509401833882069e-15
3.4276182099114902 4.6831077905577556e-21 4.2608478713574556e-13 4.235489297117352e-13 2.535857424010523e-15
3.4340518103208963 4.3200185286879185e-21 3.937874633113638e-13 3.912265579385956e-13 2.5609053727681797e-15
3.4469541582030403 3.8007907205006866e-21 3.477594159626561e-13 3.4515038223921645e-13 2.6090337234396357e-15
3.472904465399547 3.6608850284011926e-21 3.3748024802201146e-13 3.3476042395644797e-13 2.7198240655635237e-15
3.4990501388274233 3.445681710862652e-21 3.200329954327538e-13 3.171996803375805e-13 2.8333150951732088e-15
3.5253949054701885 2.667374854551799e-21 2.4960958508507276e-13 2.466658256807255e-13 2.943759404347218e-15
3.5519380250092896 1.9288566395091858e-21 1.8185898500465498e-13 1.7880406693696106e-13 3.0549180676939283e-15
3.578680990867387 1.6423523378127566e-21 1.5601226876672747e-13 1.5283549471911124e-13 3.1767740476162136e-15
3.605625307711299 1.5335959152886866e-21 1.4677800130168402e-13 1.4347279856825453e-13 3.3052027334294663e-15
3.660119384959845 1.4688622299644539e-21 1.4270715494928717e-13 1.3913172842118483e-13 3.5754265281023174e-15
3.715437065384467 1.4280687113503647e-21 1.4084078802449222e-13 1.3697990554798837e-13 3.860882476503878e-15
3.8285932144167436 1.439988422796097e-21 1.4634155275947184e-13 1.41865111795408e-13 4.4764409640638584e-15
3.94519561050918 1.4767599643965723e-21 1.5464927352877493e-13 1.4949851893256914e-13 5.150754596205795e-15
4.06534921144712 1.5232639440131177e-21 1.643775308845159e-13 1.584937599571305e-13 5.883770927385345e-15
4.189162171576248 1.5749941620343319e-21 1.7513605166039253e-13 1.6845849720361127e-13 6.677554456781293e-15
4.316745939156006 1.6300573675113737e-21 1.8677932914761574e-13 1.792493702811358e-13 7.52995886647994e-15
4.448215356677963 1.6875916144310354e-21 1.9926113367765532e-13 1.908310343744823e-13 8.430099303173014e-15
4.58368876423945 1.747431168781131e-21 2.1261046240274676e-13 2.0323070576207614e-13 9.379756640670678e-15
4.723288106065518 1.8098866383687313e-21 2.269160650700177e-13 2.1653057357516142e-13 1.0385491494856237e-14
4.867139040275056 1.8754901261844937e-21 2.423025407465451e-13 2.3088032105411973e-13 1.1422219692425332e-14
4.940699165968905 1.910769447592851e-21 2.5059138271438457e-13 2.386359146129571e-13 1.1955468101427512e-14
5.015371051989984 1.9459117564501028e-21 2.5905718611669906e-13 2.4656004512482384e-13 1.2497140991875134e-14
5.091171501069577 1.984999875013272e-21 2.6825488770549293e-13 2.5519624605718577e-13 1.3058641648307051e-14
5.129500256944802 2.0044763920668058e-21 2.729263295450168e-13 2.595842337537612e-13 1.3342095791255552e-14
5.168117569889187 2.024270065053045e-21 2.7769641347066653e-13 2.640664626457964e-13 1.3629950824870144e-14
5.20702561229733 2.047180855249754e-21 2.829536877013729e-13 2.6901028040241073e-13 1.3943407298962262e-14
5.246226572918644 2.0701728548403564e-21 2.882856901479585e-13 2.7402616651766334e-13 1.425952363029508e-14
5.265937586045735 2.0817006216788344e-21 2.9098018276954355e-13 2.7656163721909344e-13 1.4418545550450122e-14
5.285722656980489 2.093250326311765e-21 2.9369393120632627e-13 2.79115739538941e-13 1.45781916673852e-14
5.305582063971359 2.104822576715697e-21 2.9642713930420157e-13 2.816886912576429e-13 1.473844804655879e-14
5.3255160863122235 2.1170070248944953e-21 2.992632810010304e-13 2.843627670781315e-13 1.4900513922898948e-14
5.365609099470188 2.1460418560305666e-21 3.0565158414654585e-13 2.9041576849249073e-13 1.5235815654055134e-14
5.406003951863644 2.175482817358749e-21 3.121773928884086e-13 2.966034988793036e-13 1.557389400910514e-14
5.446702915881641 2.205354862472668e-21 3.1884646206476737e-13 3.0293182302499637e-13 1.5914639039770753e-14
5.487708281020852 2.2368201177244295e-21 3.2583033126257884e-13 3.0957099623623227e-13 1.625933502634658e-14
5.529022354014368 2.2789423759884503e-21 3.3446534271602744e-13 3.1784658068822466e-13 1.6618762027802805e-14
5.570647458961463 2.322459368121592e-21 3.434181406503848e-13 3.264370056985934e-13 1.698113495179139e-14
5.612585937458331 2.3674811567482676e-21 3.527109704940507e-13 3.353646277214443e-13 1.734634277260648e-14
5.654840148729818 2.415860855289725e-21 3.6262829058547205e-13 3.4491228465528624e-13 1.7716005930185784e-14
5.67608639626678 2.4484205706965823e-21 3.688964279504649e-13 3.509870521651871e-13 1.7909375785277683e-14
5.686739436050992 2.465047510351056e-21 3.7209861770985866e-13 3.540922493201429e-13 1.800636838971585e-14
5.6974124697621304 2.481913416268447e-21 3.753476675869543e-13 3.5724410376406644e-13 1.8103563822887902e-14
5.718818669136295 2.5163857436054737e-21 3.8199086335906787e-13 3.6369230711340587e-13 1.829855624566202e-14
5.740305295436557 2.5540632428467335e-21 3.8916705754501846e-13 3.706713007128508e-13 1.8495756832167653e-14
5.7835210386641895 2.6510009752859853e-21 4.0697866261939743e-13 3.880751001583534e-13 1.890356246104408e-14
5.827062130521658 2.7602898574427547e-21 4.269468084415217e-13 4.0762841445867715e-13 1.931839398284456e-14
5.8489554468988025 2.8371299525750525e-21 4.4048079213985327e-13 4.209385202879444e-13 1.9542271851908707e-14
5.870931020387893 2.918507303909113e-21 4.548175299805648e-13 4.3505016672410755e-13 1.9767363256457187e-14
5.892989160043636 3.004779162488002e-21 4.700214025825572e-13 4.5002774630809983e-13 1.9993656274457293e-14
5.915130176081913 3.102300513260118e-21 4.870994110518128e-13 4.668712135046462e-13 2.0228197547166882e-14
5.95966208400165 3.3750766681284156e-21 5.339181831377811e-13 5.131561592722818e-13 2.0762023865499405e-14
6.004529249263818 3.764736651751737e-21 6.000438651590688e-13 5.78681416344571e-13 2.136244881449742e-14
6.027089341400364 4.034997172988843e-21 6.45535747586436e-13 6.238266752653497e-13 2.170907232108624e-14
6.049734195844842 4.351687179735137e-21 6.988168936804919e-13 6.767407019832145e-13 2.2076191697277253e-14
6.095279466722835 5.2643083151807744e-21 8.517347618026436e-13 8.287572041064997e-13 2.2977557696143907e-14
6.141167624020661 6.657570291698125e-21 1.0852658697497462e-12 1.0611196987491289e-12 2.4146171000617575e-14
6.164241091010745 7.546367399181004e-21 1.2347726303849952e-12 1.2098936023027633e-12 2.4879028082231945e-14
6.187401249150058 8.548531516287642e-21 1.4040068635900786e-12 1.3783750171191878e-12 2.563184647089142e-14
6.1990139391386085 9.036463546191484e-21 1.4869300792022234e-12 1.4609151176767978e-12 2.6014961525425237e-14
6.204828454712694 9.292605548825833e-21 1.5305119144235429e-12 1.504303415235272e-12 2.620849918827101e-14
6.210648424152782 9.478782383332672e-21 1.5626399779455517e-12 1.5362664438658712e-12 2.637353407968091e-14
6.233982942956859 1.0105922333247871e-20 1.6722877134416492e-12 1.645338183478351e-12 2.6949529963297777e-14
6.239830258556775 1.018311469189315e-20 1.686641741062784e-12 1.6596118268648515e-12 2.7029914197932717e-14
6.245683058788269 1.0185302867849347e-20 1.6885865378287265e-12 1.6614761001065028e-12 2.7110437722224472e-14
6.257405133728602 1.0157699677986966e-20 1.6871708976070742e-12 1.6599192470106854e-12 2.725165059638853e-14
6.269149208991335 1.0021480825290897e-20 1.667669320567421e-12 1.6403644787001558e-12 2.7304841867264573e-14
6.280915325867298 9.695326663552138e-21 1.6164222430317905e-12 1.5891730884428746e-12 2.7249154588916626e-14
6.304513850009849 8.897429402117522e-21 1.4889687633492495e-12 1.4619295435456405e-12 2.7039219803608618e-14
6.32820103803542 7.919145005509097e-21 1.330233853063727e-12 1.3035094367848253e-12 2.67244162789017e-14
6.3519772230701035 7.025132568309974e-21 1.1844940656064615e-12 1.1580511270245665e-12 2.6442938581895103e-14
6.375842739491607 6.2710647274517415e-21 1.061324801394366e-12 1.035129206724252e-12 2.619559467011419e-14
6.399797922933955 5.671595625654171e-21 9.634761156130371e-13 9.374033217802634e-13 2.6072793832774234e-14
6.42384311029221 5.171354795394234e-21 8.817971553181338e-13 8.55822373279932e-13 2.5974782038201526e-14
6.447978639727206 4.8083452454786e-21 8.229788346571713e-13 7.970048285879333e-13 2.5974006069237937e-14
6.472204850670314 4.504915106195439e-21 7.739417923196886e-13 7.479492274965009e-13 2.5992564823187746e-14
6.496522083828205 4.3079356265253005e-21 7.428815238217324e-13 7.167915089710714e-13 2.6090014850661164e-14
6.520930681187647 4.141437400993231e-21 7.168530178577005e-13 6.906535058299043e-13 2.6199512027796086e-14
6.57002334288761 3.968434004781544e-21 6.920787394712656e-13 6.655506491177988e-13 2.6528090353466946e-14
