Dust emission spectrum from A.P. Jones, M. Kohler, N. Ysard, M. Bocchio, and L. Verstraete (2017), A&A, 602A, 46J 
inside the DustPedia framework.

lambda    nu*dP/dnu     j_nu    j_nu(carb.) j_nu(sil)
 (um)   (erg s-1 H-1) (Jy cm2 sr-1 H-1)
0.9927057738263894 5.704455662707831e-22 1.5031564677848397e-14 1.503156422374172e-14 4.541066768552802e-22
1.0001793341362166 5.800491158012382e-22 1.539969356533492e-14 1.5399693018764793e-14 5.465701261546831e-22
1.0077091589558085 5.896863988361973e-22 1.577341572432834e-14 1.577341506733965e-14 6.569886867398252e-22
1.0114953028030835 5.945171738679067e-22 1.5962382301475582e-14 1.5962381581533532e-14 7.199420476771757e-22
1.0152956718711033 5.993557693913193e-22 1.615275694122588e-14 1.6152756152560428e-14 7.886654517361107e-22
1.0229392996569957 6.090509300660248e-22 1.653761615656138e-14 1.6537615211074006e-14 9.454873744485136e-22
1.0267826658714554 6.138964353520171e-22 1.6731815729601283e-14 1.6731814694849455e-14 1.0347518284095915e-21
1.0306404723013447 6.187487502097256e-22 1.692742742924325e-14 1.692742629717581e-14 1.1320674419762537e-21
1.03451277320114 6.236076934047427e-22 1.7124454848499266e-14 1.7124453610375544e-14 1.2381237174635959e-21
1.0383996230291617 6.284730879975108e-22 1.7322901671060048e-14 1.7322900317394223e-14 1.3536658276634147e-21
1.0403485208654093 6.309081504770045e-22 1.7422658535740272e-14 1.7422657120497088e-14 1.4152431875099779e-21
1.0423010764483396 6.333447614578215e-22 1.752277167622702e-14 1.7522770196728203e-14 1.4794988165244962e-21
1.0462171883269815 6.382225457785846e-22 1.7724068743916378e-14 1.7724067127424285e-14 1.6164920926592585e-21
1.0471985131304309 6.3944292743221045e-22 1.7774616454025592e-14 1.777461480143299e-14 1.6525926044476462e-21
1.048180758391296 6.406636782740333e-22 1.782525366744023e-14 1.7825251977975926e-14 1.6894643041125798e-21
1.0501480137395462 6.431062775888158e-22 1.7926796859734543e-14 1.7926795094150308e-14 1.765584234229584e-21
1.0521189612883777 6.455503240443524e-22 1.8028698836358493e-14 1.802869699137764e-14 1.8449808555626262e-21
1.0531058218030118 6.467712444866403e-22 1.807973870445596e-14 1.8079736818503635e-14 1.885952321475916e-21
1.0540936079674168 6.479871485072051e-22 1.813071809937563e-14 1.8130716171572767e-14 1.9278028610990487e-21
1.058054026499678 6.5285404408734955e-22 1.8335526114579943e-14 1.8335524010315046e-14 2.1042648998268514e-21
1.0590464539527713 6.540715763587604e-22 1.8386951058142988e-14 1.8386948907405493e-14 2.150737490770406e-21
1.06003981227728 6.552894274512796e-22 1.8438465311691193e-14 1.8438463113500203e-14 2.1981909902088968e-21
1.0620293250338977 6.577260772018476e-22 1.854176202093053e-14 1.854175972481076e-14 2.296119771984755e-21
1.0660195594769086 6.626031058220425e-22 1.874943018218583e-14 1.8749427677546748e-14 2.504639082612298e-21
1.070024785945596 6.674849931647509e-22 1.8958535095570095e-14 1.895853236437691e-14 2.7311931823097938e-21
1.0740450607676866 6.723716077988243e-22 1.9169081397269544e-14 1.9169078420011234e-14 2.977258307653582e-21
1.07808044048254 6.77262823750581e-22 1.9381073867993046e-14 1.9381070623568846e-14 3.2444241963500832e-21
1.0861967418109137 6.870510053454079e-22 1.980919869724856e-14 1.980919484821415e-14 3.8490344097722985e-21
1.0902777775684922 6.9193051562269045e-22 2.0024841056000698e-14 2.002483686569807e-14 4.190302623994849e-21
1.0943741465085532 6.968138803906029e-22 2.0241936164374056e-14 2.0241931604037706e-14 4.560336356088831e-21
1.1026131145906286 7.065917968139322e-22 2.06805068238359e-14 2.0680501427803896e-14 5.3960320023947e-21
1.1109141095355224 7.163840631577367e-22 2.1124956903397043e-14 2.1124950526832063e-14 6.376564976467688e-21
1.1192775983109025 7.26182309437477e-22 2.157510458275145e-14 2.1575097057241915e-14 7.525509529383793e-21
1.1277040513999907 7.359502894487816e-22 2.2029926803981645e-14 2.202991793396949e-14 8.870012157561521e-21
1.1361939428280308 7.457300029853169e-22 2.2490728303524926e-14 2.2490717862235614e-14 1.0441289318131208e-20
1.1447477501889525 7.555211908219158e-22 2.2957568119912692e-14 2.2957555844723054e-14 1.2275189642536837e-20
1.1533659546722406 7.653273427837249e-22 2.3430620520960378e-14 2.3430606108114314e-14 1.4412846058007874e-20
1.1707974979042381 7.850142993527206e-22 2.4396570826904806e-14 2.4396551032098064e-14 1.9794806748430866e-20
1.1884924949847024 8.047602282474033e-22 2.5388227529274e-14 2.5388200478836845e-14 2.7050437159427713e-20
1.2064549276569216 8.246999695217513e-22 2.6410493302896786e-14 2.6410456519652918e-14 3.6783243862529043e-20
1.2246888378427687 8.446975681250422e-22 2.7459740988977988e-14 2.7459691215905767e-14 4.9773072223945525e-20
1.2431983285522175 8.6473447550846e-22 2.853596899901944e-14 2.8535901974937804e-14 6.702408162617256e-20
1.2619875648066055 8.84837195413072e-22 2.964066064205804e-14 2.9640570819378114e-14 8.982267991941984e-20
1.3004222497298317 9.25102081524464e-22 3.1933276593306906e-14 3.193311753994976e-14 1.590533571616703e-19
1.3400274889804893 9.655958974963236e-22 3.434618876304371e-14 3.4345912278771344e-14 2.764842723694272e-19
1.3808389325824078 1.0064515552024899e-21 3.688971769782305e-14 3.6889245664895224e-14 4.720329278229648e-19
1.4228933163050095 1.0480088049469681e-21 3.958281748779857e-14 3.958202560073371e-14 7.918870648547126e-19
1.466228494730424 1.0910122444610706e-21 4.246202611701822e-14 4.2460720065466335e-14 1.3060515518911281e-18
1.5108834753276823 1.1353506649973585e-21 4.553343591292595e-14 4.553131728487472e-14 2.1186280512400786e-18
1.5568984535646726 1.1809684620646704e-21 4.8805416145088485e-14 4.88020323523464e-14 3.383792742078698e-18
1.6043148490894465 1.2281406534012934e-21 5.230065690538205e-14 5.229532580362145e-14 5.331101760588733e-18
1.6531753430134553 1.2771605106139876e-21 5.604460776772011e-14 5.603633251264804e-14 8.2752550720859e-18
1.7035239163302658 1.3283799588929872e-21 6.006755891645691e-14 6.0054899938641e-14 1.265897781591661e-17
1.755405889504358 1.382823832043662e-21 6.443381411521999e-14 6.441472063092507e-14 1.9093484294946538e-17
1.8088679632656115 1.440487338215097e-21 6.916489872141541e-14 6.913649378323639e-14 2.840493817899852e-17
1.8639582606462262 1.501346585063338e-21 7.428251110474517e-14 7.424081493809906e-14 4.16961666461056e-17
1.9207263702978936 1.565595778960099e-21 7.982052387140549e-14 7.976010754674435e-14 6.04163246611478e-17
1.979223391128241 1.6335261019291214e-21 8.582035889938381e-14 8.573391495375855e-14 8.644394562526731e-17
2.039501978296691 1.705392916254141e-21 9.232472413787951e-14 9.220254693891717e-14 1.22177198962321e-16
2.1016163906111602 1.781981333471903e-21 9.94090744589821e-14 9.923842747295132e-14 1.706469860307988e-16
2.1656225393682647 1.8636639834707582e-21 1.071321469017565e-13 1.0689652941821126e-13 2.35617483545262e-16
2.231578038680979 1.9502238807329147e-21 1.1552234124096838e-13 1.1520064196795253e-13 3.2169927301582566e-16
2.299542257339062 2.0417184162669955e-21 1.2462543119110524e-13 1.2419096385983722e-13 4.344673312680023e-16
2.369576372248914 2.1384120268324577e-21 1.3450286403430866e-13 1.3392227763085766e-13 5.805864034509841e-16
2.4417434235010123 2.2406270883927048e-21 1.452242164249491e-13 1.4445631111016384e-13 7.679053147852678e-16
2.5161083711144245 2.3491039323303656e-21 1.5689207524719227e-13 1.5588649378736722e-13 1.00558145982502e-15
2.5927381535095444 2.4651399432727653e-21 1.6965617462350122e-13 1.6835201968557867e-13 1.30415493792255e-15
2.6717017477616296 2.5898983890797005e-21 1.8367080655248163e-13 1.819952757557803e-13 1.6755307967013114e-15
2.753070231689431 2.7251506518408172e-21 1.9914859166790495e-13 1.9701559600080917e-13 2.13299566709582e-15
2.836916847834745 2.87575420637982e-21 2.1655479441896363e-13 2.1386351367458058e-13 2.6912807443831077e-15
2.9233170693905177 3.0525238075698154e-21 2.368669213101511e-13 2.3350110110977416e-13 3.3658202003769287e-15
2.967498994190263 3.161175163892416e-21 2.4900529063111654e-13 2.4526063065568857e-13 3.744659975428002e-15
3.0123486681368425 3.2779905621764453e-21 2.6210926361091407e-13 2.5794859267888337e-13 4.160670932030687e-15
3.0578761833420214 3.4672405689635034e-21 2.8143188851264635e-13 2.76813681092667e-13 4.618207419979392e-15
3.1040917844459814 3.689383724541288e-21 3.0398896239018623e-13 2.9887302526942116e-13 5.115937120765166e-15
3.127460860933648 3.892358084667642e-21 3.231276361776501e-13 3.17745270060121e-13 5.382366117529239e-15
3.1510058709225794 4.14979928850668e-21 3.4709290582643294e-13 3.4143287463981685e-13 5.660031186616072e-15
3.162844764501044 4.3802827343313835e-21 3.6774726689786825e-13 3.6194356248039935e-13 5.803704417468839e-15
3.1747281389236908 4.6414652931879254e-21 3.911389645478238e-13 3.8518867910283936e-13 5.950285444984406e-15
3.1986289994194426 5.348515655633234e-21 4.541157604959604e-13 4.4786268187250693e-13 6.253078623453389e-15
3.2227097969389145 6.978330087680036e-21 5.969557515345036e-13 5.903818720367626e-13 6.573879497741025e-15
3.2348180950136065 8.505786788497282e-21 7.303546338739415e-13 7.236095694003884e-13 6.7450644735529845e-15
3.240889293275058 9.645918112573408e-21 8.298072020694829e-13 8.229718417509636e-13 6.835360318519505e-15
3.2469718861334385 1.0966719982652863e-20 9.452021829505655e-13 9.382733928260556e-13 6.9287901245096436e-15
3.2714166318528037 1.790926449313975e-20 1.555188516388226e-12 1.5478736665543796e-12 7.314849833846549e-15
3.2744851364798273 1.8344086103255678e-20 1.5944413056506616e-12 1.587080969284621e-12 7.360336366040342e-15
3.2775565192852394 1.8790621413858076e-20 1.6347854556880792e-12 1.6273794063535286e-12 7.406049334550945e-15
3.283707930232385 1.8366579497841726e-20 1.6008927498855631e-12 1.5934049699311183e-12 7.487779954444826e-15
3.2898708863219004 1.701166082456039e-20 1.4855764369060603e-12 1.4780142949094816e-12 7.562141996578151e-15
3.29141343181113 1.6691547227789243e-20 1.4583053388622613e-12 1.4507245246268219e-12 7.580814235439271e-15
3.292184975758714 1.6534166493215468e-20 1.44489393527874e-12 1.437303772650199e-12 7.590162628540441e-15
3.295272960557952 1.555048974443945e-20 1.3602066663394487e-12 1.3525801435142702e-12 7.626522825178246e-15
3.3076538914384823 1.2120211766628239e-20 1.064142283814772e-12 1.0563697298962282e-12 7.77255391854378e-15
3.310756385682612 1.1415778167555325e-20 1.0032338549683826e-12 9.954244945966908e-13 7.80936037169165e-15
3.313861789986515 1.0763377395980266e-20 9.46787232383493e-13 9.389409458820007e-13 7.846286501492475e-15
3.3200813396944477 9.852641614943658e-21 8.683020825132211e-13 8.603763637210356e-13 7.92571879218535e-15
3.345076488085796 8.264624523218379e-21 7.338353243050213e-13 7.255556040168189e-13 8.279720288202677e-15
3.3482140837626964 8.330557676174457e-21 7.403834929199345e-13 7.320558169500039e-13 8.327675969930523e-15
3.3513546224236106 8.397098128816073e-21 7.469973247005015e-13 7.386214779633429e-13 8.375846737158292e-15
3.3576445397418455 8.858620340057548e-21 7.895329139065578e-13 7.810563506558265e-13 8.476563250731317e-15
3.3702598118196083 1.0529248788005996e-20 9.419551007930226e-13 9.332672825479752e-13 8.687818245047383e-15
3.382922481734668 1.093116939731054e-20 9.815854308619199e-13 9.726922788045345e-13 8.893152057385031e-15
3.389271646505754 1.113843506561139e-20 1.0020744496886103e-12 9.930772220285027e-13 8.99722766010725e-15
3.395632727569191 1.1365707235948727e-20 1.024440191916593e-12 1.0153357078628034e-12 9.104484053789573e-15
3.421196662673239 1.2464859064846169e-20 1.131969812608972e-12 1.12242134035061e-12 9.548472258361615e-15
3.4276182099114902 1.2269898202095935e-20 1.1163563166660873e-12 1.1067087635664534e-12 9.647553099633636e-15
3.4340518103208963 1.137618774414161e-20 1.0369863194267273e-12 1.027245054388729e-12 9.74126503799846e-15
3.4469541582030403 1.009645328913999e-20 9.237911154084883e-13 9.13869984945954e-13 9.921130462534173e-15
3.472904465399547 9.752768741111781e-21 8.990631467847962e-13 8.887276830884167e-13 1.0335463696379727e-14
3.4990501388274233 9.225294867055119e-21 8.568402417282193e-13 8.460807954285068e-13 1.0759446299712369e-14
3.5253949054701885 7.31820175673337e-21 6.848281189086965e-13 6.736567899631794e-13 1.1171328945516987e-14
3.5519380250092896 5.505077887010757e-21 5.190369550523453e-13 5.074516607107916e-13 1.1585294341553584e-14
3.578680990867387 4.80555556068748e-21 4.564949971124239e-13 4.4445598940793976e-13 1.203900770448414e-14
3.605625307711299 4.544281400426593e-21 4.349258723615443e-13 4.2240903617019924e-13 1.2516836191344891e-14
3.660119384959845 4.397735187109257e-21 4.2726149802893396e-13 4.137408774968066e-13 1.3520620532127268e-14
3.715437065384467 4.308987846739026e-21 4.2496641730132494e-13 4.1038777134668585e-13 1.45786459546391e-14
3.8285932144167436 4.361100662002734e-21 4.4320512062075887e-13 4.263531508119977e-13 1.685196980876121e-14
3.94519561050918 4.472649318458866e-21 4.683848320138272e-13 4.490549346328059e-13 1.9329897381021238e-14
4.06534921144712 4.606223179010655e-21 4.97063949977061e-13 4.750547953093547e-13 2.2009154667706354e-14
4.189162171576248 4.750552020030731e-21 5.282514335931541e-13 5.033572379970036e-13 2.4894195596150583e-14
4.316745939156006 4.9006788928730096e-21 5.615419028939877e-13 5.335682990184307e-13 2.7973603875557e-14
4.448215356677963 5.054101819806508e-21 5.967593401893506e-13 5.65555484942697e-13 3.120385524665357e-14
4.58368876423945 5.210143589538005e-21 6.339196974087667e-13 5.993316982217396e-13 3.458799918702712e-14
4.723288106065518 5.3693062497599415e-21 6.731813034707627e-13 6.350350629018446e-13 3.814624056891836e-14
4.867139040275056 5.532276729011464e-21 7.147383443065904e-13 6.729554161864741e-13 4.17829281201164e-14
4.940699165968905 5.618251825572249e-21 7.368159958708734e-13 6.931745430729113e-13 4.364145279796222e-14
5.015371051989984 5.7027681045712265e-21 7.592035216136304e-13 7.136826829987446e-13 4.552083861488557e-14
5.091171501069577 5.795768086659294e-21 7.832459522162302e-13 7.357842052689095e-13 4.74617469473207e-14
5.129500256944802 5.8416204109733285e-21 7.953857793846576e-13 7.469477866258256e-13 4.843799275883202e-14
5.168117569889187 5.8879366817429564e-21 8.077276483459486e-13 7.583000386397725e-13 4.942760970617625e-14
5.20702561229733 5.941649870699991e-21 8.212326417735293e-13 7.70724100408389e-13 5.050854136514008e-14
5.246226572918644 5.99518321811328e-21 8.348701547101135e-13 7.83274027458037e-13 5.15961272520765e-14
5.265937586045735 6.021883891452386e-21 8.417391324688391e-13 7.895968595360686e-13 5.214227293277075e-14
5.285722656980489 6.0485414806227375e-21 8.486418958971886e-13 7.959519859470852e-13 5.268990995010342e-14
5.305582063971359 6.075156767734051e-21 8.555786893420461e-13 8.023397095673547e-13 5.323897977469161e-14
5.3255160863122235 6.103156674790703e-21 8.627513605214558e-13 8.089575039858111e-13 5.379385653564468e-14
5.365609099470188 6.170108747893044e-21 8.787822603973982e-13 8.23840331916774e-13 5.4941928480624125e-14
5.406003951863644 6.237553158765936e-21 8.95076287235644e-13 8.38979544922228e-13 5.6096742313416074e-14
5.446702915881641 6.305539272982282e-21 9.116441634008289e-13 8.543863325281188e-13 5.725783087271008e-14
5.487708281020852 6.3768417429662085e-21 9.288938529547397e-13 8.704640793149637e-13 5.84297736397761e-14
5.529022354014368 6.47306555454321e-21 9.500091410536742e-13 8.903576859517887e-13 5.96514551018853e-14
5.570647458961463 6.5718999800126745e-21 9.7177574025833e-13 9.10895635570439e-13 6.088010468789095e-14
5.612585937458331 6.673578679105023e-21 9.942399777358908e-13 9.32124730847505e-13 6.211524688838572e-14
5.654840148729818 6.782468668696753e-21 1.0180698171807855e-12 9.547071892008456e-13 6.336262797994005e-14
5.67608639626678 6.856427714505942e-21 1.033038082857724e-12 9.690225461948324e-13 6.401553666289143e-14
5.686739436050992 6.894123686027822e-21 1.0406671202561998e-12 9.76324400642315e-13 6.434271961388443e-14
5.6974124697621304 6.932313678798353e-21 1.0483958679873069e-12 9.837254896631323e-13 6.467037832417451e-14
5.718818669136295 7.01022680779806e-21 1.064162200671529e-12 9.98835107791158e-13 6.532709288037118e-14
5.740305295436557 7.095415213943725e-21 1.0811407542880245e-12 1.0151501166134414e-12 6.599063767458334e-14
5.7835210386641895 7.31558326969449e-21 1.1230800452873908e-12 1.0557179455343082e-12 6.736209975308245e-14
5.827062130521658 7.563047265579468e-21 1.1698115266499677e-12 1.101057280819786e-12 6.875424583018193e-14
5.8489554468988025 7.738171317855755e-21 1.2013957375161255e-12 1.131888696307716e-12 6.950704120840938e-14
5.870931020387893 7.923191391689119e-21 1.2347429569576778e-12 1.1644799905158085e-12 7.026296644186979e-14
5.892989160043636 8.11889099212936e-21 1.269994340740763e-12 1.198972376372992e-12 7.102196436777095e-14
5.915130176081913 8.340119793944213e-21 1.309501585151937e-12 1.237692523891484e-12 7.180906126045296e-14
5.95966208400165 8.961095462061276e-21 1.4175949996066666e-12 1.343985846343434e-12 7.360915326323252e-14
6.004529249263818 9.848402055553388e-21 1.5696909987860863e-12 1.4940525057220438e-12 7.563849306404261e-14
6.027089341400364 1.046438657699663e-20 1.6741363927675953e-12 1.5973220427523924e-12 7.681435001520248e-14
6.049734195844842 1.1185202138547098e-20 1.7961787901591805e-12 1.7181181841830507e-12 7.806060597612997e-14
6.095279466722835 1.326283749147225e-20 2.14585070920915e-12 2.0647154148094647e-12 8.113529439968482e-14
6.141167624020661 1.642980336153483e-20 2.6782600939576985e-12 2.593120151884385e-12 8.513994207331287e-14
6.164241091010745 1.844833773815158e-20 3.0186050201637986e-12 2.9309448292495725e-12 8.766019091422575e-14
6.187401249150058 2.0718533337807468e-20 3.402802335626642e-12 3.312555343907117e-12 9.024699171952548e-14
6.1990139391386085 2.1821951479682523e-20 3.5907538248972244e-12 3.4991908041967055e-12 9.156302070051954e-14
6.204828454712694 2.24007173363153e-20 3.6894458281613605e-12 3.597218213022701e-12 9.222761513865921e-14
6.210648424152782 2.2819918129680174e-20 3.7620144572139825e-12 3.669222145069319e-12 9.27923121446642e-14
6.233982942956859 2.4226154945345022e-20 4.008847478052397e-12 3.914092878097287e-12 9.475459995511007e-14
6.239830258556775 2.4395750898959687e-20 4.040698059063665e-12 3.945676060936797e-12 9.502199812686686e-14
6.245683058788269 2.439482727477134e-20 4.044335005379559e-12 3.949045224949327e-12 9.528978043023188e-14
6.257405133728602 2.4320175166796002e-20 4.03952598195502e-12 3.9437703577682034e-12 9.575562418681527e-14
6.269149208991335 2.3998542178784938e-20 3.993584703460343e-12 3.8976717445890765e-12 9.591295887126767e-14
6.280915325867298 2.3245668918624894e-20 3.875559596715176e-12 3.77987063491943e-12 9.568896179574683e-14
6.304513850009849 2.1411449363522785e-20 3.583167434037988e-12 3.4882712759261014e-12 9.489615811188575e-14
6.32820103803542 1.917315743687805e-20 3.2206485769502734e-12 3.1269120720403854e-12 9.373650490988764e-14
6.3519772230701035 1.713063885931169e-20 2.8883640090201953e-12 2.7956702374660497e-12 9.269377155414538e-14
6.375842739491607 1.540739902796703e-20 2.607572306147385e-12 2.5158012529014492e-12 9.17710532459345e-14
6.399797922933955 1.4039529592882977e-20 2.384999271809858e-12 2.2937162335263466e-12 9.128303828351155e-14
6.42384311029221 1.2897299626234744e-20 2.1991920051256965e-12 2.1083102903062467e-12 9.088171481944915e-14
6.447978639727206 1.2068005436697682e-20 2.065515794704818e-12 1.9746966860617847e-12 9.081910864303364e-14
6.472204850670314 1.1374062547222972e-20 1.954057323221862e-12 1.863233719900202e-12 9.082360332166007e-14
6.496522083828205 1.0921857291181356e-20 1.883418576981063e-12 1.7923162753155058e-12 9.110230166555704e-14
6.520930681187647 1.0538843105875003e-20 1.8241979181825784e-12 1.7327756660560027e-12 9.142225212657586e-14
6.57002334288761 1.0134464990416012e-20 1.7674094484957647e-12 1.6749685746485874e-12 9.244087384717676e-14
