Dust emission spectrum from A.P. Jones, M. Kohler, N. Ysard, M. Bocchio, and L. Verstraete (2017), A&A, 602A, 46J 
inside the DustPedia framework.

lambda    nu*dP/dnu     j_nu    j_nu(carb.) j_nu(sil)
 (um)   (erg s-1 H-1) (Jy cm2 sr-1 H-1)
0.9927057738263894 8.131032670021967e-23 2.1425732918943625e-15 2.142573249341364e-15 4.2552998076820864e-23
1.0001793341362166 8.267736465554405e-23 2.1949970197370523e-15 2.1949969685103744e-15 5.122667799579334e-23
1.0077091589558085 8.40477965983953e-23 2.248179437539539e-15 2.2481793759524765e-15 6.158706278145979e-23
1.0114953028030835 8.473419044566661e-23 2.2750554590375715e-15 2.2750553915426703e-15 6.749490069480012e-23
1.0152956718711033 8.542131980758902e-23 2.3021215226675234e-15 2.3021214487225224e-15 7.394500079871616e-23
1.0229392996569957 8.679697032077151e-23 2.35680615176429e-15 2.3568060630978963e-15 8.866639430368238e-23
1.0267826658714554 8.748390378736427e-23 2.384383542864201e-15 2.3843834458167476e-15 9.70474543597874e-23
1.0306404723013447 8.81713935541965e-23 2.412150109746513e-15 2.412150003560929e-15 1.0618558336061318e-22
1.03451277320114 8.885940484205419e-23 2.4401059867852826e-15 2.4401058706395458e-15 1.1614573700434243e-22
1.0383996230291617 8.95479034129729e-23 2.468251314650813e-15 2.4682511876526864e-15 1.2699812728683243e-22
1.0403485208654093 8.989232488204126e-23 2.482395068473153e-15 2.482394935690766e-15 1.327823869941388e-22
1.0423010764483396 9.023685558577955e-23 2.4965862409135724e-15 2.496586102094952e-15 1.3881862020267582e-22
1.0462171883269815 9.092622825151449e-23 2.525110920656778e-15 2.525110768967617e-15 1.5168916126317382e-22
1.0471985131304309 9.109863329573462e-23 2.5322717585132253e-15 2.5322716034321407e-15 1.5508108492023766e-22
1.048180758391296 9.127106208291223e-23 2.5394444687540156e-15 2.539444310208434e-15 1.5854558154969494e-22
1.0501480137395462 9.161598888872929e-23 2.553825517097564e-15 2.553825351399333e-15 1.6569823060125143e-22
1.0521189612883777 9.196100469807186e-23 2.5682540874637963e-15 2.568253914304527e-15 1.7315926928972854e-22
1.0531058218030118 9.213330660302396e-23 2.575479543284809e-15 2.5754793662751904e-15 1.770096187418221e-22
1.0540936079674168 9.230484906104805e-23 2.5826950447809247e-15 2.5826948638382194e-15 1.8094270601725626e-22
1.058054026499678 9.299118496710566e-23 2.611674563146263e-15 2.6116743656183677e-15 1.9752789596805256e-22
1.0590464539527713 9.316280808654743e-23 2.6189488347173495e-15 2.6189486328212576e-15 2.0189609144315296e-22
1.06003981227728 9.333444592184984e-23 2.6262348687807827e-15 2.6262346624241447e-15 2.0635663764961993e-22
1.0620293250338977 9.36777638780023e-23 2.6408422361301534e-15 2.640842020567913e-15 2.1556224003229114e-22
1.0660195594769086 9.436455604422688e-23 2.6701982524352604e-15 2.670198017269565e-15 2.35165695045735e-22
1.070024785945596 9.50515323872163e-23 2.6997428123540933e-15 2.6997425558865376e-15 2.564675556440318e-22
1.0740450607676866 9.573866451368484e-23 2.7294761284414773e-15 2.7294758488343455e-15 2.7960713148475014e-22
1.07808044048254 9.642592472979398e-23 2.75939842619491e-15 2.75939812146044e-15 3.0473446966083014e-22
1.0861967418109137 9.779962787788546e-23 2.819779384757654e-15 2.81977902314663e-15 3.616110245608937e-22
1.0902777775684922 9.848353045780639e-23 2.850166309367936e-15 2.850165915646612e-15 3.937213237241211e-22
1.0943741465085532 9.91674140523575e-23 2.880741215586357e-15 2.8807407870431992e-15 4.285431576930916e-22
1.1026131145906286 1.005350300376919e-22 2.9424561452650577e-15 2.942455638062029e-15 5.072030283566806e-22
1.1109141095355224 1.0190229530005004e-22 3.0049266968363722e-15 3.004926097313884e-15 5.995224879228801e-22
1.1192775983109025 1.0326792062356357e-22 3.068122368916627e-15 3.0681216611865824e-15 7.077300444275485e-22
1.1277040513999907 1.0462659605796112e-22 3.1318912241110664e-15 3.1318903897181988e-15 8.343928665010491e-22
1.1361939428280308 1.0598429243300457e-22 3.196416821114507e-15 3.1964158386504317e-15 9.824640758624145e-22
1.1447477501889525 1.0734088555194847e-22 3.2617029436722544e-15 3.2617017883359466e-15 1.155336306819513e-21
1.1533659546722406 1.086968158353916e-22 3.3277706169652575e-15 3.3277692600614836e-15 1.3569037743982152e-21
1.1707974979042381 1.114108314332955e-22 3.46241112064824e-15 3.462409256017345e-15 1.864630893489414e-21
1.1884924949847024 1.1412090213315743e-22 3.60023685006449e-15 3.60023430051553e-15 2.549548959811529e-21
1.2064549276569216 1.1684598957584592e-22 3.741918684625141e-15 3.741915215727907e-15 3.468897232970999e-21
1.2246888378427687 1.1956540580133583e-22 3.886876437722507e-15 3.886871741023104e-15 4.696699402007119e-21
1.2431983285522175 1.2227589731060647e-22 4.0350666173348525e-15 4.035060288984913e-15 6.328349939159339e-21
1.2619875648066055 1.2498018870409954e-22 4.186640638031955e-15 4.186632151875111e-15 8.486156843767982e-21
1.3004222497298317 1.3034692719429474e-22 4.499400187624568e-15 4.499385141987249e-15 1.5045637319747597e-20
1.3400274889804893 1.3567352097789553e-22 4.8258990885691e-15 4.825872900967669e-15 2.6187601430777058e-20
1.3808389325824078 1.40971725665551e-22 5.167071516056083e-15 5.16702674790171e-15 4.476815437261956e-20
1.4228933163050095 1.462833214690664e-22 5.5250547398903066e-15 5.5249795351408205e-15 7.520474948537758e-20
1.466228494730424 1.5170853060318073e-22 5.904472311242311e-15 5.904348105799229e-15 1.2420544308060253e-19
1.5108834753276823 1.572234050233508e-22 6.30547200732859e-15 6.305270242132579e-15 2.0176519601134182e-19
1.5568984535646726 1.6281296901785375e-22 6.7285071210467394e-15 6.728184406883788e-15 3.227141629528072e-19
1.6043148490894465 1.6851068322066367e-22 7.176066848375666e-15 7.175557679006154e-15 5.091693695119343e-19
1.6531753430134553 1.743529795221985e-22 7.650991609314118e-15 7.65020007574257e-15 7.91533571547436e-19
1.7035239163302658 1.8038661312727044e-22 8.156840547934918e-15 8.15562788131082e-15 1.212666624095903e-18
1.755405889504358 1.86755677935652e-22 8.702034458925746e-15 8.700202586718167e-15 1.831872207578913e-18
1.8088679632656115 1.9345736524217112e-22 9.288841851582199e-15 9.28611234801785e-15 2.7295035643473303e-18
1.8639582606462262 2.0048933891971862e-22 9.919662583479168e-15 9.91564949590068e-15 4.013087578487094e-18
1.9207263702978936 2.078816203619917e-22 1.0598661585273546e-14 1.0592837298291614e-14 5.824286981929313e-18
1.979223391128241 2.1567967817367886e-22 1.1331136592374973e-14 1.1322789357751709e-14 8.347234623264313e-18
2.039501978296691 2.239268413027138e-22 1.2122710053088371e-14 1.2110892381981306e-14 1.1817671107063333e-17
2.1016163906111602 2.3274204781300857e-22 1.2983677845660295e-14 1.296714343641127e-14 1.6534409249026033e-17
2.1656225393682647 2.4218791250015257e-22 1.3922097143003145e-14 1.3899227409047072e-14 2.286973395606914e-17
2.231578038680979 2.5224760651912234e-22 1.494199428353239e-14 1.491071311168881e-14 3.12811718435777e-17
2.299542257339062 2.629423656143572e-22 1.6049865364398648e-14 1.600754145006909e-14 4.232391432955782e-17
2.369576372248914 2.7432701019989553e-22 1.7254751699329947e-14 1.7198087536900145e-14 5.66641624298031e-17
2.4417434235010123 2.8646597209465625e-22 1.856703266035245e-14 1.8491943006104902e-14 7.508965424755434e-17
2.5161083711144245 2.9948664474819225e-22 2.0002129559567952e-14 1.9903606197883082e-14 9.852336168486815e-17
2.5927381535095444 3.1360366409345854e-22 2.1582871245586954e-14 2.1454838718532216e-14 1.2803252705473303e-16
2.6717017477616296 3.290281120914405e-22 2.333406552978688e-14 2.316923670538456e-14 1.648288244023223e-16
2.753070231689431 3.4607714692155638e-22 2.5290629848782545e-14 2.508035769633042e-14 2.1027215245213423e-16
2.836916847834745 3.65559388438568e-22 2.7527957026234285e-14 2.7262077938658788e-14 2.658790875754899e-16
2.9233170693905177 3.8926569884717077e-22 3.020587994397318e-14 2.9872625751673545e-14 3.3325419229964193e-16
2.967498994190263 4.044525134406862e-22 3.1858663450897315e-14 3.148745716609618e-14 3.71206284801128e-16
3.0123486681368425 4.2099236599735847e-22 3.3662695771802046e-14 3.324976206328209e-14 4.129337085199605e-16
3.0578761833420214 4.492510113591965e-22 3.646518262239618e-14 3.600630381248935e-14 4.588788099068359e-16
3.1040917844459814 4.830710107610651e-22 3.980292273346892e-14 3.9293985058757886e-14 5.089376747110311e-16
3.127460860933648 5.149448971158182e-22 4.274861761106067e-14 4.2212853265013146e-14 5.357643460475194e-16
3.1510058709225794 5.55846011741769e-22 4.6491455126956456e-14 4.59277102826739e-14 5.637448442825576e-16
3.162844764501044 5.927878363055165e-22 4.9767588047014505e-14 4.9189356514937885e-14 5.782315320766314e-16
3.1747281389236908 6.349281852011918e-22 5.35057653638622e-14 5.2912747886808e-14 5.930174770541846e-16
3.1986289994194426 7.498851362003039e-22 6.366900292262498e-14 6.304542350090979e-14 6.235794217152004e-16
3.2227097969389145 1.0163496578424242e-21 8.694283104926385e-14 8.628684888240576e-14 6.559821668581004e-16
3.2348180950136065 1.2668518305821791e-21 1.0877901455849264e-13 1.0810573581984167e-13 6.732787386509614e-16
3.240889293275058 1.453911580712381e-21 1.2507532064518949e-13 1.243929183347145e-13 6.824023104750121e-16
3.2469718861334385 1.670546030071954e-21 1.439814052735072e-13 1.43289562638913e-13 6.918426345942019e-16
3.2714166318528037 2.813971706572396e-21 2.4435713064481907e-13 2.4362626075407533e-13 7.308698907437367e-16
3.2744851364798273 2.885609971951861e-21 2.5081302526490696e-13 2.5007755171067376e-13 7.354735542332095e-16
3.2775565192852394 2.9592145516434372e-21 2.574518853176098e-13 2.5671178468350115e-13 7.401006341085704e-16
3.283707930232385 2.889327807490301e-21 2.518435149885976e-13 2.510951306853265e-13 7.483843032710959e-16
3.2898708863219004 2.66608287594027e-21 2.3282088328597736e-13 2.320649521247652e-13 7.559311612121949e-16
3.29141343181113 2.6133637877915476e-21 2.283240919560029e-13 2.275662655247719e-13 7.578264312309344e-16
3.292184975758714 2.587448673017772e-21 2.2611293390703866e-13 2.2535415855569583e-13 7.58775351342847e-16
3.295272960557952 2.4249894457007782e-21 2.1211465774089052e-13 2.113521897126783e-13 7.624680282122709e-16
3.3076538914384823 1.8594261105615135e-21 1.6325572407289776e-13 1.6247842028883622e-13 7.773037840615762e-16
3.310756385682612 1.743556024722084e-21 1.5322603561154104e-13 1.5244499149236514e-13 7.810441191758595e-16
3.313861789986515 1.6363501612808755e-21 1.4393952598819035e-13 1.4315472894778693e-13 7.847970404034676e-16
3.3200813396944477 1.4865236404570372e-21 1.3100563515436072e-13 1.3021276979537145e-13 7.928653589892327e-16
3.345076488085796 1.2237660325022515e-21 1.0866104573920154e-13 1.0783223480785447e-13 8.288109313470716e-16
3.3482140837626964 1.2344343954586763e-21 1.0971112439496451e-13 1.0887744449345159e-13 8.336799015129285e-16
3.3513546224236106 1.2452064287776609e-21 1.1077229975493027e-13 1.0993372848835085e-13 8.3857126657945445e-16
3.3576445397418455 1.320772974876736e-21 1.177151402174989e-13 1.168663437503281e-13 8.487964671707877e-16
3.3702598118196083 1.5956022275664264e-21 1.4274386400718112e-13 1.4187361890512678e-13 8.702451020543843e-16
3.382922481734668 1.6609430869325502e-21 1.491475867188501e-13 1.4825647553797471e-13 8.911111808753668e-16
3.389271646505754 1.6946826380169406e-21 1.524629054157397e-13 1.515612143744398e-13 9.016910412999563e-16
3.395632727569191 1.7315101363333946e-21 1.5606847330718196e-13 1.5515587897373733e-13 9.125943334446346e-16
3.421196662673239 1.909283731989743e-21 1.7338756395674184e-13 1.7242981477038896e-13 9.577491863528945e-16
3.4276182099114902 1.8768824256343444e-21 1.7076503137887127e-13 1.697971850372441e-13 9.678463416271883e-16
3.4340518103208963 1.7296793461046652e-21 1.5766738904508516e-13 1.5668998279470118e-13 9.77406250384002e-16
3.4469541582030403 1.519225541284476e-21 1.3900396675432896e-13 1.3800819162890318e-13 9.957751254258065e-16
3.472904465399547 1.4623849824563718e-21 1.3481058343932132e-13 1.3377252359137214e-13 1.038059847949195e-15
3.4990501388274233 1.3749835450823328e-21 1.27707704752938e-13 1.2662632942636163e-13 1.0813753265763465e-15
3.5253949054701885 1.0591948325182144e-21 9.91181206563295e-14 9.799459267569733e-14 1.1235279806321863e-15
3.5519380250092896 7.597207146622608e-22 7.162898228177619e-14 7.04630290035843e-14 1.1659532781919027e-15
3.578680990867387 6.433907152966371e-22 6.111772905596819e-14 5.990526769592422e-14 1.2124613600439458e-15
3.605625307711299 5.990581455997688e-22 5.733489271720932e-14 5.6073414707842604e-14 1.2614780093667243e-15
3.660119384959845 5.722906902639515e-22 5.56008416211428e-14 5.4236228826069097e-14 1.364612795073706e-15
3.715437065384467 5.55261936161016e-22 5.47617408233631e-14 5.32881796726459e-14 1.4735611507172087e-15
3.8285932144167436 5.590689574916073e-22 5.681644244061119e-14 5.510794456680388e-14 1.7084978738072995e-15
3.94519561050918 5.729590176906151e-22 6.000142066677754e-14 5.803556132599623e-14 1.965859340781305e-15
4.06534921144712 5.908091647962891e-22 6.375503872119534e-14 6.150941318593577e-14 2.245625535259566e-15
4.189162171576248 6.10796197591293e-22 6.791925773054913e-14 6.537067332732087e-14 2.548584403228238e-15
4.316745939156006 6.3215900966263945e-22 7.243563207819746e-14 6.956171530615342e-14 2.8739167720440263e-15
4.448215356677963 6.545556785398245e-22 7.728617838917473e-14 7.406871010732169e-14 3.2174682818530273e-15
4.58368876423945 6.77924476584764e-22 8.248326973666323e-14 7.890335110740744e-14 3.579918629255823e-15
4.723288106065518 7.023961787687869e-22 8.806351382873631e-14 8.409974206064346e-14 3.963771768092854e-15
4.867139040275056 7.281983763014425e-22 9.407904327617412e-14 8.971958931122647e-14 4.359453964947638e-15
4.940699165968905 7.421242373888257e-22 9.732725160924318e-14 9.276427573354807e-14 4.562975875695105e-15
5.015371051989984 7.560142458763421e-22 1.0064738164599572e-13 9.587766853394086e-14 4.769713112054856e-15
5.091171501069577 7.71515709021994e-22 1.0426341204950199e-13 9.92793941481887e-14 4.984017901313237e-15
5.129500256944802 7.792483957222209e-22 1.0610122687901446e-13 1.0100902463271865e-13 5.092202246295811e-15
5.168117569889187 7.871148885402775e-22 1.079791601479177e-13 1.027770938931137e-13 5.202066254803995e-15
5.20702561229733 7.962421865883663e-22 1.1005361955238518e-13 1.0473191813167488e-13 5.321701420710311e-15
5.246226572918644 8.054102747537472e-22 1.1215887425378606e-13 1.0671652249394718e-13 5.442351759838902e-15
5.265937586045735 8.100102144450784e-22 1.1322325496273474e-13 1.0772021020238872e-13 5.503044760345981e-15
5.285722656980489 8.146210951546249e-22 1.1429558561259773e-13 1.0873160961793883e-13 5.563975994658909e-15
5.305582063971359 8.192431905060845e-22 1.1537595521951082e-13 1.0975081507504627e-13 5.6251401444645596e-15
5.3255160863122235 8.241142480758102e-22 1.1649802334083195e-13 1.1081102842584064e-13 5.686994914991325e-15
5.365609099470188 8.357457440281301e-22 1.1903170009853392e-13 1.1321673245938126e-13 5.814967639152657e-15
5.406003951863644 8.475532241440085e-22 1.2162217680426283e-13 1.1567817670188758e-13 5.944000102375237e-15
5.446702915881641 8.595472281482627e-22 1.2427187902330053e-13 1.1819782868193512e-13 6.074050341365356e-15
5.487708281020852 8.721971551249706e-22 1.2705013055308155e-13 1.2084452203287036e-13 6.20560852021119e-15
5.529022354014368 8.891648425850045e-22 1.3049685983273115e-13 1.2415407082924977e-13 6.342789003481372e-15
5.570647458961463 9.067174833562775e-22 1.3407478145947335e-13 1.2759368761814617e-13 6.481093841327176e-15
5.612585937458331 9.249008783043705e-22 1.3779315010287172e-13 1.311726694436166e-13 6.62048065925511e-15
5.654840148729818 9.444652882936384e-22 1.4176720164215075e-13 1.3500563372057702e-13 6.761567921573717e-15
5.67608639626678 9.576413351730226e-22 1.4428504319522836e-13 1.3744967288598523e-13 6.835370309243119e-15
5.686739436050992 9.643734217663173e-22 1.4557204909379996e-13 1.3869966016129668e-13 6.872388932503243e-15
5.6974124697621304 9.712046896816881e-22 1.4687837723590605e-13 1.3996889226756123e-13 6.909484968344872e-15
5.718818669136295 9.851745521889481e-22 1.495508702138956e-13 1.4256696358096442e-13 6.983906632931182e-15
5.740305295436557 1.0004509906200333e-21 1.5244045711399057e-13 1.453812860385907e-13 7.059171075399869e-15
5.7835210386641895 1.0397743661221047e-21 1.5962498124115386e-13 1.524101652754856e-13 7.214815965668246e-15
5.827062130521658 1.0841656192533738e-21 1.6769291446481851e-13 1.603197720738909e-13 7.373142390927601e-15
5.8489554468988025 1.1153728827812885e-21 1.7316807448065493e-13 1.6570948587506201e-13 7.458588605592898e-15
5.870931020387893 1.148449466041725e-21 1.7897332268210156e-13 1.7142882469796923e-13 7.544497984132291e-15
5.892989160043636 1.183542799975375e-21 1.8513521852311297e-13 1.7750435254675768e-13 7.630865976355289e-15
5.915130176081913 1.2232272894426033e-21 1.920617585959954e-13 1.8434137656142595e-13 7.720382034569494e-15
5.95966208400165 1.3342265968828003e-21 2.1106715803786454e-13 2.031430334894449e-13 7.924124548419594e-15
6.004529249263818 1.4928785571318113e-21 2.3794296985358913e-13 2.297896844567665e-13 8.153285396822573e-15
6.027089341400364 1.6029322812811267e-21 2.5644381994963666e-13 2.481582406847619e-13 8.285579264874783e-15
6.049734195844842 1.731961767125472e-21 2.781275611243875e-13 2.6970186544447583e-13 8.425695679911672e-15
6.095279466722835 2.103849282990277e-21 3.403906953452919e-13 3.3162098029573005e-13 8.76971504956192e-15
6.141167624020661 2.6718869774893253e-21 4.355504512079818e-13 4.2633471797149396e-13 9.215733236487881e-15
6.164241091010745 3.0342771203310823e-21 4.964828960745851e-13 4.869874573174088e-13 9.495438757176299e-15
6.187401249150058 3.4431600384559686e-21 5.655030126777387e-13 5.557202498694425e-13 9.782762808296436e-15
6.1990139391386085 3.64227318559906e-21 5.993279924889969e-13 5.893990082656414e-13 9.92898422335544e-15
6.204828454712694 3.746821869687334e-21 6.171095375401734e-13 6.071066868609032e-13 1.0002850679270153e-14
6.210648424152782 3.8228342842896336e-21 6.302195197767097e-13 6.201536811383065e-13 1.006583863840312e-14
6.233982942956859 4.079026648454989e-21 6.749810578467108e-13 6.646953820262933e-13 1.0285675820417601e-14
6.239830258556775 4.110640221335805e-21 6.808503674534945e-13 6.705340118243063e-13 1.0316355629188177e-14
6.245683058788269 4.1116617596272485e-21 6.816583449204545e-13 6.713112563204831e-13 1.0347088599971527e-14
6.257405133728602 4.10066359594921e-21 6.811109305540504e-13 6.707099460128607e-13 1.0400984541189742e-14
6.269149208991335 4.045361911153608e-21 6.73186534748175e-13 6.6276524898833e-13 1.042128575984481e-14
6.280915325867298 3.912576157396441e-21 6.523117113884183e-13 6.419116794887502e-13 1.0400031899667974e-14
6.304513850009849 3.587568763272033e-21 6.003731621189656e-13 5.900532548821509e-13 1.0319907236814636e-14
6.32820103803542 3.1888094384502603e-21 5.356464950502535e-13 5.254467371569544e-13 1.0199757893299194e-14
6.3519772230701035 2.8243188462542122e-21 4.762029584835859e-13 4.661106306503809e-13 1.0092327833205096e-14
6.375842739491607 2.516935197618441e-21 4.2597004892028326e-13 4.1597212349118047e-13 9.997925429102879e-15
6.399797922933955 2.2724439527580005e-21 3.86036949222571e-13 3.7608589253005957e-13 9.951056692511377e-15
6.42384311029221 2.0684711243214263e-21 3.527067906670842e-13 3.427931416119577e-13 9.913649055126466e-15
6.447978639727206 1.920414311006849e-21 3.286911091123323e-13 3.187777562312269e-13 9.913352881105378e-15
6.472204850670314 1.796684701144458e-21 3.0866938556173093e-13 2.9874894947632537e-13 9.920436085405547e-15
6.496522083828205 1.7163565366887428e-21 2.959769295404155e-13 2.860193002507483e-13 9.957629289667192e-15
