Dust emission spectrum from A.P. Jones, M. Kohler, N. Ysard, M. Bocchio, and L. Verstraete (2017), A&A, 602A, 46J 
inside the DustPedia framework.

lambda    nu*dP/dnu     j_nu    j_nu(carb.) j_nu(sil)
 (um)   (erg s-1 H-1) (Jy cm2 sr-1 H-1)
0.9927057738263894 1.2363785261958923e-20 3.2579276414245137e-13 3.257927549582649e-13 9.184186390866208e-21
1.0001793341362166 1.2571475846021957e-20 3.33759453154802e-13 3.337594421034307e-13 1.1051371345103452e-20
1.0077091589558085 1.2780021517878742e-20 3.4185050353070643e-13 3.418504902503029e-13 1.328040363412474e-20
1.0114953028030835 1.2884605999507469e-20 3.4594291941130854e-13 3.459429048603734e-13 1.455093515310133e-20
1.0152956718711033 1.2989393605199033e-20 3.500667357081964e-13 3.500667197705144e-13 1.5937681986431398e-20
1.0229392996569957 1.3199462529308086e-20 3.584062251722499e-13 3.584062060709404e-13 1.9101309562012045e-20
1.0267826658714554 1.3304505484019527e-20 3.6261577900258947e-13 3.6261575810097424e-13 2.0901615207656578e-20
1.0306404723013447 1.3409733305741683e-20 3.6685696302660696e-13 3.668569401626562e-13 2.286395074649085e-20
1.03451277320114 1.3515142992177132e-20 3.711298920591354e-13 3.711298670569791e-13 2.5002156240808298e-20
1.0383996230291617 1.3620731641952663e-20 3.754346835649657e-13 3.7543465623377997e-13 2.733118568797209e-20
1.0403485208654093 1.367359219962129e-20 3.775990652060003e-13 3.775990366337427e-13 2.857225759837619e-20
1.0423010764483396 1.3726496457100532e-20 3.797714577739188e-13 3.7977142790672804e-13 2.986719075382976e-20
1.0462171883269815 1.3832434745520477e-20 3.8414033779746323e-13 3.8414030516985287e-13 3.26276103157297e-20
1.0471985131304309 1.3858946117621675e-20 3.852375890479256e-13 3.852375556929718e-13 3.335495383267069e-20
1.048180758391296 1.3885468130475548e-20 3.8633685677903315e-13 3.863368226812325e-13 3.409780057667982e-20
1.0501480137395462 1.3938543923421068e-20 3.885414497468472e-13 3.8854141411558106e-13 3.563126618101578e-20
1.0521189612883777 1.3991661818703298e-20 3.907541329531528e-13 3.907540957225601e-13 3.72305927165963e-20
1.0531058218030118 1.4018201415815338e-20 3.9186253387863934e-13 3.918624958227949e-13 3.8055844504508646e-20
1.0540936079674168 1.4044636615409814e-20 3.929697492747929e-13 3.929697103760282e-13 3.8898764691314307e-20
1.058054026499678 1.415047621378291e-20 3.974187316466168e-13 3.974186891941172e-13 4.245249964318129e-20
1.0590464539527713 1.4176960640598773e-20 3.985360178821319e-13 3.985359744938391e-13 4.338829277409801e-20
1.06003981227728 1.420345481081108e-20 3.9965532460049455e-13 3.9965528025670183e-13 4.4343792596535836e-20
1.0620293250338977 1.4256472250171042e-20 4.0190000804780157e-13 4.0189996173230547e-13 4.631549620933342e-20
1.0660195594769086 1.436262263227112e-20 4.0641371570807834e-13 4.064136651948483e-13 5.0513230148250367e-20
1.070024785945596 1.446892538911939e-20 4.109599954962571e-13 4.109599404231082e-13 5.507314880181099e-20
1.0740450607676866 1.457537867336553e-20 4.1553899204703897e-13 4.155389320222259e-13 6.00248130765204e-20
1.07808044048254 1.4681980763516056e-20 4.201508538891118e-13 4.2015078848906303e-13 6.540004881632356e-20
1.0861967418109137 1.4895462530546344e-20 4.2946910005127093e-13 4.294690224904212e-13 7.756084982380391e-20
1.0902777775684922 1.5001969765135727e-20 4.3416506902202563e-13 4.341649845991068e-13 8.44229187099955e-20
1.0943741465085532 1.510861386500041e-20 4.3889423846735333e-13 4.3889414660544876e-13 9.18619046128705e-20
1.1026131145906286 1.532230868403697e-20 4.4845285598551774e-13 4.484527473283219e-13 1.0865719588120926e-19
1.1109141095355224 1.5536540442888866e-20 4.581463549554786e-13 4.581462266001573e-13 1.2835532127006978e-19
1.1192775983109025 1.5751137833298946e-20 4.679712540973387e-13 4.679711026701328e-13 1.5142720610617918e-19
1.1277040513999907 1.5965331100530574e-20 4.779060224426991e-13 4.779058440278489e-13 1.7841485003494667e-19
1.1361939428280308 1.6180030898147414e-20 4.879791310743829e-13 4.879789211331839e-13 2.09941199012428e-19
1.1447477501889525 1.6395240446938907e-20 4.98192312770838e-13 4.981920660495828e-13 2.4672125509556486e-19
1.1533659546722406 1.6611041012236615e-20 5.085497102457665e-13 5.085494206707859e-13 2.8957498036215446e-19
1.1707974979042381 1.704506882176327e-20 5.297244000555076e-13 5.297240026599529e-13 3.973955545759241e-19
1.1884924949847024 1.748155725119177e-20 5.515006053739069e-13 5.515000627489896e-13 5.426249173968305e-19
1.2064549276569216 1.792344579461288e-20 5.739869802565478e-13 5.739862429929263e-13 7.372636213721949e-19
1.2246888378427687 1.8367920887520022e-20 5.971111663040499e-13 5.971101695027044e-13 9.968013452457119e-19
1.2431983285522175 1.8814636849188583e-20 6.208771698856607e-13 6.208758287252206e-13 1.3411604402681175e-18
1.2619875648066055 1.926426416443222e-20 6.453226871304054e-13 6.453208912962532e-13 1.795834152102266e-18
1.3004222497298317 2.0169582557010604e-20 6.962267964019551e-13 6.962236219515838e-13 3.1744503715288523e-18
1.3400274889804893 2.1086679404729906e-20 7.500519348710231e-13 7.500464265066009e-13 5.5083644222515535e-18
1.3808389325824078 2.2018950670032606e-20 8.070660430907394e-13 8.070566559517337e-13 9.387139005748473e-18
1.4228933163050095 2.2974114581488116e-20 8.677218932992006e-13 8.677061746237049e-13 1.5718675495860978e-17
1.466228494730424 2.396843778191634e-20 9.32847854134393e-13 9.32821978656518e-13 2.5875477875193865e-17
1.5108834753276823 2.4999786138038372e-20 1.0026207717558993e-12 1.0025788786866789e-12 4.189306922040531e-17
1.5568984535646726 2.606696933721427e-20 1.0772593231827874e-12 1.077192544668759e-12 6.677851402826916e-17
1.6043148490894465 2.7175610849033886e-20 1.1572797425712207e-12 1.157174743320886e-12 1.049992503342795e-16
1.6531753430134553 2.833147639092208e-20 1.2432473981256375e-12 1.243084741010648e-12 1.6265711498944205e-16
1.7035239163302658 2.954114704270693e-20 1.3358110219656391e-12 1.3355627095909382e-12 2.483123747013499e-16
1.755405889504358 3.0825275795322556e-20 1.4363290859044804e-12 1.4359553382645223e-12 3.7374763995786067e-16
1.8088679632656115 3.2182039860984064e-20 1.5452183914310426e-12 1.5446635537407927e-12 5.548376902500229e-16
1.8639582606462262 3.360857748357717e-20 1.662860231592153e-12 1.6620475279328769e-12 8.127036592758113e-16
1.9207263702978936 3.5106265475144886e-20 1.789862069796829e-12 1.7886870663944003e-12 1.1750034024283043e-15
1.979223391128241 3.6678054035440333e-20 1.9269503911416907e-12 1.9252729295177346e-12 1.677461623956556e-15
2.039501978296691 3.832547523929653e-20 2.0748232827735543e-12 2.0724577698487386e-12 2.3655129248155863e-15
2.1016163906111602 4.006104392585815e-20 2.2348333418123187e-12 2.2315369836648226e-12 3.29635814749623e-15
2.1656225393682647 4.1887804545321546e-20 2.407907471380215e-12 2.4033667300542684e-12 4.540741325946366e-15
2.231578038680979 4.379542987055688e-20 2.5942409198681406e-12 2.588055985428328e-12 6.184934439812113e-15
2.299542257339062 4.577932087712147e-20 2.794345958037903e-12 2.7860131845078534e-12 8.332773530049843e-15
2.369576372248914 4.783867049608751e-20 3.008979613179796e-12 2.9978718229422948e-12 1.1107790237500784e-14
2.4417434235010123 4.997363869254852e-20 3.238996153632552e-12 3.2243414518843126e-12 1.4654701748237988e-14
2.5161083711144245 5.2192806872837075e-20 3.4858558919238664e-12 3.4667144615859465e-12 1.9141430337919268e-14
2.5927381535095444 5.45158560807516e-20 3.751897178992027e-12 3.727137072915463e-12 2.47601060765636e-14
2.6717017477616296 5.695824536533059e-20 4.039373478965656e-12 4.007647177397308e-12 3.172630156834758e-14
2.753070231689431 5.954685587244979e-20 4.351565839943438e-12 4.311286969434738e-12 4.0278870508699865e-14
2.836916847834745 6.236961960683712e-20 4.69666013944576e-12 4.6459794829723284e-12 5.0680656473432386e-14
2.9233170693905177 6.562954536296505e-20 5.0926608069558465e-12 5.029457345680804e-12 6.320346127504307e-14
2.967498994190263 6.762473529346558e-20 5.326790194336348e-12 5.2565807465959985e-12 7.020944774034871e-14
3.0123486681368425 6.975545920255845e-20 5.577670739931679e-12 5.499779711258237e-12 7.789102867344101e-14
3.0578761833420214 7.327338126757138e-20 5.947515223613215e-12 5.86118771593963e-12 8.632750767358485e-14
3.1040917844459814 7.739029603769247e-20 6.376619389053253e-12 6.281132289512717e-12 9.548709954053445e-14
3.127460860933648 8.122035112351585e-20 6.742581103069649e-12 6.6421980870603295e-12 1.0038301600931968e-13
3.1510058709225794 8.608636478730479e-20 7.200340167972882e-12 7.094859931704275e-12 1.05480236268606e-13
3.162844764501044 9.04932465511893e-20 7.5973735282169e-12 7.489257800855605e-12 1.0811572736129834e-13
3.1747281389236908 9.54769473340119e-20 8.045897568860801e-12 7.935094400092377e-12 1.1080316876842565e-13
3.1986289994194426 1.0896604106789428e-19 9.251762506418678e-12 9.135412113913669e-12 1.1635039250500867e-13
3.2227097969389145 1.4020589870771359e-19 1.1993803185148392e-11 1.1871580933405148e-11 1.222222517432485e-13
3.2348180950136065 1.6951119717590057e-19 1.455518359787275e-11 1.4429829331937284e-11 1.2535426593546703e-13
3.240889293275058 1.9140399221604362e-19 1.6465867675021225e-11 1.633886134461751e-11 1.27006330403713e-13
3.2469718861334385 2.1677777746102335e-19 1.8683692917794903e-11 1.855497719369092e-11 1.2871572410398077e-13
3.2714166318528037 3.498314648600836e-19 3.0378348425758985e-11 3.024257366597742e-11 1.3577475978156067e-13
3.2744851364798273 3.581420926398221e-19 3.112919022418629e-11 3.099258499041509e-11 1.3660523377120189e-13
3.2775565192852394 3.666742129601138e-19 3.190068370389205e-11 3.1763243974881543e-11 1.3743972901050774e-13
3.283707930232385 3.5846103556064193e-19 3.124466768637771e-11 3.1105738477745955e-11 1.3892920863174532e-13
3.2898708863219004 3.323808712898561e-19 2.9025807389342672e-11 2.888552530662139e-11 1.40282082721288e-13
3.29141343181113 3.2621682136405927e-19 2.8500876864780185e-11 2.8360255135335267e-11 1.406217294449165e-13
3.292184975758714 3.2318597421032884e-19 2.8242696981143194e-11 2.8101905213910493e-11 1.407917672327008e-13
3.295272960557952 3.0429865949278895e-19 2.6617108014122524e-11 2.6475655329994898e-11 1.4145268412762509e-13
3.3076538914384823 2.383556951474998e-19 2.0927387959746865e-11 2.0783282029331426e-11 1.4410593041543628e-13
3.310756385682612 2.247899152995325e-19 1.975483843273212e-11 1.9610063999853846e-11 1.4477443287827503e-13
3.313861789986515 2.1221678919119325e-19 1.86673884145955e-11 1.8521943400646828e-11 1.4544501394867242e-13
3.3200813396944477 1.9465851233280772e-19 1.7155032958992797e-11 1.7008144362717444e-11 1.468885962753508e-13
3.345076488085796 1.640085078753347e-19 1.456269867159199e-11 1.4409373597074119e-11 1.5332507451786442e-13
3.3482140837626964 1.6525359997292682e-19 1.468701644254565e-11 1.4532819305557275e-11 1.5419713698837228e-13
3.3513546224236106 1.6650987794446759e-19 1.4812549699030525e-11 1.4657476713143562e-11 1.5507298588696324e-13
3.3576445397418455 1.7532688428784369e-19 1.562617433913415e-11 1.5469269688504575e-11 1.5690465062957462e-13
3.3702598118196083 2.072519166717567e-19 1.854092385778477e-11 1.8380177451975695e-11 1.607464058090788e-13
3.382922481734668 2.1487710304235407e-19 1.9295303741618362e-11 1.913082748938896e-11 1.6447625222940352e-13
3.389271646505754 2.1880685279514594e-19 1.9685059464029595e-11 1.9518693519406203e-11 1.6636594462339116e-13
3.395632727569191 2.2313329782658425e-19 2.0111966083856953e-11 1.9943652695848296e-11 1.6831338800866408e-13
3.421196662673239 2.4412831510171494e-19 2.2169996600891598e-11 2.1993626326152804e-11 1.7637027473878825e-13
3.4276182099114902 2.4033990937040167e-19 2.1866927626732162e-11 2.168876399970008e-11 1.7816362703208105e-13
3.4340518103208963 2.2314452227501235e-19 2.0340541318278026e-11 2.0160683766702974e-11 1.7985755157504996e-13
3.4469541582030403 1.984639463588191e-19 1.8158775673472223e-11 1.7975671460198106e-11 1.831042132741195e-13
3.472904465399547 1.9161062618648654e-19 1.7663707313231104e-11 1.7473117221483976e-11 1.905900917471302e-13
3.4990501388274233 1.8126013412915786e-19 1.6835340157804094e-11 1.6637100013833707e-11 1.9824014397038848e-13
3.5253949054701885 1.445956313941822e-19 1.3531077379628588e-11 1.3325421879648747e-11 2.0565549997983793e-13
3.5519380250092896 1.0969187123439693e-19 1.0342112501955975e-11 1.0129017310541625e-11 2.1309519141434994e-13
3.578680990867387 9.611611065383437e-20 9.130374854952792e-12 8.909127312893226e-12 2.2124754205956755e-13
3.605625307711299 9.093422088269964e-20 8.703168193152119e-12 8.473342856431284e-12 2.298253367208366e-13
3.660119384959845 8.775286581322653e-20 8.525620417889822e-12 8.277811280188785e-12 2.478091377010377e-13
3.715437065384467 8.564784031038675e-20 8.446868995893335e-12 8.180156142114902e-12 2.667128537784348e-13
3.8285932144167436 8.577221872246423e-20 8.716764296686174e-12 8.409614971362428e-12 3.0714932532374854e-13
3.94519561050918 8.694774997633886e-20 9.105343246691266e-12 8.75438873929264e-12 3.5095450739862375e-13
4.06534921144712 8.846177794662764e-20 9.546033498443887e-12 9.148026494664533e-12 3.980070037793527e-13
4.189162171576248 9.010285482247262e-20 1.0019248716804726e-11 9.570925817670656e-12 4.4832289913406813e-13
4.316745939156006 9.178023836333918e-20 1.0516593889382329e-11 1.0014962830243898e-11 5.016310591384324e-13
4.448215356677963 9.3451161395213e-20 1.1034176873047414e-11 1.0477081660116252e-11 5.570952129311622e-13
4.58368876423945 9.510697532425648e-20 1.1571693559478611e-11 1.0956988433637006e-11 6.147051258416082e-13
4.723288106065518 9.67610903026522e-20 1.2131503375897747e-11 1.1456755574708198e-11 6.747478011895507e-13
4.867139040275056 9.843071908271817e-20 1.2716682955709632e-11 1.1981209413790497e-11 7.354735419191336e-13
4.940699165968905 9.932861542728684e-20 1.3026634434827399e-11 1.2260371911712916e-11 7.662625231144825e-13
5.015371051989984 1.001869392616714e-19 1.333778188283367e-11 1.2540556567944573e-11 7.972253148890957e-13
5.091171501069577 1.0118797077160869e-19 1.3674644556994291e-11 1.2845587013656658e-11 8.290575433376323e-13
5.129500256944802 1.0167184599896175e-19 1.3843477456948771e-11 1.2998480143009697e-11 8.449973139390703e-13
5.168117569889187 1.0216109529463936e-19 1.4014814648169448e-11 1.3153693783094462e-11 8.61120865074985e-13
5.20702561229733 1.0278159449301511e-19 1.4206087906228355e-11 1.3327279107417429e-11 8.78808798810925e-13
5.246226572918644 1.0339528138968881e-19 1.4398498165877763e-11 1.350194250975616e-11 8.965556561216051e-13
5.265937586045735 1.0369963070294147e-19 1.4495137860285186e-11 1.3589689464219366e-11 9.054483960658186e-13
5.285722656980489 1.040023522009018e-19 1.4592072094122997e-11 1.3677719584333628e-11 9.143525097893668e-13
5.305582063971359 1.0430347380411087e-19 1.4689304790471912e-11 1.3766037927357047e-11 9.232668631148634e-13
5.3255160863122235 1.0462881659651717e-19 1.4790486084234543e-11 1.3858217839658284e-11 9.322682445762597e-13
5.365609099470188 1.0547451397724159e-19 1.5022284953873563e-11 1.4071386961145923e-11 9.508979927276397e-13
5.406003951863644 1.0632476062281318e-19 1.5257388523533614e-11 1.4287805656447844e-11 9.695828670857708e-13
5.446702915881641 1.0718050432243196e-19 1.54959753584548e-11 1.4507661592951555e-11 9.883137655032436e-13
5.487708281020852 1.0809160065389577e-19 1.5745352864400605e-11 1.4738183524049802e-11 1.0071693403507963e-12
5.529022354014368 1.0944455767580085e-19 1.6062455934439245e-11 1.5035632611883768e-11 1.0268233225554779e-12
5.570647458961463 1.1083784501557538e-19 1.6389404771257803e-11 1.534287447079405e-11 1.0465303004637569e-12
5.612585937458331 1.122755286682039e-19 1.672698030411633e-11 1.5660699296622955e-11 1.0662810074933756e-12
5.654840148729818 1.1383520297627704e-19 1.7087020957085316e-11 1.600084750994833e-11 1.086173447136984e-12
5.67608639626678 1.1495933767885117e-19 1.7320590072159976e-11 1.622399352473424e-11 1.0965965474257336e-12
5.686739436050992 1.1553321208602602e-19 1.7439724117393546e-11 1.633791035579305e-11 1.1018137616004975e-12
5.6974124697621304 1.1611523857068555e-19 1.7560477204050664e-11 1.645344264840583e-11 1.1070345556448362e-12
5.718818669136295 1.1730462221166027e-19 1.78070051574997e-11 1.6689518865211258e-11 1.117486292288443e-12
5.740305295436557 1.1862041351519732e-19 1.807439867504207e-11 1.694636315113427e-11 1.128035523907798e-12
5.7835210386641895 1.2212403980176172e-19 1.8748344061562368e-11 1.7598515281980793e-11 1.1498287795815727e-12
5.827062130521658 1.2609483433807412e-19 1.950367166565573e-11 1.8331775937654936e-11 1.1718957280007904e-12
5.8489554468988025 1.2897983327175075e-19 2.0024863181907442e-11 1.8841001513401262e-11 1.183861668506171e-12
5.870931020387893 1.3203325919495479e-19 2.0575943305640983e-11 1.9380083971306893e-11 1.195859334334094e-12
5.892989160043636 1.352685244673566e-19 2.1159325912915165e-11 1.995143837355449e-11 1.207887539360677e-12
5.915130176081913 1.3894599467584726e-19 2.1816233432360177e-11 2.059586155684824e-11 1.220371875511937e-12
5.95966208400165 1.4940911000355045e-19 2.3635682504825795e-11 2.2386574609514125e-11 1.2491078953116797e-12
6.004529249263818 1.6449228117303968e-19 2.6217659643730086e-11 2.493605258545406e-11 1.2816070582760236e-12
6.027089341400364 1.7502434471852382e-19 2.8001127725699844e-11 2.6700598581401954e-11 1.3005291442978876e-12
6.049734195844842 1.87367979427659e-19 3.008853898519339e-11 2.87679351909367e-11 1.3206037942566873e-12
6.095279466722835 2.2307071694657883e-19 3.609155706472235e-11 3.472112017956899e-11 1.3704368851533625e-12
6.141167624020661 2.775949661676096e-19 4.525139490779596e-11 4.381567552742521e-11 1.4357193803707483e-12
6.164241091010745 3.1233858390237333e-19 5.1106328967989796e-11 4.9629345366564e-11 1.476983601425808e-12
6.187401249150058 3.513959077505985e-19 5.7713101411546085e-11 5.6193802555677246e-11 1.5192988558688377e-12
6.1990139391386085 3.703464509951889e-19 6.093968894973614e-11 5.939886938343343e-11 1.5408195663027109e-12
6.204828454712694 3.802853789022333e-19 6.263381139259503e-11 6.108212799292604e-11 1.5516833996690087e-12
6.210648424152782 3.874502572038894e-19 6.387373787973955e-11 6.231286312603016e-11 1.5608747537093773e-12
6.233982942956859 4.113862248760222e-19 6.80745514020013e-11 6.648190491945267e-11 1.5926464825486379e-12
6.239830258556775 4.142101388585083e-19 6.860613190641481e-11 6.700928313698909e-11 1.596848769425733e-12
6.245683058788269 4.140778050810483e-19 6.86485435284032e-11 6.704748789622093e-11 1.6010556321822814e-12
6.257405133728602 4.1255243334201286e-19 6.852402427097232e-11 6.691572586179538e-11 1.6082984091769423e-12
6.269149208991335 4.067523361213983e-19 6.76874409924437e-11 6.607706520436645e-11 1.6103757880772202e-12
6.280915325867298 3.9349584154196694e-19 6.560433215727383e-11 6.399825848813877e-11 1.6060736691350735e-12
6.304513850009849 3.6134495889957887e-19 6.047042716260762e-11 5.887871789614873e-11 1.5917092664589006e-12
6.32820103803542 3.2226980197503024e-19 5.413389956985254e-11 5.256268210561765e-11 1.571217464234875e-12
6.3519772230701035 2.8664554601843665e-19 4.833075317652579e-11 4.677806551554744e-11 1.5526876609783584e-12
6.375842739491607 2.5660389212780646e-19 4.3428043990263736e-11 4.1891867287012035e-11 1.5361767032517006e-12
6.399797922933955 2.3272372830356533e-19 3.9534509960949595e-11 3.8007597347635495e-11 1.526912613314095e-12
6.42384311029221 2.127798778591721e-19 3.628230868480842e-11 3.4763209991805454e-11 1.519098693002966e-12
6.447978639727206 1.9824539878132754e-19 3.393095939161576e-11 3.241404006105629e-11 1.5169193305594718e-12
6.472204850670314 1.8606744984474138e-19 3.196627954812018e-11 3.0450426220375135e-11 1.5158533277450475e-12
