Dust emission spectrum from A.P. Jones, M. Kohler, N. Ysard, M. Bocchio, and L. Verstraete (2017), A&A, 602A, 46J 
inside the DustPedia framework.

lambda    nu*dP/dnu     j_nu    j_nu(carb.) j_nu(sil)
 (um)   (erg s-1 H-1) (Jy cm2 sr-1 H-1)
0.9927057738263894 2.7905118282168585e-22 7.353157165259056e-15 7.353157165259009e-15 4.875564671141533e-29
1.0001793341362166 2.8366223500124884e-22 7.530933805567796e-15 7.530933805567737e-15 5.874944604113578e-29
1.0077091589558085 2.882667356723589e-22 7.710795212894567e-15 7.710795212894496e-15 7.070211930232086e-29
1.0114953028030835 2.905659621487995e-22 7.801498721121466e-15 7.801498721121387e-15 7.752462604599717e-29
1.0152956718711033 2.928628720874284e-22 7.892712528222921e-15 7.892712528222838e-15 8.497839680390612e-29
1.0229392996569957 2.9744659180743632e-22 8.076594779775679e-15 8.076594779775575e-15 1.0200835034605084e-28
1.0267826658714554 2.997278435346769e-22 8.169115763275789e-15 8.16911576327568e-15 1.1171362030984948e-28
1.0306404723013447 3.0200577014907876e-22 8.262127003373289e-15 8.262127003373166e-15 1.2230312893110547e-28
1.03451277320114 3.042801518321172e-22 8.355624499907693e-15 8.35562449990756e-15 1.3385356230927475e-28
1.0383996230291617 3.0655076998312275e-22 8.449604202664624e-15 8.449604202664477e-15 1.4644789449278965e-28
1.0403485208654093 3.0768459976474613e-22 8.496773602233676e-15 8.496773602233523e-15 1.5316428968246355e-28
1.0423010764483396 3.0881740726120113e-22 8.544062012333886e-15 8.544062012333727e-15 1.6017587100503945e-28
1.0462171883269815 3.1107984762623167e-22 8.638993781468775e-15 8.638993781468597e-15 1.7513452688012991e-28
1.0471985131304309 3.116447767597284e-22 8.662800289384466e-15 8.662800289384288e-15 1.7907859437359597e-28
1.048180758391296 3.12209426819376e-22 8.686636091832676e-15 8.686636091832494e-15 1.8310781199316361e-28
1.0501480137395462 3.133378763789341e-22 8.734395315446155e-15 8.734395315445961e-15 1.9142874146219907e-28
1.0521189612883777 3.144651696834246e-22 8.782270920767628e-15 8.782270920767427e-15 2.0011174831581853e-28
1.0531058218030118 3.1502750911669364e-22 8.806228010440075e-15 8.806228010439872e-15 2.0459398167042842e-28
1.0540936079674168 3.155867144520862e-22 8.8301346235346e-15 8.83013462353439e-15 2.0917337511265707e-28
1.058054026499678 3.17820362543388e-22 8.926043439473388e-15 8.926043439473158e-15 2.284933645375695e-28
1.0590464539527713 3.1837796491776756e-22 8.950090892993063e-15 8.95009089299283e-15 2.33584295070601e-28
1.06003981227728 3.189352369192225e-22 8.974166309204372e-15 8.974166309204134e-15 2.387838709396548e-28
1.0620293250338977 3.200487768243367e-22 9.022400754144963e-15 9.022400754144714e-15 2.4951783416777183e-28
1.0660195594769086 3.222717497311441e-22 9.11920215613626e-15 9.119202156135989e-15 2.7238955629844427e-28
1.070024785945596 3.244890752673018e-22 9.216443192852143e-15 9.216443192851846e-15 2.9726257838128484e-28
1.0740450607676866 3.2670054903746036e-22 9.314119371479326e-15 9.314119371478999e-15 3.2430305533583673e-28
1.07808044048254 3.289059682803807e-22 9.412226159948539e-15 9.412226159948184e-15 3.5369013864617843e-28
1.0861967418109137 3.332939438618216e-22 9.609600898886971e-15 9.60960089888655e-15 4.202915324604312e-28
1.0902777775684922 3.3546724208453014e-22 9.708602309860797e-15 9.708602309860338e-15 4.5793815002901005e-28
1.0943741465085532 3.3763353673266843e-22 9.80800855124109e-15 9.808008551240591e-15 4.987979512841139e-28
1.1026131145906286 3.4194434513094565e-22 1.0008016502227788e-14 1.0008016502227199e-14 5.912157193651163e-28
1.1109141095355224 3.4622484730469076e-22 1.0209586385768588e-14 1.020958638576789e-14 6.9986789223208235e-28
1.1192775983109025 3.5046957841598813e-22 1.041256129367164e-14 1.0412561293670815e-14 8.274402512749844e-28
1.1277040513999907 3.54658826173214e-22 1.0616352888228204e-14 1.0616352888227228e-14 9.770338193494576e-28
1.1361939428280308 3.588128205129654e-22 1.082155958010644e-14 1.0821559580105284e-14 1.1522237086857752e-27
1.1447477501889525 3.6293017580525795e-22 1.1028141017139303e-14 1.1028141017137946e-14 1.3571267035279428e-27
1.1533659546722406 3.6701178184629267e-22 1.1236125127692022e-14 1.1236125127690427e-14 1.5964792451050634e-27
1.1707974979042381 3.7508092156462465e-22 1.1656715395270178e-14 1.1656715395267977e-14 2.2011099183154147e-27
1.1884924949847024 3.82989678497756e-22 1.2082392690106082e-14 1.2082392690103064e-14 3.01984590005844e-27
1.2064549276569216 3.9079987206354146e-22 1.2515117964527658e-14 1.2515117964523535e-14 4.123078716135433e-27
1.2246888378427687 3.9842622028564746e-22 1.2952186942536333e-14 1.2952186942530734e-14 5.602294742544715e-27
1.2431983285522175 4.058508768495119e-22 1.3392952828893219e-14 1.3392952828885643e-14 7.575996528861002e-27
1.2619875648066055 4.130710563354798e-22 1.3837233635031153e-14 1.3837233635020955e-14 1.0196895668623655e-26
1.3004222497298317 4.267779635685504e-22 1.4731799902670936e-14 1.4731799902652723e-14 1.821688759861109e-26
1.3400274889804893 4.394932317229005e-22 1.5632748167193123e-14 1.5632748167161168e-14 3.195822118324859e-26
1.3808389325824078 4.511696332263975e-22 1.6536832118266854e-14 1.653683211821178e-14 5.507978674513331e-26
1.4228933163050095 4.618638611062617e-22 1.7444388665517187e-14 1.7444388665423878e-14 9.330726202727339e-26
1.466228494730424 4.718330376217454e-22 1.8363668114708753e-14 1.836366811455331e-14 1.554420083493568e-25
1.5108834753276823 4.80883375744091e-22 1.928591143343894e-14 1.9285911433184172e-14 2.5476673520358044e-25
1.5568984535646726 4.888580432072291e-22 2.0202842837047708e-14 2.020284283663647e-14 4.112326796464811e-25
1.6043148490894465 4.9577148626716675e-22 2.111254467061282e-14 2.1112544669957893e-14 6.5492507470162275e-25
1.6531753430134553 5.016445977924836e-22 2.2013266530265325e-14 2.201326652923738e-14 1.0279427493226931e-24
1.7035239163302658 5.065469872828572e-22 2.2905374925953656e-14 2.2905374924363168e-14 1.5904812444149292e-24
1.755405889504358 5.108813749243642e-22 2.3804937971133495e-14 2.3804937968706365e-14 2.4271243482398055e-24
1.8088679632656115 5.145482120890094e-22 2.4705996389055045e-14 2.4705996385400622e-14 3.654420100843785e-24
1.8639582606462262 5.174800376994892e-22 2.5603492910515783e-14 2.5603492905084712e-14 5.431076685793251e-24
1.9207263702978936 5.197256206009113e-22 2.649775367516072e-14 2.6497753667190595e-14 7.97012909986631e-24
1.979223391128241 5.213985969964446e-22 2.739265364111801e-14 2.739265362956402e-14 1.1553992569836769e-23
2.039501978296691 5.2263498796319965e-22 2.8293849838717012e-14 2.8293849822165006e-14 1.655200644393856e-23
2.1016163906111602 5.238159370421381e-22 2.922143824411975e-14 2.922143822067686e-14 2.3442893537984298e-23
2.1656225393682647 5.251624283620182e-22 3.0188799548395456e-14 3.018879951555752e-14 3.283794512165725e-23
2.231578038680979 5.266902293847279e-22 3.1198719802569773e-14 3.119871975706107e-14 4.550870116369765e-23
2.299542257339062 5.285316364268839e-22 3.226129644668262e-14 3.226129638426373e-14 6.24188871970636e-23
2.369576372248914 5.309792565420467e-22 3.3397787634734785e-14 3.339778754997294e-14 8.476183958164656e-23
2.4417434235010123 5.343786131355782e-22 3.463526606854264e-14 3.463526595454387e-14 1.1399877259103737e-22
2.5161083711144245 5.393214846031027e-22 3.602023128063011e-14 3.602023112872207e-14 1.5190803650275329e-22
2.5927381535095444 5.467763112492344e-22 3.76303088165205e-14 3.763030861588511e-14 2.006353870278444e-22
2.6717017477616296 5.5789930005850105e-22 3.956518713200238e-14 3.956518686926369e-14 2.627386918421955e-22
2.753070231689431 5.744312578265403e-22 4.197829427481535e-14 4.1978293933565416e-14 3.4124994219817863e-22
2.836916847834745 6.003162565357875e-22 4.5206006560666105e-14 4.520600612090745e-14 4.397586401911261e-22
2.9233170693905177 6.442409530835852e-22 4.999121407682457e-14 4.9991213514416246e-14 5.624083368982033e-22
2.967498994190263 6.815444999221318e-22 5.368515741221516e-14 5.368515677884001e-14 6.333751377881056e-22
3.0123486681368425 7.251107006676788e-22 5.798010341500455e-14 5.798010270252541e-14 7.124791517614792e-22
3.0578761833420214 8.225954853088818e-22 6.676911979651341e-14 6.676911899573442e-14 8.007789853283369e-22
3.1040917844459814 9.482150764635328e-22 7.812874418551274e-14 7.812874328690617e-14 8.986065662331397e-22
3.127460860933648 1.0811068734879401e-21 8.974906750271326e-14 8.974906655099444e-14 9.517188271537382e-22
3.1510058709225794 1.2581669329227918e-21 1.0523420204258863e-13 1.0523420103495651e-13 1.00763213849195e-21
3.162844764501044 1.422984790606676e-21 1.1946689273762554e-13 1.194668917007952e-13 1.0368303546237329e-21
3.1747281389236908 1.614653895994326e-21 1.36067817615535e-13 1.3606781654875841e-13 1.066776559017262e-21
3.1986289994194426 2.149273482313485e-21 1.824840805890909e-13 1.8248407945990613e-13 1.1291847142556614e-21
3.2227097969389145 3.409508767405974e-21 2.916637423333699e-13 2.916637411369544e-13 1.1964154278595472e-21
3.2348180950136065 4.6046077859141894e-21 3.9537749031781215e-13 3.953774890849566e-13 1.2328555367643281e-21
3.240889293275058 5.498100558835469e-21 4.729838454130043e-13 4.729838441606955e-13 1.2523087543801994e-21
3.2469718861334385 6.531734545438981e-21 5.629586385508396e-13 5.629586372782385e-13 1.272601019104263e-21
3.2714166318528037 1.2045319237074842e-20 1.045980540457408e-12 1.0459805390997498e-12 1.3576585319193334e-21
3.2744851364798273 1.2389992098531776e-20 1.0769201075151015e-12 1.0769201061474289e-12 1.3676726511822562e-21
3.2775565192852394 1.2744564951314534e-20 1.1087780953383224e-12 1.1087780939605649e-12 1.3777574055720192e-21
3.283707930232385 1.240358096111058e-20 1.081137771766045e-12 1.0811377703706438e-12 1.3954009660138304e-21
3.2898708863219004 1.132220858153707e-20 9.8873393115053e-13 9.887339297394182e-13 1.4111117652638182e-21
3.29141343181113 1.1067193896473203e-20 9.669174298342342e-13 9.669174284191723e-13 1.4150616480495826e-21
3.292184975758714 1.0941888699604546e-20 9.561938685594413e-13 9.561938671424013e-13 1.4170399267749423e-21
3.295272960557952 1.0150949669302958e-20 8.879070458085963e-13 8.879070443839563e-13 1.4246398101226794e-21
3.3076538914384823 7.410890842184253e-21 6.506686894380749e-13 6.506686879828891e-13 1.4551857304864294e-21
3.310756385682612 6.853218159435702e-21 6.022699786310194e-13 6.022699771681148e-13 1.4629046421580702e-21
3.313861789986515 6.338678012896079e-21 5.575740022867987e-13 5.575740008161419e-13 1.4706567278104818e-21
3.3200813396944477 5.6170924870061896e-21 4.950279625252291e-13 4.950279610376136e-13 1.4876153784938218e-21
3.345076488085796 4.329848396237156e-21 3.8445735715128906e-13 3.844573555862189e-13 1.5650701107500678e-21
3.3482140837626964 4.378117395149531e-21 3.8910790554935384e-13 3.891079039735697e-13 1.5757840703869341e-21
3.3513546224236106 4.426920061681736e-21 3.9381431442262824e-13 3.938143128360642e-13 1.5865640170849307e-21
3.3576445397418455 4.7835858928355775e-21 4.2634161572706497e-13 4.26341614117684e-13 1.6093807826387807e-21
3.3702598118196083 6.099123951059101e-21 5.456325547757343e-13 5.456325531178274e-13 1.6579067954774684e-21
3.382922481734668 6.3987496800853745e-21 5.745880640409345e-13 5.745880623362471e-13 1.7046873815172064e-21
3.389271646505754 6.553976673561406e-21 5.89631535287003e-13 5.896315335584744e-13 1.7285287500057406e-21
3.395632727569191 6.721241649266024e-21 6.058144858169164e-13 6.058144840637098e-13 1.753206770005147e-21
3.421196662673239 7.524387023742556e-21 6.833112933690725e-13 6.833112915127288e-13 1.8563437764133205e-21
3.4276182099114902 7.362533355446158e-21 6.698678736073849e-13 6.698678717280892e-13 1.8792957793512906e-21
3.4340518103208963 6.653296587915378e-21 6.064753585233103e-13 6.064753566224576e-13 1.9008527386863542e-21
3.4469541582030403 5.643210946375742e-21 5.163345964513337e-13 5.163345945092429e-13 1.9420910174120053e-21
3.472904465399547 5.360117952879107e-21 4.941247600323816e-13 4.941247579921943e-13 2.0401872436326205e-21
3.4990501388274233 4.927142974975837e-21 4.576302913399948e-13 4.576302891982827e-13 2.1417121413045737e-21
3.5253949054701885 3.386299230260355e-21 3.1688562422967616e-13 3.1688562198966046e-13 2.240015650340172e-21
3.5519380250092896 1.9380765890074873e-21 1.8272827234473535e-13 1.8272827000511017e-13 2.339625146443125e-21
3.578680990867387 1.3638269066768022e-21 1.295542527732645e-13 1.295542503214566e-13 2.4518079339305008e-21
3.605625307711299 1.1315328924422318e-21 1.082971953068356e-13 1.0829719273445354e-13 2.5723820613130063e-21
3.660119384959845 9.620206578524931e-22 9.346501549562836e-14 9.346501266321255e-14 2.83241580029425e-21
3.715437065384467 8.419451682453572e-22 8.303537499744096e-14 8.303537188207619e-14 3.115364758252075e-21
3.8285932144167436 7.80844286200122e-22 7.935478056414063e-14 7.935477680652764e-14 3.757612998949363e-21
3.94519561050918 7.689187069044712e-22 8.052271343505113e-14 8.05227089216942e-14 4.513356926796594e-21
4.06534921144712 7.771775346704739e-22 8.386630873142207e-14 8.386630332930717e-14 5.402114915252741e-21
4.189162171576248 7.971167050438235e-22 8.863770787162696e-14 8.86377014218918e-14 6.449735139491703e-21
4.316745939156006 8.255637015408752e-22 9.459681445312766e-14 9.459680676895788e-14 7.684169787072349e-21
4.448215356677963 8.614486963132444e-22 1.0171491868332582e-13 1.0171490955179683e-13 9.131528999384644e-21
4.58368876423945 9.048919649959356e-22 1.100984705660891e-13 1.1009845972850469e-13 1.0837584365916473e-20
4.723288106065518 9.568934805623759e-22 1.1997132787060814e-13 1.1997131500718675e-13 1.2863421380123608e-20
4.867139040275056 1.0194630622697952e-21 1.317087660108136e-13 1.317087507595549e-13 1.525125868830897e-20
4.940699165968905 1.057243906958961e-21 1.3865420176409324e-13 1.386541851543246e-13 1.6609768655880924e-20
5.015371051989984 1.0963589197755284e-21 1.459571102284334e-13 1.4595709213829222e-13 1.8090141184417523e-20
5.091171501069577 1.1441440936148361e-21 1.546207882504268e-13 1.5462076852839712e-13 1.9722029657206988e-20
5.129500256944802 1.1686647953939508e-21 1.591235468463021e-13 1.591235262536604e-13 2.0592641753409078e-20
5.168117569889187 1.1942305165207898e-21 1.6382869905570363e-13 1.6382867755064793e-13 2.150505565446339e-20
5.20702561229733 1.2256498962728008e-21 1.6940474853106454e-13 1.6940472604551976e-13 2.2485544744090033e-20
5.246226572918644 1.257869269654923e-21 1.7516687539907977e-13 1.751668518882817e-13 2.351079801551481e-20
5.265937586045735 1.2742869393697102e-21 1.7811987115592386e-13 1.7811984711506268e-13 2.4040861216551475e-20
5.285722656980489 1.2909143297781306e-21 1.81122008962559e-13 1.8112198437965158e-13 2.4582907406769694e-20
5.305582063971359 1.3077548301468284e-21 1.8417420427737916e-13 1.8417417914016591e-13 2.5137213233691147e-20
5.3255160863122235 1.3258548473994454e-21 1.8742482528306814e-13 1.8742479957663894e-13 2.5706429186534143e-20
5.365609099470188 1.3709946594135544e-21 1.9526491914808128e-13 1.9526489224537577e-13 2.690270556017919e-20
5.406003951863644 1.4178543829801449e-21 2.0345924189441852e-13 2.0345921373935516e-13 2.815506335985182e-20
5.446702915881641 1.4665173534124943e-21 2.1202658930267953e-13 2.1202655983650616e-13 2.9466173379804524e-20
5.487708281020852 1.5191138115799112e-21 2.2128438157834052e-13 2.2128435073492428e-13 3.0843416277090205e-20
5.529022354014368 1.5923299679416884e-21 2.3369576785091863e-13 2.3369573552386574e-13 3.2327052903932526e-20
5.570647458961463 1.6698719849721847e-21 2.4692114750198344e-13 2.4692111361863183e-13 3.388335158026055e-20
5.612585937458331 1.7520519220009695e-21 2.610233800609028e-13 2.610233445449917e-13 3.551591122288631e-20
5.654840148729818 1.842411595569491e-21 2.765517583487202e-13 2.7655172111212415e-13 3.7236596037940724e-20
5.67608639626678 1.904012791023354e-21 2.868720863510309e-13 2.8687204818672593e-13 3.816430490877789e-20
5.686739436050992 1.9357674141058776e-21 2.9220385244988845e-13 2.922038138128243e-13 3.8637064081525135e-20
5.6974124697621304 1.9681783758338283e-21 2.976538818485531e-13 2.97653842732691e-13 3.9115862065912955e-20
5.718818669136295 2.0350326261755867e-21 3.0892078919620555e-13 3.089207491043184e-13 4.009188710639702e-20
5.740305295436557 2.108744382132474e-21 3.2131304837792115e-13 3.2131300727387354e-13 4.110404765182657e-20
5.7835210386641895 2.300081102580693e-21 3.531058418201663e-13 3.5310579852227394e-13 4.3297892293879673e-20
5.827062130521658 2.5205574250960825e-21 3.8986628351246273e-13 3.8986623787270104e-13 4.5639761714675065e-20
5.8489554468988025 2.675305244076227e-21 4.1535657260148935e-13 4.1535652563083177e-13 4.697065736970598e-20
5.870931020387893 2.841386059052886e-21 4.4279902516217565e-13 4.4279897681838175e-13 4.8343793786950096e-20
5.892989160043636 3.0197125806408367e-21 4.723573566630346e-13 4.723573069024748e-13 4.976055967585311e-20
5.915130176081913 3.2225536056714702e-21 5.059806284710671e-13 5.059805772062179e-13 5.1264849487878057e-20
5.95966208400165 3.789873366795678e-21 5.995366924342782e-13 5.995366376145155e-13 5.481976258822168e-20
6.004529249263818 4.607796902209515e-21 7.344153174122494e-13 7.344152582594054e-13 5.915284362337792e-20
6.027089341400364 5.176450975997637e-21 8.281503077634032e-13 8.281502459374274e-13 6.182597585218655e-20
6.049734195844842 5.848512607660818e-21 9.391850205063408e-13 9.391849557298077e-13 6.477653320082007e-20
6.095279466722835 7.790047006276067e-21 1.2603847332019532e-12 1.2603846606654647e-12 7.25364886734683e-20
6.141167624020661 1.077834622828616e-20 1.7570030478673723e-12 1.7570029643918166e-12 8.347555591448359e-20
6.164241091010745 1.2686711649272398e-20 2.075860276271224e-12 2.0758601857000183e-12 9.057120602213242e-20
6.187401249150058 1.4860755630637606e-20 2.4407236335031903e-12 2.440723535184928e-12 9.83182614146947e-20
6.1990139391386085 1.5922288217487083e-20 2.6199772908160426e-12 2.6199771885132533e-12 1.0230278988602054e-19
6.204828454712694 1.648147684229429e-20 2.7145343189149393e-12 2.7145342145488102e-12 1.0436612912744935e-19
6.210648424152782 1.6889656603168958e-20 2.7843716159463595e-12 2.78437150984775e-12 1.060986098056591e-19
6.233982942956859 1.8276397623156943e-20 3.0243053709830924e-12 3.0243052587072757e-12 1.1227581637953156e-19
6.239830258556775 1.8453643396302798e-20 3.0564995257954314e-12 3.056499412633529e-12 1.1316190262811407e-19
6.245683058788269 1.8468963439010868e-20 3.061906301206514e-12 3.0619061871514682e-12 1.1405504565614971e-19
6.257405133728602 1.8430750929896666e-20 3.06130596254532e-12 3.0613058469091888e-12 1.1563613157691064e-19
6.269149208991335 1.8157853643071413e-20 3.021638815242116e-12 3.0216386989923447e-12 1.1624977174452557e-19
6.280915325867298 1.7473672326294585e-20 2.9132419768642815e-12 2.9132418612045694e-12 1.1565971191034687e-19
6.304513850009849 1.5786516350967586e-20 2.641845039320992e-12 2.6418449259590416e-12 1.1336195022734453e-19
6.32820103803542 1.3695295395560544e-20 2.3004939990628754e-12 2.3004938893681925e-12 1.0969468301770324e-19
6.3519772230701035 1.1777480844653905e-20 1.9857783511752777e-12 1.985778244910103e-12 1.0626517412370084e-19
6.375842739491607 1.0164085007098321e-20 1.7201856415692836e-12 1.720185538284211e-12 1.0328507215183225e-19
6.399797922933955 8.870900742439128e-21 1.5069658617151932e-12 1.5069657602759892e-12 1.0143920416995247e-19
6.42384311029221 7.79575290693381e-21 1.3292982223961394e-12 1.3292981224630245e-12 9.993311485336876e-20
6.447978639727206 7.0121825210504e-21 1.200179584651068e-12 1.2001794851905581e-12 9.946050992652659e-20
6.472204850670314 6.3594272246224965e-21 1.0925458945013541e-12 1.0925457952599413e-12 9.92414130919373e-20
6.496522083828205 5.935093358886345e-21 1.0234765745629318e-12 1.0234764746450753e-12 9.991785646549786e-20
