Dust emission spectrum from A.P. Jones, M. Kohler, N. Ysard, M. Bocchio, and L. Verstraete (2017), A&A, 602A, 46J 
inside the DustPedia framework.

lambda    nu*dP/dnu     j_nu    j_nu(carb.) j_nu(sil)
 (um)   (erg s-1 H-1) (Jy cm2 sr-1 H-1)
0.9927057738263894 7.496474260066824e-20 1.9753635466513675e-12 1.9753634819287836e-12 6.472258431769293e-20
1.0001793341362166 7.622172984157605e-20 2.02360670950877e-12 2.0236066316406796e-12 7.786809075360131e-20
1.0077091589558085 7.748414634241109e-20 2.0726095340093545e-12 2.0726094404515097e-12 9.355784474901048e-20
1.0114953028030835 7.811734097467708e-20 2.09739754513731e-12 2.0973974426378224e-12 1.0249948725229336e-19
1.0152956718711033 7.875183446521473e-20 2.1223775689756326e-12 2.1223774567176588e-12 1.1225797317026509e-19
1.0229392996569957 8.002402473775684e-20 2.1728997347934925e-12 2.1728996002768647e-12 1.3451662789123394e-19
1.0267826658714554 8.066027979520537e-20 2.1984049108504456e-12 2.1984047636692593e-12 1.4718118676979475e-19
1.0306404723013447 8.129773156470932e-20 2.2241038074941784e-12 2.2241036465101426e-12 1.6098403604932375e-19
1.03451277320114 8.193636400127299e-20 2.249997202775576e-12 2.2499970267533307e-12 1.760222458123943e-19
1.0383996230291617 8.257616169191576e-20 2.2760858924292992e-12 2.2760857000286163e-12 1.9240068360699556e-19
1.0403485208654093 8.289649286746134e-20 2.2892037263241054e-12 2.2892035251965717e-12 2.0112753432594805e-19
1.0423010764483396 8.321710987063336e-20 2.3023706905890567e-12 2.3023704803564572e-12 2.1023259918403876e-19
1.0462171883269815 8.385919443323028e-20 2.3288524305120157e-12 2.328852200871766e-12 2.2964024968668645e-19
1.0471985131304309 8.40198915452299e-20 2.3355037371706828e-12 2.335503502417074e-12 2.347536091633859e-19
1.048180758391296 8.418065863550485e-20 2.342167419436935e-12 2.3421671794611275e-12 2.3997580736155067e-19
1.0501480137395462 8.450240195201358e-20 2.35553196531218e-12 2.3555317145566117e-12 2.5075556782957184e-19
1.0521189612883777 8.482442281238476e-20 2.368946178001382e-12 2.3689459160037303e-12 2.619976515953159e-19
1.0531058218030118 8.498532552865873e-20 2.375666037055886e-12 2.375665769257576e-12 2.677983095833652e-19
1.0540936079674168 8.514560478783069e-20 2.382378973665465e-12 2.382378699942475e-12 2.737229906099923e-19
1.058054026499678 8.578737864597944e-20 2.4093543353378667e-12 2.4093540366383972e-12 2.9869946929611604e-19
1.0590464539527713 8.594798544752718e-20 2.4161291502183503e-12 2.4161288449423902e-12 3.052759604414036e-19
1.06003981227728 8.610865724660829e-20 2.422916383457047e-12 2.422916071466301e-12 3.1199074529766153e-19
1.0620293250338977 8.643019518604737e-20 2.436528162879056e-12 2.4365278370327644e-12 3.2584629207128047e-19
1.0660195594769086 8.707404403507961e-20 2.463901383756522e-12 2.463901028414595e-12 3.5534192661396154e-19
1.070024785945596 8.771891557471202e-20 2.491474949247369e-12 2.4914745618687464e-12 3.873786230719882e-19
1.0740450607676866 8.836480095475862e-20 2.5192498352222238e-12 2.519249413058819e-12 4.2216340404985086e-19
1.07808044048254 8.901169210659493e-20 2.547227042936431e-12 2.5472265830173115e-12 4.599191198725892e-19
1.0861967418109137 9.030748187190848e-20 2.6037642596119145e-12 2.6037637142911408e-12 5.453207742493345e-19
1.0902777775684922 9.095413690641325e-20 2.63226161271059e-12 2.6322610192083973e-12 5.935021921860849e-19
1.0943741465085532 9.160173537542625e-20 2.6609637554520057e-12 2.6609631097241388e-12 6.4572786625413375e-19
1.1026131145906286 9.289974834915707e-20 2.718986957293104e-12 2.7189861936758057e-12 7.636172977163183e-19
1.1109141095355224 9.420150096029041e-20 2.7778432692231484e-12 2.7778423673759336e-12 9.018472152329995e-19
1.1192775983109025 9.550597865082091e-20 2.837512634073466e-12 2.8375115703627695e-12 1.063710696397944e-18
1.1277040513999907 9.680855335903729e-20 2.8978660312727103e-12 2.897864778276122e-12 1.2529965876722518e-18
1.1361939428280308 9.811474547002189e-20 2.9590764406715356e-12 2.9590749666133005e-12 1.474058235238768e-18
1.1447477501889525 9.942459525490284e-20 3.0211553905934057e-12 3.0211536587027575e-12 1.731890649685238e-18
1.1533659546722406 1.0073860870924622e-19 3.0841288172071515e-12 3.0841267849869403e-12 2.0322202119370996e-18
1.1707974979042381 1.0338311032640548e-19 3.2129266632003088e-12 3.212923875659615e-12 2.787540694784731e-18
1.1884924949847024 1.0604512143775883e-19 3.345465614391215e-12 3.3454618100235844e-12 3.8043676300035284e-18
1.2064549276569216 1.0874249583235352e-19 3.4824094386545345e-12 3.482404272274333e-12 5.166380201101608e-18
1.2246888378427687 1.1145849031556047e-19 3.6233338304517675e-12 3.623326848939137e-12 6.981512630382676e-18
1.2431983285522175 1.1419114277208398e-19 3.768272229681573e-12 3.768262841192638e-12 9.38848893501046e-18
1.2619875648066055 1.1694473529308026e-19 3.917465530005555e-12 3.917452965304588e-12 1.256470096693911e-17
1.3004222497298317 1.2249930073672585e-19 4.228510702804105e-12 4.2284885163627346e-12 2.2186441370010417e-17
1.3400274889804893 1.2814044173333265e-19 4.557947906949972e-12 4.557909450948574e-12 3.8456001396684974e-17
1.3808389325824078 1.3388989399185463e-19 4.90749938873834e-12 4.9074339270833595e-12 6.54616549802265e-17
1.4228933163050095 1.3979519632364538e-19 5.280001194293242e-12 5.279891704804528e-12 1.0948948871536989e-16
1.466228494730424 1.4595513001151258e-19 5.680550859008052e-12 5.680370831653413e-12 1.8002735463842688e-16
1.5108834753276823 1.5235739368023164e-19 6.110319775974586e-12 6.110028652546303e-12 2.9112342828321336e-16
1.5568984535646726 1.5899488283703285e-19 6.570718584842316e-12 6.570255085468665e-12 4.634993736504383e-16
1.6043148490894465 1.6590105229643794e-19 7.064935105248678e-12 7.06420720568965e-12 7.278995590289043e-16
1.6531753430134553 1.7310977986768416e-19 7.596437278487897e-12 7.595311056686498e-12 1.126221801398217e-15
1.7035239163302658 1.806590494513645e-19 8.169159752872443e-12 8.167442606654892e-12 1.717146217551524e-15
1.755405889504358 1.8867110557563702e-19 8.791285385649759e-12 8.788704089230176e-12 2.581296419583475e-15
1.8088679632656115 1.9713216513314473e-19 9.465287111139702e-12 9.461460024512964e-12 3.827086626736323e-15
1.8639582606462262 2.0602122882086197e-19 1.0193365322806722e-11 1.0187766846115314e-11 5.598476691408208e-15
1.9207263702978936 2.1534239682402676e-19 1.0979042711545262e-11 1.0970959119991482e-11 8.083591553783213e-15
1.979223391128241 2.25108758019317e-19 1.1826510994711104e-11 1.18149860840261e-11 1.1524910685004233e-14
2.039501978296691 2.3532410412288977e-19 1.2739722787086878e-11 1.2723492657343844e-11 1.623012974303504e-14
2.1016163906111602 2.4605828725439623e-19 1.372653357219219e-11 1.3703947823352213e-11 2.2585748839974394e-14
2.1656225393682647 2.5732359487617767e-19 1.479216715677614e-11 1.476109854914284e-11 3.106860763330182e-14
2.231578038680979 2.6905109843269323e-19 1.5937356275587313e-11 1.5895097559543422e-11 4.225871604389612e-14
2.299542257339062 2.812069654291095e-19 1.7164727046259892e-11 1.7107874762717012e-11 5.685228354287577e-14
2.369576372248914 2.9377965383307183e-19 1.8478293397033828e-11 1.840261816156748e-11 7.567523546634583e-14
2.4417434235010123 3.067636487478219e-19 1.9882608198322714e-11 1.9782916003240776e-11 9.969219508193388e-14
2.5161083711144245 3.2020367644929605e-19 2.1385779747119946e-11 2.1255760831870637e-11 1.300189152493118e-13
2.5927381535095444 3.342098194097885e-19 2.300103068688219e-11 2.283310307940429e-11 1.6792760747789492e-13
2.6717017477616296 3.488643048093338e-19 2.4740811651869507e-11 2.452597142036505e-11 2.1484023150445796e-13
2.753070231689431 3.643145693495299e-19 2.662338442135278e-11 2.6351058687716328e-11 2.723257336364525e-13
2.836916847834745 3.8106379704127604e-19 2.8695495618405472e-11 2.835339241371358e-11 3.421032046918825e-13
2.9233170693905177 4.002772670304259e-19 3.1060345435084613e-11 3.063440901314079e-11 4.2593642194381887e-13
2.967498994190263 4.1195723316247356e-19 3.244980909090284e-11 3.197707751824221e-11 4.727315726606334e-13
3.0123486681368425 4.243980183738337e-19 3.3935012918413966e-11 3.341101772230015e-11 5.239951961138219e-13
3.0578761833420214 4.4484688890304e-19 3.6107705119631615e-11 3.552745201878148e-11 5.802531008501395e-13
3.1040917844459814 4.686964652938891e-19 3.861852352545737e-11 3.7977258613923855e-11 6.412649115335146e-13
3.127460860933648 4.908389737810509e-19 4.074744252500531e-11 4.0073592904731357e-11 6.738496202739656e-13
3.1510058709225794 5.189262198537615e-19 4.3403450874700906e-11 4.269569625649132e-11 7.077546182095856e-13
3.162844764501044 5.443698843185485e-19 4.570265192486769e-11 4.497737435927396e-11 7.252775655937182e-13
3.1747281389236908 5.731064445392223e-19 4.8296011525013934e-11 4.7552870828006794e-11 7.43140697007132e-13
3.1986289994194426 6.507909892385837e-19 5.525541365682105e-11 5.4475417070770464e-11 7.799965860505753e-13
3.2227097969389145 8.306606863470723e-19 7.105821422290096e-11 7.023922451754349e-11 8.189897053574788e-13
3.2348180950136065 9.993268872317559e-19 8.58078201338832e-11 8.496803655053368e-11 8.397835833495379e-13
3.240889293275058 1.1253328369776326e-18 9.680875184209853e-11 9.595799989630117e-11 8.507519457973895e-13
3.2469718861334385 1.2713815482027811e-18 1.0957812514819427e-10 1.0871602421975338e-10 8.621009284408845e-13
3.2714166318528037 2.0364168194471777e-18 1.76836522426548e-10 1.7592757138810715e-10 9.089510384408216e-13
3.2744851364798273 2.0841578512338026e-18 1.8115197163807084e-10 1.802375135322471e-10 9.144581058237254e-13
3.2775565192852394 2.133164925346435e-18 1.855855066064202e-10 1.8466551518936247e-10 9.199914170577145e-13
3.283707930232385 2.08580980401786e-18 1.818061873352524e-10 1.8087632921790891e-10 9.29858117343455e-13
3.2898708863219004 1.935704996480521e-18 1.6903921146964793e-10 1.6810040041904674e-10 9.388110506012419e-13
3.29141343181113 1.900224433194015e-18 1.6601860799038546e-10 1.6507754947374062e-10 9.410585166448177e-13
3.292184975758714 1.882778241704937e-18 1.6453293028290913e-10 1.6359074664727612e-10 9.421836356329966e-13
3.295272960557952 1.774166174574056e-18 1.5518692321008818e-10 1.542403680483452e-10 9.465551617430494e-13
3.3076538914384823 1.3948318583655604e-18 1.2246482057232676e-10 1.215007202619805e-10 9.641003103461912e-13
3.310756385682612 1.3167558090099774e-18 1.157182617720737e-10 1.1474974172633382e-10 9.685200457398759e-13
3.313861789986515 1.2443774698147333e-18 1.0946013108545885e-10 1.0848717791538243e-10 9.72953170076438e-13
3.3200813396944477 1.1433105470275436e-18 1.0075865617984554e-10 9.977615546829725e-11 9.825007115482904e-13
3.345076488085796 9.669875355269857e-19 8.58610829492379e-11 8.483600096516506e-11 1.025081984072828e-12
3.3482140837626964 9.741407614413387e-19 8.65773658364284e-11 8.554651407055316e-11 1.030851765875245e-12
3.3513546224236106 9.813573261020372e-19 8.730055144381371e-11 8.626390530836814e-11 1.0366461354455706e-12
3.3576445397418455 1.032040133018334e-18 9.198155268105589e-11 9.093278712674063e-11 1.0487655543152648e-12
3.3702598118196083 1.215448110893581e-18 1.087349696883998e-10 1.0766078533497961e-10 1.0741843534201885e-12
3.382922481734668 1.2592372171188842e-18 1.1307563366707287e-10 1.1197678687673158e-10 1.0988467903413027e-12
3.389271646505754 1.2817965703143452e-18 1.1531741983899526e-10 1.1420608109306818e-10 1.1113387459271154e-12
3.395632727569191 1.3066636753985862e-18 1.1777523022605223e-10 1.1665101770706847e-10 1.1242125189837714e-12
3.421196662673239 1.4274188822127579e-18 1.2962802677567415e-10 1.28450570157256e-10 1.1774566184181287e-12
3.4276182099114902 1.4055978308485604e-18 1.2788598497841657e-10 1.2669669444915553e-10 1.1892905292610492e-12
3.4340518103208963 1.3067151942308146e-18 1.1911246634464176e-10 1.1791200653732744e-10 1.2004598073142765e-12
3.4469541582030403 1.1647108177241035e-18 1.0656707604352527e-10 1.0534522588011696e-10 1.2218501634082815e-12
3.472904465399547 1.1250515846786517e-18 1.0371336026379561e-10 1.0244216266320704e-10 1.2711976005885446e-12
3.4990501388274233 1.0653666382778988e-18 9.895065914165331e-11 9.762906942709527e-11 1.3215897145580244e-12
3.5253949054701885 8.548063599896469e-19 7.999170438342808e-11 7.862132970118082e-11 1.3703746822472967e-12
3.5519380250092896 6.543297181086619e-19 6.169237047285316e-11 6.027309960279107e-11 1.4192708700620894e-12
3.578680990867387 5.763625902395898e-19 5.475051440867967e-11 5.3277668560176657e-11 1.4728458485030327e-12
3.605625307711299 5.46606008010452e-19 5.231478289387844e-11 5.078559457332903e-11 1.529188320549405e-12
3.660119384959845 5.283118278668931e-19 5.132807988586265e-11 4.968089764263352e-11 1.647182243229126e-12
3.715437065384467 5.161646606767998e-19 5.090584016183204e-11 4.913481743024702e-11 1.7710227315850342e-12
3.8285932144167436 5.166806949966952e-19 5.250865492365566e-11 5.0473385514420796e-11 2.0352694092348642e-12
3.94519561050918 5.231267959138877e-19 5.4782890179837684e-11 5.2462336711428955e-11 2.3205534684087387e-12
4.06534921144712 5.314090055748585e-19 5.734508492077783e-11 5.471921804420463e-11 2.6258668765732178e-12
4.189162171576248 5.403116330002383e-19 6.008152179282686e-11 5.7130415608560836e-11 2.951106184266028e-12
4.316745939156006 5.49308282441631e-19 6.294222187180844e-11 5.964794265911819e-11 3.294279212690236e-12
4.448215356677963 5.581445819481426e-19 6.590250935355831e-11 6.225278026155206e-11 3.6497290920062586e-12
4.58368876423945 5.667669935804093e-19 6.895870620403152e-11 6.494151253594744e-11 4.017193668084087e-12
4.723288106065518 5.752484971540759e-19 7.212226591677309e-11 6.77239332385188e-11 4.398332678254293e-12
4.867139040275056 5.836690697265071e-19 7.540668787076995e-11 7.062510033583934e-11 4.781587534930612e-12
4.940699165968905 5.881787880860863e-19 7.71377917809213e-11 7.216273188331971e-11 4.9750598976015785e-12
5.015371051989984 5.924253931349982e-19 7.88689696852485e-11 7.369993525904569e-11 5.169034426202802e-12
5.091171501069577 5.974387333798203e-19 8.07384737657195e-11 7.537050494209905e-11 5.367968823620478e-12
5.129500256944802 5.998353495529402e-19 8.167263078415937e-11 7.620529113905032e-11 5.467339645109057e-12
5.168117569889187 6.022523527326686e-19 8.261907402842037e-11 7.705133197707642e-11 5.56774205134395e-12
5.20702561229733 6.054050747784859e-19 8.367682709733009e-11 7.799864395708764e-11 5.678183140242463e-12
5.246226572918644 6.085073517777817e-19 8.473879920567905e-11 7.894997642409693e-11 5.788822781582133e-12
5.265937586045735 6.1003991881519225e-19 8.527140032768286e-11 7.942720197552462e-11 5.844198352158236e-12
5.285722656980489 6.115603046851471e-19 8.580509831769088e-11 7.990549728477013e-11 5.89960103292075e-12
5.305582063971359 6.130686691670002e-19 8.633990998033396e-11 8.03848867445164e-11 5.9550232358175555e-12
5.3255160863122235 6.147100714616905e-19 8.689633557506566e-11 8.088537193499769e-11 6.010963640067955e-12
5.365609099470188 6.190778491911306e-19 8.817261638377398e-11 8.204584455036105e-11 6.12677183341291e-12
5.406003951863644 6.234563544553729e-19 8.946472836309904e-11 8.322198827263146e-11 6.242740090467527e-12
5.446702915881641 6.278508207931371e-19 9.077360579054338e-11 8.441479832854151e-11 6.3588074620018755e-12
5.487708281020852 6.325398849175637e-19 9.214003334749797e-11 8.566455346551931e-11 6.475479881978666e-12
5.529022354014368 6.396811980232878e-19 9.388179068505868e-11 8.7284688370894e-11 6.5971023141646605e-12
5.570647458961463 6.47027377423639e-19 9.567484450091249e-11 8.895598919059757e-11 6.718855310314945e-12
5.612585937458331 6.546006786864886e-19 9.752341217477552e-11 9.068273521766374e-11 6.840676957111806e-12
5.654840148729818 6.628327166705037e-19 9.949326943398138e-11 9.253007424699191e-11 6.963195186989491e-12
5.67608639626678 6.688566886337458e-19 1.0077469786065685e-10 9.374726008529446e-11 7.027437775362434e-12
5.686739436050992 6.719316450243193e-19 1.0142799895708855e-10 9.436842478490982e-11 7.059574172178722e-12
5.6974124697621304 6.750501160867999e-19 1.0208997820658756e-10 9.499825888185048e-11 7.09171932473709e-12
5.718818669136295 6.814223815000204e-19 1.0344086731648367e-10 9.628483537035517e-11 7.156031946128515e-12
5.740305295436557 6.884895249537704e-19 1.0490634612406304e-10 9.768543742436141e-11 7.220908699701627e-12
5.7835210386641895 7.074394659382524e-19 1.0860530434194623e-10 1.012503937877651e-10 7.354910554181167e-12
5.827062130521658 7.289398959430743e-19 1.1274850765379984e-10 1.0525808999224279e-10 7.490417661557024e-12
5.8489554468988025 7.446608696942961e-19 1.156128958635773e-10 1.0804887189757462e-10 7.564023966002698e-12
5.870931020387893 7.612990330202442e-19 1.1864015050127924e-10 1.1100238418103164e-10 7.63776632024763e-12
5.892989160043636 7.789277678164855e-19 1.2184347073162547e-10 1.1413183408255305e-10 7.711636649072431e-12
5.915130176081913 7.989885616533151e-19 1.2545105032699733e-10 1.1766269818522735e-10 7.788352141770021e-12
5.95966208400165 8.562510699478477e-19 1.3545411275941467e-10 1.2748850859984973e-10 7.965604159564927e-12
6.004529249263818 9.38940389671025e-19 1.4965334170452814e-10 1.4148688763483391e-10 8.166454069694221e-12
6.027089341400364 9.967494790214132e-19 1.594641563577269e-10 1.511804341665527e-10 8.28372219117417e-12
6.049734195844842 1.0645081082565859e-18 1.7094433004599397e-10 1.625361226424023e-10 8.408207403591601e-12
6.095279466722835 1.2606138702472978e-18 2.0396006278810065e-10 1.9524175836449557e-10 8.718304423605066e-12
6.141167624020661 1.560102550213788e-18 2.5431591059096485e-10 2.451900533645552e-10 9.125857226409595e-12
6.164241091010745 1.750871904599226e-18 2.8648601277268896e-10 2.771019254471294e-10 9.38408732555952e-12
6.187401249150058 1.9652047088251344e-18 3.2276431271183373e-10 3.131155402864284e-10 9.648772425405343e-12
6.1990139391386085 2.0691160608867964e-18 3.404684689498556e-10 3.306851035304598e-10 9.783365419395768e-12
6.204828454712694 2.123604855393238e-18 3.497622400552356e-10 3.3991094412079685e-10 9.851295934438592e-12
6.210648424152782 2.1628119595548715e-18 3.5655385851267136e-10 3.466452218540249e-10 9.908636658646381e-12
6.233982942956859 2.2935513707729905e-18 3.7952773146419654e-10 3.694214455880016e-10 1.0106285876194897e-11
6.239830258556775 2.3088246581217523e-18 3.82413451974898e-10 3.722814532748689e-10 1.0131998700029086e-11
6.245683058788269 2.3078427814030143e-18 3.8260936396928136e-10 3.7245162913010984e-10 1.0157734839171462e-11
6.257405133728602 2.2989438196740398e-18 3.8184935868830106e-10 3.7164757710427645e-10 1.0201781584024472e-11
6.269149208991335 2.266536282742367e-18 3.771731033145645e-10 3.669599830312e-10 1.0213120283364478e-11
6.280915325867298 2.1931519155354684e-18 3.6564621921882546e-10 3.554621397559927e-10 1.0184079462832778e-11
6.304513850009849 2.0154923962711974e-18 3.3728901744379375e-10 3.2719944909144777e-10 1.0089568352345886e-11
6.32820103803542 1.799972911471945e-18 3.0235396621377213e-10 2.923976568705521e-10 9.956309343220017e-12
6.3519772230701035 1.603593510569625e-18 2.703788118509059e-10 2.60543317414422e-10 9.835494436483842e-12
6.375842739491607 1.4380029931030098e-18 2.4336987535444e-10 2.3364237543943356e-10 9.727499915006326e-12
6.399797922933955 1.3063863604757275e-18 2.219255636610781e-10 2.1226026335133259e-10 9.665300309745506e-12
6.42384311029221 1.1964555633708277e-18 2.0401445152914164e-10 1.9440216585117852e-10 9.612285677963122e-12
6.447978639727206 1.1162784396090859e-18 1.9105814630225675e-10 1.8146330648722633e-10 9.59483981503043e-12
6.472204850670314 1.0490753962173138e-18 1.8023054226045418e-10 1.706461240332199e-10 9.584418227234203e-12
6.496522083828205 1.0047416327234352e-18 1.7326256933109192e-10 1.636598801176297e-10 9.60268921346222e-12
6.520930681187647 9.670291552583038e-19 1.673857893245097e-10 1.5776059858967982e-10 9.625190734829908e-12
6.57002334288761 9.257247323392317e-19 1.6144262575181174e-10 1.517331355081911e-10 9.709490243620648e-12
