Dust emission spectrum from A.P. Jones, M. Kohler, N. Ysard, M. Bocchio, and L. Verstraete (2017), A&A, 602A, 46J 
inside the DustPedia framework.

lambda    nu*dP/dnu     j_nu    j_nu(carb.) j_nu(sil)
 (um)   (erg s-1 H-1) (Jy cm2 sr-1 H-1)
0.9927057738263894 1.2681798234113377e-21 3.341725865864834e-14 3.3417258113910283e-14 5.447380651449177e-22
1.0001793341362166 1.2895177385919748e-21 3.4235338836693866e-14 3.423533818109591e-14 6.555979654886875e-22
1.0077091589558085 1.3109361688913268e-21 3.506599646997303e-14 3.506599568200257e-14 7.8797046974598795e-22
1.0114953028030835 1.321674520543037e-21 3.548606314897621e-14 3.548606228554207e-14 8.634341376722056e-22
1.0152956718711033 1.3324317490374008e-21 3.590930008871176e-14 3.590929914290204e-14 9.458097069818908e-22
1.0229392996569957 1.353990767177995e-21 3.676503635696008e-14 3.6765035223191995e-14 1.1337680859068904e-21
1.0267826658714554 1.3647680225024652e-21 3.7196904479612496e-14 3.7196903238866114e-14 1.2407463760315609e-21
1.0306404723013447 1.3755620594606842e-21 3.763195792807458e-14 3.7631956570708106e-14 1.3573664660631527e-21
1.03451277320114 1.386372513642678e-21 3.8070206259732323e-14 3.807020477527899e-14 1.4844533444084222e-21
1.0383996230291617 1.397199030452421e-21 3.851165926061672e-14 3.8511657637718175e-14 1.6228985373981489e-21
1.0403485208654093 1.4026182042770085e-21 3.873359063542833e-14 3.8733588938749817e-14 1.696678524715092e-21
1.0423010764483396 1.4080412653598964e-21 3.895632695661028e-14 3.895632518294516e-14 1.773665123432104e-21
1.0462171883269815 1.4188988841512851e-21 3.94042196248083e-14 3.940421768701521e-14 1.937793096093346e-21
1.0471985131304309 1.421615654417673e-21 3.9516697922961314e-14 3.951669594191886e-14 1.981042463785707e-21
1.048180758391296 1.4243333609435832e-21 3.962937860659754e-14 3.9629376581382525e-14 2.025215035056675e-21
1.0501480137395462 1.42977156317714e-21 3.985534780503199e-14 3.985534568862689e-14 2.1164050982961727e-21
1.0521189612883777 1.435213452086825e-21 4.008212858055364e-14 4.008212636903611e-14 2.211517535514473e-21
1.0531058218030118 1.437932143024474e-21 4.019572243236593e-14 4.019572017176818e-14 2.2605977545145582e-21
1.0540936079674168 1.4406398683245553e-21 4.03091872971362e-14 4.0309184986405954e-14 2.310730254632829e-21
1.058054026499678 1.4514792699890344e-21 4.076506272831568e-14 4.0765060206211244e-14 2.522104439505966e-21
1.0590464539527713 1.454191223099487e-21 4.087953645251418e-14 4.0879533874745007e-14 2.577769180128539e-21
1.06003981227728 1.4569040084774476e-21 4.0994212476856304e-14 4.099420984224838e-14 2.6346079288412026e-21
1.0620293250338977 1.462332058781024e-21 4.122417214297882e-14 4.122416939107685e-14 2.7519019815132516e-21
1.0660195594769086 1.4731979593840115e-21 4.1686527034522513e-14 4.168652403287916e-14 3.0016433612505314e-21
1.070024785945596 1.4840767083775025e-21 4.215213922172543e-14 4.215213594875844e-14 3.2729669936771304e-21
1.0740450607676866 1.4949680544689027e-21 4.262102086114022e-14 4.262101729350249e-14 3.567637744058689e-21
1.07808044048254 1.5058717587224608e-21 4.309318445961663e-14 4.309318057206062e-14 3.887556009109156e-21
1.0861967418109137 1.527698570199616e-21 4.404692561562086e-14 4.4046921004147286e-14 4.6114735692031044e-21
1.0902777775684922 1.5385831128231682e-21 4.4527422320728167e-14 4.452741730068517e-14 5.020042997666997e-21
1.0943741465085532 1.5494785251584262e-21 4.501122362365086e-14 4.5011218160630386e-14 5.463020468709211e-21
1.1026131145906286 1.5713012902582079e-21 4.5988797495258845e-14 4.598879103190919e-14 6.4633496561779526e-21
1.1109141095355224 1.5931656670196351e-21 4.6979766561824197e-14 4.697975892493827e-14 7.636885929776695e-21
1.1192775983109025 1.6150534525915142e-21 4.798374553269919e-14 4.7983736520909806e-14 9.011789386681975e-21
1.1277040513999907 1.6368847034803344e-21 4.8998486339665464e-14 4.899847571918405e-14 1.06204814051225e-20
1.1361939428280308 1.6587527909988964e-21 5.0026897396810774e-14 5.002688489657304e-14 1.2500237725125731e-20
1.1447477501889525 1.6806574846366609e-21 5.106912838250471e-14 5.1069113688647177e-14 1.4693857539814447e-20
1.1533659546722406 1.70260674833901e-21 5.212558128611262e-14 5.212556403567268e-14 1.7250439938376895e-20
1.1707974979042381 1.7467053592154266e-21 5.428387870764928e-14 5.428385502199317e-14 2.368565610663081e-20
1.1884924949847024 1.7909847278535393e-21 5.650121138717847e-14 5.6501179028572935e-14 3.235860553838172e-20
1.2064549276569216 1.8357449841061406e-21 5.878856844953824e-14 5.878852446048127e-14 4.398905699643394e-20
1.2246888378427687 1.880689025776053e-21 6.113813449617854e-14 6.113807498944712e-14 5.950673141691007e-20
1.2431983285522175 1.9257774067280585e-21 6.355005603898381e-14 6.354997593068019e-14 8.010830362284717e-20
1.2619875648066055 1.9710724768351275e-21 6.602784183309173e-14 6.602773450687976e-14 1.073262119950987e-19
1.3004222497298317 2.06198600722314e-21 7.117697691445934e-14 7.11767869801126e-14 1.8993434672860303e-19
1.3400274889804893 2.1536752532528038e-21 7.660610093136647e-14 7.66057709683605e-14 3.2996300599275547e-19
1.3808389325824078 2.246445839925954e-21 8.23395348041809e-14 8.233897182163581e-14 5.629825451129635e-19
1.4228933163050095 2.341052109749421e-21 8.842047695804068e-14 8.841953309791582e-14 9.438601248630882e-19
1.466228494730424 2.4391334287391607e-21 9.493069200628025e-14 9.492913632511248e-14 1.5556811677574918e-18
1.5108834753276823 2.5404247896697698e-21 1.0188417809426833e-13 1.0188165621006967e-13 2.521884198684206e-18
1.5568984535646726 2.644764070810448e-21 1.0929911782387104e-13 1.0929509269960955e-13 4.025124261498753e-18
1.6043148490894465 2.7526972984707256e-21 1.1722425812790692e-13 1.1721792097554505e-13 6.337152361853699e-18
1.6531753430134553 2.8647860072143225e-21 1.2571310088157475e-13 1.2570327084416398e-13 9.830037410732084e-18
1.7035239163302658 2.9816848436891225e-21 1.348277868990579e-13 1.3481276019408454e-13 1.502670497339828e-17
1.755405889504358 3.1055021366854864e-21 1.4470342698237003e-13 1.4468077864478557e-13 2.2648337584416538e-17
1.8088679632656115 3.2360247845835547e-21 1.553775035350505e-13 1.553438348930645e-13 3.3668641986042075e-17
1.8639582606462262 3.372942191882446e-21 1.6688392827935942e-13 1.6683454237522828e-13 4.938590413120355e-17
1.9207263702978936 3.516376463363273e-21 1.7927936138226518e-13 1.7920785732693473e-13 7.150405533045637e-17
1.979223391128241 3.6666071754164445e-21 1.9263208795114107e-13 1.9252985881721439e-13 1.0222913392669299e-16
2.039501978296691 3.823769464238239e-21 2.070071111401483e-13 2.0686273745715817e-13 1.4437368299010798e-16
2.1016163906111602 3.9891146843507434e-21 2.2253555142994682e-13 2.223340639290841e-13 2.0148750086269476e-16
2.1656225393682647 4.162911199031935e-21 2.3930366099745696e-13 2.390256882402362e-13 2.77972757220791e-16
2.231578038680979 4.344051351347933e-21 2.57321729846786e-13 2.5694251666549264e-13 3.792131812933569e-16
2.299542257339062 4.531987887494412e-21 2.7663018569647773e-13 2.761184776592435e-13 5.117080372341552e-16
2.369576372248914 4.726565744363746e-21 2.972937963714451e-13 2.966105826194333e-13 6.832137520116913e-16
2.4417434235010123 4.9277153839974466e-21 3.1938541184001427e-13 3.184825639299257e-13 9.02847910088495e-16
2.5161083711144245 5.136237017391048e-21 3.4303926426129805e-13 3.418580366074351e-13 1.1812276538628567e-15
2.5927381535095444 5.354111593580702e-21 3.6848134887964493e-13 3.6695080129477785e-13 1.5305475848670269e-15
2.6717017477616296 5.582957087270729e-21 3.9593299702050687e-13 3.939684478099457e-13 1.9645492105611614e-15
2.753070231689431 5.82568026583941e-21 4.2572913158607777e-13 4.2323060201652133e-13 2.498529569556403e-15
2.836916847834745 6.0918057559059e-21 4.587352215929348e-13 4.555858176902656e-13 3.1494039026692382e-15
2.9233170693905177 6.4035937819776566e-21 4.969001521614448e-13 4.92965338166116e-13 3.93481399532881e-15
2.967498994190263 6.5992525876297015e-21 5.19822130485018e-13 5.154468084358869e-13 4.3753220491309355e-15
3.0123486681368425 6.809275586476601e-21 5.444720403679696e-13 5.396132545091516e-13 4.8587858588182005e-15
3.0578761833420214 7.170276186938407e-21 5.820029871912169e-13 5.76612747696626e-13 5.390239494591011e-15
3.1040917844459814 7.597551300722374e-21 6.260047501293621e-13 6.200367740582628e-13 5.96797607109939e-15
3.127460860933648 8.005409914609655e-21 6.645763637550369e-13 6.58299291444902e-13 6.277072310134841e-15
3.1510058709225794 8.52770154794885e-21 7.132645471543441e-13 7.066654593939463e-13 6.599087760397883e-15
3.162844764501044 9.005104879034918e-21 7.560248751612242e-13 7.492592104020622e-13 6.7656647591617646e-15
3.1747281389236908 9.546851936606153e-21 8.045187339127491e-13 7.975831520920584e-13 6.935581820690581e-15
3.1986289994194426 1.1020091555196169e-20 9.356609533436109e-13 9.283744684991455e-13 7.286484844465723e-15
3.2227097969389145 1.444898102759658e-20 1.2360267026440189e-12 1.2283685649712283e-12 7.658137672790781e-15
3.2348180950136065 1.767278812313288e-20 1.5174848629708965e-12 1.509628434710705e-12 7.856428260191222e-15
3.240889293275058 2.0082564215649175e-20 1.727638181009049e-12 1.7196771594098507e-12 7.961021599198281e-15
3.2469718861334385 2.2875655374833566e-20 1.9716122442188137e-12 1.9635429994085017e-12 8.069244810311733e-15
3.2714166318528037 3.7550454190800473e-20 3.260772387669228e-12 3.252256053238762e-12 8.516334430466513e-15
3.2744851364798273 3.8467239896778843e-20 3.3435165895188356e-12 3.3349476056995005e-12 8.568983819334216e-15
3.2775565192852394 3.940868750335102e-20 3.428558733598964e-12 3.4199368408514073e-12 8.621892747555866e-15
3.283707930232385 3.85017642819297e-20 3.3559430760630863e-12 3.3472266435096596e-12 8.716432553426357e-15
3.2898708863219004 3.562302537698405e-20 3.1108501196397257e-12 3.1020477227167828e-12 8.802396922942145e-15
3.29141343181113 3.4942713521885327e-20 3.052871311921457e-12 3.04404733075703e-12 8.823981164427e-15
3.292184975758714 3.4608217633070135e-20 3.0243558869053738e-12 3.0155210996327006e-12 8.834787272673378e-15
3.295272960557952 3.2521426111936013e-20 2.8446602855153844e-12 2.835783478148147e-12 8.876807367237292e-15
3.3076538914384823 2.523936867872052e-20 2.2159909368719287e-12 2.2069453929935918e-12 9.045543878337031e-15
3.310756385682612 2.3742385327614558e-20 2.0865125801115986e-12 2.0774245123398933e-12 9.088067771705304e-15
3.313861789986515 2.2355355443701664e-20 1.9664613002788698e-12 1.95733057250489e-12 9.130727773979732e-15
3.3200813396944477 2.0416942764908103e-20 1.7993219092060038e-12 1.7900993906578436e-12 9.222518548160074e-15
3.345076488085796 1.7021132500460897e-20 1.5113461299328787e-12 1.5017144677046487e-12 9.631662228230174e-15
3.3482140837626964 1.7156695014558033e-20 1.5248119364409388e-12 1.515124845799049e-12 9.687090641888936e-15
3.3513546224236106 1.729351289653335e-20 1.5384133506851612e-12 1.5286705858625913e-12 9.742764822569767e-15
3.3576445397418455 1.8262762049797806e-20 1.627685935693378e-12 1.6178267566999345e-12 9.859178993443512e-15
3.3702598118196083 2.1782062057368728e-20 1.9486408644936424e-12 1.9385375091987417e-12 1.010335529490107e-14
3.382922481734668 2.261644415750016e-20 2.0308872066666836e-12 2.0205466145341974e-12 1.0340592132486189e-14
3.389271646505754 2.304676635607342e-20 2.0734129684578433e-12 2.062952148964937e-12 1.0460819492906329e-14
3.395632727569191 2.3519838255226084e-20 2.1199444184011478e-12 2.1093596973187797e-12 1.0584721082368043e-14
3.421196662673239 2.5815696003019063e-20 2.344397831927538e-12 2.3333003238820165e-12 1.1097508045521351e-14
3.4276182099114902 2.539473856602256e-20 2.310498126497947e-12 2.2992862889488523e-12 1.1211837549094029e-14
3.4340518103208963 2.3494504637065248e-20 2.1416207642046803e-12 2.1303008431459245e-12 1.1319921058755541e-14
3.4469541582030403 2.076767086161443e-20 1.9001712066873056e-12 1.888643939337317e-12 1.1527267349989297e-14
3.472904465399547 2.0003201043522357e-20 1.8440036212637604e-12 1.8319985617880853e-12 1.2005059475674397e-14
3.4990501388274233 1.8850508580429963e-20 1.7508247228428637e-12 1.7383309758957258e-12 1.2493746947137971e-14
3.5253949054701885 1.4783802863251446e-20 1.3834496836387727e-12 1.3704815679691035e-12 1.2968115669669107e-14
3.5519380250092896 1.0913850497069162e-20 1.028993929997095e-12 1.0155493470537003e-12 1.3444582943394701e-14
3.578680990867387 9.398356779231095e-21 8.927797830273883e-13 8.788130249029749e-13 1.3966758124413507e-14
3.605625307711299 8.809335553568636e-21 8.431273534692932e-13 8.286108475337314e-13 1.4516505935561754e-14
3.660119384959845 8.424588625616678e-21 8.184900189100619e-13 8.028194668458159e-13 1.5670552064246173e-14
3.715437065384467 8.159039863195481e-21 8.046710881082869e-13 7.877853232390652e-13 1.688576486922177e-14
3.8285932144167436 8.10610405367363e-21 8.237981884194795e-13 8.043055357105403e-13 1.9492652708938816e-14
3.94519561050918 8.169045609299476e-21 8.554788857766826e-13 8.331509950737998e-13 2.2327890702882683e-14
4.06534921144712 8.269571272909674e-21 8.923809380882381e-13 8.669947124731221e-13 2.5386225615115955e-14
4.189162171576248 8.384781390666595e-21 9.323701269470946e-13 9.036988766315494e-13 2.8671250315544906e-14
4.316745939156006 8.505329020416929e-21 9.745789812530247e-13 9.42410753063735e-13 3.2168228189289857e-14
4.448215356677963 8.627411182902619e-21 1.0186752045387753e-12 9.828494812739742e-13 3.5825723264801305e-14
4.58368876423945 8.750695957622886e-21 1.0646997416177361e-12 1.0250541053197388e-12 3.9645636297997126e-14
4.723288106065518 8.877260882900992e-21 1.112994076780122e-12 1.0693447422754975e-12 4.364933450462467e-14
4.867139040275056 9.010413476972287e-21 1.1640936138058496e-12 1.1163677400330624e-12 4.7725873772787473e-14
4.940699165968905 9.086039456291798e-21 1.1916053993944628e-12 1.1418021471699864e-12 4.9803252224476676e-14
5.015371051989984 9.158747798524983e-21 1.2192944644965629e-12 1.1673946983345912e-12 5.189976616197171e-14
5.091171501069577 9.248843270017993e-21 1.249898019659972e-12 1.1958366493106501e-12 5.406137034932164e-14
5.129500256944802 9.292694433491579e-21 1.2652785502258676e-12 1.2101316736107386e-12 5.514687661512886e-14
5.168117569889187 9.337550935120373e-21 1.2809577388156695e-12 1.224711346731655e-12 5.6246392084014254e-14
5.20702561229733 9.397129872247585e-21 1.2988361748023464e-12 1.241387028224878e-12 5.744914657746845e-14
5.246226572918644 9.45645862377763e-21 1.3168763634095558e-12 1.2582182870805151e-12 5.865807632904115e-14
5.265937586045735 9.486039517898536e-21 1.3259589222061928e-12 1.2666942356888353e-12 5.926468651735706e-14
5.285722656980489 9.51557055250909e-21 1.335084145507648e-12 1.2752115106464886e-12 5.987263486115937e-14
5.305582063971359 9.545056253411221e-21 1.344252836793162e-12 1.2837709851707429e-12 6.048185162241908e-14
5.3255160863122235 9.577387713317857e-21 1.3538738590861777e-12 1.292776531350696e-12 6.109732773548151e-14
5.365609099470188 9.664336557492115e-21 1.376450217045891e-12 1.3140793369943713e-12 6.23708800515197e-14
5.406003951863644 9.75244713756404e-21 1.3994564780718796e-12 1.3358059104079403e-12 6.365056766393918e-14
5.446702915881641 9.841841873763992e-21 1.4229167899682721e-12 1.3579809575408632e-12 6.493583242740906e-14
5.487708281020852 9.938162418433293e-21 1.4476598843512203e-12 1.381428029491312e-12 6.62318548599085e-14
5.529022354014368 1.0085154021215455e-20 1.4801315432939427e-12 1.412548752590382e-12 6.758279070356043e-14
5.570647458961463 1.0237624845150731e-20 1.5138202791644186e-12 1.444880319844837e-12 6.89399593195815e-14
5.612585937458331 1.039606814535328e-20 1.5488221624987276e-12 1.4785193704217733e-12 7.030279207695451e-14
5.654840148729818 1.0569329933011394e-20 1.5864895686561128e-12 1.514811795427204e-12 7.167777322890856e-14
5.67608639626678 1.0695489896303522e-20 1.611458450050575e-12 1.5390607344843313e-12 7.239771556624384e-14
5.686739436050992 1.0760039890890282e-20 1.6242266946542624e-12 1.5514683540108995e-12 7.275834064336262e-14
5.6974124697621304 1.082560344461239e-20 1.6371904743018075e-12 1.5640710846271163e-12 7.311938967469086e-14
5.718818669136295 1.0959875728642113e-20 1.6637244120981144e-12 1.589881688662569e-12 7.384272343554509e-14
5.740305295436557 1.1108906628007874e-20 1.692683420065024e-12 1.6181101250979138e-12 7.457329496711029e-14
5.7835210386641895 1.1507731314081838e-20 1.7666538577878683e-12 1.6905708640274732e-12 7.608299376039503e-14
5.827062130521658 1.1961934000171775e-20 1.8502076984381993e-12 1.772593631652104e-12 7.761406678609504e-14
5.8489554468988025 1.2292690884263729e-20 1.9085111745820183e-12 1.830068397137456e-12 7.844277744456335e-14
5.870931020387893 1.2643555806193804e-20 1.970360264043929e-12 1.8910857849835705e-12 7.92744790603581e-14
5.892989160043636 1.3016118386923896e-20 2.0360412161993655e-12 1.9559321149010425e-12 8.010910129832299e-14
5.915130176081913 1.3440189968639903e-20 2.1102754520932056e-12 2.029300580968781e-12 8.097487112442388e-14
5.95966208400165 1.4647875692968547e-20 2.3172117097875267e-12 2.234252365805096e-12 8.295934398243014e-14
6.004529249263818 1.6392572513165964e-20 2.6127358911342674e-12 2.5275368765624514e-12 8.519901457181655e-14
6.027089341400364 1.7611971006324606e-20 2.817636886128701e-12 2.7311379341168636e-12 8.649895201183777e-14
6.049734195844842 1.9043074344864313e-20 3.058037379565207e-12 2.970160196902362e-12 8.787718266284458e-14
6.095279466722835 2.3186113945122084e-20 3.751379679117324e-12 3.660094747409216e-12 9.128493170810925e-14
6.141167624020661 2.952453921227165e-20 4.812863150258027e-12 4.7171305870057435e-12 9.57325632522831e-14
6.164241091010745 3.3567136222697234e-20 5.4924149455921775e-12 5.393878953412552e-12 9.85359921796255e-14
6.187401249150058 3.812003554592884e-20 6.2608170122327955e-12 6.159404536472319e-12 1.0141247576047608e-13
6.1990139391386085 4.0331639704203154e-20 6.636482061060434e-12 6.533606364830489e-12 1.0287569622994512e-13
6.204828454712694 4.1492243897718804e-20 6.833860891647367e-12 6.730246373156108e-12 1.0361451849125839e-13
6.210648424152782 4.23306807720814e-20 6.978492742318706e-12 6.874251433740422e-12 1.0424130857828244e-13
6.233982942956859 4.5139165853780316e-20 7.469449097578987e-12 7.36303388654683e-12 1.0641521103215865e-13
6.239830258556775 4.547498728200867e-20 7.532077762533351e-12 7.425369463345358e-12 1.0670829918799376e-13
6.245683058788269 4.5466451143881866e-20 7.537727480519926e-12 7.430725709475481e-12 1.0700177104444666e-13
6.257405133728602 4.530281458852728e-20 7.524694840023062e-12 7.41718440852704e-12 1.0751043149601941e-13
6.269149208991335 4.464182048536724e-20 7.428821721620579e-12 7.32114862075841e-12 1.0767310086216876e-13
6.280915325867298 4.3112153290223764e-20 7.187735487582017e-12 7.080327249035927e-12 1.074082385460913e-13
6.304513850009849 3.9393473243470306e-20 6.592426698592529e-12 6.485934571519057e-12 1.0649212707347115e-13
6.32820103803542 3.486028294048022e-20 5.8557241296310344e-12 5.750559178053517e-12 1.0516495157751837e-13
6.3519772230701035 3.072304851424788e-20 5.18015400970869e-12 5.0761850186357135e-12 1.0396899107297911e-13
6.375842739491607 2.7234790584839854e-20 4.609258549340136e-12 4.5063507080596215e-12 1.0290784128051484e-13
6.399797922933955 2.445751426201123e-20 4.154779782276015e-12 4.052446378812148e-12 1.0233340346386691e-13
6.42384311029221 2.2138762457029158e-20 3.775006459479247e-12 3.673150322587138e-12 1.018561368921088e-13
6.447978639727206 2.0447978983720568e-20 3.499801502593992e-12 3.3980436975604764e-12 1.017578050335153e-13
6.472204850670314 1.9031822520613548e-20 3.269656028025235e-12 3.1679215744470724e-12 1.0173445357816349e-13
6.496522083828205 1.810042537616021e-20 3.1213260250383824e-12 3.019308438305282e-12 1.020175867331009e-13
