Dust emission spectrum from A.P. Jones, M. Kohler, N. Ysard, M. Bocchio, and L. Verstraete (2017), A&A, 602A, 46J 
inside the DustPedia framework.

lambda    nu*dP/dnu     j_nu    j_nu(carb.) j_nu(sil)
 (um)   (erg s-1 H-1) (Jy cm2 sr-1 H-1)
0.9927057738263894 6.212950467205183e-24 1.6371477369627227e-16 1.637147736526191e-16 4.365320293187579e-26
1.0001793341362166 6.31553378490175e-24 1.676707753526398e-16 1.6767077530006908e-16 5.257076621208632e-26
1.0077091589558085 6.417985673667447e-24 1.7167354774221394e-16 1.7167354767898624e-16 6.322769646547839e-26
1.0114953028030835 6.4691499704565516e-24 1.7369228263362256e-16 1.7369228256431563e-16 6.93068932740495e-26
1.0152956718711033 6.5202666172396836e-24 1.7572247943357671e-16 1.7572247935763096e-16 7.59457792871197e-26
1.0229392996569957 6.622287213050357e-24 1.798155763362173e-16 1.7981557624511327e-16 9.110403326118834e-26
1.0267826658714554 6.673067560268703e-24 1.818751996915779e-16 1.818751995918408e-16 9.973712560993668e-26
1.0306404723013447 6.723778236466797e-24 1.8394585542118461e-16 1.8394585531203205e-16 1.0915257487097245e-25
1.03451277320114 6.774414457531827e-24 1.8602745881733562e-16 1.8602745869791783e-16 1.194177748014595e-25
1.0383996230291617 6.824971467214376e-24 1.881199241339883e-16 1.8811992400338267e-16 1.3060559929934e-25
1.0403485208654093 6.850218789310286e-24 1.8917020293846298e-16 1.8917020280189301e-16 1.3656986938152986e-25
1.0423010764483396 6.875444538069984e-24 1.9022316460919492e-16 1.9022316446640007e-16 1.4279481950425525e-25
1.0462171883269815 6.925828972380854e-24 1.923370924875982e-16 1.9233709233152763e-16 1.560705502874757e-25
1.0471985131304309 6.938410683888244e-24 1.9286723398735434e-16 1.9286723382778442e-16 1.5956986701307547e-25
1.048180758391296 6.950986491145908e-24 1.933980365133617e-16 1.9339803635021741e-16 1.6314430705950825e-25
1.0501480137395462 6.976120103057573e-24 1.9446161904297733e-16 1.9446161887245255e-16 1.7052472801862797e-25
1.0521189612883777 7.001229229660019e-24 1.9552782883767643e-16 1.95527828659452e-16 1.7822445490622685e-25
1.0531058218030118 7.013755211938032e-24 1.9606137819176815e-16 1.960613780095698e-16 1.821984027402482e-25
1.0540936079674168 7.026211890241968e-24 1.9659381730321742e-16 1.9659381711695943e-16 1.8625802328682388e-25
1.058054026499678 7.07597119921226e-24 1.9872995485620822e-16 1.9872995465282824e-16 2.03379893228417e-25
1.0590464539527713 7.088393820674406e-24 1.9926557730448592e-16 1.9926557709659555e-16 2.0789024479914063e-25
1.06003981227728 7.100809418410973e-24 1.9980183207829227e-16 1.99801831865796e-16 2.124962865891249e-25
1.0620293250338977 7.125619260976104e-24 2.0087623277894066e-16 2.0087623255693748e-16 2.2200320126137036e-25
1.0660195594769086 7.175151570124781e-24 2.0303255784434368e-16 2.0303255760209095e-16 2.4225277622934774e-25
1.070024785945596 7.22456365696531e-24 2.051988359938309e-16 2.0519883572956773e-16 2.642632154548188e-25
1.0740450607676866 7.273851088288644e-24 2.073749723601379e-16 2.073749720719583e-16 2.881795977710766e-25
1.07808044048254 7.323009468117695e-24 2.0956087129015365e-16 2.095608709759954e-16 3.1415824451913055e-25
1.0861967418109137 7.420835075170573e-24 2.1395907343103607e-16 2.139590730580473e-16 3.729888020008723e-25
1.0902777775684922 7.469296765663879e-24 2.1616546337447635e-16 2.1616546296825918e-16 4.06217270503521e-25
1.0943741465085532 7.517608768569421e-24 2.1838106427618893e-16 2.1838106383392614e-16 4.42262806679001e-25
1.1026131145906286 7.613767055361336e-24 2.2283949835460697e-16 2.2283949783088147e-16 5.237254486877974e-25
1.1109141095355224 7.709277046597005e-24 2.2733356832067176e-16 2.2733356770127726e-16 6.193945751571128e-25
1.1192775983109025 7.804018220693722e-24 2.318598333903114e-16 2.3185983265871163e-16 7.315997821313723e-25
1.1277040513999907 7.897553373761405e-24 2.3640526438927414e-16 2.3640526352624724e-16 8.630269151872228e-25
1.1361939428280308 7.990333178102849e-24 2.4098321355442426e-16 2.4098321253765616e-16 1.0167680742825676e-24
1.1447477501889525 8.082327838337417e-24 2.4559283600535594e-16 2.4559283480897733e-16 1.1963785520869061e-24
1.1533659546722406 8.173557887075962e-24 2.502347981735433e-16 2.5023479676760063e-16 1.4059426989374953e-24
1.1707974979042381 8.35401892893722e-24 2.5962509811244245e-16 2.596250961780793e-16 1.9343631424443423e-24
1.1884924949847024 8.531048497257615e-24 2.6913382733057077e-16 2.691338246823917e-16 2.6481791568411095e-24
1.2064549276569216 8.70602664998703e-24 2.788049800312972e-16 2.7880497642363376e-16 3.6076634295069796e-24
1.2246888378427687 8.877070130381478e-24 2.885790793293533e-16 2.885790744384517e-16 4.8909016035263905e-24
1.2431983285522175 9.043789434714958e-24 2.9844224123357583e-16 2.98442234634869e-16 6.5987067626221054e-24
1.2619875648066055 9.206135527072162e-24 3.0839112595775574e-16 3.083911170971865e-16 8.860569263069358e-24
1.3004222497298317 9.515081814027676e-24 3.28447795593091e-16 3.2844777984040787e-16 1.575268313376133e-23
1.3400274889804893 9.802804040891257e-24 3.486851579098188e-16 3.4868513041381305e-16 2.749600567166404e-23
1.3808389325824078 1.0068350246022862e-23 3.690377309654653e-16 3.690376838234644e-16 4.714200081322514e-23
1.4228933163050095 1.0313082395146789e-23 3.8952044701989007e-16 3.8952036759017336e-16 7.942971674351139e-23
1.466228494730424 1.0542824219997338e-23 4.1032507164738144e-16 4.1032494006106245e-16 1.315863189379455e-22
1.5108834753276823 1.0753394491155764e-23 4.312667566109112e-16 4.31266542182694e-16 2.144282172640593e-22
1.5568984535646726 1.094143249051088e-23 4.521722493665824e-16 4.521719052943699e-16 3.4407221251143757e-22
1.6043148490894465 1.1107386944444953e-23 4.730106703070917e-16 4.730101256625083e-16 5.446445835951351e-22
1.6531753430134553 1.1251857514131685e-23 4.937562160723433e-16 4.937553665578173e-16 8.495145262511435e-22
1.7035239163302658 1.1376518109778791e-23 5.144308804483608e-16 5.144295744992648e-16 1.3059490960470268e-21
1.755405889504358 1.1490458173724587e-23 5.354073519041746e-16 5.354053722153094e-16 1.9796888653140805e-21
1.8088679632656115 1.1591593472322235e-23 5.565695492515817e-16 5.565665889430482e-16 2.9603085336893125e-21
1.8639582606462262 1.1678525446805615e-23 5.778214070089547e-16 5.778170386428666e-16 4.368366088116212e-21
1.9207263702978936 1.1752436554933643e-23 5.991876416550862e-16 5.991812779926125e-16 6.36366247385841e-21
1.979223391128241 1.1815940097966144e-23 6.207725843765392e-16 6.207634291488789e-16 9.155227660372844e-21
2.039501978296691 1.1872115441658099e-23 6.427197935662128e-16 6.427067810764986e-16 1.3012489714307349e-20
2.1016163906111602 1.1929508469577299e-23 6.654959698150876e-16 6.654776904690004e-16 1.8279346087223827e-20
2.1656225393682647 1.1993063758151178e-23 6.894175558126001e-16 6.893921683123125e-16 2.538750028753284e-20
2.231578038680979 1.2063082587358734e-23 7.145618289481342e-16 7.145269571770005e-16 3.487177113395912e-20
2.299542257339062 1.2142464413094962e-23 7.41169718188368e-16 7.411223314998086e-16 4.73866885593549e-20
2.369576372248914 1.2237620250217084e-23 7.697277007259426e-16 7.696639759627056e-16 6.372476323706714e-20
2.4417434235010123 1.2356107262444525e-23 8.008499069509737e-16 8.007650746579728e-16 8.483229300113694e-20
2.5161083711144245 1.2510922842222403e-23 8.355801635505186e-16 8.35468334047229e-16 1.1182950328958438e-19
2.5927381535095444 1.2723360930061717e-23 8.756487637300584e-16 8.755027373902542e-16 1.4602633980430833e-19
2.6717017477616296 1.3018668158437866e-23 9.232598819249695e-16 9.230709531398733e-16 1.8892878509621884e-19
2.753070231689431 1.343485819700959e-23 9.817927267195918e-16 9.815504764127501e-16 2.422503068417118e-19
2.836916847834745 1.4058441208237563e-23 1.0586519664813368e-15 1.0583440372053688e-15 3.079292759680327e-19
2.9233170693905177 1.5080075406829202e-23 1.1701697545757345e-15 1.169781691008769e-15 3.8806356696554586e-19
2.967498994190263 1.5928526926065942e-23 1.254687662314431e-15 1.2542541355284213e-15 4.3352678601041837e-19
3.0123486681368425 1.6914697506007565e-23 1.3525050860907162e-15 1.3520214151003827e-15 4.836709903335211e-19
3.0578761833420214 1.908683214645881e-23 1.5492559889801908e-15 1.5487169407909749e-15 5.390481892154112e-19
3.1040917844459814 2.1875772029608387e-23 1.8024672241409983e-15 1.8018676049476578e-15 5.996191933408045e-19
3.127460860933648 2.4810910332706448e-23 2.0597002210056492e-15 2.059068048088966e-15 6.321729166831195e-19
3.1510058709225794 2.871549753590189e-23 2.4017897707950597e-15 2.4011235752061873e-15 6.661955888716805e-19
3.162844764501044 3.2345819427022653e-23 2.71559792171161e-15 2.7149140845948417e-15 6.838371167677817e-19
3.1747281389236908 3.656427587208193e-23 3.0812926738969894e-15 3.080590812176891e-15 7.0186172009910695e-19
3.1986289994194426 4.8320578192559267e-23 4.102659041561808e-15 4.1019198664656154e-15 7.391750961922444e-19
3.2227097969389145 7.601594828538811e-23 6.502724429362429e-15 6.501945621005672e-15 7.788083567559407e-19
3.2348180950136065 1.0227141136503616e-22 8.78159787690593e-15 8.780797893436746e-15 7.9998346918503985e-19
3.240889293275058 1.2190012266010002e-22 1.0486674107740054e-14 1.0485862954322267e-14 8.111534177876382e-19
3.2469718861334385 1.4460886052407472e-22 1.2463581714273425e-14 1.2462759002588033e-14 8.227116853985513e-19
3.2714166318528037 2.656899923092668e-22 2.3071747313627866e-14 2.307087675943496e-14 8.705541929073809e-19
3.2744851364798273 2.732601529216577e-22 2.375137537810513e-14 2.3750499164063332e-14 8.762140418013354e-19
3.2775565192852394 2.810473653707741e-22 2.4451141617314966e-14 2.4450259713077723e-14 8.819042372432625e-19
3.283707930232385 2.735633695302502e-22 2.3844702001627797e-14 2.3843809877752615e-14 8.92123875182583e-19
3.2898708863219004 2.4982065274604917e-22 2.181607539671909e-14 2.181517393200709e-14 9.014647119992396e-19
3.29141343181113 2.4422118079056434e-22 2.1337090381722308e-14 2.133618657039078e-14 9.038113315326134e-19
3.292184975758714 2.414697466370571e-22 2.1101648674721072e-14 2.1100743688365004e-14 9.049863560736335e-19
3.295272960557952 2.241072462750179e-22 1.9602737622283436e-14 1.9601828057698507e-14 9.095645849265467e-19
3.3076538914384823 1.6394530937561847e-22 1.4394231660213306e-14 1.439330368615111e-14 9.279740621955748e-19
3.310756385682612 1.51697251402257e-22 1.3331357361596753e-14 1.3330424742885566e-14 9.326187111865062e-19
3.313861789986515 1.4039511245544582e-22 1.2349683103326216e-14 1.2348745822996812e-14 9.372803294036844e-19
3.3200813396944477 1.245472713219779e-22 1.0976209151481554e-14 1.0975261862948889e-14 9.472885326653794e-19
3.345076488085796 9.629531731504019e-23 8.550286248626742e-15 8.549294405202343e-15 9.918434244007515e-19
3.3482140837626964 9.735814245961458e-23 8.65276544265492e-15 8.651767565208909e-15 9.978774460099322e-19
3.3513546224236106 9.843266137100891e-23 8.756469625496811e-15 8.755465684515774e-15 1.003940981038585e-18
3.3576445397418455 1.0627246670763251e-22 9.471634079214831e-15 9.470617467794656e-15 1.0166114201742344e-18
3.3702598118196083 1.3517248987807247e-22 1.2092640120022882e-14 1.209159692662172e-14 1.0431934011588442e-18
3.382922481734668 1.4176681145675874e-22 1.2730224155152193e-14 1.2729155044118082e-14 1.0691110341106583e-18
3.389271646505754 1.451826849557509e-22 1.306142723590617e-14 1.3060344972054534e-14 1.082263851639789e-18
3.395632727569191 1.4886559270493806e-22 1.3417897645477599e-14 1.3416801826103053e-14 1.095819374543615e-18
3.421196662673239 1.6655440388915712e-22 1.5125285924116066e-14 1.5124133899539968e-14 1.1520245760918798e-18
3.4276182099114902 1.630052174069649e-22 1.483075907432629e-14 1.4829594418796793e-14 1.1646555294916595e-18
3.4340518103208963 1.4742830983434199e-22 1.3438697025121325e-14 1.3437520380282664e-14 1.1766448386619833e-18
3.4469541582030403 1.2523992847903738e-22 1.1459027235610982e-14 1.1457827491684891e-14 1.1997439260930192e-18
3.472904465399547 1.1903075545406005e-22 1.0972900968274095e-14 1.097164813509005e-14 1.2528331840412883e-18
3.4990501388274233 1.0953171680088155e-22 1.0173244763777742e-14 1.0171937399649098e-14 1.307364128644336e-18
3.5253949054701885 7.570510245850934e-23 7.08438830082121e-15 7.083027637913096e-15 1.3606629081124827e-18
3.5519380250092896 4.389792954523778e-23 4.138842020386854e-15 4.137427523791008e-15 1.4144965958465958e-18
3.578680990867387 3.129475176867745e-23 2.9727879405128968e-15 2.9713143927006805e-15 1.4735478122168143e-18
3.605625307711299 2.6207193716551972e-23 2.508248408263042e-15 2.506712501936027e-15 1.535906327014089e-18
3.660119384959845 2.251635520551702e-23 2.1875741139348826e-15 2.185906462068159e-15 1.6676518667231497e-18
3.715437065384467 1.9908698118273144e-23 1.9634606579034476e-15 1.9616530392284815e-15 1.8076186749665035e-18
3.8285932144167436 1.8629433814961522e-23 1.8932515208820675e-15 1.8911392593749456e-15 2.1122615071213477e-18
3.94519561050918 1.8429526148578853e-23 1.9299770437112864e-15 1.9275267284105622e-15 2.450315300724595e-18
4.06534921144712 1.8671777858741392e-23 2.0148975190458874e-15 2.01207458490983e-15 2.822934136057034e-18
4.189162171576248 1.9169209302391717e-23 2.131575920469585e-15 2.1283435169594366e-15 3.232403510148253e-18
4.316745939156006 1.9851789106292222e-23 2.27470758119029e-15 2.2710284877202957e-15 3.6790934699940246e-18
4.448215356677963 2.0695708512646095e-23 2.4436304999551104e-15 2.4394714393272984e-15 4.1590606278122104e-18
4.58368876423945 2.1703320038379117e-23 2.6406493093820617e-15 2.6359745439253475e-15 4.6747654567140426e-18
4.723288106065518 2.2896364703968812e-23 2.8706510523307953e-15 2.8654197540038765e-15 5.2312983269186465e-18
4.867139040275056 2.431861079083617e-23 3.1418246887994044e-15 3.136006878825421e-15 5.817809973982917e-18
4.940699165968905 2.517150197888186e-23 3.301163043941416e-15 3.2950384795780405e-15 6.124564363375953e-18
5.015371051989984 2.6052463601639502e-23 3.46833708654944e-15 3.461897259678975e-15 6.439826870465084e-18
5.091171501069577 2.712366771226779e-23 3.665519846073971e-15 3.658749975870825e-15 6.7698702031452244e-18
5.129500256944802 2.7672465358195723e-23 3.767839037448874e-15 3.760900988140397e-15 6.938049308478223e-18
5.168117569889187 2.824392119843303e-23 3.8745994195924914e-15 3.867489748485822e-15 7.109671106668666e-18
5.20702561229733 2.8944503365017144e-23 4.000601092382351e-15 3.993305693904269e-15 7.295398478080798e-18
5.246226572918644 2.966214691928724e-23 4.130656276311911e-15 4.123172439486763e-15 7.483836825147425e-18
5.265937586045735 3.002753687370822e-23 4.197250112066709e-15 4.1896710449131976e-15 7.579067153512105e-18
5.285722656980489 3.039739939206555e-23 4.264913571820396e-15 4.257238603298794e-15 7.674968521603243e-18
5.305582063971359 3.077180676431109e-23 4.3336662915310835e-15 4.3258947529918975e-15 7.771538539185346e-18
5.3255160863122235 3.1173940079791926e-23 4.406794819432871e-15 4.398925424544137e-15 7.869394888733958e-18
5.365609099470188 3.217556278381354e-23 4.582628110464577e-15 4.5745561710397295e-15 8.071939424848224e-18
5.406003951863644 3.3214229820620885e-23 4.766174933427664e-15 4.757897490092293e-15 8.27744333537097e-18
5.446702915881641 3.4291738479990694e-23 4.9578413335875476e-15 4.949355441634451e-15 8.485891953097943e-18
5.487708281020852 3.545524009519434e-23 5.164649823055045e-15 5.155951820427134e-15 8.698002627911901e-18
5.529022354014368 3.7074011479797607e-23 5.441108158809929e-15 5.432188657473172e-15 8.919501336758606e-18
5.570647458961463 3.878655809946978e-23 5.735302777555706e-15 5.726158508644511e-15 9.144268911196399e-18
5.612585937458331 4.059964526720635e-23 6.048597363950709e-15 6.039225068879361e-15 9.37229507134681e-18
5.654840148729818 4.2591528930816035e-23 6.393122060728639e-15 6.383517563408875e-15 9.60449731976363e-18
5.67608639626678 4.394988978266868e-23 6.621802456524242e-15 6.612076588941953e-15 9.725867582290179e-18
5.686739436050992 4.4649816575410307e-23 6.7398843060606316e-15 6.730097408396422e-15 9.786897664210345e-18
5.6974124697621304 4.536401578439414e-23 6.8605445320693754e-15 6.850696374428651e-15 9.848157640725237e-18
5.718818669136295 4.6836606935647906e-23 7.109862216324205e-15 7.099890849286222e-15 9.971367037983184e-18
5.740305295436557 4.845992737664512e-23 7.383923400813755e-15 7.373827114848318e-15 1.00962859654383e-17
5.7835210386641895 5.267415665135693e-23 8.086476779308341e-15 8.076121684505243e-15 1.0355094803097837e-17
5.827062130521658 5.75258329242488e-23 8.897786840655226e-15 8.887166967390367e-15 1.0619873264859498e-17
5.8489554468988025 6.093326956306293e-23 9.460241615104218e-15 9.449479400618643e-15 1.0762214485573228e-17
5.870931020387893 6.458792850090704e-23 1.0065324170337823e-14 1.0054418363932973e-14 1.0905806404849112e-17
5.892989160043636 6.850968044821381e-23 1.0716599907491814e-14 1.0705549255476652e-14 1.1050652015164892e-17
5.915130176081913 7.296967965158971e-23 1.1457138929966901e-14 1.144593827869427e-14 1.1200651272631662e-17
5.95966208400165 8.544746991100947e-23 1.3517310086441734e-14 1.3505771642274668e-14 1.1538444167066246e-17
6.004529249263818 1.034327609826658e-22 1.6485666707984568e-14 1.647375013061478e-14 1.191657736978647e-17
6.027089341400364 1.1593755457591764e-22 1.8548175564413264e-14 1.8536042521602115e-14 1.2133042811145606e-17
6.049734195844842 1.307105063293353e-22 2.0990182940959895e-14 2.0977820947864376e-14 1.2361993095518554e-17
6.095279466722835 1.7338944765574558e-22 2.8053413868691135e-14 2.8040496206364244e-14 1.2917662326885333e-17
6.141167624020661 2.3906062609432794e-22 3.8969823364043547e-14 3.895619324913643e-14 1.3630114907111322e-17
6.164241091010745 2.8100346506046084e-22 4.597912735307057e-14 4.596505435974184e-14 1.40729933287381e-17
6.187401249150058 3.2876265589128267e-22 5.3995826591268853e-14 5.398129758507196e-14 1.4529006196886725e-17
6.1990139391386085 3.5208176812321717e-22 5.793427580214803e-14 5.791951449596067e-14 1.476130618736695e-17
6.204828454712694 3.6436367416496514e-22 6.001147273092639e-14 5.999659396120727e-14 1.487876971911878e-17
6.210648424152782 3.7332883367592134e-22 6.154572779807488e-14 6.153074791916514e-14 1.49798789097364e-17
6.233982942956859 4.0377942177460703e-22 6.681580796962644e-14 6.680047115528963e-14 1.5336814336804647e-17
6.239830258556775 4.076674889556713e-22 6.752246480090037e-14 6.750707515687295e-14 1.5389644027414627e-17
6.245683058788269 4.0799766966735946e-22 6.76405386667963e-14 6.762509605905575e-14 1.5442607740546607e-17
6.257405133728602 4.071451279053024e-22 6.762588309171878e-14 6.761034583038345e-14 1.5537261335330818e-17
6.269149208991335 4.011363673647552e-22 6.675289060373436e-14 6.673730919444784e-14 1.5581409286511572e-17
6.280915325867298 3.860913030635949e-22 6.436983422737738e-14 6.435427128033252e-14 1.556294704484762e-17
6.304513850009849 3.4899801584889815e-22 5.840418851159451e-14 5.838871930625154e-14 1.5469205342975478e-17
6.32820103803542 3.0303588618254835e-22 5.090304498942277e-14 5.088772998077229e-14 1.5315008650486988e-17
6.3519772230701035 2.608878198607531e-22 4.3987792601671865e-14 4.397261263536971e-14 1.5179966302147488e-17
6.375842739491607 2.2542210670179445e-22 3.815078986154871e-14 3.813572544015826e-14 1.506442139045571e-17
6.399797922933955 1.9700499612051067e-22 3.3466703366507764e-14 3.3451682055408005e-14 1.5021311099762106e-17
6.42384311029221 1.7337202331814962e-22 2.9562650992318715e-14 2.9547658380841935e-14 1.4992611476780916e-17
6.447978639727206 1.5615112237582378e-22 2.6726256573216095e-14 2.671123575883555e-14 1.50208143805449e-17
6.472204850670314 1.4180096937558684e-22 2.4361323977067155e-14 2.4346263446402716e-14 1.5060530664438147e-17
6.496522083828205 1.3247268063491898e-22 2.284423802641526e-14 2.282909128860518e-14 1.5146737810077783e-17
