Dust emission spectrum from A.P. Jones, M. Kohler, N. Ysard, M. Bocchio, and L. Verstraete (2017), A&A, 602A, 46J 
inside the DustPedia framework.

lambda    nu*dP/dnu     j_nu    j_nu(carb.) j_nu(sil)
 (um)   (erg s-1 H-1) (Jy cm2 sr-1 H-1)
0.9927057738263894 1.2720684561158937e-22 3.3519726339112665e-15 3.3519725027453936e-15 1.3116587364046932e-22
1.0001793341362166 1.2934820411458253e-22 3.434058689736067e-15 3.4340585318486256e-15 1.5788744136728277e-22
1.0077091589558085 1.3149620866309645e-22 3.5173685021556694e-15 3.51736831235405e-15 1.8980161879362392e-22
1.0114953028030835 1.325725744715023e-22 3.559483576626074e-15 3.559483368627528e-15 2.0799854415240666e-22
1.0152956718711033 1.3365044878631082e-22 3.601906120839456e-15 3.601905892974953e-15 2.2786450350345975e-22
1.0229392996569957 1.3580947784370865e-22 3.687647295372827e-15 3.6876470221714694e-15 2.732013580608579e-22
1.0267826658714554 1.3688815893181062e-22 3.7309020201397455e-15 3.730901721129941e-15 2.990098038072541e-22
1.0306404723013447 1.3796810070125326e-22 3.774464209227715e-15 3.7744638820799465e-15 3.2714776920474605e-22
1.03451277320114 1.390492570509184e-22 3.818334426064204e-15 3.818334068249266e-15 3.578149371923686e-22
1.0383996230291617 1.4013158279639975e-22 3.862513250212008e-15 3.8625128589848764e-15 3.9122713096737793e-22
1.0403485208654093 1.4067317032937507e-22 3.8847185758112385e-15 3.88471816677647e-15 4.0903476901883873e-22
1.0423010764483396 1.4121503369545774e-22 3.907001278419829e-15 3.9070008508022964e-15 4.276175335027494e-22
1.0462171883269815 1.4229956647332464e-22 3.951799125688822e-15 3.951798658450828e-15 4.6723799221747375e-22
1.0471985131304309 1.4257086373424774e-22 3.9630470706301674e-15 3.963046592950962e-15 4.776792056365344e-22
1.048180758391296 1.4284222531418117e-22 3.974314428916067e-15 3.974313940572427e-15 4.88343639929044e-22
1.0501480137395462 1.4338513884784957e-22 3.996907426354959e-15 3.996906915994544e-15 5.10360414206208e-22
1.0521189612883777 1.4392830194825525e-22 4.019578200498721e-15 4.019577667173039e-15 5.333256824412859e-22
1.0531058218030118 1.4419960700059318e-22 4.030932478955957e-15 4.0309319337790964e-15 5.45176861492619e-22
1.0540936079674168 1.444697652606188e-22 4.0422724337319555e-15 4.042271876449447e-15 5.572825075750163e-22
1.058054026499678 1.4555094152575987e-22 4.087825010072542e-15 4.087824401744671e-15 6.083278703519868e-22
1.0590464539527713 1.458213683689227e-22 4.099261396370738e-15 4.099260774599141e-15 6.217715970602844e-22
1.06003981227728 1.4609184712609101e-22 4.11071710104097e-15 4.110716465541659e-15 6.354993120066138e-22
1.0620293250338977 1.4663295802360165e-22 4.133686509231021e-15 4.133685845401405e-15 6.638296172065757e-22
1.0660195594769086 1.477157770850688e-22 4.179857632613723e-15 4.179856908457466e-15 7.241562578626306e-22
1.070024785945596 1.4879936217011027e-22 4.226339106929086e-15 4.2263383172241344e-15 7.8970495267295025e-22
1.0740450607676866 1.4988367789153638e-22 4.273131685365038e-15 4.27313082446145e-15 8.60903587395257e-22
1.07808044048254 1.5096869003863366e-22 4.320236148781222e-15 4.320235210568236e-15 9.382129861616404e-22
1.0861967418109137 1.5313897342698838e-22 4.4153350032328204e-15 4.415333890046313e-15 1.113186507344043e-21
1.0902777775684922 1.542203181219171e-22 4.46321890460063e-15 4.463217692641303e-15 1.2119593273313457e-21
1.0943741465085532 1.5530216719507638e-22 4.511414945967367e-15 4.511413626902132e-15 1.3190652353182183e-21
1.1026131145906286 1.5746726923402445e-22 4.608747158697324e-15 4.608745597714747e-15 1.5609825768437737e-21
1.1109141095355224 1.5963407443514012e-22 4.707339423341541e-15 4.707337578473473e-15 1.8448680684483223e-21
1.1192775983109025 1.6180065618533166e-22 4.807148333674602e-15 4.807146156114093e-15 2.1775605079983853e-21
1.1277040513999907 1.6395884005313018e-22 4.907941877353618e-15 4.907939310417163e-15 2.566936455293094e-21
1.1361939428280308 1.6611798621822747e-22 5.010009627353581e-15 5.010006605298597e-15 3.022054983138607e-21
1.1447477501889525 1.6827798380932554e-22 5.1133619060789065e-15 5.11335835275751e-15 3.55332139658737e-21
1.1533659546722406 1.7043957797978392e-22 5.2180352773904244e-15 5.2180311047133776e-15 4.172677047448733e-21
1.1707974979042381 1.7477414662602375e-22 5.431607870569239e-15 5.4316021381785144e-15 5.7323907248706536e-21
1.1884924949847024 1.7911420751321426e-22 5.650617531105303e-15 5.650609695351113e-15 7.835754189446332e-21
1.2064549276569216 1.8348971957058555e-22 5.876141856388833e-15 5.8761311982613885e-15 1.0658127444428166e-20
1.2246888378427687 1.8786957389317345e-22 6.107333599014847e-15 6.107319172815944e-15 1.4426198902522248e-20
1.2431983285522175 1.922493123960285e-22 6.344167572814899e-15 6.344148140835007e-15 1.943197989303431e-20
1.2619875648066055 1.9663425802698394e-22 6.586939770383215e-15 6.586913720672485e-15 2.6049710730104137e-20
1.3004222497298317 2.0538713634706068e-22 7.0896870352620485e-15 7.08964087939636e-15 4.615586568636277e-20
1.3400274889804893 2.1414804910202866e-22 7.617233396255015e-15 7.617153112286887e-15 8.028396812848219e-20
1.3808389325824078 2.2294363731352776e-22 8.17160826123143e-15 8.171471106177059e-15 1.3715505437133258e-19
1.4228933163050095 2.318476683176507e-22 8.75678133300952e-15 8.756551087903968e-15 2.302451055512205e-19
1.466228494730424 2.410255340931339e-22 9.380676134012082e-15 9.380296135895762e-15 3.799981163208074e-19
1.5108834753276823 2.5045131359288435e-22 1.0044393497418924e-14 1.004377665246217e-14 6.168449567580855e-19
1.5568984535646726 2.601134291016624e-22 1.0749604718519083e-14 1.0748618823372567e-14 9.858951465132039e-19
1.6043148490894465 2.7007651903344295e-22 1.1501271715946203e-14 1.1499717349090933e-14 1.5543668552762781e-18
1.6531753430134553 2.8041140186140228e-22 1.2305068079002592e-14 1.230265354647738e-14 2.41453252521511e-18
1.7035239163302658 2.9120554614318998e-22 1.3167923968329163e-14 1.3164227634192335e-14 3.696334136828243e-18
1.755405889504358 3.0270024098294305e-22 1.410456676271068e-14 1.4098987400451994e-14 5.579362258681586e-18
1.8088679632656115 3.1490993487508623e-22 1.5120378481765257e-14 1.511207183006086e-14 8.30665170439121e-18
1.8639582606462262 3.2785032009311114e-22 1.6221134603628763e-14 1.620893158839413e-14 1.2203015234628268e-17
1.9207263702978936 3.415904530432858e-22 1.7415688824542185e-14 1.7397993013468947e-14 1.7695811073237267e-17
1.979223391128241 3.562264132340152e-22 1.871502303947261e-14 1.8689683288976127e-14 2.5339750496480345e-17
2.039501978296691 3.7185271484879276e-22 2.013096160487408e-14 2.009511763004108e-14 3.584397483300275e-17
2.1016163906111602 3.8868728659600384e-22 2.1683192011444884e-14 2.1633086007697567e-14 5.0106003747312105e-17
2.1656225393682647 4.068627012780824e-22 2.3388376375119722e-14 2.331913415739197e-14 6.924221772774742e-17
2.231578038680979 4.263874024280345e-22 2.525723917688369e-14 2.516261692452726e-14 9.462225235642746e-17
2.299542257339062 4.473353874415528e-22 2.730511960061259e-14 2.7177214518612025e-14 1.2790508200056567e-16
2.369576372248914 4.698342820173721e-22 2.9551861736602004e-14 2.938078417023939e-14 1.7107756636260462e-16
2.4417434235010123 4.94029420273141e-22 3.2020069658938404e-14 3.179358551037575e-14 2.2648414856265414e-16
2.5161083711144245 5.201660150951151e-22 3.4740874789808036e-14 3.4444009028787535e-14 2.968657610205008e-16
2.5927381535095444 5.486213385444791e-22 3.775728751963281e-14 3.7371903268486336e-14 3.853842511464756e-16
2.6717017477616296 5.7975379003394395e-22 4.111506716494416e-14 4.0619447317442614e-14 4.956198475015498e-16
2.753070231689431 6.140691612467216e-22 4.487495345124119e-14 4.4243374310406026e-14 6.315791408351649e-16
2.836916847834745 6.527965565352534e-22 4.915796481642284e-14 4.8360247920192187e-14 7.977168962306386e-16
2.9233170693905177 6.985730311331491e-22 5.420722445619284e-14 5.3208501655924545e-14 9.987228002682824e-16
2.967498994190263 7.26560389297948e-22 5.723105222534573e-14 5.6119276382062486e-14 1.1117758432832403e-15
3.0123486681368425 7.567487155148385e-22 6.050989006826273e-14 5.927389484755473e-14 1.2359952207079909e-15
3.0578761833420214 8.043137142366778e-22 6.528520967955712e-14 6.391252080229762e-14 1.3726888772594976e-15
3.1040917844459814 8.600408132541303e-22 7.086357341884817e-14 6.934207143287249e-14 1.5215019859756813e-15
3.127460860933648 9.097439526532886e-22 7.552321922942243e-14 7.392201524656747e-14 1.6012039828549653e-15
3.1510058709225794 9.724945028886977e-22 8.134030574508523e-14 7.965600633757326e-14 1.6842994075119355e-15
3.162844764501044 1.0279226504164714e-21 8.629939394329332e-14 8.457208581475552e-14 1.7273081285378112e-15
3.1747281389236908 1.0907493942049906e-21 9.191808226093143e-14 9.014688628986607e-14 1.7711959710653823e-15
3.1986289994194426 1.2605078180501883e-21 1.0702342542497317e-13 1.0516154360949125e-13 1.8618818154819142e-15
3.2227097969389145 1.6493935135624949e-21 1.410960691302255e-13 1.3913807506875984e-13 1.957994061465631e-15
3.2348180950136065 2.0131885262174277e-21 1.7286367570054207e-13 1.7085438607642422e-13 2.0092896241179194e-15
3.240889293275058 2.2844565089763926e-21 1.9652442015780095e-13 1.9448807333405763e-13 2.0363468237433476e-15
3.2469718861334385 2.5985632230995142e-21 2.2396556444350532e-13 2.2190122120844865e-13 2.0643432350567086e-15
3.2714166318528037 4.251523852824692e-21 3.6918998407758864e-13 3.67009930162425e-13 2.180053915163682e-15
3.2744851364798273 4.35525181292594e-21 3.785521583332846e-13 3.763584633968186e-13 2.1936949364658647e-15
3.2775565192852394 4.46178754560068e-21 3.881758471563284e-13 3.859684425806913e-13 2.207404575637226e-15
3.283707930232385 4.361712325822636e-21 3.801814943450134e-13 3.77949562592906e-13 2.23193175210731e-15
3.2898708863219004 4.040353294790163e-21 3.5283172603878553e-13 3.505774640436857e-13 2.254261995099828e-15
3.29141343181113 3.964452146753739e-21 3.463658372933629e-13 3.441059678234489e-13 2.25986946991406e-15
3.292184975758714 3.927139587422913e-21 3.4318634538903297e-13 3.409236684398354e-13 2.2626769491975455e-15
3.295272960557952 3.693450016627651e-21 3.230673385193487e-13 3.207937392823783e-13 2.273599236970302e-15
3.3076538914384823 2.8792537105709695e-21 2.5279555161613446e-13 2.504780786380457e-13 2.3174729780886784e-15
3.310756385682612 2.7122694136606653e-21 2.3835786397050593e-13 2.3602933132390324e-13 2.3285326466027487e-15
3.313861789986515 2.5577049563555816e-21 2.249853654472643e-13 2.2264573656768811e-13 2.339628879576092e-15
3.3200813396944477 2.342074077707957e-21 2.0640432064326946e-13 2.0404082917767029e-13 2.3634914655991728e-15
3.345076488085796 1.9670249412430675e-21 1.7465674110395767e-13 1.7218692006983632e-13 2.4698210341213137e-15
3.3482140837626964 1.9829957070037817e-21 1.7623997636985429e-13 1.7375575185873548e-13 2.4842245111188244e-15
3.3513546224236106 1.999114556781326e-21 1.778392014451816e-13 1.753405080633732e-13 2.4986933818084176e-15
3.3576445397418455 2.109406101472112e-21 1.88002813302272e-13 1.8547387064043973e-13 2.528942661832326e-15
3.3702598118196083 2.508081872219996e-21 2.2437503000549234e-13 2.217826373878566e-13 2.592392617635813e-15
3.382922481734668 2.604827543129936e-21 2.3390551123224503e-13 2.312514204960266e-13 2.6540907362184682e-15
3.389271646505754 2.654727071621647e-21 2.388337458268153e-13 2.3614837753313155e-13 2.6853682936837473e-15
3.395632727569191 2.7092881377316254e-21 2.4419981987539347e-13 2.41482218010372e-13 2.717601865021505e-15
3.421196662673239 2.9723681357620263e-21 2.6992932564576447e-13 2.6707826352424197e-13 2.8510621215224773e-15
3.4276182099114902 2.9266348197700338e-21 2.662750100947943e-13 2.6339413579112227e-13 2.8808743036719537e-15
3.4340518103208963 2.7148418764195984e-21 2.4746900706729977e-13 2.4455992189568575e-13 2.9090851716140333e-15
3.4469541582030403 2.412178107382201e-21 2.2070608762974315e-13 2.177428273957524e-13 2.9632602339908094e-15
3.472904465399547 2.333601335314147e-21 2.1512403457539266e-13 2.1203602037985266e-13 3.0880141955399574e-15
3.4990501388274233 2.211176499929444e-21 2.0537284000203464e-13 2.0215710122020178e-13 3.215738781832882e-15
3.5253949054701885 1.7598347911221996e-21 1.646831270380627e-13 1.6134320449994917e-13 3.3399225381134703e-15
3.5519380250092896 1.3313044546582392e-21 1.255197881984272e-13 1.2205496954044492e-13 3.4648186579822934e-15
3.578680990867387 1.1677377716982193e-21 1.1092712257460337e-13 1.0732540301206226e-13 3.601719562541081e-15
3.605625307711299 1.1084319461436318e-21 1.0608624084870002e-13 1.0234029239462313e-13 3.745948454076883e-15
3.660119384959845 1.0794609733936906e-21 1.0487491695904637e-13 1.0082575139759753e-13 4.049165561448834e-15
3.715437065384467 1.0646050109699058e-21 1.0499481396664973e-13 1.0062570717493915e-13 4.369106791710539e-15
3.8285932144167436 1.0902768959802713e-21 1.1080145601845769e-13 1.057437179997792e-13 5.057738018678517e-15
3.94519561050918 1.131173840260878e-21 1.184587995670513e-13 1.1264865450621117e-13 5.810145060840096e-15
4.06534921144712 1.1783507685101184e-21 1.2715747038117845e-13 1.205316934721151e-13 6.6257769090633664e-15
4.189162171576248 1.2290700946123115e-21 1.366700199740634e-13 1.2916358650635401e-13 7.506433467709352e-15
4.316745939156006 1.2820847005012183e-21 1.469070506614354e-13 1.384579003304654e-13 8.449150330970002e-15
4.448215356677963 1.3367039661589727e-21 1.5783033371972224e-13 1.4838912443470607e-13 9.441209285016163e-15
4.58368876423945 1.3926971487874946e-21 1.6944987023279057e-13 1.589658441624594e-13 1.0484026070331122e-14
4.723288106065518 1.4501186839186172e-21 1.8180985408893133e-13 1.7022557376178127e-13 1.1584280327150054e-14
4.867139040275056 1.5090117426517627e-21 1.949556407448267e-13 1.822422343679866e-13 1.2713406376840035e-14
4.940699165968905 1.5397368946570831e-21 2.019316343657005e-13 1.8863940205348342e-13 1.3292232312217115e-14
5.015371051989984 1.5702204862334144e-21 2.0904180233152002e-13 1.95162979788687e-13 1.3878822542832972e-14
5.091171501069577 1.6028919191667284e-21 2.166164326721873e-13 2.0213073443752144e-13 1.448569823466585e-14
5.129500256944802 1.619107263659714e-21 2.2045507962041084e-13 2.0566360023851772e-13 1.4791479381893176e-14
5.168117569889187 1.6354626255255545e-21 2.2435845558080968e-13 2.09256740802114e-13 1.5101714778695673e-14
5.20702561229733 1.6536832362431537e-21 2.2856591726374644e-13 2.1312585405733244e-13 1.5440063206414016e-14
5.246226572918644 1.671885627705146e-21 2.328214771556355e-13 2.1704060579676442e-13 1.5780871358871122e-14
5.265937586045735 1.6809797970462383e-21 2.349674124523983e-13 2.19015255430006e-13 1.5952157022392335e-14
5.285722656980489 1.6900692149784228e-21 2.371255198284752e-13 2.2100151154020602e-13 1.6124008288269168e-14
5.305582063971359 1.699153854663107e-21 2.3929585417190463e-13 2.2299944582348334e-13 1.6296408348421195e-14
5.3255160863122235 1.7085846608417172e-21 2.415280844412915e-13 2.2505739457186204e-13 1.647068986942946e-14
5.365609099470188 1.7301619985576556e-21 2.464195906539527e-13 2.295883200239523e-13 1.6831270630000403e-14
5.406003951863644 1.7518888917225108e-21 2.5139251962104107e-13 2.341981357231651e-13 1.7194383897876024e-14
5.446702915881641 1.7737761514547197e-21 2.5644954470142807e-13 2.388896485996948e-13 1.7559896101733357e-14
5.487708281020852 1.7965065224645965e-21 2.616912780297773e-13 2.437620611334704e-13 1.7929216896306898e-14
5.529022354014368 1.8254148506870493e-21 2.6790409887795433e-13 2.495898429123247e-13 1.8314255965629596e-14
5.570647458961463 1.855007904989524e-21 2.742968830229781e-13 2.555949334125095e-13 1.870194961046859e-14
5.612585937458331 1.8853433568255923e-21 2.808813422674996e-13 2.6178918005118247e-13 1.9092162216317086e-14
5.654840148729818 1.917502132978486e-21 2.878230834998133e-13 2.6833641616689953e-13 1.94866673329138e-14
5.67608639626678 1.9384297490968118e-21 2.920575896286019e-13 2.7236449577488213e-13 1.9693093853719772e-14
5.686739436050992 1.9490768205208905e-21 2.9421290570698357e-13 2.744163213855476e-13 1.979658432143593e-14
5.6974124697621304 1.959850185876978e-21 2.963943831669978e-13 2.764941264004003e-13 1.9900256766597462e-14
5.718818669136295 1.981788639745899e-21 3.0083827784172075e-13 2.8073013880054445e-13 2.0108139041176295e-14
5.740305295436557 2.0055465949250077e-21 3.055886220916231e-13 2.852703476886867e-13 2.0318274402936494e-14
5.7835210386641895 2.0654716306283254e-21 3.1708886181029764e-13 2.9633615974630265e-13 2.0752702063994914e-14
5.827062130521658 2.1322717156795653e-21 3.29808335629983e-13 3.0861421095915467e-13 2.119412467082841e-14
5.8489554468988025 2.1784930973627107e-21 3.382236207850069e-13 3.1679103183558667e-13 2.1432588949420174e-14
5.870931020387893 2.2272113809879673e-21 3.470866006361365e-13 3.254144124387227e-13 2.167218819741375e-14
5.892989160043636 2.2786239789774585e-21 3.564328626635e-13 3.3451995586477814e-13 2.1912906798721918e-14
5.915130176081913 2.336438038513384e-21 3.668495645906815e-13 3.446870976933168e-13 2.2162466897364654e-14
5.95966208400165 2.4967345644795165e-21 3.949693928533544e-13 3.7223752181242873e-13 2.2731871040925705e-14
6.004529249263818 2.723748958517034e-21 4.3412567836081576e-13 4.107526176705079e-13 2.3373060690307856e-14
6.027089341400364 2.8804306941477103e-21 4.608233666097542e-13 4.370794487856415e-13 2.374391782411278e-14
6.049734195844842 3.0634018841912427e-21 4.919372418988504e-13 4.678003996892925e-13 2.4136842209557882e-14
6.095279466722835 3.58878813334917e-21 5.80645247753378e-13 5.555412718295071e-13 2.510397592387094e-14
6.141167624020661 4.387434771736451e-21 7.15205849115313e-13 6.88845012810399e-13 2.636083630491396e-14
6.164241091010745 4.896210659054542e-21 8.011413431919523e-13 7.739908652398272e-13 2.7150477952125163e-14
6.187401249150058 5.468139002343235e-21 8.980846214027318e-13 8.701233412256564e-13 2.7961280177075344e-14
6.1990139391386085 5.746348914339029e-21 9.455489974197795e-13 9.171751634200354e-13 2.8373833999744378e-14
6.204828454712694 5.892247533327048e-21 9.704657111620612e-13 9.418835047535229e-13 2.858220640853798e-14
6.210648424152782 5.9982278052201464e-21 9.888475319090616e-13 9.600879720940134e-13 2.8759559815047925e-14
6.233982942956859 6.354512693982301e-21 1.051519411354945e-12 1.022142272140437e-12 2.9377139214507973e-14
6.239830258556775 6.39799257518922e-21 1.0597073354103338e-12 1.0302450669659168e-12 2.946226844441704e-14
6.245683058788269 6.398791598953912e-21 1.0608337810426463e-12 1.031286249097038e-12 2.954753194560824e-14
6.257405133728602 6.382131422197331e-21 1.06005756633759e-12 1.030361126675692e-12 2.9696439661897825e-14
6.269149208991335 6.303534137802288e-21 1.0489677799146157e-12 1.019218225729273e-12 2.9749554185343057e-14
6.280915325867298 6.116775204160093e-21 1.0197997281307926e-12 9.901155049394786e-13 2.968422319131392e-14
6.304513850009849 5.660543518936933e-21 9.472817487341055e-13 9.178353469166483e-13 2.944640181745719e-14
6.32820103803542 5.102726069841556e-21 8.571403802168025e-13 8.280458138294228e-13 2.909456638737979e-14
6.3519772230701035 4.593631380204808e-21 7.745233355425745e-13 7.457443214423186e-13 2.8779014100255593e-14
6.375842739491607 4.1639979035307814e-21 7.047215170058014e-13 6.762208495236336e-13 2.8500667482167554e-14
6.399797922933955 3.82372043115299e-21 6.495638179022265e-13 6.212062607570482e-13 2.8357557145178326e-14
6.42384311029221 3.539654939333423e-21 6.035667208701058e-13 5.753253322076939e-13 2.824138866241193e-14
6.447978639727206 3.3342330413395567e-21 5.70675166351109e-13 5.4244447361391e-13 2.8230692737199233e-14
6.472204850670314 3.1625776952963845e-21 5.433290066846748e-13 5.150880820969378e-13 2.8240924587736998e-14
6.496522083828205 3.051760140407613e-21 5.262604690481478e-13 4.979238404407192e-13 2.8336628607428678e-14
