Dust emission spectrum from A.P. Jones, M. Kohler, N. Ysard, M. Bocchio, and L. Verstraete (2017), A&A, 602A, 46J 
inside the DustPedia framework.

lambda    nu*dP/dnu     j_nu    j_nu(carb.) j_nu(sil)
 (um)   (erg s-1 H-1) (Jy cm2 sr-1 H-1)
0.9927057738263894 3.451305378154135e-23 9.09438570166813e-16 9.094385622817379e-16 7.88507533117522e-24
1.0001793341362166 3.50878443084987e-23 9.315453390057688e-16 9.31545329511707e-16 9.494061796573668e-24
1.0077091589558085 3.566279109012619e-23 9.539376028760848e-16 9.539375914596859e-16 1.1416398908345222e-23
1.0114953028030835 3.595026562239967e-23 9.652402132824513e-16 9.65240200769672e-16 1.2512779460616696e-23
1.0152956718711033 3.623771055166926e-23 9.766134915862335e-16 9.7661347787629e-16 1.3709943405372724e-23
1.0229392996569957 3.681214047195268e-23 9.995634502365439e-16 9.995634337937236e-16 1.6442820121627926e-23
1.0267826658714554 3.7098443634482847e-23 1.0111222137838843e-15 1.011122195784913e-15 1.799897160145522e-23
1.0306404723013447 3.7384613053297043e-23 1.0227500648939149e-15 1.0227500451980008e-15 1.9695913936376677e-23
1.03451277320114 3.7670626799688947e-23 1.0344467436312643e-15 1.0344467220855138e-15 2.1545750362480296e-23
1.0383996230291617 3.79564631268881e-23 1.0462119875702667e-15 1.046211964008701e-15 2.3561565842854642e-23
1.0403485208654093 3.8099308013602373e-23 1.0521202388447844e-15 1.052120214208693e-15 2.46360914468893e-23
1.0423010764483396 3.824210047586276e-23 1.0580455319712982e-15 1.0580455062137967e-15 2.5757501560931503e-23
1.0462171883269815 3.852751748104142e-23 1.0699471099589154e-15 1.0699470818100809e-15 2.81488346428252e-23
1.0471985131304309 3.859883481871752e-23 1.0729331032404391e-15 1.0729330744613351e-15 2.877910404167406e-23
1.048180758391296 3.8670136732254894e-23 1.0759233276093465e-15 1.0759232981864657e-15 2.942288077496952e-23
1.0501480137395462 3.8812692975951725e-23 1.0819164527017718e-15 1.0819164219497083e-15 3.07520634429216e-23
1.0521189612883777 3.895518359834366e-23 1.0879264513564674e-15 1.0879264192178168e-15 3.2138650719622304e-23
1.0531058218030118 3.9026298923182814e-23 1.0909348446577557e-15 1.0909348118035045e-15 3.2854251008355656e-23
1.0540936079674168 3.9097054281421897e-23 1.0939378525106127e-15 1.0939378189253598e-15 3.358525291485273e-23
1.058054026499678 3.9379881328511e-23 1.105991222735483e-15 1.1059911860674407e-15 3.666804233807614e-23
1.0590464539527713 3.945053790051044e-23 1.1090148782068921e-15 1.1090148407268363e-15 3.7480055971885786e-23
1.06003981227728 3.9521173762337514e-23 1.1120426501133492e-15 1.1120426118040832e-15 3.8309266223204306e-23
1.0620293250338977 3.966238209401566e-23 1.1181105257360303e-15 1.1181104857153624e-15 4.002066817257313e-23
1.0660195594769086 3.994453640938893e-23 1.1302954815439127e-15 1.1302954378783985e-15 4.366551426462827e-23
1.070024785945596 4.022632433656577e-23 1.1425458092843327e-15 1.1425457616576216e-15 4.762671136206466e-23
1.0740450607676866 4.050772617302739e-23 1.1548612273666945e-15 1.15486117543643e-15 5.193026420432398e-23
1.07808044048254 4.0788722456777694e-23 1.1672414536767891e-15 1.167241397072602e-15 5.66041871264354e-23
1.0861967418109137 4.134894690676921e-23 1.1921815102888662e-15 1.1921814431027319e-15 6.718613419451164e-23
1.0902777775684922 4.1627057572031186e-23 1.2047094219551134e-15 1.2047093487935068e-15 7.316160647716152e-23
1.0943741465085532 4.190466841253314e-23 1.2173001239875943e-15 1.217300044344948e-15 7.964264635465619e-23
1.1026131145906286 4.245831862220707e-23 1.2426687543704566e-15 1.2426686600842647e-15 9.428619189519947e-23
1.1109141095355224 4.3009756288716304e-23 1.2682851207211836e-15 1.2682850092432762e-15 1.1147790735957066e-22
1.1192775983109025 4.355835942146471e-23 1.2941325446211398e-15 1.2941324129865903e-15 1.3163454932159744e-22
1.1277040513999907 4.410176628682873e-23 1.3201417230949507e-15 1.3201415678585496e-15 1.5523640077511955e-22
1.1361939428280308 4.46424938089977e-23 1.346388364462426e-15 1.3463881816262617e-15 1.828361641928978e-22
1.1447477501889525 4.5180420546338516e-23 1.3728702715148016e-15 1.3728700564457416e-15 2.1506905995206616e-22
1.1533659546722406 4.5715689014573854e-23 1.3995932214555856e-15 1.3995929687910675e-15 2.5266451842094703e-22
1.1707974979042381 4.6779935957379395e-23 1.453820677920524e-15 1.4538203305091077e-15 3.4741141631414036e-22
1.1884924949847024 4.7832074356957283e-23 1.508985588932777e-15 1.5089851136234326e-15 4.753093441561636e-22
1.2064549276569216 4.8879926892832805e-23 1.5653486474576578e-15 1.5653480003572024e-15 6.471004550262815e-22
1.2246888378427687 4.9913686539747247e-23 1.6226125845594964e-15 1.6226117078706765e-15 8.766888201928013e-22
1.2431983285522175 5.0931496115210343e-23 1.6807235462223705e-15 1.6807223642139182e-15 1.1820084525783587e-21
1.2619875648066055 5.193365024469696e-23 1.739695969819372e-15 1.7396943837461445e-15 1.586073227240011e-21
1.3004222497298317 5.387826861867205e-23 1.8598051918047097e-15 1.8598023760136854e-15 2.815791024980721e-21
1.3400274889804893 5.574520742379912e-23 1.9828537194257503e-15 1.9828488117009806e-15 4.9077247696867014e-21
1.3808389325824078 5.753335243691654e-23 2.1087841919824977e-15 2.108775790333706e-15 8.401648791991761e-21
1.4228933163050095 5.925449698770896e-23 2.2380154904466476e-15 2.2380013563795748e-15 1.4134067072457816e-20
1.466228494730424 6.094537882967186e-23 2.3719846231931412e-15 2.371961245350229e-15 2.3377842912254805e-20
1.5108834753276823 6.258832807957801e-23 2.510115784813743e-15 2.5100777512333027e-15 3.803358044005307e-20
1.5568984535646726 6.417007243502761e-23 2.651931181783323e-15 2.6518702547668547e-15 6.092701646777301e-20
1.6043148490894465 6.569847432606019e-23 2.797784891672007e-15 2.797688611801143e-15 9.627987086345644e-20
1.6531753430134553 6.718259882671675e-23 2.9481199651634428e-15 2.947970052609144e-15 1.499125542981192e-19
1.7035239163302658 6.863709116949663e-23 3.1036771445376014e-15 3.1034470955535087e-15 2.300489840944642e-19
1.755405889504358 7.011821487527701e-23 3.2672159089763203e-15 3.266867812679816e-15 3.4809629650475023e-19
1.8088679632656115 7.162015330441699e-23 3.4388366480542863e-15 3.4383170963850255e-15 5.195516692609671e-19
1.8639582606462262 7.313974268812357e-23 3.618753859022858e-15 3.617988649349791e-15 7.652096730662158e-19
1.9207263702978936 7.468825798299732e-23 3.807915146018971e-15 3.806802600537438e-15 1.1125454815329324e-18
1.979223391128241 7.628470553778898e-23 4.0077601454028825e-15 4.0061627670104206e-15 1.597378392462702e-18
2.039501978296691 7.794961779229036e-23 4.219952417260942e-15 4.2176867040623015e-15 2.2657131986394188e-18
2.1016163906111602 7.973508442857682e-23 4.448077427113293e-15 4.44490137257218e-15 3.176054541111584e-18
2.1656225393682647 8.167188972806357e-23 4.694883286737216e-15 4.690481735163669e-15 4.401551573545511e-18
2.231578038680979 8.376198607227299e-23 4.961676879080095e-15 4.9556444378586325e-15 6.0324412214617086e-18
2.299542257339062 8.602278974050548e-23 5.250786385751219e-15 5.242607725335231e-15 8.17866041598878e-18
2.369576372248914 8.848950597721642e-23 5.565855336376296e-15 5.5548826510400685e-15 1.0972685336227695e-17
2.4417434235010123 9.12030379938713e-23 5.911242346773523e-15 5.8966704687183735e-15 1.457187805514936e-17
2.5161083711144245 9.4233586720685e-23 6.293677676461066e-15 6.274516172641319e-15 1.9161503819747106e-17
2.5927381535095444 9.769431016593772e-23 6.7235302362714085e-15 6.6985733248399674e-15 2.4956911431442733e-17
2.6717017477616296 1.0171097178980144e-22 7.213154115481651e-15 7.180950087902433e-15 3.220402757921867e-17
2.753070231689431 1.0647019697354028e-22 7.780630317653178e-15 7.739449688632352e-15 4.118062902082601e-17
2.836916847834745 1.124053313919158e-22 8.464531974662375e-15 8.412333410571525e-15 5.219856409085077e-17
2.9233170693905177 1.204666040332429e-22 9.347856205832606e-15 9.282264860372625e-15 6.559134545998202e-17
2.967498994190263 1.2622535601637463e-22 9.94275224570985e-15 9.869591521416557e-15 7.316072429329307e-17
3.0123486681368425 1.3269650239609915e-22 1.0610458409524023e-14 1.0528963258334223e-14 8.149515118979912e-17
3.0578761833420214 1.451697441173051e-22 1.1783259462161898e-14 1.1692575016793854e-14 9.068444536804499e-17
3.1040917844459814 1.606782692980841e-22 1.3239181394352925e-14 1.3138466870796099e-14 1.0071452355682036e-16
3.127460860933648 1.7616641915331413e-22 1.4624615042259683e-14 1.4518518234431235e-14 1.0609680782844841e-16
3.1510058709225794 1.9645077324804055e-22 1.643131751633445e-14 1.6319601693218755e-14 1.117158231156965e-16
3.162844764501044 2.1504709120476144e-22 1.8054309468440976e-14 1.793968242601966e-14 1.1462704242131614e-16
3.1747281389236908 2.364995647729414e-22 1.99299550978144e-14 1.981235528180229e-14 1.1759981601210646e-16
3.1986289994194426 2.9576874840084054e-22 2.511224772606263e-14 2.498849896719184e-14 1.2374875887079005e-16
3.2227097969389145 4.343818785580731e-22 3.715885570179601e-14 3.7028582168626854e-14 1.3027353316917633e-16
3.2348180950136065 5.653296337205777e-22 4.8542378021096345e-14 4.8408620154053e-14 1.3375786704333086e-16
3.240889293275058 6.63168768376556e-22 5.705026870061218e-14 5.691467289205163e-14 1.3559580856056076e-16
3.2469718861334385 7.7639948444181295e-22 6.691649724775546e-14 6.677899965527089e-14 1.374975924845574e-16
3.2714166318528037 1.3779410880910928e-21 1.196564022648522e-13 1.195110380185439e-13 1.4536424630827297e-16
3.2744851364798273 1.4156009337641793e-21 1.230419759483504e-13 1.2289568250493693e-13 1.462934434134568e-16
3.2775565192852394 1.4543240018618328e-21 1.2652629595040405e-13 1.2637906846608866e-13 1.472274843153771e-16
3.283707930232385 1.4173786883918665e-21 1.2354348649161853e-13 1.233945843303682e-13 1.489021612503029e-16
3.2898708863219004 1.299716018604484e-21 1.1350023444627874e-13 1.1334980425881263e-13 1.504301874661123e-16
3.29141343181113 1.271953660839968e-21 1.1112791337283357e-13 1.1097709938487145e-13 1.5081398796211302e-16
3.292184975758714 1.2583100450403888e-21 1.0996166958432493e-13 1.0981066342658886e-13 1.5100615773607754e-16
3.295272960557952 1.1723957766445104e-21 1.0254986030586668e-13 1.023981058945975e-13 1.5175441126920925e-16
3.3076538914384823 8.742011079078363e-22 7.675396943507738e-14 7.659920763012457e-14 1.5476180495278618e-16
3.310756385682612 8.133570939458438e-22 7.147890935234531e-14 7.132338908550616e-14 1.5552026683914784e-16
3.313861789986515 7.571591430907928e-22 6.660257121788868e-14 6.644628983648338e-14 1.562813814053063e-16
3.3200813396944477 6.784676073467868e-22 5.979257740213116e-14 5.963466077218599e-14 1.5791662994517572e-16
3.345076488085796 5.391198648345234e-22 4.786971262138584e-14 4.770451333849304e-14 1.6519928289280326e-16
3.3482140837626964 5.445475317638445e-22 4.839700045308238e-14 4.823081480145891e-14 1.6618565162346725e-16
3.3513546224236106 5.500322650355445e-22 4.893031189793167e-14 4.8763135208792255e-14 1.671766891394103e-16
3.3576445397418455 5.893277962451845e-22 5.252439706797142e-14 5.2355149053579855e-14 1.6924801439155676e-16
3.3702598118196083 7.333898489428978e-22 6.560964822756486e-14 6.543605506136011e-14 1.735931662047578e-16
3.382922481734668 7.668625794022211e-22 6.886190379591168e-14 6.868407913881716e-14 1.7782465709453013e-16
3.389271646505754 7.8418106273417335e-22 7.054921111150215e-14 7.036924006381585e-14 1.799710476863077e-16
3.395632727569191 8.029358815315942e-22 7.237207254215218e-14 7.2189889450991e-14 1.8218309116119874e-16
3.421196662673239 8.931521599382228e-22 8.110972437449264e-14 8.091837539169422e-14 1.9134898279843673e-16
3.4276182099114902 8.757972060915918e-22 7.968295474300262e-14 7.948955141064942e-14 1.9340333235319472e-16
3.4340518103208963 7.98435230147898e-22 7.278065633525416e-14 7.25853056596805e-14 1.9535067557364425e-16
3.4469541582030403 6.881197517375653e-22 6.29606154545389e-14 6.276151836254224e-14 1.9909709199666614e-16
3.472904465399547 6.578632709682272e-22 6.064540626884677e-14 6.043769155730196e-14 2.0771471154482667e-16
3.4990501388274233 6.113480608455196e-22 5.6781666904287054e-14 5.656511352676148e-14 2.1655337752557082e-16
3.5253949054701885 4.441368925918535e-22 4.1561771976535356e-14 4.133659987579378e-14 2.251721007415758e-16
3.5519380250092896 2.8639974674432647e-22 2.700271558894432e-14 2.676885486612793e-14 2.338607228163968e-16
3.578680990867387 2.2447542605787833e-22 2.1323634213781046e-14 2.108024618872725e-14 2.4338802505379376e-16
3.605625307711299 2.0011883834575762e-22 1.9153052523406e-14 1.8899614365196154e-14 2.534381582098406e-16
3.660119384959845 1.837915309435633e-22 1.785624679406762e-14 1.758162271052127e-14 2.746240835463481e-16
3.715437065384467 1.7277371554082207e-22 1.703950661007011e-14 1.674244404506834e-14 2.970625650017699e-16
3.8285932144167436 1.7052469382486485e-22 1.7329895215204695e-14 1.698424031108723e-14 3.4565490411747025e-16
3.94519561050918 1.7372640588727475e-22 1.8192978622771836e-14 1.779377887797399e-14 3.991997447978416e-16
4.06534921144712 1.7919324550241276e-22 1.9336992359490817e-14 1.887921666212e-14 4.577756973708138e-16
4.189162171576248 1.8598703750266838e-22 2.0681368981176368e-14 2.0159735920128388e-14 5.216330610479747e-16
4.316745939156006 1.9374253361582333e-22 2.2199893805805202e-14 2.16091935183098e-14 5.907002874953998e-16
4.448215356677963 2.023206069838941e-22 2.3888856266659034e-14 2.322464149285234e-14 6.642147738066973e-16
4.58368876423945 2.1171925476275442e-22 2.575994377281948e-14 2.5017522189723842e-14 7.424215830956355e-16
4.723288106065518 2.2203549879492076e-22 2.783788808884359e-14 2.7011928588954713e-14 8.25959499888882e-16
4.867139040275056 2.3345436031880217e-22 3.016096105431625e-14 2.9248014466963593e-14 9.129465873526696e-16
4.940699165968905 2.3985905110966503e-22 3.145675756426413e-14 3.049872575409519e-14 9.580318101689306e-16
5.015371051989984 2.4637465453553643e-22 3.279959870887726e-14 3.179552411634609e-14 1.0040745925311787e-15
5.091171501069577 2.5384257310813696e-22 3.430454167839248e-14 3.32525245761148e-14 1.0520171022776868e-15
5.129500256944802 2.576256487031111e-22 3.507790013166222e-14 3.4001576841710207e-14 1.076323289952014e-15
5.168117569889187 2.615144758653783e-22 3.5875466061675787e-14 3.4774405083308207e-14 1.1010609783675739e-15
5.20702561229733 2.6607167780566065e-22 3.677543302290135e-14 3.5647518240236636e-14 1.127914782664714e-15
5.246226572918644 2.706983021209636e-22 3.7696584933165195e-14 3.654151378324318e-14 1.1550711499220211e-15
5.265937586045735 2.7303828490811967e-22 3.8165300628855153e-14 3.699653983266571e-14 1.1687607961894241e-15
5.285722656980489 2.7539640198084053e-22 3.8639550617122073e-14 3.7457026959838243e-14 1.1825236572838307e-15
5.305582063971359 2.7777292778403226e-22 3.9119418078293926e-14 3.792305918227115e-14 1.1963588960227854e-15
5.3255160863122235 2.802890392192335e-22 3.96220780181656e-14 3.8411715232124074e-14 1.2103627860415268e-15
5.365609099470188 2.8633108642875944e-22 4.078091483230852e-14 3.954157626119123e-14 1.2393385711172962e-15
5.406003951863644 2.9253254724670903e-22 4.1977830027339326e-14 4.070919227239956e-14 1.2686377549397583e-15
5.446702915881641 2.9890108784228814e-22 4.321461184662518e-14 4.191635788838185e-14 1.2982539582433216e-15
5.487708281020852 3.0568065867434824e-22 4.452751005197131e-14 4.319921632458046e-14 1.3282937273908462e-15
5.529022354014368 3.147794362233086e-22 4.619810185885998e-14 4.483846744226983e-14 1.3596344165901621e-15
5.570647458961463 3.2429799222093534e-22 4.7953395884485426e-14 4.656207037186428e-14 1.3913255126211395e-15
5.612585937458331 3.3426656001476114e-22 4.9799544317577193e-14 4.837618352571672e-14 1.4233607918604781e-15
5.654840148729818 3.450843944440692e-22 5.179824980026358e-14 5.034237425654965e-14 1.4558755437139241e-15
5.67608639626678 3.5232891722904937e-22 5.3084376346533356e-14 5.1611500839104884e-14 1.4728755074284641e-15
5.686739436050992 3.560459716912434e-22 5.3745095520940964e-14 5.2263683306732384e-14 1.4814122142085687e-15
5.6974124697621304 3.5982822808036766e-22 5.4417968514379583e-14 5.292799523096416e-14 1.4899732834153997e-15
5.718818669136295 3.675945984623781e-22 5.5801372420582585e-14 5.429420427899229e-14 1.5071681415902737e-15
5.740305295436557 3.7610290236411417e-22 5.73074532344174e-14 5.578287589937486e-14 1.5245773350425475e-15
5.7835210386641895 3.9795864989173293e-22 6.109416051545832e-14 5.953355373438556e-14 1.560606781072749e-15
5.827062130521658 4.228498454685001e-22 6.540414278811327e-14 6.380679124826481e-14 1.597351539848453e-15
5.8489554468988025 4.402300014986332e-22 6.834824735745586e-14 6.673110458818442e-14 1.6171427692714433e-15
5.870931020387893 4.587636871441565e-22 7.149331672125897e-14 6.985624526586914e-14 1.6370714553898436e-15
5.892989160043636 4.78542569588866e-22 7.485583385348638e-14 7.319869669198394e-14 1.6571371615024409e-15
5.915130176081913 5.0094886475051965e-22 7.865514509122371e-14 7.697722090692098e-14 1.6779241843027202e-15
5.95966208400165 5.634133478972823e-22 8.912882895537414e-14 8.74038370126656e-14 1.724991942708558e-15
6.004529249263818 6.529074296161685e-22 1.0406387853866638e-13 1.0228607318458428e-13 1.777805354082106e-15
6.027089341400364 7.149716804740642e-22 1.14384163971069e-13 1.1257599298769498e-13 1.8081709833739938e-15
6.049734195844842 7.880165472278927e-22 1.2654385597085574e-13 1.2470354658457003e-13 1.8403093862857268e-15
6.095279466722835 9.986259067078127e-22 1.615719193966928e-13 1.5965313300510807e-13 1.918786391584772e-15
6.141167624020661 1.3214888453407332e-21 2.1541894088473688e-13 2.1339894143665782e-13 2.019999448078989e-15
6.164241091010745 1.5276137493195736e-21 2.499554484538252e-13 2.4787223595667294e-13 2.083212497152236e-15
6.187401249150058 1.76141722257716e-21 2.892943501971284e-13 2.871461360466394e-13 2.1482141504890037e-15
6.1990139391386085 1.875501569196063e-21 3.0860963280308257e-13 3.064283247903061e-13 2.1813080127765233e-15
6.204828454712694 1.935509688056627e-21 3.18782565609617e-13 3.1658453256468705e-13 2.1980330449299884e-15
6.210648424152782 1.979296852016368e-21 3.263001790842998e-13 3.2408782293448507e-13 2.212356149814648e-15
6.233982942956859 2.1276989245465322e-21 3.5208313027660647e-13 3.498205230725487e-13 2.2626072040577214e-15
6.239830258556775 2.1464831813538518e-21 3.5552463462312064e-13 3.53254819160876e-13 2.269815462244641e-15
6.245683058788269 2.1478534502683347e-21 3.560852797809741e-13 3.538082409604342e-13 2.277038820539906e-15
6.257405133728602 2.1431810358170535e-21 3.5597751327203173e-13 3.5368769254157244e-13 2.2898207304593814e-15
6.269149208991335 2.113274378542929e-21 3.516688709460186e-13 3.493736858583742e-13 2.2951850876443444e-15
6.280915325867298 2.039166620695322e-21 3.399735147997844e-13 3.376821492299604e-13 2.291365569824048e-15
6.304513850009849 1.8567807276163307e-21 3.107289059412634e-13 3.0845350303033115e-13 2.2754029109323663e-15
6.32820103803542 1.63147315144236e-21 2.7404988984333847e-13 2.7179930630840667e-13 2.2505835349318264e-15
6.3519772230701035 1.4250985274803951e-21 2.402831166944255e-13 2.3805454425456056e-13 2.2285724398649235e-15
6.375842739491607 1.2512633943842678e-21 2.117657736370642e-13 2.0955634390195708e-13 2.209429735107111e-15
6.399797922933955 1.1124815349388085e-21 1.8898550932048223e-13 1.8678466719546268e-13 2.2008421250195978e-15
6.42384311029221 9.969205049624658e-22 1.6999059243375774e-13 1.677962393997582e-13 2.1943530339995545e-15
6.447978639727206 9.129591927552202e-22 1.562587655804772e-13 1.5406263917497133e-13 2.196126405505898e-15
6.472204850670314 8.429436197462562e-22 1.4481722308011029e-13 1.426176696436471e-13 2.1995534364631798e-15
6.496522083828205 7.976047943371667e-22 1.3754287816566888e-13 1.353331740907311e-13 2.2097040749377573e-15
