Dust emission spectrum from A.P. Jones, M. Kohler, N. Ysard, M. Bocchio, and L. Verstraete (2017), A&A, 602A, 46J 
inside the DustPedia framework.

lambda    nu*dP/dnu     j_nu    j_nu(carb.) j_nu(sil)
 (um)   (erg s-1 H-1) (Jy cm2 sr-1 H-1)
0.9927057738263894 3.1507125185628087e-23 8.302306443311409e-16 8.302306418627419e-16 2.468399046702891e-24
1.0001793341362166 3.202880239056927e-23 8.503309955021923e-16 8.503309925298257e-16 2.972366589923627e-24
1.0077091589558085 3.255006993726038e-23 8.706759830134547e-16 8.706759794388978e-16 3.5745566799526405e-24
1.0114953028030835 3.281049063356058e-23 8.809393874772134e-16 8.8093938355917325e-16 3.918040379468204e-24
1.0152956718711033 3.3070737791994686e-23 8.912629471534036e-16 8.91262942860281e-16 4.2931226229457024e-24
1.0229392996569957 3.359036248757148e-23 9.120822150603982e-16 9.120822099109552e-16 5.14944293169466e-24
1.0267826658714554 3.384911457875741e-23 9.225613884159011e-16 9.225613827788058e-16 5.6370952742162656e-24
1.0306404723013447 3.4107586694100204e-23 9.330987712788253e-16 9.33098765109922e-16 6.168903352918323e-24
1.03451277320114 3.436575590996038e-23 9.436939948601792e-16 9.436939881115122e-16 6.748666896764861e-24
1.0383996230291617 3.462359945149681e-23 9.543466860411108e-16 9.543466786606166e-16 7.380494220574371e-24
1.0403485208654093 3.475239201916044e-23 9.59694464229443e-16 9.596944565121373e-16 7.717305764981584e-24
1.0423010764483396 3.488109469760706e-23 9.650564675014306e-16 9.650564594326047e-16 8.068825675658173e-24
1.0462171883269815 3.5138219185776105e-23 9.758229578488747e-16 9.758229490304156e-16 8.818458749626314e-24
1.0471985131304309 3.5202439760049797e-23 9.785233961277324e-16 9.785233871116889e-16 9.016043761151927e-24
1.048180758391296 3.526663542063292e-23 9.812273485887015e-16 9.812273393708346e-16 9.217866834018541e-24
1.0501480137395462 3.539495061683269e-23 9.866457717490807e-16 9.866457621145057e-16 9.63457492103323e-24
1.0521189612883777 3.552316201326668e-23 9.920781785687003e-16 9.920781684994048e-16 1.0069295405790418e-23
1.0531058218030118 3.5587131087575864e-23 9.947969035254214e-16 9.947968932317664e-16 1.029365520052701e-23
1.0540936079674168 3.5650755907170575e-23 9.975102235771782e-16 9.975102130543303e-16 1.0522847797266634e-23
1.058054026499678 3.590496545371671e-23 1.0083975701491257e-15 1.00839755865968e-15 1.1489445798819335e-23
1.0590464539527713 3.5968443716918774e-23 1.0111278920608586e-15 1.011127880316797e-15 1.1744061383810355e-23
1.06003981227728 3.603189165707956e-23 1.013861595505556e-15 1.0138615835014824e-15 1.2004073924384408e-23
1.0620293250338977 3.6158695226771354e-23 1.0193391217426222e-15 1.0193391092018951e-15 1.2540727078848979e-23
1.0660195594769086 3.641192377443712e-23 1.0303344741508602e-15 1.0303344604671361e-15 1.3683724176088117e-23
1.070024785945596 3.666462983487967e-23 1.0413832200105863e-15 1.0413832050845673e-15 1.492601920392056e-23
1.0740450607676866 3.691679234046058e-23 1.0524849489363333e-15 1.0524849326605492e-15 1.6275783898182533e-23
1.07808044048254 3.7168390421775625e-23 1.0636392476551029e-15 1.0636392299132807e-15 1.774182235327849e-23
1.0861967418109137 3.766937341689083e-23 1.0860912756264706e-15 1.0860912545650927e-15 2.106137790734667e-23
1.0902777775684922 3.791772289288907e-23 1.0973592824595508e-15 1.0973592595234535e-15 2.2936097381437946e-23
1.0943741465085532 3.816540913311679e-23 1.1086773629232471e-15 1.1086773379536573e-15 2.4969590223702664e-23
1.1026131145906286 3.865871332813769e-23 1.1314620243090593e-15 1.131461994744356e-15 2.956470345699896e-23
1.1109141095355224 3.914913110518272e-23 1.1544418000548508e-15 1.1544417650945643e-15 3.496028687945544e-23
1.1192775983109025 3.96360648651044e-23 1.1775999409511569e-15 1.1775998996637286e-15 4.128742794437679e-23
1.1277040513999907 4.011731648503713e-23 1.2008712523225945e-15 1.2008712036253668e-15 4.869722762585842e-23
1.1361939428280308 4.05951754455735e-23 1.2243238943388697e-15 1.224323836975264e-15 5.736360577881734e-23
1.1447477501889525 4.106950328439605e-23 1.2479543006289303e-15 1.2479542331424392e-15 6.74864910778589e-23
1.1533659546722406 4.154041230410856e-23 1.2717664489047956e-15 1.271766369609283e-15 7.929551270929624e-23
1.1707974979042381 4.2473482487350086e-23 1.319985285137273e-15 1.3199851760731668e-15 1.0906410600528602e-22
1.1884924949847024 4.339115685987329e-23 1.3688854449430053e-15 1.3688852956805169e-15 1.4926248853454386e-22
1.2064549276569216 4.4300479849303705e-23 1.418694761264073e-15 1.4186945579883068e-15 2.0327576576387952e-22
1.2246888378427687 4.5192088222962696e-23 1.469121120010015e-15 1.469120844522593e-15 2.7548742173261254e-22
1.2431983285522175 4.606409486405243e-23 1.5201008173469429e-15 1.5201004457928741e-15 3.7155406931001136e-22
1.2619875648066055 4.691641454116163e-23 1.5716264293201355e-15 1.5716259305822095e-15 4.987379255139758e-22
1.3004222497298317 4.854921245636543e-23 1.6758533579359807e-15 1.675852471897723e-15 8.860382571330893e-22
1.3400274889804893 5.008598166317333e-23 1.781555395011656e-15 1.781553849598595e-15 1.545413061291236e-21
1.3808389325824078 5.1523112679228044e-23 1.8884893881131214e-15 1.888486740525946e-15 2.647587175599279e-21
1.4228933163050095 5.2868759453358626e-23 1.9968290785061825e-15 1.9968246210913645e-15 4.457414817614537e-21
1.466228494730424 5.415376847738188e-23 2.1076562092641094e-15 2.107648830915657e-15 7.378348452032139e-21
1.5108834753276823 5.535859438149786e-23 2.2201660572466915e-15 2.220154043751722e-15 1.2013494969346622e-20
1.5568984535646726 5.646782777240351e-23 2.3336235655465134e-15 2.3336043050536638e-15 1.926049285064539e-20
1.6043148490894465 5.748540060914321e-23 2.4480292269462573e-15 2.4479987652233507e-15 3.046172290616523e-20
1.6531753430134553 5.841614524798792e-23 2.563428731563064e-15 2.5633812607590554e-15 4.7470804009187884e-20
1.7035239163302658 5.927026728526714e-23 2.6801219397489717e-15 2.6800490297517045e-15 7.290999726819411e-20
1.755405889504358 6.009575444368112e-23 2.8002111196010924e-15 2.8001006982345973e-15 1.1042136649462083e-19
1.8088679632656115 6.088395093834253e-23 2.923338642898424e-15 2.9231736829701807e-15 1.6495992824442e-19
1.8639582606462262 6.162939022318276e-23 3.0492531898882715e-15 3.04901000562579e-15 2.4318426248070114e-19
1.9207263702978936 6.233977713207126e-23 3.178338710145061e-15 3.177984804282776e-15 3.5390586228553674e-19
1.979223391128241 6.303006479499631e-23 3.311402723084683e-15 3.3108940921574455e-15 5.086309272372604e-19
2.039501978296691 6.371731879815813e-23 3.449459549630627e-15 3.4487373864951137e-15 7.221631355134312e-19
2.1016163906111602 6.44467496993393e-23 3.595206986270049e-15 3.594193624188272e-15 1.0133620817770433e-18
2.1656225393682647 6.524498030757911e-23 3.7505874862143304e-15 3.749181632259282e-15 1.4058539550468113e-18
2.231578038680979 6.611424235334201e-23 3.916305272172414e-15 3.9143764280373734e-15 1.9288441350404736e-18
2.299542257339062 6.707030399126172e-23 4.093936503894686e-15 4.091318511997275e-15 2.6179918974112053e-18
2.369576372248914 6.814631640838017e-23 4.286299653810108e-15 4.2827832867195566e-15 3.516367090551188e-18
2.4417434235010123 6.938110476231372e-23 4.496873498495511e-15 4.492198239294143e-15 4.675259201368168e-18
2.5161083711144245 7.084090724313534e-23 4.731326186467892e-15 4.725170973889911e-15 6.1552125779806526e-18
2.5927381535095444 7.263322756316408e-23 4.99877322281544e-15 4.990746416294227e-15 8.02680652121245e-18
2.6717017477616296 7.488294346750078e-23 5.310559936132112e-15 5.3001890334219445e-15 1.0370902710167463e-17
2.753070231689431 7.777684127062143e-23 5.683776929161569e-15 5.670497771814481e-15 1.3279157347090098e-17
2.836916847834745 8.174135222613694e-23 6.155422354104079e-15 6.138567505543093e-15 1.6854848560986768e-17
2.9233170693905177 8.771369825962759e-23 6.806326493494631e-15 6.785117421417988e-15 2.1209072076641658e-17
2.967498994190263 9.237561706826675e-23 7.276413416771775e-15 7.252738878740205e-15 2.3674538031572566e-17
3.0123486681368425 9.772476228857144e-23 7.814105926834064e-15 7.787714505497785e-15 2.6391421336276807e-17
3.0578761833420214 1.0892788027071086e-22 8.841549481935668e-15 8.812160187443067e-15 2.9389294492599383e-17
3.1040917844459814 1.2315164016340053e-22 1.0147152507042711e-14 1.0114487747102282e-14 3.2664759940431816e-17
3.127460860933648 1.37846699483922e-22 1.1443468763726024e-14 1.1409045032874146e-14 3.44237308518777e-17
3.1510058709225794 1.5729247144373793e-22 1.3156082302398402e-14 1.311982127309592e-14 3.6261029302483316e-17
3.162844764501044 1.7528305532506405e-22 1.471591411761676e-14 1.4678700810388188e-14 3.721330722856997e-17
3.1747281389236908 1.9613919428923653e-22 1.6528763335606876e-14 1.649057735512e-14 3.818598048688081e-17
3.1986289994194426 2.54097814259663e-22 2.1574176760865562e-14 2.153397808401085e-14 4.019867685471006e-17
3.2227097969389145 3.902973755151151e-22 3.338768160794013e-14 3.3345346203372497e-14 4.2335404567640255e-17
3.2348180950136065 5.192663330490953e-22 4.458712427050363e-14 4.454364755432453e-14 4.3476716179101076e-17
3.240889293275058 6.156637792455183e-22 5.2963567812722235e-14 5.291948906128585e-14 4.407875143637599e-17
3.2469718861334385 7.271989842606582e-22 6.267599322767947e-14 6.26312915211415e-14 4.4701706537979336e-17
3.2714166318528037 1.3212245937432789e-21 1.1473130661207959e-13 1.146840272461026e-13 4.727936597698751e-17
3.2744851364798273 1.3583827839745764e-21 1.1806865752060612e-13 1.1802107345814374e-13 4.758406246237912e-17
3.2775565192852394 1.3966013063430006e-21 1.215044171621004e-13 1.2145652679308178e-13 4.789036901863147e-17
3.283707930232385 1.3599701411932837e-21 1.1853956472151025e-13 1.1849112470993898e-13 4.844001157128697e-17
3.2898708863219004 1.243594627897471e-21 1.0859932462327257e-13 1.0855038268229343e-13 4.894194097910935e-17
3.29141343181113 1.2161447810677702e-21 1.0625200904730642e-13 1.0620294102326866e-13 4.9068024037755054e-17
3.292184975758714 1.2026560620087989e-21 1.0509815846693983e-13 1.0504902731110951e-13 4.9131155830317307e-17
3.295272960557952 1.1175899501507803e-21 9.775597588318014e-14 9.770659883185332e-14 4.9377051326818e-17
3.3076538914384823 8.226794572708496e-22 7.223042083457286e-14 7.218005525460196e-14 5.0365579970875403e-17
3.310756385682612 7.625987813112911e-22 6.701820094432994e-14 6.696758601216106e-14 5.061493216887432e-17
3.313861789986515 7.071420676534541e-22 6.220288079702506e-14 6.215201562192291e-14 5.086517510216115e-17
3.3200813396944477 6.2941649413377265e-22 5.546975866813264e-14 5.541835603699261e-14 5.140263114003398e-17
3.345076488085796 4.911594909208706e-22 4.361119894713e-14 4.3557403184212583e-14 5.3795762917420083e-17
3.3482140837626964 4.964231970183544e-22 4.411992028170107e-14 4.406580040577745e-14 5.411987592362668e-17
3.3513546224236106 5.017439981796161e-22 4.4634636701280356e-14 4.4580191153728084e-14 5.444554755228085e-17
3.3576445397418455 5.403211293820422e-22 4.815663154647789e-14 4.810150539721873e-14 5.512614925917164e-17
3.3702598118196083 6.822720773327848e-22 6.103661109274402e-14 6.098005714248896e-14 5.655395025507706e-17
3.382922481734668 7.1486206436071435e-22 6.419241729297471e-14 6.413447209006969e-14 5.794520290502787e-17
3.389271646505754 7.317374641199468e-22 6.583109856593544e-14 6.577244749913392e-14 5.865106680150622e-17
3.395632727569191 7.499569208352911e-22 6.759685041681014e-14 6.753747188626753e-14 5.937853054261112e-17
3.421196662673239 8.3750147382026e-22 7.605592501673082e-14 7.599353121963727e-14 6.239379709355965e-17
3.4276182099114902 8.201847102999003e-22 7.462314414473572e-14 7.456007366637059e-14 6.307047836515732e-17
3.4340518103208963 7.437793737078006e-22 6.77985501429474e-14 6.77348378096766e-14 6.37123332707933e-17
3.4469541582030403 6.349128487807181e-22 5.809236490928987e-14 5.802741687689141e-14 6.494803239846535e-17
3.472904465399547 6.046716226464496e-22 5.5741911477541405e-14 5.567412220480961e-14 6.778927273179667e-17
3.4990501388274233 5.583151566216597e-22 5.185600033974209e-14 5.1785294900254535e-14 7.070543948754e-17
3.5253949054701885 3.926446925249652e-22 3.674319663760978e-14 3.6669644392216364e-14 7.355224539341398e-17
3.5519380250092896 2.36704842147439e-22 2.2317315583170552e-14 2.224089081429995e-14 7.642476887060029e-17
3.578680990867387 1.7511456017117603e-22 1.6634688670262376e-14 1.655511358199891e-14 7.957508826346487e-17
3.605625307711299 1.5047194724369139e-22 1.4401428334688778e-14 1.4318528351191802e-14 8.289998349697388e-17
3.660119384959845 1.3305890848665019e-22 1.2927324212868431e-14 1.2837407820364402e-14 8.991639250403172e-17
3.715437065384467 1.20942309768007e-22 1.1927724540033912e-14 1.183036592124684e-14 9.735861878707534e-17
3.8285932144167436 1.1610978916148626e-22 1.179987739309264e-14 1.1686363117509396e-14 1.1351427558324233e-16
3.94519561050918 1.1662260623335775e-22 1.2212953875947464e-14 1.2081577642640364e-14 1.3137623330710284e-16
4.06534921144712 1.1934979321373173e-22 1.28792021876163e-14 1.2728215118934688e-14 1.5098706868161335e-16
4.189162171576248 1.2337282932006044e-22 1.3718800189950103e-14 1.3546352507372424e-14 1.7244768257767896e-16
4.316745939156006 1.2834463832271465e-22 1.4706307841305322e-14 1.4510553453464263e-14 1.9575438784105713e-16
4.448215356677963 1.3414401810891755e-22 1.583895588001641e-14 1.561828187002702e-14 2.2067400998938594e-16
4.58368876423945 1.4078060205314943e-22 1.7128817108564546e-14 1.688150673765273e-14 2.473103709118168e-16
4.723288106065518 1.4836033619536024e-22 1.8600802386308008e-14 1.8324900399218812e-14 2.7590198708919713e-16
4.867139040275056 1.5709096697369012e-22 2.0295249702803494e-14 1.9989404120941473e-14 3.0584558186201963e-16
4.940699165968905 1.6216471733762451e-22 2.1267390891306343e-14 2.0945958191611553e-14 3.2143269969479217e-16
5.015371051989984 1.6737745392791586e-22 2.2282784453209174e-14 2.1945385212609192e-14 3.373992405999761e-16
5.091171501069577 1.7353853440321268e-22 2.3452172790992424e-14 2.309810546863362e-14 3.5406732235880474e-16
5.129500256944802 1.7668277523889319e-22 2.4056846730959736e-14 2.3694308349920366e-14 3.6253838103936415e-16
5.168117569889187 1.799390496339715e-22 2.4684665148849468e-14 2.4313494389363298e-14 3.7117075948616405e-16
5.20702561229733 1.8384193086686042e-22 2.5409944685406303e-14 2.50294177061796e-14 3.8052697922670553e-16
5.246226572918644 1.8782672490782846e-22 2.615615256072891e-14 2.576614907186241e-14 3.900034888665106e-16
5.265937586045735 1.898506232318707e-22 2.6537326487595375e-14 2.61425401372582e-14 3.947863503371725e-16
5.285722656980489 1.9189595515810124e-22 2.692400270744383e-14 2.652440403454283e-14 3.9959867290100503e-16
5.305582063971359 1.9396305466271414e-22 2.73162755190928e-14 2.6911835275504376e-14 4.044402435884281e-16
5.3255160863122235 1.9616794709774884e-22 2.773059455418416e-14 2.732125114188694e-14 4.093434122972189e-16
5.365609099470188 2.0156075145403864e-22 2.870743774664645e-14 2.8287947732746186e-14 4.19490013900263e-16
5.406003951863644 2.071310462417226e-22 2.972288702353207e-14 2.92931204503187e-14 4.297665732133835e-16
5.446702915881641 2.128873100768055e-22 3.077888587978469e-14 3.033871433334848e-14 4.4017154643622253e-16
5.487708281020852 2.1906486397542555e-22 3.19104681827161e-14 3.1459726659105736e-14 4.507415236103683e-16
5.529022354014368 2.2750564169006863e-22 3.338950261289282e-14 3.292772891543336e-14 4.617736974594588e-16
5.570647458961463 2.3639638828972313e-22 3.4955534308694436e-14 3.448258625205024e-14 4.729480566442006e-16
5.612585937458331 2.457693292067776e-22 3.6615091264868556e-14 3.613082808288582e-14 4.842631819827347e-16
5.654840148729818 2.5601325895120277e-22 3.8428393033238994e-14 3.793262733586673e-14 4.957656973722699e-16
5.67608639626678 2.6293257592318017e-22 3.961528881546697e-14 3.911351020603207e-14 5.017786094349073e-16
5.686739436050992 2.6649198165358116e-22 4.0226931768116993e-14 3.972213175541019e-14 5.048000127068049e-16
5.6974124697621304 2.7011999709572192e-22 4.085110713931035e-14 4.034327578324563e-14 5.078313560647242e-16
5.718818669136295 2.775884355396199e-22 4.213831143326372e-14 4.1624387645948146e-14 5.139237873155634e-16
5.740305295436557 2.8579775113046e-22 4.354750031031198e-14 4.302740408219607e-14 5.200962281158998e-16
5.7835210386641895 3.0699464590184646e-22 4.7129469806011894e-14 4.659659296185037e-14 5.328768441615295e-16
5.827062130521658 3.312904067934838e-22 5.1242220619109274e-14 5.06962899285394e-14 5.459306905698755e-16
5.8489554468988025 3.482935860821505e-22 5.407458849583217e-14 5.352163366276584e-14 5.529548330663179e-16
5.870931020387893 3.6648993364935857e-22 5.711345870605818e-14 5.655342478357325e-14 5.6003392248494985e-16
5.892989160043636 3.8597487991182624e-22 6.037596928340489e-14 5.980880134057421e-14 5.671679428306839e-16
5.915130176081913 4.080958983849034e-22 6.40760851201521e-14 6.35015281738153e-14 5.745569463368215e-16
5.95966208400165 4.698558319284966e-22 7.432855510777647e-14 7.373731252704331e-14 5.912425807331781e-16
6.004529249263818 5.586334868620421e-22 8.903799327052967e-14 8.842805058960979e-14 6.09942680919886e-16
6.027089341400364 6.202790757926099e-22 9.923484447138007e-14 9.861417307271244e-14 6.2067139866763595e-16
6.049734195844842 6.929989757828038e-22 1.1128543288577482e-13 1.1065341031657788e-13 6.320225691969252e-16
6.095279466722835 9.028878747939132e-22 1.4608205730550586e-13 1.454223992003075e-13 6.596581051983647e-16
6.141167624020661 1.2253710309184854e-21 1.9975055453702045e-13 1.9905535647221016e-13 6.951980648102849e-16
6.164241091010745 1.4313057451062417e-21 2.341970734106844e-13 2.3347972916650377e-13 7.17344244180705e-16
6.187401249150058 1.6654760659615406e-21 2.7353701899557057e-13 2.7279688787370164e-13 7.401311218688263e-16
6.1990139391386085 1.7797982024009938e-21 2.928618555845836e-13 2.9211012005738357e-13 7.517355272000462e-16
6.204828454712694 1.8399820115318982e-21 3.030489539427827e-13 3.0229135228203615e-13 7.576016607465294e-16
6.210648424152782 1.8839201440934655e-21 3.105766978672151e-13 3.0981406022774676e-13 7.626376394683409e-16
6.233982942956859 2.0330776518230096e-21 3.3642557952686645e-13 3.3564522119070697e-13 7.803583361595005e-16
6.239830258556775 2.052086779494364e-21 3.3988964312988927e-13 3.3910670396774717e-13 7.829391621420822e-16
6.245683058788269 2.05366042313958e-21 3.4046933986925927e-13 3.396838139328255e-13 7.855259364338101e-16
6.257405133728602 2.0493910181412237e-21 3.4039920387865215e-13 3.3960907834861304e-13 7.901255300392136e-16
6.269149208991335 2.019853979151451e-21 3.361228317232374e-13 3.3533067027580843e-13 7.921614474288856e-16
6.280915325867298 1.9460394821449053e-21 3.2444719130325926e-13 3.236561699346252e-13 7.910213686340952e-16
6.304513850009849 1.764113566842961e-21 2.952212237171176e-13 2.944353628212867e-13 7.858608958309157e-16
6.32820103803542 1.5388760471637328e-21 2.584957103553492e-13 2.577180746985416e-13 7.776356568075444e-16
6.3519772230701035 1.3324060086023573e-21 2.246544096957242e-13 2.238840281011928e-13 7.703815945314577e-16
6.375842739491607 1.158607087623839e-21 1.9608447538160707e-13 1.9532035752090457e-13 7.641178607025433e-16
6.399797922933955 1.01954810393973e-21 1.7319821646332323e-13 1.724367010571714e-13 7.61515406151814e-16
6.42384311029221 9.038555954585943e-22 1.5412156474036833e-13 1.5336192386182352e-13 7.596408785448101e-16
6.447978639727206 8.196684031909987e-22 1.4029145429973986e-13 1.3953081724353682e-13 7.60637056203042e-16
6.472204850670314 7.495086210928541e-22 1.2876514471269512e-13 1.2800293418725405e-13 7.622105254410959e-16
6.496522083828205 7.040027127034733e-22 1.2140167665634873e-13 1.2063555228403216e-13 7.66124372316573e-16
