Dust emission spectrum from A.P. Jones, M. Kohler, N. Ysard, M. Bocchio, and L. Verstraete (2017), A&A, 602A, 46J 
inside the DustPedia framework.

lambda    nu*dP/dnu     j_nu    j_nu(carb.) j_nu(sil)
 (um)   (erg s-1 H-1) (Jy cm2 sr-1 H-1)
0.9927057738263894 1.0447493449314628e-19 2.7529738644725377e-12 2.752973748153002e-12 1.163195349107325e-19
1.0001793341362166 1.0622518411263271e-19 2.8201668439683786e-12 2.820166704034968e-12 1.3993341090115405e-19
1.0077091589558085 1.0798312101769812e-19 2.888421137716864e-12 2.8884209696020577e-12 1.6811480577010798e-19
1.0114953028030835 1.0886490585122424e-19 2.9229487772501064e-12 2.922948593075844e-12 1.841742622355504e-19
1.0152956718711033 1.0974853437699947e-19 2.9577447836161926e-12 2.957744581916308e-12 2.0169988566722095e-19
1.0229392996569957 1.115203607474366e-19 3.028122655493573e-12 3.028122413821737e-12 2.4167183616331057e-19
1.0267826658714554 1.12406551397752e-19 3.063653079706651e-12 3.0636528152936428e-12 2.644130081965591e-19
1.0306404723013447 1.1329444810455192e-19 3.0994544195457894e-12 3.099454130348964e-12 2.891968256798328e-19
1.03451277320114 1.141840297005529e-19 3.135527803307159e-12 3.1355274871098174e-12 3.161973422454952e-19
1.0383996230291617 1.1507527591263924e-19 3.171874384878434e-12 3.1718740392758536e-12 3.4560257973181393e-19
1.0403485208654093 1.155215171640117e-19 3.190150492678719e-12 3.190150131408917e-12 3.612698010990619e-19
1.0423010764483396 1.1596816738276333e-19 3.2084953447490838e-12 3.208494967133509e-12 3.7761557447461544e-19
1.0462171883269815 1.1686268568866433e-19 3.245391891033506e-12 3.2453914785780103e-12 4.1245549587929693e-19
1.0471985131304309 1.170865673901348e-19 3.2546592322716698e-12 3.2546588106371706e-12 4.2163449947611657e-19
1.048180758391296 1.173105494090088e-19 3.263943894424951e-12 3.263943463416203e-12 4.31008748429284e-19
1.0501480137395462 1.1775881336439113e-19 3.2825652605067127e-12 3.2825648101478704e-12 4.50358841800156e-19
1.0521189612883777 1.1820747552432373e-19 3.3012561485258153e-12 3.30125567798756e-12 4.705382552806326e-19
1.0531058218030118 1.184316614555689e-19 3.310619499094788e-12 3.3106190181446354e-12 4.809501528217667e-19
1.0540936079674168 1.1865498352015973e-19 3.319973339357296e-12 3.3199728477727755e-12 4.915845209871181e-19
1.058054026499678 1.1954921685662021e-19 3.3575617820004787e-12 3.3575612455866174e-12 5.364138619470443e-19
1.0590464539527713 1.1977301035064836e-19 3.3670022655072206e-12 3.3670017172898785e-12 5.482173422667137e-19
1.06003981227728 1.1999689747901835e-19 3.3764601395799966e-12 3.3764595793111366e-12 5.60268859754764e-19
1.0620293250338977 1.2044495181231955e-19 3.3954281433197842e-12 3.3954275581838935e-12 5.851358908299677e-19
1.0660195594769086 1.2134217523188482e-19 3.4335737678775884e-12 3.4335731298071574e-12 6.3807043097104875e-19
1.070024785945596 1.2224087502519072e-19 3.472000034473076e-12 3.4719993389110964e-12 6.955619794707867e-19
1.0740450607676866 1.2314104018632538e-19 3.5107083572487505e-12 3.5107075992672742e-12 7.579814773198016e-19
1.07808044048254 1.2404266081226924e-19 3.549700186807182e-12 3.549699361078985e-12 8.257281960622372e-19
1.0861967418109137 1.25848868884845e-19 3.628500984887669e-12 3.6285000059333396e-12 9.789543301267021e-19
1.0902777775684922 1.2675033781241978e-19 3.6682229084866044e-12 3.668221843093646e-12 1.0653929585449377e-18
1.0943741465085532 1.2765318107455725e-19 3.708232018917339e-12 3.708230859835878e-12 1.1590814614675537e-18
1.1026131145906286 1.294629763737318e-19 3.789118382641086e-12 3.789117012095236e-12 1.370545849569595e-18
1.1109141095355224 1.3127823859069525e-19 3.871173683510161e-12 3.871172065044359e-12 1.6184658030180172e-18
1.1192775983109025 1.3309756772355749e-19 3.954370556850966e-12 3.954368648113373e-12 1.9087375933511563e-18
1.1277040513999907 1.3491453641059574e-19 4.038530053632634e-12 4.038527805488527e-12 2.248144107007683e-18
1.1361939428280308 1.3673683803601303e-19 4.123893448084338e-12 4.123890803606687e-12 2.6444776511797913e-18
1.1447477501889525 1.3856454103521058e-19 4.210477387615862e-12 4.210474280938192e-12 3.1066776691769473e-18
1.1533659546722406 1.4039835902324006e-19 4.2983184947682056e-12 4.298314849777297e-12 3.64499090854517e-18
1.1707974979042381 1.4408990889013204e-19 4.478007178441066e-12 4.478002179876202e-12 4.99856486412332e-18
1.1884924949847024 1.4780727332869085e-19 4.662959915306307e-12 4.66295309501076e-12 6.82029554821809e-18
1.2064549276569216 1.5157536467738974e-19 4.854104888615201e-12 4.854095628807721e-12 9.259807478544915e-18
1.2246888378427687 1.5537103910916856e-19 5.050859209404718e-12 5.050846699373321e-12 1.2510031396486504e-17
1.2431983285522175 1.591916580123493e-19 5.253275249922033e-12 5.253258431071043e-12 1.6818850989650718e-17
1.2619875648066055 1.6304333136462617e-19 5.461696321065512e-12 5.4616738179259884e-12 2.2503139524304943e-17
1.3004222497298317 1.7081886792202882e-19 5.896437015600268e-12 5.8963973005382586e-12 3.971506201104269e-17
1.3400274889804893 1.7872410441656318e-19 6.357205786306258e-12 6.357136983934175e-12 6.880237208397174e-17
1.3808389325824078 1.867904192437538e-19 6.846475420442613e-12 6.846358364526146e-12 1.1705591646913128e-16
1.4228933163050095 1.9508510744045975e-19 7.368276073590856e-12 7.368080395767746e-12 1.95677823110429e-16
1.466228494730424 2.0374677867687462e-19 7.929792796880458e-12 7.929471233656335e-12 3.215632241240907e-16
1.5108834753276823 2.127598234327159e-19 8.532769728145225e-12 8.53225001967347e-12 5.197084717565094e-16
1.5568984535646726 2.2211598034422813e-19 9.179299195020097e-12 9.178472237335788e-12 8.26957684310103e-16
1.6043148490894465 2.3186358526575864e-19 9.87396499598966e-12 9.872667054239096e-12 1.2979417505659107e-15
1.6531753430134553 2.420518941614222e-19 1.0621768646126536e-11 1.0619761614861669e-11 2.007031264866649e-15
1.7035239163302658 2.5273614262712187e-19 1.1428389171291075e-11 1.1425330867178657e-11 3.0583041124209065e-15
1.755405889504358 2.640892206657039e-19 1.2305454505408033e-11 1.2300859868455722e-11 4.594636952311734e-15
1.8088679632656115 2.7609557543771705e-19 1.32567097300852e-11 1.3249901749764243e-11 6.807980320958702e-15
1.8639582606462262 2.887301924116736e-19 1.4285577985439343e-11 1.4275625001283924e-11 9.952984155415903e-15
1.9207263702978936 3.0200389079029622e-19 1.5397402763883252e-11 1.538304066370154e-11 1.436210018170723e-14
1.979223391128241 3.159410371058073e-19 1.6598555213438766e-11 1.6578091803764246e-11 2.046340967451976e-14
2.039501978296691 3.3055402001531657e-19 1.7895177363357417e-11 1.7866377801898265e-11 2.879956145915247e-14
2.1016163906111602 3.459484201511137e-19 1.9298974468360516e-11 1.9258923007037503e-11 4.0051461323011504e-14
2.1656225393682647 3.6215101304429167e-19 2.0818138824481794e-11 2.0763080614252176e-11 5.505821022962167e-14
2.231578038680979 3.790766269797452e-19 2.2454765266217522e-11 2.2379926025869e-11 7.483924034852224e-14
2.299542257339062 3.9669044126122887e-19 2.4213778402391356e-11 2.4113161718084124e-11 1.0061668430722503e-13
2.369576372248914 4.1498944266244377e-19 2.6102204758350537e-11 2.5968366278106648e-11 1.338384802438891e-13
2.4417434235010123 4.339798595470901e-19 2.8128011739849862e-11 2.7951818405490567e-11 1.761933343592917e-13
2.5161083711144245 4.537382367889688e-19 3.0304292887630194e-11 3.007466122009404e-11 2.2963166753614346e-13
2.5927381535095444 4.744312071385076e-19 3.265136486258417e-11 3.235499099039425e-11 2.963738721899202e-13
2.6717017477616296 4.961851009091995e-19 3.5188530201642834e-11 3.4809632903052786e-11 3.7889729859004887e-13
2.753070231689431 5.192138486681703e-19 3.794311579321037e-11 3.7463185683567146e-11 4.799301096432434e-13
2.836916847834745 5.442185053315943e-19 4.0981641017727994e-11 4.0379185398448987e-11 6.024556192790101e-13
2.9233170693905177 5.727993979597414e-19 4.444755830784094e-11 4.36980349098945e-11 7.495233979464391e-13
2.967498994190263 5.899714954375117e-19 4.6471965667541125e-11 4.5640436256638385e-11 8.315294109027434e-13
3.0123486681368425 6.082406997036853e-19 4.8635137555633584e-11 4.7713806234185574e-11 9.21331321448015e-13
3.0578761833420214 6.375333827655562e-19 5.174784395050003e-11 5.072799614027231e-11 1.0198478102277238e-12
3.1040917844459814 6.715078567689402e-19 5.532928853623871e-11 5.420265384047361e-11 1.1266346957650983e-12
3.127460860933648 7.024772875646369e-19 5.831678906763033e-11 5.7133143943661226e-11 1.1836451239690992e-12
3.1510058709225794 7.415674595346112e-19 6.202536231308132e-11 6.07824123209359e-11 1.2429499921454155e-12
3.162844764501044 7.766987320175533e-19 6.520785374510626e-11 6.393425946213874e-11 1.2735942829675368e-12
3.1747281389236908 8.163139919864099e-19 6.879125220220347e-11 6.748642287633261e-11 1.3048293258708348e-12
3.1986289994194426 9.231115611828174e-19 7.837679379093406e-11 7.700753180579265e-11 1.3692619851414188e-12
3.2227097969389145 1.1694007898635096e-18 1.0003546960188182e-10 9.859805418082965e-11 1.4374154210522055e-12
3.2348180950136065 1.3999878445752868e-18 1.2021082059516276e-10 1.1873706474726295e-10 1.473755847899778e-12
3.240889293275058 1.5721596112314395e-18 1.3524781705352453e-10 1.3375489225665011e-10 1.4929247968743727e-12
3.2469718861334385 1.7716871905456005e-18 1.5269858286325716e-10 1.5118582390592965e-10 1.512758957327493e-12
3.2714166318528037 2.816156129676396e-18 2.4454681960315545e-10 2.429521954128722e-10 1.5946241902831341e-12
3.2744851364798273 2.8813584654912348e-18 2.504434905018282e-10 2.4883924710814547e-10 1.6042433936826932e-12
3.2775565192852394 2.9482840091695343e-18 2.565009273122541e-10 2.548870192102521e-10 1.613908102001949e-12
3.283707930232385 2.8838049385845915e-18 2.5136212318721415e-10 2.497309892481587e-10 1.631133939055504e-12
3.2898708863219004 2.679144076667432e-18 2.3396147809550697e-10 2.3231472074542728e-10 1.646757350079741e-12
3.29141343181113 2.6307689492240122e-18 2.2984474426548233e-10 2.281940651244803e-10 1.6506791410020568e-12
3.292184975758714 2.606982503990286e-18 2.2781996364552152e-10 2.2616732121667407e-10 1.6526424288474407e-12
3.295272960557952 2.4589063303936612e-18 2.1508137926663689e-10 2.1342111005117048e-10 1.6602692154664705e-12
3.3076538914384823 1.941726365088162e-18 1.7048160283614394e-10 1.687907268942422e-10 1.6908759419017744e-12
3.310756385682612 1.83527506443205e-18 1.6128642750350552e-10 1.5958784222680809e-10 1.6985852766973736e-12
3.313861789986515 1.7365912607698454e-18 1.527571108098175e-10 1.510507931242835e-10 1.7063176855340104e-12
3.3200813396944477 1.5988632979720397e-18 1.4090600120656248e-10 1.3918302696243403e-10 1.722974244128444e-12
3.345076488085796 1.3591450189247213e-18 1.2068166229913346e-10 1.1888439141396943e-10 1.797270885164018e-12
3.3482140837626964 1.3690143174657408e-18 1.2167199863720849e-10 1.198646600560153e-10 1.8073385811931522e-12
3.3513546224236106 1.3789698298441152e-18 1.2267175611552537e-10 1.208543073028975e-10 1.8174488126278857e-12
3.3576445397418455 1.4483376041169301e-18 1.2908445841482512e-10 1.2724586185532766e-10 1.8385965594975116e-12
3.3702598118196083 1.6989342046746045e-18 1.5198802613800205e-10 1.5010507554303365e-10 1.8829505949684495e-12
3.382922481734668 1.7591043241652376e-18 1.5796216426685635e-10 1.5603619213891018e-10 1.925972127946209e-12
3.389271646505754 1.790093255641727e-18 1.610465656505593e-10 1.5909880477143113e-10 1.9477608791281602e-12
3.395632727569191 1.8242516537159405e-18 1.6442766608715343e-10 1.6245745041663083e-10 1.970215670522571e-12
3.421196662673239 1.98999373849085e-18 1.8071707249425808e-10 1.7865400019987856e-10 2.0630722943795587e-12
3.4276182099114902 1.9604113882483874e-18 1.7836477536230737e-10 1.7628107895418766e-10 2.083696408119679e-12
3.4340518103208963 1.825690822086037e-18 1.664192301134538e-10 1.6431607474560386e-10 2.103155367849961e-12
3.4469541582030403 1.632289989290873e-18 1.4934897896264788e-10 1.4720857141372967e-10 2.1404075489182056e-12
3.472904465399547 1.5789251076993854e-18 1.455538845991245e-10 1.4332751412537836e-10 2.2263704737461212e-12
3.4990501388274233 1.4982904790757605e-18 1.3916038400625933e-10 1.3684626046891172e-10 2.3141235373476334e-12
3.5253949054701885 1.2120146955678119e-18 1.1341881129359552e-10 1.1101978199657767e-10 2.3990292970178492e-12
3.5519380250092896 9.394848295669792e-19 8.857773772953773e-11 8.60936478329915e-11 2.484089896546213e-12
3.578680990867387 8.341027597863545e-19 7.923407233807216e-11 7.665678602295601e-11 2.57728631511615e-12
3.605625307711299 7.944967288472659e-19 7.60400055440784e-11 7.33647307853691e-11 2.6752747587092692e-12
3.660119384959845 7.715207124410108e-19 7.495701340184108e-11 7.207663171524771e-11 2.880381686593381e-12
3.715437065384467 7.5695401535541e-19 7.465327065400824e-11 7.155776739805521e-11 3.095503255953027e-12
3.8285932144167436 7.61727985195495e-19 7.741205024232146e-11 7.38580426439417e-11 3.5540075983797563e-12
3.94519561050918 7.746629946077836e-19 8.112426679624383e-11 7.707601421471584e-11 4.048252581527991e-12
4.06534921144712 7.901421653329599e-19 8.526534005853054e-11 8.068901307175668e-11 4.576326986773856e-12
4.189162171576248 8.064728498872208e-19 8.967809157979181e-11 8.45401951756515e-11 5.137896404140326e-12
4.316745939156006 8.22893612654974e-19 9.429086361924103e-11 8.856152130492547e-11 5.729342314315601e-12
4.448215356677963 8.390018189445324e-19 9.90645202138354e-11 9.272380804304515e-11 6.340712170790249e-12
4.58368876423945 8.546866008459539e-19 1.0398996919692135e-10 9.701855596192459e-11 6.971413234996716e-12
4.723288106065518 8.700135705641533e-19 1.0907868581640587e-10 1.014545114099489e-10 7.624174406456975e-12
4.867139040275056 8.850196762130481e-19 1.1433945354506832e-10 1.060605921779932e-10 8.27886136707511e-12
4.940699165968905 8.928330281842474e-19 1.1709223388913827e-10 1.0848352173953384e-10 8.608712149604392e-12
5.015371051989984 9.002152127147038e-19 1.198447047417778e-10 1.109057349786901e-10 8.938969763087697e-12
5.091171501069577 9.085750190810762e-19 1.2278574562327386e-10 1.1350844110921164e-10 9.277304514062273e-12
5.129500256944802 9.125737115492818e-19 1.2425459063431938e-10 1.1480846836803288e-10 9.446122266286472e-12
5.168117569889187 9.165814918011223e-19 1.2573983942211532e-10 1.1612323190934316e-10 9.616607512772154e-12
5.20702561229733 9.215941018002542e-19 1.273792928453324e-10 1.1757491320593246e-10 9.804379639399924e-12
5.246226572918644 9.265151204666251e-19 1.2902355004400715e-10 1.1903118876932322e-10 9.992361274683889e-12
5.265937586045735 9.289415770116354e-19 1.2984748481416182e-10 1.197610868752803e-10 1.008639793888152e-11
5.285722656980489 9.31345511627671e-19 1.3067262963395746e-10 1.2049218203862574e-10 1.0180447595331737e-11
5.305582063971359 9.337270740118047e-19 1.3149899117486867e-10 1.2122449417940107e-10 1.0274496995467601e-11
5.3255160863122235 9.36284487703321e-19 1.3235457626997192e-10 1.2198516707703946e-10 1.0369409192932417e-11
5.365609099470188 9.428631655809221e-19 1.3428797736791716e-10 1.2372205154500153e-10 1.056592582291569e-11
5.406003951863644 9.49429818659432e-19 1.3624126247039883e-10 1.254786859781783e-10 1.0762576492220489e-11
5.446702915881641 9.559909628382988e-19 1.3821555045573065e-10 1.2725629567854052e-10 1.0959254777190126e-11
5.487708281020852 9.629253248372137e-19 1.4026620875174415e-10 1.291093757425724e-10 1.1156833009171699e-11
5.529022354014368 9.731672854336481e-19 1.4282534436677696e-10 1.3146253647347707e-10 1.1362807893299857e-11
5.570647458961463 9.836545630419308e-19 1.4545133737058383e-10 1.3388248160103875e-10 1.1568855769545088e-11
5.612585937458331 9.944164691057883e-19 1.4814968934127143e-10 1.363748206667161e-10 1.1774868674555336e-11
5.654840148729818 1.0060382945173072e-18 1.510095029709745e-10 1.3902757561084723e-10 1.1981927360127316e-11
5.67608639626678 1.014426078993525e-18 1.5284063589371067e-10 1.4075009808140338e-10 1.209053781230726e-11
5.686739436050992 1.0187013296624277e-18 1.5377284009126525e-10 1.4162798633712795e-10 1.2144853754137356e-11
5.6974124697621304 1.0230328616467514e-18 1.5471651668705202e-10 1.4251734213696533e-10 1.2199174550086641e-11
5.718818669136295 1.0318711321680236e-18 1.5663947614303465e-10 1.443316523269496e-10 1.2307823816085055e-11
5.740305295436557 1.0416404766811796e-18 1.5871657072907135e-10 1.4629917077800656e-10 1.2417399951064786e-11
5.7835210386641895 1.0676683137650995e-18 1.6390722844240089e-10 1.5126351463783329e-10 1.2643713804567552e-11
5.827062130521658 1.0970933268151563e-18 1.6969250283018017e-10 1.568200638249185e-10 1.2872439005261656e-11
5.8489554468988025 1.1185188871150025e-18 1.7365650980231928e-10 1.606597276770996e-10 1.2996782125219707e-11
5.870931020387893 1.1411633421702557e-18 1.7783785974941833e-10 1.647165485926448e-10 1.3121311156773551e-11
5.892989160043636 1.1651247677624208e-18 1.8225418505429213e-10 1.6900817312460074e-10 1.3246011929691428e-11
5.915130176081913 1.1923573759112862e-18 1.8721480175346718e-10 1.738392500011627e-10 1.3375551752304507e-11
5.95966208400165 1.2699523170413877e-18 2.008993277661907e-10 1.8722394627359024e-10 1.3675381492600421e-11
6.004529249263818 1.3817852304518248e-18 2.2023632120834573e-10 2.0622088726435861e-10 1.40154339439871e-11
6.027089341400364 1.4598912521035859e-18 2.335595170004825e-10 2.1934528608842041e-10 1.4214230912062104e-11
6.049734195844842 1.5513648937489741e-18 2.4912636208391453e-10 2.347010405287657e-10 1.4425321555148835e-11
6.095279466722835 1.815912422005705e-18 2.938041698187235e-10 2.7885218511127227e-10 1.4951984707451326e-11
6.141167624020661 2.219511113696992e-18 3.618076195499242e-10 3.461624421612481e-10 1.5645177388676147e-11
6.164241091010745 2.476508242318592e-18 4.052180916701353e-10 3.8913322568119835e-10 1.608486598893706e-11
6.187401249150058 2.764987993512589e-18 4.5412034958744505e-10 4.3758489317189553e-10 1.653545641554961e-11
6.1990139391386085 2.9047954218021987e-18 4.779776584642988e-10 4.6121309008494397e-10 1.6764568379354754e-11
6.204828454712694 2.978085551425297e-18 4.904970295661532e-10 4.736168355573461e-10 1.6880194008807124e-11
6.210648424152782 3.0307912967495517e-18 4.996459939240776e-10 4.826682982472145e-10 1.6977695676863083e-11
6.233982942956859 3.2063758407991244e-18 5.305782833501416e-10 5.1326492686707e-10 1.7313356483071515e-11
6.239830258556775 3.226786230464199e-18 5.344565499316544e-10 5.170998498270765e-10 1.7356700104577847e-11
6.245683058788269 3.2253345923538473e-18 5.347171943048956e-10 5.173171147140123e-10 1.7400079590883465e-11
6.257405133728602 3.2130881433255937e-18 5.336866592554761e-10 5.162125372999826e-10 1.7474121955493515e-11
6.269149208991335 3.169179685818734e-18 5.27381514323457e-10 5.098893300332774e-10 1.749218429017956e-11
6.280915325867298 3.070121658089628e-18 5.118561869200116e-10 4.944150381754604e-10 1.7441148744551157e-11
6.304513850009849 2.8304661857340373e-18 4.736734112519356e-10 4.56396648909597e-10 1.7276762342338544e-11
6.32820103803542 2.54005727250274e-18 4.266710825794057e-10 4.0962498439729744e-10 1.7046098182108376e-11
6.3519772230701035 2.2755409097384165e-18 3.8367456804851474e-10 3.668378184415569e-10 1.6836749606957828e-11
6.375842739491607 2.0524295693750405e-18 3.4735638998547587e-10 3.307070172950886e-10 1.664937269038728e-11
6.399797922933955 1.8752674739605667e-18 3.185656278763004e-10 3.0202531941683454e-10 1.6540308459465848e-11
6.42384311029221 1.7272469537784695e-18 2.945227141889915e-10 2.7807574565252515e-10 1.64469685364664e-11
6.447978639727206 1.6193519936032353e-18 2.771623809352125e-10 2.6074795409248913e-10 1.6414426842723282e-11
6.472204850670314 1.5288928866426593e-18 2.6266290774841245e-10 2.4626901677220786e-10 1.6393890976204526e-11
