Dust emission spectrum from A.P. Jones, M. Kohler, N. Ysard, M. Bocchio, and L. Verstraete (2017), A&A, 602A, 46J 
inside the DustPedia framework.

lambda    nu*dP/dnu     j_nu    j_nu(carb.) j_nu(sil)
 (um)   (erg s-1 H-1) (Jy cm2 sr-1 H-1)
0.9927057738263894 1.4896435133430165e-20 3.925295267721275e-13 3.925294760198151e-13 5.075231233760673e-20
1.0001793341362166 1.5146464845833542e-20 4.021227011125744e-13 4.0212264004719134e-13 6.106538307760397e-20
1.0077091589558085 1.539755576633666e-20 4.1186645769732597e-13 4.118663843215644e-13 7.337576166313809e-20
1.0114953028030835 1.5523489023253654e-20 4.167951361771602e-13 4.1679505578513093e-13 8.039202933697185e-20
1.0152956718711033 1.5649675607308052e-20 4.2176186366003723e-13 4.217617756103789e-13 8.804965829514913e-20
1.0229392996569957 1.5902670563798068e-20 4.3180668260342375e-13 4.318065770856433e-13 1.0551778054000601e-19
1.0267826658714554 1.6029192284211694e-20 4.368774212542682e-13 4.3687730579682065e-13 1.1545744755088436e-19
1.0306404723013447 1.6155946576695307e-20 4.419865302920528e-13 4.419864040009652e-13 1.262910875313935e-19
1.03451277320114 1.6282930148633697e-20 4.4713415995426297e-13 4.471340218592654e-13 1.3809499750153696e-19
1.0383996230291617 1.6410139836440857e-20 4.523204640325605e-13 4.5232031308095136e-13 1.5095160923261127e-19
1.0403485208654093 1.64738285212588e-20 4.549281680466933e-13 4.54928010244465e-13 1.5780222836034966e-19
1.0423010764483396 1.6537572608821246e-20 4.575456000241967e-13 4.575454350742469e-13 1.649499498358646e-19
1.0462171883269815 1.6665225570019738e-20 4.628097292858346e-13 4.628095490997002e-13 1.801861342604272e-19
1.0471985131304309 1.6697172888643472e-20 4.641318735887584e-13 4.641316893881845e-13 1.8420057404662952e-19
1.048180758391296 1.6729133754361074e-20 4.654564679105662e-13 4.654562796100455e-13 1.8830052072562897e-19
1.0501480137395462 1.6793095963058798e-20 4.681130171897715e-13 4.681128204258798e-13 1.967638917062843e-19
1.0521189612883777 1.685711187370354e-20 4.707793984484527e-13 4.707791928579574e-13 2.0559049534856589e-19
1.0531058218030118 1.6889097772206068e-20 4.72115106041642e-13 4.721148958967232e-13 2.101449186665002e-19
1.0540936079674168 1.6920959067603865e-20 4.734494187617184e-13 4.734492039649342e-13 2.147967843377472e-19
1.058054026499678 1.704853105322737e-20 4.788111357702697e-13 4.788109013620506e-13 2.3440821920521084e-19
1.0590464539527713 1.7080455572356223e-20 4.801576952908867e-13 4.801574557186453e-13 2.3957224133879373e-19
1.06003981227728 1.711239263133908e-20 4.815067124769762e-13 4.815064676320436e-13 2.4484493237699983e-19
1.0620293250338977 1.7176304235193128e-20 4.842121311092783e-13 4.842118753842306e-13 2.5572504760837134e-19
1.0660195594769086 1.7304276484721924e-20 4.896525853150333e-13 4.896523064274063e-13 2.788876270670416e-19
1.070024785945596 1.7432445829178144e-20 4.951326837883301e-13 4.951323797411644e-13 3.040471657888787e-19
1.0740450607676866 1.7560810455189323e-20 5.006526169651491e-13 5.006522855986461e-13 3.313665030541761e-19
1.07808044048254 1.7689368711744565e-20 5.062125804896466e-13 5.062122194687054e-13 3.6102094113740516e-19
1.0861967418109137 1.7946864907800523e-20 5.174477734336003e-13 5.174473453295328e-13 4.2810406746978514e-19
1.0902777775684922 1.807535607336062e-20 5.231105208214835e-13 5.231100548674176e-13 4.65954066050515e-19
1.0943741465085532 1.820402833439726e-20 5.288137763168119e-13 5.288132693331647e-13 5.069836470313509e-19
1.1026131145906286 1.846191329804586e-20 5.403427065851495e-13 5.403421069763692e-13 5.99608780169112e-19
1.1109141095355224 1.872051594349373e-20 5.520364185273423e-13 5.520357102984171e-13 7.082289253620673e-19
1.1192775983109025 1.897963456883036e-20 5.638909065164659e-13 5.638900710802114e-13 8.354362546151723e-19
1.1277040513999907 1.9238348288181104e-20 5.758804781985633e-13 5.758794939848946e-13 9.842136686268633e-19
1.1361939428280308 1.949775673514826e-20 5.880395686145902e-13 5.880384106255745e-13 1.1579890156314864e-18
1.1447477501889525 1.9757868864566015e-20 6.003704805011788e-13 6.003691198051436e-13 1.3606960352163896e-18
1.1533659546722406 2.0018787153174336e-20 6.128784101320877e-13 6.128768132869121e-13 1.5968451756529954e-18
1.1707974979042381 2.0543846165943787e-20 6.384589407578254e-13 6.384567498828514e-13 2.1908749740473355e-18
1.1884924949847024 2.1072321517382622e-20 6.647804830246376e-13 6.647774922401855e-13 2.9907844520030877e-18
1.2064549276569216 2.160779730970928e-20 6.919760000347335e-13 6.91971937500155e-13 4.062534578449098e-18
1.2246888378427687 2.214696427459807e-20 7.199617065578981e-13 7.199562153234053e-13 5.4912344925936074e-18
1.2431983285522175 2.268947649231615e-20 7.48745674107658e-13 7.487382877978022e-13 7.386309855689717e-18
1.2619875648066055 2.3236232164199783e-20 7.783773961464104e-13 7.783675084108684e-13 9.887735542217e-18
1.3004222497298317 2.4339671587717378e-20 8.40172647455316e-13 8.401551786859737e-13 1.746876934239936e-17
1.3400274889804893 2.5461625695739243e-20 9.05668514776549e-13 9.056382195633626e-13 3.029521318619652e-17
1.3808389325824078 2.660745673140156e-20 9.752496902654863e-13 9.751980917773752e-13 5.159848811083286e-17
1.4228933163050095 2.7788108483282163e-20 1.0495442607283862e-12 1.0494579097756114e-12 8.635095277464974e-17
1.466228494730424 2.90252991986712e-20 1.1296601104940407e-12 1.1295180470599098e-12 1.4206343413068414e-16
1.5108834753276823 3.031930315929946e-20 1.2159609272186821e-12 1.2157310614524148e-12 2.2986576626786144e-16
1.5568984535646726 3.167231705943157e-20 1.3089093096205778e-12 1.3085431224026615e-12 3.661872179162633e-16
1.6043148490894465 3.3095725009605727e-20 1.4093891884195147e-12 1.4088137689983722e-12 5.754194211426022e-16
1.6531753430134553 3.460225659729886e-20 1.518423003809699e-12 1.5175321642883676e-12 8.908395213316305e-16
1.7035239163302658 3.6207034639782455e-20 1.6372335127878377e-12 1.6358744206181241e-12 1.359092169713752e-15
1.755405889504358 3.794379759965851e-20 1.7680224658470684e-12 1.7659781443958934e-12 2.0443214511749387e-15
1.8088679632656115 3.9821180775970656e-20 1.91201120778329e-12 1.9089783442102047e-12 3.032863573085721e-15
1.8639582606462262 4.184869262953634e-20 2.0705585278574805e-12 2.066119055764667e-12 4.439472092813694e-15
1.9207263702978936 4.4043343374815744e-20 2.245511126480616e-12 2.2390968695231465e-12 6.414256957469583e-15
1.979223391128241 4.642670454662325e-20 2.4391140380319074e-12 2.429963138226668e-12 9.150899805240004e-15
2.039501978296691 4.9021337277851135e-20 2.653864337016572e-12 2.640968894246569e-12 1.2895442770002549e-14
2.1016163906111602 5.1866040907299423e-20 2.8933833512165874e-12 2.8754260657883355e-12 1.795728542825272e-14
2.1656225393682647 5.499120078096891e-20 3.1611521457849685e-12 3.136433543315187e-12 2.4718602469781557e-14
2.231578038680979 5.841361493310454e-20 3.460155330927765e-12 3.426510490724145e-12 3.364484020361918e-14
2.299542257339062 6.215970863607803e-20 3.794196315106196e-12 3.748900885958155e-12 4.529542914804113e-14
2.369576372248914 6.626281129951067e-20 4.1678300472107385e-12 4.107495100309825e-12 6.033494690091494e-14
2.4417434235010123 7.075911650513084e-20 4.586188082172418e-12 4.5066473546415585e-12 7.954072753085915e-14
2.5161083711144245 7.569668467085375e-20 5.055634101110672e-12 4.951820820477308e-12 1.0381328063336311e-13
2.5927381535095444 8.113719190818068e-20 5.58403413826462e-12 5.4498530252997185e-12 1.341811129649019e-13
2.6717017477616296 8.713641360308339e-20 6.179553388677922e-12 6.007757442675803e-12 1.7179594600212172e-13
2.753070231689431 9.376140887692488e-20 6.851897350344689e-12 6.6339662078975344e-12 2.1793114244715175e-13
2.836916847834745 1.0115017246271746e-19 7.616977401793084e-12 7.342992549654818e-12 2.73984852138267e-13
2.9233170693905177 1.0956778606613983e-19 8.502139801791612e-12 8.160742705660825e-12 3.413970961307875e-13
2.967498994190263 1.1435540406881233e-19 9.00775792200374e-12 8.628690210513529e-12 3.79067711490211e-13
3.0123486681368425 1.1944903560330315e-19 9.551186364681908e-12 9.130833750606178e-12 4.203526140757303e-13
3.0578761833420214 1.2634888933262464e-19 1.0255592546607113e-11 9.789916002530521e-12 4.656765440765903e-13
3.1040917844459814 1.3408974868844038e-19 1.1048404452976188e-11 1.0533547425467465e-11 5.148570275087193e-13
3.127460860933648 1.4010125720903634e-19 1.1630632917818606e-11 1.1089499467662974e-11 5.411334501556337e-13
3.1510058709225794 1.4736437795689367e-19 1.2325687727121171e-11 1.1757205556540507e-11 5.684821705806681e-13
3.162844764501044 1.533362713343768e-19 1.2873368711468426e-11 1.2290749128798306e-11 5.826195826701253e-13
3.1747281389236908 1.5999050845241487e-19 1.348249267432876e-11 1.2885459179296065e-11 5.970334950326947e-13
3.1986289994194426 1.7745621179894796e-19 1.5066920948606738e-11 1.4440141909919948e-11 6.267790386867912e-13
3.2227097969389145 2.1582514943842922e-19 1.8462592434617354e-11 1.7804335270111067e-11 6.58257164506285e-13
3.2348180950136065 2.5110504300077676e-19 2.1561289543813413e-11 2.088624415088536e-11 6.750453929280526e-13
3.240889293275058 2.772594526020008e-19 2.3851735825031016e-11 2.3167835005621464e-11 6.839008194095549e-13
3.2469718861334385 3.0750414009288855e-19 2.650323751695038e-11 2.5810173976418896e-11 6.930635405314789e-13
3.2714166318528037 4.653929543008465e-19 4.041337255440686e-11 3.9682477777120864e-11 7.308947772859906e-13
3.2744851364798273 4.753567707185287e-19 4.131731970118792e-11 4.058197614966477e-11 7.35343551523152e-13
3.2775565192852394 4.85579812110039e-19 4.224547964272224e-11 4.150566595140025e-11 7.398136913219987e-13
3.283707930232385 4.763582182882348e-19 4.152098206939691e-11 4.077319368447636e-11 7.477883849205533e-13
3.2898708863219004 4.461627959928844e-19 3.8962035722827945e-11 3.820700771072745e-11 7.550280121004915e-13
3.29141343181113 4.39030878839357e-19 3.835720354736842e-11 3.760035807701599e-11 7.568454703524244e-13
3.292184975758714 4.3552486216048065e-19 3.8059809803959916e-11 3.730205447081557e-11 7.57755333144345e-13
3.295272960557952 4.1358378849639465e-19 3.6176315694744005e-11 3.541502452916232e-11 7.61291165581687e-13
3.3076538914384823 3.370560471497993e-19 2.9593178625405176e-11 2.8817694683388592e-11 7.754839420165691e-13
3.310756385682612 3.2134066003988396e-19 2.8239847025595672e-11 2.7460787488722262e-11 7.790595368734084e-13
3.313861789986515 3.0678690854156237e-19 2.698613245485853e-11 2.6203486352991568e-11 7.826461018669505e-13
3.3200813396944477 2.8660894125944404e-19 2.525851952079836e-11 2.4468150756344085e-11 7.903687644542683e-13
3.345076488085796 2.5251690362311797e-19 2.2421565957676374e-11 2.1596759414906895e-11 8.248065427694778e-13
3.3482140837626964 2.542270839607819e-19 2.2594590150436326e-11 2.1765117493857042e-11 8.29472656579283e-13
3.3513546224236106 2.559510343873537e-19 2.2769144174409717e-11 2.193498533792051e-11 8.341588364892092e-13
3.3576445397418455 2.6681386225458083e-19 2.3780037754180763e-11 2.2936078019986414e-11 8.439597341943504e-13
3.3702598118196083 3.053191651945219e-19 2.7314099117161414e-11 2.6449583130411526e-11 8.645159867498938e-13
3.382922481734668 3.152878186228658e-19 2.8311877534766238e-11 2.7427410723991046e-11 8.844668107751978e-13
3.389271646505754 3.2041279666577225e-19 2.882608508293336e-11 2.7931511641084252e-11 8.94573441849107e-13
3.395632727569191 3.260250967981496e-19 2.9386047502361424e-11 2.8481058543655906e-11 9.049889587055088e-13
3.421196662673239 3.529006737354293e-19 3.2047928295032346e-11 3.109985568532804e-11 9.480726097043033e-13
3.4276182099114902 3.489065898822025e-19 3.1744686803912186e-11 3.078703165120582e-11 9.576551527063785e-13
3.4340518103208963 3.291048497863865e-19 2.999926113747712e-11 2.903255827402299e-11 9.667028634541296e-13
3.4469541582030403 3.0091195522296233e-19 2.753241983045391e-11 2.6548382853168283e-11 9.840369772856283e-13
3.472904465399547 2.9474629929336275e-19 2.7171313334725446e-11 2.6147297496321462e-11 1.0240158384039835e-12
3.4990501388274233 2.8449342454590316e-19 2.6423590592049527e-11 2.535873483089519e-11 1.0648557611543393e-12
3.5253949054701885 2.432697522340718e-19 2.2764877540655357e-11 2.1660460336366766e-11 1.1044172042885898e-12
3.5519380250092896 2.0410204707348802e-19 1.924341620723134e-11 1.8099328176683744e-11 1.1440880305475973e-12
3.578680990867387 1.9017934225554084e-19 1.8065740203691654e-11 1.687818342175188e-11 1.1875567819397743e-12
3.605625307711299 1.862013807667425e-19 1.782103501717504e-11 1.6587752940058146e-11 1.233282077116896e-12
3.660119384959845 1.867934598275911e-19 1.8147898878014297e-11 1.6818806276750427e-11 1.3290926012638692e-12
3.715437065384467 1.8874942045653242e-19 1.8615082667224808e-11 1.7185358040889383e-11 1.4297246263354245e-12
3.8285932144167436 1.980471102777698e-19 2.0126912952048864e-11 1.84822053260439e-11 1.6447076260049659e-12
3.94519561050918 2.0890356359155178e-19 2.1876801325804356e-11 1.9999612278910576e-11 1.8771890468937824e-12
4.06534921144712 2.2041365193982615e-19 2.378514375102659e-11 2.1658711717445897e-11 2.1264320335806925e-12
4.189162171576248 2.3225954726054666e-19 2.582677513871052e-11 2.343434232145909e-11 2.3924328172514266e-12
4.316745939156006 2.4425030962135244e-19 2.798730270752592e-11 2.5313647484340188e-11 2.673655223185735e-12
4.448215356677963 2.5622899781623135e-19 3.025404970571936e-11 2.7288479716015207e-11 2.965569989704155e-12
4.58368876423945 2.6810923353300056e-19 3.262092901528013e-11 2.935289122811143e-11 3.2680377871687055e-12
4.723288106065518 2.798377787645915e-19 3.5084897732837096e-11 3.1502407346225875e-11 3.582490386611224e-12
4.867139040275056 2.9130140880072264e-19 3.763446711343537e-11 3.3734897602630246e-11 3.8995695108051375e-12
4.940699165968905 2.969886736432825e-19 3.8949127259982936e-11 3.488915582359565e-11 4.059971436387288e-12
5.015371051989984 3.025268762892027e-19 4.0275084949960926e-11 3.605405997698825e-11 4.221024972972674e-12
5.091171501069577 3.0815898679622986e-19 4.164491667683777e-11 3.725852614240236e-11 4.386390534435399e-12
5.129500256944802 3.1090902637280326e-19 4.2332880410155483e-11 3.786378953033501e-11 4.469090879820475e-12
5.168117569889187 3.1363947932797575e-19 4.302615546997372e-11 3.847346032121595e-11 4.5526951487577676e-12
5.20702561229733 3.1654925718827693e-19 4.3752255415472795e-11 3.910771875832247e-11 4.644536657150335e-12
5.246226572918644 3.1941703030837262e-19 4.448100013105508e-11 3.974438921018984e-11 4.7366109208652364e-12
5.265937586045735 3.2083482318178646e-19 4.4846302353016015e-11 4.0063582063244473e-11 4.78272028977154e-12
5.285722656980489 3.222417110171199e-19 4.521219164170587e-11 4.038332192172413e-11 4.828869719981746e-12
5.305582063971359 3.2363756601924405e-19 4.557864350550309e-11 4.0703590408632364e-11 4.875053096870736e-12
5.3255160863122235 3.2505733228626127e-19 4.595059091893035e-11 4.102891360205433e-11 4.9216773168760005e-12
5.365609099470188 3.281335794713596e-19 4.673466554031136e-11 4.1716479831967554e-11 5.018185708343806e-12
5.406003951863644 3.3117656387678867e-19 4.752316840742416e-11 4.240826787372321e-11 5.114900533700958e-12
5.446702915881641 3.3418614003936965e-19 4.8316064791116795e-11 4.310429209868833e-11 5.211772692428465e-12
5.487708281020852 3.3722691298993e-19 4.912275059558568e-11 4.381353378056275e-11 5.3092168150229425e-12
5.529022354014368 3.4080667780976814e-19 5.0017948454758346e-11 4.460715845072235e-11 5.410790004036015e-12
5.570647458961463 3.443903176485807e-19 5.092441407942814e-11 4.541186277384054e-11 5.512551305587614e-12
5.612585937458331 3.479813167513167e-19 5.1842789791718326e-11 4.622833900964782e-11 5.614450782070515e-12
5.654840148729818 3.5167939494156025e-19 5.278818005704102e-11 4.7071176030271714e-11 5.7170040267693166e-12
5.67608639626678 3.53957316951172e-19 5.332972261096033e-11 4.7558964066993795e-11 5.770758543966535e-12
5.686739436050992 3.551055629299205e-19 5.360314093438588e-11 4.780548454863095e-11 5.797656385754915e-12
5.6974124697621304 3.562602954442042e-19 5.38783787026186e-11 4.805381181109028e-11 5.824566891528314e-12
5.718818669136295 3.585901473222634e-19 5.443448418660352e-11 4.8556061478132217e-11 5.878422708471307e-12
5.740305295436557 3.610671746962639e-19 5.50164332642057e-11 4.9083668072305975e-11 5.932765191899724e-12
5.7835210386641895 3.6709167811250007e-19 5.635549802120264e-11 5.0310480321001736e-11 6.045017700200911e-12
5.827062130521658 3.736317594159788e-19 5.7791353609084105e-11 5.1632751475191886e-11 6.158602133892231e-12
5.8489554468988025 3.7803458248918747e-19 5.869204975963856e-11 5.2471801757257756e-11 6.220248002380794e-12
5.870931020387893 3.8261855655382585e-19 5.96269286643387e-11 5.334489716745721e-11 6.282031496881483e-12
5.892989160043636 3.8739882016691685e-19 6.059870857960571e-11 5.425476242282584e-11 6.343946156779852e-12
5.915130176081913 3.9271652624767826e-19 6.166133417053612e-11 5.525310693056777e-11 6.408227239968348e-12
5.95966208400165 4.072489651257253e-19 6.442450021890755e-11 5.7868025096675306e-11 6.55647512223225e-12
6.004529249263818 4.274638110320576e-19 6.81314687092265e-11 6.140716709992482e-11 6.724301609301699e-12
6.027089341400364 4.412876535041673e-19 7.059904706066184e-11 6.377689101720647e-11 6.822156043455364e-12
6.049734195844842 4.572913465343343e-19 7.34342578161932e-11 6.650825534662231e-11 6.926002469570896e-12
6.095279466722835 5.029177510982089e-19 8.136919520893312e-11 7.418494219219355e-11 7.184253016739581e-12
6.141167624020661 5.715378355550216e-19 9.316769917877915e-11 8.564456445722116e-11 7.523134721557985e-12
6.164241091010745 6.151090607107716e-19 1.0064707861293804e-10 9.290947344082784e-11 7.737605172110191e-12
6.187401249150058 6.636053741143406e-19 1.0899023980862705e-10 1.0103275491666774e-10 7.957484891959316e-12
6.1990139391386085 6.871100611251675e-19 1.1306244001173336e-10 1.049931377699728e-10 8.069302241760553e-12
6.204828454712694 6.993958054199837e-19 1.1519197790854144e-10 1.0706623507970514e-10 8.125742828836314e-12
6.210648424152782 7.082727626397524e-19 1.1676345013859084e-10 1.0859001285970752e-10 8.173437278883314e-12
6.233982942956859 7.378295182397582e-19 1.2209308534932861e-10 1.1375502564886013e-10 8.33805970046849e-12
6.239830258556775 7.412666453591241e-19 1.2277690109054906e-10 1.144172535150451e-10 8.359647575503974e-12
6.245683058788269 7.411092392100949e-19 1.228659668374592e-10 1.1448470993723208e-10 8.3812569002271e-12
6.257405133728602 7.392313998032224e-19 1.2278466029549974e-10 1.143663131128315e-10 8.418347182668218e-12
6.269149208991335 7.320693214367956e-19 1.2182326835448647e-10 1.1339484378302715e-10 8.428424571459332e-12
6.280915325867298 7.157414839891154e-19 1.193297033848174e-10 1.1092455642443754e-10 8.405146960379898e-12
6.304513850009849 6.761371564980892e-19 1.1315033368242735e-10 1.0482184601263006e-10 8.328487669797285e-12
6.32820103803542 6.282740033988577e-19 1.0553555311080045e-10 9.731574635353115e-11 8.21980675726931e-12
6.3519772230701035 5.84766104369715e-19 9.859628607127712e-11 9.047489136968441e-11 8.121394701592734e-12
6.375842739491607 5.479259307579753e-19 9.273184138809489e-11 8.469828552725341e-11 8.033555860841483e-12
6.399797922933955 5.190536412854284e-19 8.817550105977549e-11 8.0191926995391e-11 7.983574064384483e-12
6.42384311029221 4.948583065255217e-19 8.438110790007944e-11 7.64399313278714e-11 7.941176572208027e-12
6.447978639727206 4.774709974382247e-19 8.172219443348126e-11 7.379399730026121e-11 7.928197133220063e-12
6.472204850670314 4.628958665960805e-19 7.952524036647268e-11 7.160421191224218e-11 7.921028454230464e-12
6.496522083828205 4.535359618423124e-19 7.820996311245445e-11 7.027235957758161e-11 7.93760353487283e-12
