Dust emission spectrum from A.P. Jones, M. Kohler, N. Ysard, M. Bocchio, and L. Verstraete (2017), A&A, 602A, 46J 
inside the DustPedia framework.

lambda    nu*dP/dnu     j_nu    j_nu(carb.) j_nu(sil)
 (um)   (erg s-1 H-1) (Jy cm2 sr-1 H-1)
0.9927057738263894 2.820225290942405e-24 7.431453827231862e-17 7.431453826682912e-17 5.48950248887166e-27
1.0001793341362166 2.8666356468839638e-24 7.610615950082005e-17 7.610615949420597e-17 6.614091960042463e-27
1.0077091589558085 2.912977009522534e-24 7.791869959573712e-17 7.791869958777819e-17 7.958924954537481e-27
1.0114953028030835 2.9361161481082525e-24 7.883272426382943e-17 7.883272425510298e-17 8.72646575877323e-27
1.0152956718711033 2.9592312529261397e-24 7.975186959481288e-17 7.975186958524792e-17 9.564963296679139e-27
1.0229392996569957 3.0053576324344587e-24 8.160475337096234e-17 8.160475335948183e-17 1.1480497738260928e-26
1.0267826658714554 3.0283128137963197e-24 8.253700307442892e-17 8.253700306185689e-17 1.2572028368131262e-26
1.0306404723013447 3.0512338767148886e-24 8.347417267547311e-17 8.347417266171023e-17 1.3762914790916443e-26
1.03451277320114 3.074118626302648e-24 8.441622220475628e-17 8.441622218969451e-17 1.5061763431479476e-26
1.0383996230291617 3.096964880318741e-24 8.536311120564687e-17 8.536311118916899e-17 1.64778853598529e-26
1.0403485208654093 3.108372893098492e-24 8.583835773441955e-17 8.583835771718652e-17 1.723303942500094e-26
1.0423010764483396 3.1197704695878746e-24 8.631479874403996e-17 8.631479872601858e-17 1.802135037685338e-26
1.0462171883269815 3.1425332384099314e-24 8.727124341819004e-17 8.727124339848699e-17 1.9703044950927082e-26
1.0471985131304309 3.1482169886150132e-24 8.751109299369281e-17 8.751109297354638e-17 2.014642545711936e-26
1.048180758391296 3.153897895280358e-24 8.775123661768051e-17 8.775123659708116e-17 2.059936882982883e-26
1.0501480137395462 3.165251044960317e-24 8.823240336855468e-17 8.823240334701996e-17 2.1534734256991068e-26
1.0521189612883777 3.1765924219539325e-24 8.871473836845502e-17 8.871473834594426e-17 2.2510760071093729e-26
1.0531058218030118 3.1822498707136074e-24 8.895609791752145e-17 8.89560978945069e-17 2.3014576116165273e-26
1.0540936079674168 3.1878756350787866e-24 8.919694566263279e-17 8.919694563910348e-17 2.3529302778759058e-26
1.058054026499678 3.2103464333029275e-24 9.01631710759514e-17 9.01631710502506e-17 2.5700764285327142e-26
1.0590464539527713 3.2159559052201243e-24 9.040543263417165e-17 9.040543260789871e-17 2.627292669465967e-26
1.06003981227728 3.221562021164323e-24 9.064797490741836e-17 9.064797488056107e-17 2.685728695971074e-26
1.0620293250338977 3.23276405579404e-24 9.113389885247949e-17 9.11338988244159e-17 2.8063596239144435e-26
1.0660195594769086 3.2551264341518596e-24 9.210908502398315e-17 9.210908499334933e-17 3.0633807132625155e-26
1.070024785945596 3.277431516113747e-24 9.308868522566699e-17 9.308868519223832e-17 3.3428667632245026e-26
1.0740450607676866 3.299677265893042e-24 9.407265470606944e-17 9.407265466960264e-17 3.646680356167392e-26
1.07808044048254 3.321861664508084e-24 9.506094833694211e-17 9.506094829717382e-17 3.976829521260675e-26
1.0861967418109137 3.3659990694720454e-24 9.70491912000099e-17 9.704919115276028e-17 4.7249589016503617e-26
1.0902777775684922 3.387858649659642e-24 9.80464503991111e-17 9.804645034763324e-17 5.1477831328475446e-26
1.0943741465085532 3.409647419798388e-24 9.904777639603469e-17 9.904777633996819e-17 5.60665291012165e-26
1.1026131145906286 3.453004873027531e-24 1.0106243967362236e-16 1.0106243960717848e-16 6.644386893843443e-26
1.1109141095355224 3.496056305937308e-24 1.0309279978847544e-16 1.0309279970983368e-16 7.864177681516599e-26
1.1192775983109025 3.5387467867533495e-24 1.051372789227285e-16 1.0513727882976755e-16 9.29609667703518e-26
1.1277040513999907 3.580877548880657e-24 1.0718994397698677e-16 1.0718994386723822e-16 1.0974855389794958e-25
1.1361939428280308 3.6226531189999085e-24 1.0925684458339856e-16 1.0925684445399396e-16 1.294046184875423e-25
1.1447477501889525 3.664059765701784e-24 1.113375808493471e-16 1.113375806969574e-16 1.5238973359304016e-25
1.1533659546722406 3.705106739993808e-24 1.134324427749867e-16 1.1343244259575308e-16 1.7923365450458697e-25
1.1707974979042381 3.786255768276249e-24 1.176687572388082e-16 1.17668756991786e-16 2.470221861727192e-25
1.1884924949847024 3.8657937313613986e-24 1.219563882360149e-16 1.2195638789723949e-16 3.3877543114953645e-25
1.2064549276569216 3.944346807131381e-24 1.2631520405470093e-16 1.2631520359234455e-16 4.623563250143253e-25
1.2246888378427687 4.021056351822215e-24 1.3071798722969388e-16 1.3071798660171568e-16 6.279782111186469e-25
1.2431983285522175 4.095744617321908e-24 1.3515829973018718e-16 1.3515829888132463e-16 8.488625188949625e-25
1.2619875648066055 4.168385940273896e-24 1.3963440248813847e-16 1.3963440134610131e-16 1.1420371686729729e-24
1.3004222497298317 4.30632720208451e-24 1.4864860904737844e-16 1.4864860700891352e-16 2.038464928396811e-24
1.3400274889804893 4.434359314818038e-24 1.5772989763606719e-16 1.5772989406323785e-16 3.5728293198608044e-24
1.3808389325824078 4.552028558692588e-24 1.6684662825009308e-16 1.668466220982307e-16 6.151862402873772e-24
1.4228933163050095 4.6599310316101306e-24 1.7600348266089852e-16 1.7600347224975098e-16 1.04111475935247e-23
1.466228494730424 4.760685019026725e-24 1.8528511722860248e-16 1.8528509990236665e-16 1.732623582137856e-23
1.5108834753276823 4.8523636506468335e-24 1.9460488827339793e-16 1.9460485990631753e-16 2.83670804015427e-23
1.5568984535646726 4.933415907441736e-24 2.0388132631293607e-16 2.0388128057470086e-16 4.5738235235325335e-23
1.6043148490894465 5.004020083444033e-24 2.130973653604259e-16 2.1309729260110943e-16 7.27593165464183e-23
1.6531753430134553 5.064422457489313e-24 2.2223797857919234e-16 2.222378645140657e-16 1.1406512667580932e-22
1.7035239163302658 5.1153623284205354e-24 2.313098191405173e-16 2.3130964287007775e-16 1.7627043950559814e-22
1.755405889504358 5.1609422332836336e-24 2.4047834931173377e-16 2.404780806609115e-16 2.686508222959321e-22
1.8088679632656115 5.200202430540975e-24 2.4968735572843875e-16 2.4968695177079333e-16 4.0395764546382502e-22
1.8639582606462262 5.232508976746727e-24 2.5889019233654833e-16 2.588895928245833e-16 5.995119650365084e-22
1.9207263702978936 5.258402787351023e-24 2.6809504142378937e-16 2.680941629237366e-16 8.78500052780827e-22
1.979223391128241 5.2790824987491546e-24 2.773465046974599e-16 2.773452331313829e-16 1.2715660770035205e-21
2.039501978296691 5.295973633131848e-24 2.867077141344928e-16 2.867058954860471e-16 1.8186484455525397e-21
2.1016163906111602 5.312980190618181e-24 2.963883142026118e-16 2.9638574288734717e-16 2.5713152647850757e-21
2.1656225393682647 5.332393573590022e-24 3.0653099310313104e-16 3.0652739798294207e-16 3.595120189031622e-21
2.231578038680979 5.354432265667374e-24 3.1717207314352946e-16 3.171671007705544e-16 4.972372975103062e-21
2.299542257339062 5.380495539684651e-24 3.2842265187626675e-16 3.284158466118893e-16 6.805264377348214e-21
2.369576372248914 5.413599995293024e-24 3.4050720579868917e-16 3.4049798636247853e-16 9.2194362107039e-21
2.4417434235010123 5.457299026376292e-24 3.5370989621956713e-16 3.536975287866552e-16 1.2367432911902857e-20
2.5161083711144245 5.517635388238626e-24 3.6851211843119154e-16 3.684956853746793e-16 1.6433056512233134e-20
2.5927381535095444 5.604454320791103e-24 3.8571046788330857e-16 3.856888324581908e-16 2.163542511783379e-20
2.6717017477616296 5.7294791046799706e-24 4.063240676620137e-16 4.062958357328109e-16 2.823192920277788e-20
2.753070231689431 5.91031455314033e-24 4.31914037037602e-16 4.3187751466850377e-16 3.6522369098247207e-20
2.836916847834745 6.186765772014716e-24 4.658860576139152e-16 4.658392032533829e-16 4.685436053227716e-20
2.9233170693905177 6.646390537385732e-24 5.157404703974524e-16 5.156808524798111e-16 5.961791764103523e-20
2.967498994190263 7.031260011157749e-24 5.538512900453968e-16 5.537843418254522e-16 6.69482199443699e-20
3.0123486681368425 7.47962771186315e-24 5.980736290889631e-16 5.979985477230615e-16 7.508136590173123e-20
3.0578761833420214 8.471371890457429e-24 6.876114137465486e-16 6.875272990660243e-16 8.411468052424975e-20
3.1040917844459814 9.746798960970609e-24 8.03093287115205e-16 8.029992215096315e-16 9.406560557371108e-20
3.127460860933648 1.1090385784828283e-23 9.206784332268778e-16 9.20578991388256e-16 9.944183862177073e-20
3.1510058709225794 1.2878775798979751e-23 1.077192269981716e-15 1.077087188437567e-15 1.0508154414852533e-19
3.162844764501044 1.45413952688325e-23 1.220824931021492e-15 1.2207169170440212e-15 1.0801397747038553e-19
3.1747281389236908 1.6474180941257726e-23 1.38828875540536e-15 1.3881777396157806e-15 1.1101578957979338e-19
3.1986289994194426 2.186267672767646e-23 1.85625072597655e-15 1.8561334783920524e-15 1.1724758449737895e-19
3.2227097969389145 3.4557344582509874e-23 2.9561808265145026e-15 2.9560569369146067e-15 1.2388959989533497e-19
3.2348180950136065 4.659311935650829e-23 4.000746959080486e-15 4.00061951455188e-15 1.2744452860476634e-19
3.240889293275058 5.559092709242703e-23 4.7823080325433804e-15 4.782178712381699e-15 1.2932016168153328e-19
3.2469718861334385 6.600027129566889e-23 5.6884465549110435e-15 5.688315293596068e-15 1.3126131497560062e-19
3.2714166318528037 1.2151498594130633e-22 1.0552008474573916e-14 1.0551869159593944e-14 1.3931497997380866e-19
3.2744851364798273 1.2498595437704684e-22 1.0863597519287934e-14 1.08634572466862e-14 1.4027260173342139e-19
3.2775565192852394 1.285565364381199e-22 1.1184428198190313e-14 1.1184286962342701e-14 1.4123584761185337e-19
3.283707930232385 1.2512563487256227e-22 1.0906370547431109e-14 1.0906227572115096e-14 1.4297531601125655e-19
3.2898708863219004 1.1424057082172976e-22 9.976280499693384e-15 9.976135925710175e-15 1.4457398320872062e-19
3.29141343181113 1.1167353538237926e-22 9.756681668588312e-15 9.756536692725345e-15 1.4497586296532755e-19
3.292184975758714 1.104121752105178e-22 9.648740528170742e-15 9.648595351035045e-15 1.4517713570127677e-19
3.295272960557952 1.0245097740703972e-22 8.961422098739885e-15 8.961276135757436e-15 1.459629824493191e-19
3.3076538914384823 7.48683844953378e-23 6.573368122309227e-15 6.573218994399759e-15 1.4912790946958062e-19
3.310756385682612 6.925392625055695e-23 6.086127672093765e-15 6.085977744625799e-15 1.4992746796858834e-19
3.313861789986515 6.407343731944366e-23 5.6361409766816376e-15 5.63599024630642e-15 1.507303752170576e-19
3.3200813396944477 5.680910125723599e-23 5.006521383315793e-15 5.006368932936774e-15 1.5245037901902867e-19
3.345076488085796 4.38564785001598e-23 3.894119210452432e-15 3.8939591104348225e-15 1.6010001760999736e-19
3.3482140837626964 4.4343595920209015e-23 3.94106465764381e-15 3.940903521732421e-15 1.6113591139068487e-19
3.3513546224236106 4.4836086665225336e-23 3.988572751582854e-15 3.988410574148054e-15 1.6217743480064522e-19
3.3576445397418455 4.8429787489680967e-23 4.316350601876542e-15 4.316186249388929e-15 1.6435248761251995e-19
3.3702598118196083 6.167974898703329e-23 5.5179201616122174e-15 5.5177512440940216e-15 1.6891751819669377e-19
3.382922481734668 6.470184453791358e-23 5.8100268726907375e-15 5.809853486608549e-15 1.7338608219012207e-19
3.389271646505754 6.626740320233391e-23 5.961777503312762e-15 5.961601845751383e-15 1.7565756137737842e-19
3.395632727569191 6.795473786815592e-23 6.125053483966892e-15 6.1248754849776384e-15 1.7799898925240237e-19
3.421196662673239 7.605702446782489e-23 6.90695781529097e-15 6.9067700860883906e-15 1.8772920258156039e-19
3.4276182099114902 7.442982909882818e-23 6.7718744275042785e-15 6.771684492479305e-15 1.899350249739495e-19
3.4340518103208963 6.728966997229553e-23 6.1337302767303304e-15 6.1335382387405845e-15 1.9203798974732025e-19
3.4469541582030403 5.712048406314908e-23 5.2263298976609184e-15 5.2261337889762326e-15 1.9610868468522224e-19
3.472904465399547 5.427716513067028e-23 5.0035636213984056e-15 5.003358178530461e-15 2.0544286794571203e-19
3.4990501388274233 4.99249555298459e-23 4.637002023342281e-15 4.6367869444265714e-15 2.1507891570755292e-19
3.5253949054701885 3.441698921435014e-23 3.2206985767341213e-15 3.220474005821345e-15 2.2457091277683844e-19
3.5519380250092896 1.98379432682036e-23 1.870386919088734e-15 1.8701526990420047e-15 2.3422004673011473e-19
3.578680990867387 1.4061989236857338e-23 1.3357930534790849e-15 1.3355482324509164e-15 2.4482102816856074e-19
3.605625307711299 1.1730917632103889e-23 1.1227472806295073e-15 1.1224912219661895e-15 2.5605866331770427e-19
3.660119384959845 1.0041542579291097e-23 9.755850096488881e-16 9.75305025920498e-16 2.7998372839044673e-19
3.715437065384467 8.850174339935695e-24 8.728330214671822e-16 8.725273452070079e-16 3.056762601739661e-19
3.8285932144167436 8.273845856276865e-24 8.408452670397121e-16 8.404826815298213e-16 3.62585509890989e-19
3.94519561050918 8.196372474191251e-24 8.58340610027894e-16 8.579133144055806e-16 4.2729562231337987e-19
4.06534921144712 8.32622730017031e-24 8.984947687919927e-16 8.979942499428064e-16 5.005188491867294e-19
4.189162171576248 8.578317493289413e-24 9.538909361565208e-16 9.533076869823315e-16 5.832491741895148e-19
4.316745939156006 8.921291107146592e-24 1.022241794267283e-15 1.0215655634446112e-15 6.762308226719337e-19
4.448215356677963 9.34508898404881e-24 1.10341448094238e-15 1.1026350140524678e-15 7.794668899124898e-19
4.58368876423945 9.851764084953164e-24 1.1986670233458657e-15 1.197772754047973e-15 8.942692978927477e-19
4.723288106065518 1.0452408975197141e-23 1.3104795984858016e-15 1.3094569743896997e-15 1.0226240961019393e-18
4.867139040275056 1.116844753457936e-23 1.4428992059416802e-15 1.4417356765785332e-15 1.1635293631459175e-18
4.940699165968905 1.1595855081374252e-23 1.5207597977128488e-15 1.519520277327053e-15 1.2395203857964654e-18
5.015371051989984 1.2039260597727307e-23 1.60277410475312e-15 1.601454793253478e-15 1.3193114996411491e-18
5.091171501069577 1.25734661322315e-23 1.6991909107037232e-15 1.6977864969039408e-15 1.4044137997824337e-18
5.129500256944802 1.284795557557881e-23 1.7493572741879872e-15 1.7479087515767579e-15 1.4485226112294591e-18
5.168117569889187 1.3133783253884434e-23 1.801738101980595e-15 1.800244142707734e-15 1.4939592728602368e-18
5.20702561229733 1.3479999451734284e-23 1.8631551508014525e-15 1.8616123379924632e-15 1.5428128089888479e-18
5.246226572918644 1.3835062841094662e-23 1.926626865993237e-15 1.925033930319966e-15 1.5929356732719181e-18
5.265937586045735 1.401599941058659e-23 1.959156868052045e-15 1.9575383867503717e-15 1.6184813016738057e-18
5.285722656980489 1.4199253858273176e-23 1.9922293255678857e-15 1.9905849713919573e-15 1.6443541759286676e-18
5.305582063971359 1.4384863101073196e-23 2.0258542765097153e-15 2.024183718828547e-15 1.670557681169094e-18
5.3255160863122235 1.4583519153619636e-23 2.0615480908340805e-15 2.0598508705162747e-15 1.6972203178058512e-18
5.365609099470188 1.5072659581734324e-23 2.146734587451164e-15 2.144982040825424e-15 1.752546625739915e-18
5.406003951863644 1.5580028027796186e-23 2.2357025723378496e-15 2.233893239519915e-15 1.8093328179343013e-18
5.446702915881641 1.610648591838856e-23 2.3286483906794983e-15 2.326780779646529e-15 1.8676110329698225e-18
5.487708281020852 1.6673840330505176e-23 2.4288242381487564e-15 2.426896667429689e-15 1.9275707190662722e-18
5.529022354014368 1.7452703474915997e-23 2.5614181870338637e-15 2.5594277043620958e-15 1.990482671768155e-18
5.570647458961463 1.8276202644497376e-23 2.7024711891512134e-15 2.7004160994554652e-15 2.0550896957482933e-18
5.612585937458331 1.914749887951716e-23 2.8526237233517054e-15 2.8505022918599814e-15 2.1214314917248358e-18
5.654840148729818 2.0102814948056552e-23 3.017495566687171e-15 3.0153058106951814e-15 2.1897559919895566e-18
5.67608639626678 2.0748595828789868e-23 3.1261307709283347e-15 3.123905265021404e-15 2.2255059069301095e-18
5.686739436050992 2.1081215234718493e-23 3.1822068400481397e-15 3.1799632749697538e-15 2.2435650783844473e-18
5.6974124697621304 2.142052538005769e-23 3.239494249553699e-15 3.2372325014874216e-15 2.2617480662762693e-18
5.718818669136295 2.2119855723668752e-23 3.357824930749964e-15 3.35552644220528e-15 2.2984885446842606e-18
5.740305295436557 2.2889300764535096e-23 3.4876825594453797e-15 3.4853466347922937e-15 2.3359246530861343e-18
5.7835210386641895 2.4877128316718918e-23 3.819108520341906e-15 3.816694665320576e-15 2.4138550213296945e-18
5.827062130521658 2.716145792907343e-23 4.2011884165600034e-15 4.198693951988742e-15 2.494464571261205e-18
5.8489554468988025 2.875883173276122e-23 4.464974532155591e-15 4.462436880250594e-15 2.5376519049987723e-18
5.870931020387893 3.0470951478185957e-23 4.74856542894496e-15 4.745983937528889e-15 2.5814914160724886e-18
5.892989160043636 3.2306999053484793e-23 5.053609662208547e-15 5.050983669936476e-15 2.6259922720722015e-18
5.915130176081913 3.439266793361217e-23 5.4000726955230334e-15 5.397400606670539e-15 2.67208885249351e-18
5.95966208400165 4.021328886105353e-23 6.36151656329472e-15 6.358742048064466e-15 2.774515230257762e-18
6.004529249263818 4.85866231408077e-23 7.743995886371456e-15 7.741107224230673e-15 2.8886621407858517e-18
6.027089341400364 5.440133285447928e-23 8.703353080146494e-15 8.700399794239685e-15 2.953285906809928e-18
6.049734195844842 6.126672715689321e-23 9.838534386645917e-15 9.835512811597176e-15 3.021575048744663e-18
6.095279466722835 8.108514236182203e-23 1.3119108965582754e-14 1.3115924419341873e-14 3.184546240888376e-18
6.141167624020661 1.1156071755090393e-22 1.8185769561271256e-14 1.818237948320406e-14 3.3900780671935774e-18
6.164241091010745 1.3102610110180687e-22 2.143911566300455e-14 2.143559959565498e-14 3.516067349569012e-18
6.187401249150058 1.5318555175326535e-22 2.515912419046885e-14 2.515547772315516e-14 3.646467313694631e-18
6.1990139391386085 1.6400882656347573e-22 2.698728946620652e-14 2.698357641058847e-14 3.713055618047273e-18
6.204828454712694 1.6970875418317716e-22 2.795139306135172e-14 2.7947646264655972e-14 3.746796695748441e-18
6.210648424152782 1.738735400778984e-22 2.866420325361597e-14 2.8660426925822816e-14 3.776327793145948e-18
6.233982942956859 1.8802901105736547e-22 3.11142906696732e-14 3.111040796996837e-14 3.8826997048276066e-18
6.239830258556775 1.8984283522239607e-22 3.144390098863448e-14 3.144000101272718e-14 3.8999759073044805e-18
6.245683058788269 1.9000848648908716e-22 3.150085731583469e-14 3.1496939993448706e-14 3.917322385980036e-18
6.257405133728602 1.896389645107022e-22 3.1498602254226643e-14 3.149465306928597e-14 3.949184940683889e-18
6.269149208991335 1.8688052223878244e-22 3.1098688804824273e-14 3.109472075761558e-14 3.968047208688442e-18
6.280915325867298 1.7993437833931724e-22 2.999898214127933e-14 2.999501142970304e-14 3.9707115763029044e-18
6.304513850009849 1.6279287770259806e-22 2.7243094475941015e-14 2.7239133168076343e-14 3.961307864668866e-18
6.32820103803542 1.415375295885545e-22 2.377504303895497e-14 2.377110680223003e-14 3.936236724944573e-18
6.3519772230701035 1.2204443419050832e-22 2.057767688129652e-14 2.057376067325339e-14 3.916208043125601e-18
6.375842739491607 1.0564012032756155e-22 1.7878699168121288e-14 1.7874797911987412e-14 3.901256133871172e-18
6.399797922933955 9.250513866789836e-23 1.5714535654631067e-14 1.5710630038251137e-14 3.90561637993782e-18
6.42384311029221 8.158199913259225e-23 1.3911011254605309e-14 1.3907097350255546e-14 3.913904349765429e-18
6.447978639727206 7.36330306211074e-23 1.2602760958110671e-14 1.2598823358877413e-14 3.93759923325907e-18
6.472204850670314 6.701208824626988e-23 1.151263774384503e-14 1.150867312828505e-14 3.964615559975723e-18
6.496522083828205 6.272182846234084e-23 1.0816059371474783e-14 1.0812054932172571e-14 4.004439302217257e-18
6.520930681187647 5.911089084331078e-23 1.0231669921926633e-14 1.0227623276081281e-14 4.046645845354797e-18
6.57002334288761 5.544834670702137e-23 9.669965998810535e-15 9.66581587155623e-15 4.150127254304153e-18
