Dust emission spectrum from A.P. Jones, M. Kohler, N. Ysard, M. Bocchio, and L. Verstraete (2017), A&A, 602A, 46J 
inside the DustPedia framework.

lambda    nu*dP/dnu     j_nu    j_nu(carb.) j_nu(sil)
 (um)   (erg s-1 H-1) (Jy cm2 sr-1 H-1)
0.9927057738263894 6.989894953138648e-24 1.8418770219627722e-16 1.8418770060410555e-16 1.5921717233080769e-24
1.0001793341362166 7.106032748377756e-24 1.8865769089069704e-16 1.8865768897327339e-16 1.9174237355766027e-24
1.0077091589558085 7.222125846772595e-24 1.9318334901294702e-16 1.93183346706831e-16 2.3061160162597026e-24
1.0114953028030835 7.280142958482961e-24 1.9546689350730242e-16 1.954668909794585e-16 2.5278437386019482e-24
1.0152956718711033 7.338133735409155e-24 1.9776416059304682e-16 1.977641578230617e-16 2.7699851136751123e-24
1.0229392996569957 7.453959591921365e-24 2.0239805325369282e-16 2.0239804993083776e-16 3.322855046034685e-24
1.0267826658714554 7.511656108575559e-24 2.0473102398900764e-16 2.0473102035127623e-16 3.6377314949364725e-24
1.0306404723013447 7.569303496250919e-24 2.070773243247363e-16 2.0707732034359341e-16 3.9811429989915156e-24
1.03451277320114 7.626896879192202e-24 2.094368825516057e-16 2.0943687819605813e-16 4.355547623754615e-24
1.0383996230291617 7.684431415470385e-24 2.1180962614062722e-16 2.1180962137702404e-16 4.763603313016327e-24
1.0403485208654093 7.713175112534766e-24 2.1300091956406153e-16 2.1300091458292226e-16 4.981139290613392e-24
1.0423010764483396 7.741902298108462e-24 2.1419548177386528e-16 2.1419547656568213e-16 5.2081831018055976e-24
1.0462171883269815 7.799304756189196e-24 2.1659437537546447e-16 2.1659436968307305e-16 5.692391401303465e-24
1.0471985131304309 7.813644123802222e-24 2.1719612720802046e-16 2.171961213879978e-16 5.8200226578252266e-24
1.048180758391296 7.827978845237552e-24 2.177986880661449e-16 2.1779868211575105e-16 5.950393901774202e-24
1.0501480137395462 7.856634055944752e-24 2.1900623214293325e-16 2.1900622592335173e-16 6.219581424521374e-24
1.0521189612883777 7.885269802570192e-24 2.2021699814715437e-16 2.202169916467393e-16 6.500415054226649e-24
1.0531058218030118 7.899558798056697e-24 2.2082298829273536e-16 2.2082298164737762e-16 6.64535762307088e-24
1.0540936079674168 7.913772607413919e-24 2.2142781778640047e-16 2.214278109929755e-16 6.79342494934931e-24
1.058054026499678 7.97057265084692e-24 2.2385500145298453e-16 2.238549940350703e-16 7.41791422711618e-24
1.0590464539527713 7.984758504970774e-24 2.244637577118317e-16 2.244637501294105e-16 7.582421153315483e-24
1.06003981227728 7.998938553680617e-24 2.250732956672874e-16 2.250732879168692e-16 7.750418207410818e-24
1.0620293250338977 8.027280950743991e-24 2.2629471176975557e-16 2.262947036725898e-16 8.097165747119603e-24
1.0660195594769086 8.0838929640551e-24 2.287468703331457e-16 2.2874686149741325e-16 8.835732415945708e-24
1.070024785945596 8.140404190993957e-24 2.3121139819991813e-16 2.312113885613947e-16 9.638523427799616e-24
1.0740450607676866 8.196810176004056e-24 2.3368821592002957e-16 2.336882054091993e-16 1.0510830271060297e-23
1.07808044048254 8.253106508706173e-24 2.361772435697071e-16 2.3617723211135257e-16 1.1458354484267582e-23
1.0861967418109137 8.36525598325118e-24 2.411888151481002e-16 2.4118880154400732e-16 1.360409279893172e-23
1.0902777775684922 8.420880351476098e-24 2.437048038532533e-16 2.437047890372121e-16 1.4816041164810444e-23
1.0943741465085532 8.476374032349032e-24 2.4623249750993467e-16 2.462324813791977e-16 1.6130736985401973e-23
1.1026131145906286 8.586952802427352e-24 2.5132266865718886e-16 2.5132264955524917e-16 1.9101939701374872e-23
1.1109141095355224 8.696959751425208e-24 2.5645866426677235e-16 2.56458641675474e-16 2.2591298275942097e-23
1.1192775983109025 8.80626432429466e-24 2.616368800379991e-16 2.616368533542185e-16 2.6683780516721804e-23
1.1277040513999907 8.914381488180614e-24 2.6684298450983237e-16 2.668429530324846e-16 3.1477347789502897e-23
1.1361939428280308 9.021820082003632e-24 2.720921827676871e-16 2.7209214568290817e-16 3.708477885478644e-23
1.1447477501889525 9.12855132265119e-24 2.773837999141992e-16 2.7738375627845263e-16 4.3635746590533353e-23
1.1533659546722406 9.234601410901577e-24 2.827188174594008e-16 2.827187661801804e-16 5.127922029746403e-23
1.1707974979042381 9.444995224335141e-24 2.935303154863116e-16 2.935302449339102e-16 7.055240145389733e-23
1.1884924949847024 9.652309149035013e-24 3.0450687329848763e-16 3.0450677671093654e-16 9.658755116632423e-23
1.2064549276569216 9.858114857107291e-24 3.156998739357325e-16 3.156997423527257e-16 1.3158300683234604e-22
1.2246888378427687 1.006036284362217e-23 3.2704599653838274e-16 3.270458181515815e-16 1.7838680123216498e-22
1.2431983285522175 1.0258648332949184e-23 3.385322073908874e-16 3.3853196671497803e-16 2.406759094891344e-22
1.2619875648066055 1.045297880505496e-23 3.501584235669691e-16 3.501581003937106e-16 3.2317325844121163e-22
1.3004222497298317 1.0827025677129056e-23 3.737343289303313e-16 3.737337543796689e-16 5.745506621912961e-22
1.3400274889804893 1.1181692873168815e-23 3.9773215183290373e-16 3.977311489657647e-16 1.002867139008837e-21
1.3808389325824078 1.1516398311111615e-23 4.2211339472481603e-16 4.2211167530549197e-16 1.7194193238942406e-21
1.4228933163050095 1.1833195779713401e-23 4.46934440469215e-16 4.46931543413776e-16 2.8970554388878397e-21
1.466228494730424 1.2139217018630669e-23 4.724564299824777e-16 4.72451630609188e-16 4.799373289663327e-21
1.5108834753276823 1.2430481121430409e-23 4.98526607645757e-16 4.985187867638697e-16 7.820881887415201e-21
1.5568984535646726 1.2703957397059808e-23 5.250114184836091e-16 5.249988690711819e-16 1.2549412427336444e-20
1.6043148490894465 1.2960964426725349e-23 5.51945700818302e-16 5.519258358909519e-16 1.9864927350231695e-20
1.6531753430134553 1.3203097834820882e-23 5.793809261418821e-16 5.793499416340922e-16 3.098450778978503e-20
1.7035239163302658 1.3433204937824918e-23 6.074314985240161e-16 6.073838663898083e-16 4.763213420808815e-20
1.755405889504358 1.366264696749446e-23 6.366222758284196e-16 6.365500702532073e-16 7.220557521244196e-20
1.8088679632656115 1.389028129185855e-23 6.669408840162333e-16 6.668329121101002e-16 1.0797190613301949e-19
1.8639582606462262 1.411573039901462e-23 6.984076232285543e-16 6.982482949668508e-16 1.5932826170363615e-19
1.9207263702978936 1.434167577169762e-23 7.311977259233039e-16 7.309656228306916e-16 2.32103092612158e-19
1.979223391128241 1.4572540656809988e-23 7.655957671973335e-16 7.652618468081721e-16 3.339203891612248e-19
2.039501978296691 1.4813319889427282e-23 8.019475508092996e-16 8.014729437563628e-16 4.746070529368144e-19
2.1016163906111602 1.5075506187558742e-23 8.409976518586814e-16 8.403309457372324e-16 6.667061214490712e-19
2.1656225393682647 1.5366570710068646e-23 8.83342558147974e-16 8.824165949490932e-16 9.259631988809867e-19
2.231578038680979 1.56885740369356e-23 9.293193573232009e-16 9.280474724901848e-16 1.2718848330161052e-18
2.299542257339062 1.604682391209951e-23 9.794897931858693e-16 9.777614493693707e-16 1.728343816498604e-18
2.369576372248914 1.6450619369176976e-23 1.0347189374772135e-15 1.032394691939872e-15 2.3242455373416192e-18
2.4417434235010123 1.691067281651148e-23 1.0960499503548546e-15 1.092955845867013e-15 3.0941044878414626e-18
2.5161083711144245 1.7443985009994118e-23 1.1650497754196424e-15 1.1609709965713885e-15 4.0787788482538924e-18
2.5927381535095444 1.8076805616862554e-23 1.244084214666501e-15 1.2387581681748746e-15 5.3260464916264684e-18
2.6717017477616296 1.883895770599522e-23 1.3360240583406721e-15 1.3291332229764686e-15 6.8908353642036626e-18
2.753070231689431 1.9773718458010246e-23 1.4450240320807118e-15 1.4361883910481077e-15 8.835641032603929e-18
2.836916847834745 2.097697421345622e-23 1.5796427692773871e-15 1.5684116073108707e-15 1.1231161966516219e-17
2.9233170693905177 2.2655747402694466e-23 1.7580197487563586e-15 1.7438658345694729e-15 1.4153914186885335e-17
2.967498994190263 2.3873774181049456e-23 1.8805335896331816e-15 1.8647214875470853e-15 1.581210208609608e-17
3.0123486681368425 2.525194945310435e-23 2.019154646832975e-15 2.001513626578819e-15 1.7641020254156833e-17
3.0578761833420214 2.7920138508642527e-23 2.2662452032772806e-15 2.246584401100703e-15 1.966080217657732e-17
3.1040917844459814 3.125350941209807e-23 2.5751514633834593e-15 2.553281444942043e-15 2.1870018441417552e-17
3.127460860933648 3.457897863895489e-23 2.8706052696066424e-15 2.847547913916792e-15 2.3057355689850826e-17
3.1510058709225794 3.893969651200271e-23 3.2569508727286186e-15 3.2326526026533487e-15 2.4298270075270922e-17
3.162844764501044 4.2927739899559354e-23 3.604004576790228e-15 3.579062864486987e-15 2.494171230324045e-17
3.1747281389236908 4.753590859929433e-23 4.005878509025224e-15 3.980279382544892e-15 2.559912648033334e-17
3.1986289994194426 6.028206951794347e-23 5.118249549214454e-15 5.091289486227124e-15 2.696006298732899e-17
3.2227097969389145 9.006945041794215e-23 7.704920201391262e-15 7.676514588710605e-15 2.840561268065455e-17
3.2348180950136065 1.182123235186889e-22 1.0150374140536515e-14 1.012119620510241e-14 2.917793543410987e-17
3.240889293275058 1.3923451726777875e-22 1.1977896127364756e-14 1.1948310788984239e-14 2.9585338380511627e-17
3.2469718861334385 1.6355806044019194e-22 1.4096779712782737e-14 1.406677280832282e-14 3.000690445991701e-17
3.2714166318528037 2.929392784257172e-22 2.543799618243617e-14 2.5406244312864053e-14 3.1751869572112965e-17
3.2744851364798273 3.0104345319453617e-22 2.616625946189226e-14 2.6134301159969683e-14 3.19583019225737e-17
3.2775565192852394 3.0937761509974506e-22 2.691587544345529e-14 2.6883709602354187e-14 3.216584110110786e-17
3.283707930232385 3.0144812011202127e-22 2.6275230508254202e-14 2.6242691924801173e-14 3.253858345302312e-17
3.2898708863219004 2.761652540677713e-22 2.4116669052262192e-14 2.4083789778852715e-14 3.287927340948442e-17
3.29141343181113 2.702010606957952e-22 2.360689779093134e-14 2.3573932928861754e-14 3.296486206958018e-17
3.292184975758714 2.6727018989994847e-22 2.3356307475535237e-14 2.3323299756592346e-14 3.300771894289932e-17
3.295272960557952 2.4879140242830105e-22 2.1761869219065813e-14 2.1728694517529683e-14 3.3174701536131864e-17
3.3076538914384823 1.8469831772512878e-22 1.6216324716531137e-14 1.6182478562668542e-14 3.384615386259603e-17
3.310756385682612 1.7163328948854942e-22 1.508336305481799e-14 1.5049347495799048e-14 3.4015559018937894e-17
3.313861789986515 1.5957085710029019e-22 1.4036453856897037e-14 1.4002268273799882e-14 3.418558309715194e-17
3.3200813396944477 1.426793548730721e-22 1.2574169020826591e-14 1.2539618406819864e-14 3.455061400672761e-17
3.345076488085796 1.1275205992034995e-22 1.001151888089507e-14 9.975343209669345e-15 3.617567122572115e-17
3.3482140837626964 1.1392102999716093e-22 1.0124802370381945e-14 1.0088406619491727e-14 3.6395750890218116e-17
3.3513546224236106 1.1510244398325084e-22 1.0239396563310187e-14 1.0202779656311845e-14 3.6616906998343136e-17
3.3576445397418455 1.2355148433172937e-22 1.1011642862806899e-14 1.0974563825365859e-14 3.70790374410374e-17
3.3702598118196083 1.5454535766405006e-22 1.382575251915029e-14 1.3787703954236428e-14 3.8048564913866234e-17
3.382922481734668 1.61745977656293e-22 1.4524291903023412e-14 1.4485298041121547e-14 3.899386190186206e-17
3.389271646505754 1.6547276723664987e-22 1.4886833849672018e-14 1.484736026347834e-14 3.94735861936804e-17
3.395632727569191 1.69500576376221e-22 1.5277817683321187e-14 1.5237849684962306e-14 3.996799835887496e-17
3.421196662673239 1.8884683378506625e-22 1.71497257962874e-14 1.7107707819327416e-14 4.201797695997839e-17
3.4276182099114902 1.8512330206194656e-22 1.6843136284833727e-14 1.680065761748165e-14 4.247866735207079e-17
3.4340518103208963 1.6851203120140213e-22 1.5360564975261773e-14 1.5317649020129406e-14 4.291595513237109e-17
3.4469541582030403 1.44849222301803e-22 1.325321088546655e-14 1.320945243378162e-14 4.375845168492737e-17
3.472904465399547 1.3841720813386117e-22 1.2760049378532576e-14 1.2714354595905317e-14 4.569478262725351e-17
3.4990501388274233 1.2848153835474997e-22 1.1933293620200512e-14 1.1885609923901886e-14 4.76836962986307e-17
3.5253949054701885 9.255980203663463e-23 8.661629895211331e-15 8.612002225285526e-15 4.9627669925804426e-17
3.5519380250092896 5.87124252503772e-23 5.5356016846914165e-15 5.484010531151322e-15 5.159115354009573e-17
3.578680990867387 4.5454160114354064e-23 4.317835144784234e-15 4.264090209261389e-15 5.3744935522846313e-17
3.605625307711299 4.0266371307216995e-23 3.853829709133151e-15 3.797810364889655e-15 5.601934424349733e-17
3.660119384959845 3.685768047410646e-23 3.580904057024404e-15 3.5200795451877543e-15 6.082451183664983e-17
3.715437065384467 3.4609529710957426e-23 3.4133045552402835e-15 3.3473750222688295e-15 6.592953297145254e-17
3.8285932144167436 3.4398540390744777e-23 3.495816864740034e-15 3.4187760749208424e-15 7.704078981919225e-17
3.94519561050918 3.5414171948725186e-23 3.708643311393784e-15 3.619272675878247e-15 8.937063551553671e-17
4.06534921144712 3.697509409060049e-23 3.9900338314468916e-15 3.88707267364206e-15 1.0296115780483188e-16
4.189162171576248 3.88827700375853e-23 4.323682580007724e-15 4.2057868707542944e-15 1.1789570925343046e-16
4.316745939156006 4.106228893499835e-23 4.705102368423879e-15 4.570914590543594e-15 1.3418777788028568e-16
4.448215356677963 4.3487163086504015e-23 5.134714668491254e-15 4.983021143943926e-15 1.5169352454732818e-16
4.58368876423945 4.616082102305627e-23 5.616400621632544e-15 5.445897945278375e-15 1.705026763541699e-16
4.723288106065518 4.910825626891887e-23 6.156989083601835e-15 5.966188206245588e-15 1.9080087735624704e-16
4.867139040275056 5.237368410029853e-23 6.766378851365339e-15 6.554186453955693e-15 2.121923974096442e-16
4.940699165968905 5.41882807684356e-23 7.106622006011382e-15 6.883241560346954e-15 2.233804456644299e-16
5.015371051989984 5.604873305372216e-23 7.461708899272792e-15 7.226830123714507e-15 2.348787755582855e-16
5.091171501069577 5.813844660621977e-23 7.856888386765769e-15 7.609972220455848e-15 2.4691616630992185e-16
5.129500256944802 5.920273757870393e-23 8.06095094475624e-15 7.80790093827953e-15 2.530500064767116e-16
5.168117569889187 6.029594191842424e-23 8.271607186535788e-15 8.012297786403287e-15 2.5930940013250243e-16
5.20702561229733 6.154078744673821e-23 8.505937669086178e-15 8.239854415096061e-15 2.6608325399011874e-16
5.246226572918644 6.280712711785578e-23 8.746320842265079e-15 8.473364870528591e-15 2.7295597173648676e-16
5.265937586045735 6.344851572421462e-23 8.868835657549507e-15 8.592406452414812e-15 2.764292051346969e-16
5.285722656980489 6.409547105954836e-23 8.992928667622906e-15 8.713001757948031e-15 2.799269096748759e-16
5.305582063971359 6.47480607459296e-23 9.118622460026489e-15 8.835173461956695e-15 2.834489980697923e-16
5.3255160863122235 6.543273679842623e-23 9.249669589617815e-15 8.962651591081752e-15 2.8701799853606e-16
5.365609099470188 6.702773538246811e-23 9.54647433545446e-15 9.252069173961106e-15 2.9440516149334975e-16
5.406003951863644 6.866480673502924e-23 9.853261160551389e-15 9.551360916513391e-15 3.019002440379923e-16
5.446702915881641 7.03457231794723e-23 1.0170465233887144e-14 9.860962523722408e-15 3.09502710164736e-16
5.487708281020852 7.212401043220025e-23 1.050607066026248e-14 1.0188831938857093e-14 3.1723872140539006e-16
5.529022354014368 7.44184336336529e-23 1.0921902708871215e-14 1.0596585599253605e-14 3.2531710961760836e-16
5.570647458961463 7.681373670252729e-23 1.1358317392706722e-14 1.1024802693565347e-14 3.3351469914137383e-16
5.612585937458331 7.931674983355993e-23 1.1816730929615342e-14 1.1474899816012533e-14 3.418311136028106e-16
5.654840148729818 8.201548408469265e-23 1.2310781363939664e-14 1.1960481551006849e-14 3.5029981293281586e-16
5.67608639626678 8.3772310208818e-23 1.2621731073105285e-14 1.226700475166237e-14 3.5472632144291556e-16
5.686739436050992 8.467261905461886e-23 1.2781321404880412e-14 1.2424369250878328e-14 3.569521540020836e-16
5.6974124697621304 8.558797513486625e-23 1.2943741965286826e-14 1.2584555595875771e-14 3.591863694110517e-16
5.718818669136295 8.746523103618857e-23 1.3277343985244047e-14 1.2913664045330313e-14 3.6367993991373667e-16
5.740305295436557 8.950880604143599e-23 1.3638612422411245e-14 1.3270376573171131e-14 3.682358492401127e-16
5.7835210386641895 9.467247342999793e-23 1.4534010731268963e-14 1.4156335926532431e-14 3.776748047365299e-16
5.827062130521658 1.005200076674831e-22 1.5547894849676756e-14 1.5160563412980767e-14 3.873314366959917e-16
5.8489554468988025 1.0453983904885056e-22 1.6230413087922283e-14 1.5837890414858794e-14 3.9252267306348495e-16
5.870931020387893 1.0881910979231395e-22 1.6958271327309112e-14 1.6560511817097693e-14 3.9775951021141755e-16
5.892989160043636 1.133782756189598e-22 1.773515231804594e-14 1.7332110261356218e-14 4.030420566897299e-16
5.915130176081913 1.1852364352179929e-22 1.8609672631138405e-14 1.8201160090855878e-14 4.085125402825291e-16
5.95966208400165 1.327402647508743e-22 2.0998764755265787e-14 2.0577932971345254e-14 4.2083178392053827e-16
6.004529249263818 1.5297517402069134e-22 2.4382001500701492e-14 2.3947379439255656e-14 4.3462206144584036e-16
6.027089341400364 1.6694700088681698e-22 2.6708880429018043e-14 2.626636410571484e-14 4.4251632330319605e-16
6.049734195844842 1.8336511149888908e-22 2.9445737327752907e-14 2.899487149218362e-14 4.508658355692903e-16
6.095279466722835 2.305669926613089e-22 3.730441129514052e-14 3.683328124128075e-14 4.711300538597729e-16
6.141167624020661 3.0277696183602337e-22 4.935637003140742e-14 4.8859258650891304e-14 4.971113805160912e-16
6.164241091010745 3.488626138900279e-22 5.708256497592804e-14 5.656930310038234e-14 5.132618755456953e-16
6.187401249150058 4.0112046453291793e-22 6.587983962597909e-14 6.534994848343194e-14 5.298911425471586e-16
6.1990139391386085 4.266384169944662e-22 7.020240738310286e-14 6.966404505225787e-14 5.383623308449896e-16
6.204828454712694 4.400588960278073e-22 7.247863689896231e-14 7.193599109617768e-14 5.426458027846265e-16
6.210648424152782 4.498760457066499e-22 7.416504206040266e-14 7.361870914598944e-14 5.463329144132241e-16
6.233982942956859 4.832106184549665e-22 7.995976553157241e-14 7.940041639973264e-14 5.59349131839775e-16
6.239830258556775 4.874720027684197e-22 8.074058403007495e-14 8.017930835666377e-14 5.612756734111932e-16
6.245683058788269 4.87859882768221e-22 8.088062191940151e-14 8.031741481911003e-14 5.632071002914629e-16
6.257405133728602 4.869861588806395e-22 8.08872974046914e-14 8.032063856070657e-14 5.66658843984826e-16
6.269149208991335 4.804964941591667e-22 7.995916730461693e-14 7.939089842853458e-14 5.682688760823561e-16
6.280915325867298 4.641648239128669e-22 7.738639159279292e-14 7.681879579263916e-14 5.67595800153768e-16
6.304513850009849 4.2387081572754845e-22 7.093401653330129e-14 7.036983873795503e-14 5.641777953462756e-16
6.32820103803542 3.7399619303178244e-22 6.282274115977631e-14 6.226418578947002e-14 5.585553703063029e-16
6.3519772230701035 3.283073121815373e-22 5.5355263291179526e-14 5.48016318123518e-14 5.536314788277191e-16
6.375842739491607 2.898237001251086e-22 4.905021624607817e-14 4.850079771098232e-14 5.4941853509584e-16
6.399797922933955 2.591538967838066e-22 4.402439918139342e-14 4.34765521046797e-14 5.478470767137195e-16
6.42384311029221 2.336304608227607e-22 3.9837660323104895e-14 3.9290859241649116e-14 5.468010814557696e-16
6.447978639727206 2.1515321814037314e-22 3.682484008493447e-14 3.62770099904022e-14 5.478300945322745e-16
6.472204850670314 1.9977057924387145e-22 3.4320469200432633e-14 3.3771190265268866e-14 5.492789351637715e-16
6.496522083828205 1.8989793066997242e-22 3.274692946618809e-14 3.219450637664835e-14 5.52423089539736e-16
6.520930681187647 1.8161048421152386e-22 3.1435468190441926e-14 3.087962798023281e-14 5.558402102091154e-16
6.57002334288761 1.7340379480398572e-22 3.0240916085004355e-14 2.967584161741375e-14 5.650744675905993e-16
