Dust emission spectrum from A.P. Jones, M. Kohler, N. Ysard, M. Bocchio, and L. Verstraete (2017), A&A, 602A, 46J 
inside the DustPedia framework.

lambda    nu*dP/dnu     j_nu    j_nu(carb.) j_nu(sil)
 (um)   (erg s-1 H-1) (Jy cm2 sr-1 H-1)
0.9927057738263894 5.468834267842632e-20 1.4410688919350547e-12 1.441068678827751e-12 2.131073038328611e-19
1.0001793341362166 5.560461324825454e-20 1.4762439619604618e-12 1.4762437055905245e-12 2.5636993765635603e-19
1.0077091589558085 5.652492180573014e-20 1.5119749958394392e-12 1.5119746878387841e-12 3.080006554320156e-19
1.0114953028030835 5.698655617962202e-20 1.5300503261588737e-12 1.530049988735925e-12 3.374229486951213e-19
1.0152956718711033 5.744915987948212e-20 1.5482662608775744e-12 1.5482658913461894e-12 3.6953138482650334e-19
1.0229392996569957 5.837677293319606e-20 1.585109907185072e-12 1.5851094644216662e-12 4.427634056190512e-19
1.0267826658714554 5.884073221998737e-20 1.60371071113177e-12 1.603710226704599e-12 4.8442717139772355e-19
1.0306404723013447 5.93055899805983e-20 1.6224534921561676e-12 1.6224529623229301e-12 5.298332377699754e-19
1.03451277320114 5.97713354780981e-20 1.641338852060751e-12 1.6413382727602653e-12 5.793004858278243e-19
1.0383996230291617 6.023795846357218e-20 1.6603674067488364e-12 1.6603667735754482e-12 6.331733876072496e-19
1.0403485208654093 6.047159594790775e-20 1.6699355786021863e-12 1.6699349167251137e-12 6.618770727336483e-19
1.0423010764483396 6.070544918811438e-20 1.679539786794257e-12 1.6795390949703336e-12 6.918239229836985e-19
1.0462171883269815 6.117379841477298e-20 1.6988566380199175e-12 1.6988558823662883e-12 7.55653628991364e-19
1.0471985131304309 6.129101882964685e-20 1.703708501630002e-12 1.703707729159656e-12 7.724703460620743e-19
1.048180758391296 6.140829222276431e-20 1.7085694464590294e-12 1.7085686568142609e-12 7.896447692696691e-19
1.0501480137395462 6.164299743044481e-20 1.7183186220851483e-12 1.7183177969893583e-12 8.25095789860022e-19
1.0521189612883777 6.18779130324701e-20 1.7281042501779308e-12 1.728103388111735e-12 8.6206619558811475e-19
1.0531058218030118 6.199529560654189e-20 1.733006460980558e-12 1.7330055798388785e-12 8.811416794651603e-19
1.0540936079674168 6.211222650029479e-20 1.73790370965805e-12 1.7379028090333017e-12 9.00624748490697e-19
1.058054026499678 6.25804500405359e-20 1.7575834696474474e-12 1.7575824868915245e-12 9.827559226903317e-19
1.0590464539527713 6.269763037567002e-20 1.762526155924347e-12 1.762525151543442e-12 1.0043809048457314e-18
1.06003981227728 6.281486028216727e-20 1.7674779629457428e-12 1.767476936485431e-12 1.0264603122379976e-18
1.0620293250338977 6.304946840997361e-20 1.7774089842649532e-12 1.7774079122461202e-12 1.0720188330043628e-18
1.0660195594769086 6.351927525776731e-20 1.7973809754348019e-12 1.7973798064353792e-12 1.1689994230467442e-18
1.070024785945596 6.398986482055739e-20 1.817500184100602e-12 1.8174989097717603e-12 1.274328840872888e-18
1.0740450607676866 6.446123193389399e-20 1.837767370865545e-12 1.8377659821788633e-12 1.3886866819991714e-18
1.07808044048254 6.493337204358118e-20 1.8581833166410265e-12 1.858181803836581e-12 1.5128044459311123e-18
1.0861967418109137 6.58792413400669e-20 1.8994441046968456e-12 1.8994423111690607e-12 1.793527785585713e-18
1.0902777775684922 6.635133958352534e-20 1.920243433427857e-12 1.920241481537136e-12 1.9518907214705356e-18
1.0943741465085532 6.682417123992013e-20 1.9411935475760455e-12 1.9411914240399997e-12 2.1235360454764997e-18
1.1026131145906286 6.777203066948212e-20 1.983549694526832e-12 1.983547183570001e-12 2.510956831156874e-18
1.1109141095355224 6.872281825686218e-20 2.0265199194367682e-12 2.026516954269448e-12 2.9651673202746996e-18
1.1192775983109025 6.96758090558833e-20 2.0700901794660574e-12 2.070086682496072e-12 3.496969984926906e-18
1.1277040513999907 7.06276474421112e-20 2.1141671194293554e-12 2.1141630006377042e-12 4.118791651288983e-18
1.1361939428280308 7.15823701253148e-20 2.1588773837258547e-12 2.1588725388173642e-12 4.8449084904068374e-18
1.1447477501889525 7.254002359410958e-20 2.204230077610601e-12 2.2042243859122767e-12 5.6916983244829856e-18
1.1533659546722406 7.350099319715869e-20 2.2502448079958217e-12 2.250238130061753e-12 6.6779340685248964e-18
1.1707974979042381 7.543584949725257e-20 2.3443853782853716e-12 2.3443762204884285e-12 9.157796943088583e-18
1.1884924949847024 7.738485332308925e-20 2.441303874776101e-12 2.4412913794132477e-12 1.249536285319102e-17
1.2064549276569216 7.936119200886547e-20 2.54149182432432e-12 2.5414748595676496e-12 1.6964756670308828e-17
1.2246888378427687 8.135292545475191e-20 2.6446509922382406e-12 2.6446280727942812e-12 2.2919443959397204e-17
1.2431983285522175 8.335888337143292e-20 2.750817249747567e-12 2.750786436178799e-12 3.0813568767462496e-17
1.2619875648066055 8.53825147738897e-20 2.860180560105084e-12 2.8601393324351525e-12 4.1227669930761056e-17
1.3004222497298317 8.947307128013296e-20 3.0884897892920724e-12 3.088417027912884e-12 7.276137918900226e-17
1.3400274889804893 9.364154888557276e-20 3.330824335963911e-12 3.330698284153066e-12 1.2605181084478073e-16
1.3808389325824078 9.790865914880218e-20 3.5886702916813742e-12 3.5884558352637522e-12 2.1445641762207136e-16
1.4228933163050095 1.0231546505102209e-19 3.864408734141101e-12 3.8640502356882394e-12 3.584984528604701e-16
1.466228494730424 1.0694235358791377e-19 4.162179695158703e-12 4.161590563919849e-12 5.891312388540523e-16
1.5108834753276823 1.1179148296190148e-19 4.48341687021299e-12 4.482464719989213e-12 9.521502237790276e-16
1.5568984535646726 1.1687196916241719e-19 4.829921605777281e-12 4.828406548804068e-12 1.515056973211229e-15
1.6043148490894465 1.222264579344449e-19 5.205042291764904e-12 5.202664351832392e-12 2.3779399325098558e-15
1.6531753430134553 1.2790255906254138e-19 5.612645157421672e-12 5.608968105051301e-12 3.677052370371232e-15
1.7035239163302658 1.3395651277736872e-19 6.0573337241576984e-12 6.051730650312888e-12 5.603073844811562e-15
1.755405889504358 1.4051262105428287e-19 6.5473011789748674e-12 6.5388834123998066e-12 8.417766575059129e-15
1.8088679632656115 1.4760364125290426e-19 7.087178503643902e-12 7.074705703336884e-12 1.2472800307017226e-14
1.8639582606462262 1.5526543059893553e-19 7.682107640829581e-12 7.663872925396103e-12 1.8234715433479306e-14
1.9207263702978936 1.635614579947606e-19 8.339037085922939e-12 8.312724494065948e-12 2.631259185699058e-14
1.979223391128241 1.725720474789656e-19 9.06639632703521e-12 9.028905616069843e-12 3.7490710965367016e-14
2.039501978296691 1.823811073112494e-19 9.873551871821439e-12 9.820788620155767e-12 5.276325166567082e-14
2.1016163906111602 1.9313213810503332e-19 1.0774011341577494e-11 1.0700633650171979e-11 7.337769140551789e-14
2.1656225393682647 2.0493791385601212e-19 1.1780792507495653e-11 1.1679921172814837e-11 1.0087133468081742e-13
2.231578038680979 2.178612885081104e-19 1.290510610749605e-11 1.2767994239366484e-11 1.3711186812956807e-13
2.299542257339062 2.3200054040182745e-19 1.4161192431721794e-11 1.3976854088813437e-11 1.8433834290835405e-13
2.369576372248914 2.4747853572043037e-19 1.556602349020683e-11 1.5320819985088354e-11 2.4520350511847853e-13
2.4417434235010123 2.644281074841934e-19 1.7138668415220807e-11 1.681586720674412e-11 3.2280120847668543e-13
2.5161083711144245 2.830243622833906e-19 1.890264578464361e-11 1.848194099433624e-11 4.2070479030737815e-13
2.5927381535095444 3.0348994405416875e-19 2.0886823519062768e-11 2.034384132026556e-11 5.429821987972141e-13
2.6717017477616296 3.26022998663985e-19 2.312094844020153e-11 2.242677628937539e-11 6.941721508261429e-13
2.753070231689431 3.508586962632297e-19 2.5640055968304276e-11 2.476078309489766e-11 8.792728734066165e-13
2.836916847834745 3.7848183622488307e-19 2.8501064539229308e-11 2.739731448725364e-11 1.1037500519756676e-12
2.9233170693905177 4.09817876662752e-19 3.180066884400511e-11 3.0427478084442736e-11 1.3731907595623686e-12
2.967498994190263 4.275218717850827e-19 3.367583332646556e-11 3.2152400560411236e-11 1.5234327660543342e-12
3.0123486681368425 4.463250257824827e-19 3.568830404480943e-11 3.400034652330428e-11 1.687957521505164e-12
3.0578761833420214 4.715285413661176e-19 3.827342384954565e-11 3.640497572237364e-11 1.8684481271720106e-12
3.1040917844459814 4.996840760230141e-19 4.1171766108991815e-11 3.9107675304267477e-11 2.0640908047243488e-12
3.127460860933648 5.213003673440236e-19 4.327622273550357e-11 4.110768396634887e-11 2.1685387691547032e-12
3.1510058709225794 5.473054136229036e-19 4.577711189913267e-11 4.3499921555924507e-11 2.2771903432081667e-12
3.162844764501044 5.685480262683847e-19 4.7732531309372354e-11 4.539919801304815e-11 2.3333332963242024e-12
3.1747281389236908 5.921707298682096e-19 4.9902569875104006e-11 4.751201131749127e-11 2.3905585576127215e-12
3.1986289994194426 6.539768081480934e-19 5.5525905634416855e-11 5.3017300952337835e-11 2.508604682079031e-12
3.2227097969389145 7.891656016964797e-19 6.750854988611155e-11 6.487508229957676e-11 2.6334675865347585e-12
3.2348180950136065 9.132322494695667e-19 7.841525090955843e-11 7.571520456313122e-11 2.700046346427193e-12
3.240889293275058 1.0051505734903427e-18 8.646985961443489e-11 8.373469411939332e-11 2.735165495041573e-12
3.2469718861334385 1.1114258511914967e-18 9.579182676275193e-11 9.302032339496008e-11 2.77150336779181e-12
3.2714166318528037 1.6655618217114214e-18 1.4463255146253895e-10 1.4171106400921742e-10 2.921487453321506e-12
3.2744851364798273 1.7005332385994664e-18 1.478078778082963e-10 1.4486876715433984e-10 2.9391106539564913e-12
3.2775565192852394 1.7364090235730853e-18 1.510677137462474e-10 1.4811089652276387e-10 2.9568172234835113e-12
3.283707930232385 1.7041131499489217e-18 1.4853622510704616e-10 1.4554784868163183e-10 2.988376425414335e-12
3.2898708863219004 1.5982618753798786e-18 1.3957133324935044e-10 1.3655433340309279e-10 3.0169998462576444e-12
3.29141343181113 1.5732603399676833e-18 1.3745244355630675e-10 1.3442825865475906e-10 3.024184901547731e-12
3.292184975758714 1.56096965939435e-18 1.364106013410775e-10 1.333828195288329e-10 3.027781812244621e-12
3.295272960557952 1.48408732996285e-18 1.2981362727609376e-10 1.2677187254060336e-10 3.0417547354903788e-12
3.3076538914384823 1.2158879763711993e-18 1.0675372946874822e-10 1.0365590060130072e-10 3.0978288674475184e-12
3.310756385682612 1.160799044322805e-18 1.0201257268552634e-10 9.89006196595366e-11 3.1119530259897244e-12
3.313861789986515 1.109777356579536e-18 9.7620197949225e-11 9.449407849108292e-11 3.126119458142104e-12
3.3200813396944477 1.0390848198955357e-18 9.157336156982792e-11 8.841672587642134e-11 3.1566356934066085e-12
3.345076488085796 9.200209499044217e-19 8.169081005964601e-11 7.839805658630604e-11 3.2927534733399625e-12
3.3482140837626964 9.260841252472423e-19 8.230630241589322e-11 7.899510406518827e-11 3.3111983507049224e-12
3.3513546224236106 9.321951085848523e-19 8.292713048358262e-11 7.95974093270237e-11 3.32972115655895e-12
3.3576445397418455 9.704203314686133e-19 8.648962960451296e-11 8.31211639729096e-11 3.3684656316033574e-12
3.3702598118196083 1.1056333506511002e-18 9.891085254239808e-11 9.54611265367692e-11 3.4497260056288584e-12
3.382922481734668 1.1408317843010367e-18 1.0244318954654775e-10 9.891464442505255e-11 3.528545121495191e-12
3.389271646505754 1.158919206046016e-18 1.0426270106988115e-10 1.0069423709879774e-10 3.568463971083388e-12
3.395632727569191 1.1787360568391247e-18 1.0624456245608058e-10 1.0263495939296191e-10 3.6096030631186576e-12
3.421196662673239 1.2735838768722262e-18 1.1565782612903167e-10 1.1187810181527035e-10 3.7797243137613035e-12
3.4276182099114902 1.259671161399296e-18 1.1460908923514925e-10 1.1079157978687488e-10 3.817509448274369e-12
3.4340518103208963 1.1903278318286217e-18 1.0850327939382095e-10 1.0465011947250524e-10 3.853159921315677e-12
3.4469541582030403 1.0916135449468698e-18 9.987892435120447e-11 9.595751525853988e-11 3.921409092664578e-12
3.472904465399547 1.0703294340516455e-18 9.866877546459326e-11 9.458987496557359e-11 4.078900499019693e-12
3.4990501388274233 1.0347586460654131e-18 9.610780589694899e-11 9.18681343047372e-11 4.239671592211767e-12
3.5253949054701885 8.908069110971786e-19 8.336059069104645e-11 7.89653645091685e-11 4.395226181877951e-12
3.5519380250092896 7.540418519405435e-19 7.109356031759378e-11 6.65424958662299e-11 4.551064451363877e-12
3.578680990867387 7.057745503627871e-19 6.704376783519937e-11 6.23219596003123e-11 4.721808234887081e-12
3.605625307711299 6.923608343874121e-19 6.626474316855551e-11 6.136341175179761e-11 4.9013314167578965e-12
3.660119384959845 6.954606617347547e-19 6.756740720177492e-11 6.229030240840949e-11 5.277104793365433e-12
3.715437065384467 7.033074587934681e-19 6.936247250057774e-11 6.369124665370473e-11 5.671225846873001e-12
3.8285932144167436 7.377651459895707e-19 7.497678128987303e-11 6.846553640161369e-11 6.511244888259347e-12
3.94519561050918 7.775174872430036e-19 8.142319500595485e-11 7.40064511757296e-11 7.416743830225281e-12
4.06534921144712 8.193562001145483e-19 8.84178671851954e-11 8.003364602786893e-11 8.384221157326466e-12
4.189162171576248 8.621329858938265e-19 9.586738211181914e-11 8.645431790984157e-11 9.413064201977575e-12
4.316745939156006 9.051390953718484e-19 1.0371492217905269e-10 9.321827865072076e-11 1.0496643528331948e-11
4.448215356677963 9.477780832973568e-19 1.1190819730183265e-10 1.0029147207907178e-10 1.1616725222760848e-11
4.58368876423945 9.897194873578645e-19 1.2041946007117443e-10 1.0764723673349501e-10 1.277222333767942e-11
4.723288106065518 1.0307555145574765e-18 1.292318427321038e-10 1.1526370528246174e-10 1.3968137449642057e-11
4.867139040275056 1.0704385101517468e-18 1.3829450078224522e-10 1.2312692101073581e-10 1.5167579771509424e-11
4.940699165968905 1.0899593773963094e-18 1.429447324627993e-10 1.2717283793894906e-10 1.577189452385021e-11
5.015371051989984 1.1088484001090213e-18 1.4761982161322766e-10 1.3124286698804782e-10 1.637695462517983e-11
5.091171501069577 1.1279550803187637e-18 1.5243298864476108e-10 1.354361759138169e-10 1.6996812730944162e-11
5.129500256944802 1.1372343336353217e-18 1.5484402497333924e-10 1.3753792372913517e-10 1.730610124420406e-11
5.168117569889187 1.1464181190739913e-18 1.5726962795168966e-10 1.3965118320259e-10 1.761844474909966e-11
5.20702561229733 1.156216182852926e-18 1.598078801290508e-10 1.418454208369828e-10 1.796245929206801e-11
5.246226572918644 1.1658375192503529e-18 1.6235082643057358e-10 1.4404396875781916e-10 1.8306857672754465e-11
5.265937586045735 1.1705806991101658e-18 1.6362380941159486e-10 1.4514466855369892e-10 1.8479140857895918e-11
5.285722656980489 1.175278264138874e-18 1.6489766623587456e-10 1.4624621838992295e-10 1.8651447845951664e-11
5.305582063971359 1.1799297638478555e-18 1.6617229801053453e-10 1.4734854364611686e-10 1.8823754364417655e-11
5.3255160863122235 1.1846567329967515e-18 1.6746484853740052e-10 1.4846720693625943e-10 1.8997641601141055e-11
5.365609099470188 1.1949097606769224e-18 1.7018589839557597e-10 1.508282215758777e-10 1.9357676819698235e-11
5.406003951863644 1.2050141749304472e-18 1.729171016758851e-10 1.5319914406616612e-10 1.9717957609718882e-11
5.446702915881641 1.214969373995227e-18 1.7565820948247704e-10 1.555799204884853e-10 2.0078288993991668e-11
5.487708281020852 1.224998285247291e-18 1.7844152684225323e-10 1.5800125768434525e-10 2.0440269157907987e-11
5.529022354014368 1.2368512705330058e-18 1.815245038427739e-10 1.6070687113842874e-10 2.0817632704345176e-11
5.570647458961463 1.2486789847673761e-18 1.8464005058777488e-10 1.634449206092117e-10 2.119512997856318e-11
5.612585937458331 1.2604930886413562e-18 1.8779019183678733e-10 1.6621762865428978e-10 2.157256318249751e-11
5.654840148729818 1.2726359116868614e-18 1.9102664136562829e-10 1.690747290200578e-10 2.1951912345570457e-11
5.67608639626678 1.2801651058247067e-18 1.9287876452990565e-10 1.7072786857724029e-10 2.2150895952665335e-11
5.686739436050992 1.2839571868323177e-18 1.9381317902100194e-10 1.7156277163263978e-10 2.2250407388362157e-11
5.6974124697621304 1.2877685860021195e-18 1.9475334311797958e-10 1.7240341540076043e-10 2.2349927717219144e-11
5.718818669136295 1.29545245194989e-18 1.9665148788036685e-10 1.7410250544582865e-10 2.2548982434538202e-11
5.740305295436557 1.3036285463599973e-18 1.9863614847420362e-10 1.7588641321935991e-10 2.2749735254843733e-11
5.7835210386641895 1.323605105663908e-18 2.0319835441825584e-10 1.800339928912471e-10 2.3164361527008692e-11
5.827062130521658 1.3452871683402123e-18 2.0808179308107227e-10 1.844983874882843e-10 2.3583405592787995e-11
5.8489554468988025 1.3599791968348323e-18 2.1114461583679658e-10 1.8733340304838344e-10 2.3811212788413066e-11
5.870931020387893 1.3752695143248046e-18 2.1432075318947275e-10 1.9028139259954272e-10 2.403936058993001e-11
5.892989160043636 1.3912089768066763e-18 2.1761931882630636e-10 1.9335149579004013e-10 2.4267823036266274e-11
5.915130176081913 1.4089643161060594e-18 2.2122476066867646e-10 1.9671960963451838e-10 2.4505151034157987e-11
5.95966208400165 1.4577132686488157e-18 2.306020563273317e-10 2.0554759164940434e-10 2.5054464677927334e-11
6.004529249263818 1.5257036247891263e-18 2.431748047183302e-10 2.17497334961055e-10 2.5677469757275228e-11
6.027089341400364 1.5722989663942443e-18 2.5154297393196606e-10 2.2550129118235794e-10 2.604168274960814e-11
6.049734195844842 1.6262550336597436e-18 2.611526159891703e-10 2.3472419718661045e-10 2.6428418802559876e-11
6.095279466722835 1.780298941107241e-18 2.880421137509694e-10 2.606488031570056e-10 2.739331059396389e-11
6.141167624020661 2.0120902631880033e-18 3.2799546889000953e-10 2.993321702115346e-10 2.8663298678474908e-11
6.164241091010745 2.1592851420615248e-18 3.5331253483681543e-10 3.2384368916058506e-10 2.946884567623034e-11
6.187401249150058 2.322981647571822e-18 3.815254317037351e-10 3.512310659545266e-10 3.0294365749208544e-11
6.1990139391386085 2.4022587440510855e-18 3.952863602334311e-10 3.645722418354536e-10 3.0714118397977604e-11
6.204828454712694 2.4436857917507122e-18 4.024802516076422e-10 3.7155429719978476e-10 3.092595440785749e-11
6.210648424152782 2.4735528370524137e-18 4.077815477160198e-10 3.7667696194057175e-10 3.1104585775448134e-11
6.233982942956859 2.5727614858007104e-18 4.257303074817609e-10 3.940107624953054e-10 3.1719544986455464e-11
6.239830258556775 2.584139544422119e-18 4.2801419332173085e-10 3.9621523912576764e-10 3.179895419596317e-11
6.245683058788269 2.5833651716539977e-18 4.282872790086836e-10 3.964088498958432e-10 3.187842911284054e-11
6.257405133728602 2.5765180296425153e-18 4.2795380593830064e-10 3.959397249016144e-10 3.201408103668605e-11
6.269149208991335 2.5517597812852726e-18 4.2463699476107663e-10 3.925898219874882e-10 3.204717277358843e-11
6.280915325867298 2.4959766649078897e-18 4.1613370433536824e-10 3.8418003303199165e-10 3.19536713033766e-11
6.304513850009849 2.3609425996096594e-18 3.9509948593047835e-10 3.6344698452938167e-10 3.165250140109665e-11
6.32820103803542 2.1981187093907248e-18 3.6923328443287094e-10 3.380033794367139e-10 3.1229904996157043e-11
6.3519772230701035 2.050163947546117e-18 3.4567419273240706e-10 3.1482783217223687e-10 3.0846360560170253e-11
6.375842739491607 1.9248062738131693e-18 3.2575722386260636e-10 2.952541537868891e-10 3.050307007571715e-11
6.399797922933955 1.8265605203542453e-18 3.1029141554499536e-10 2.7998816043771064e-10 3.030325510728465e-11
6.42384311029221 1.7441456018017733e-18 2.974041988956574e-10 2.6727195048424414e-10 3.013224841141328e-11
6.447978639727206 1.684817442831116e-18 2.883672084518163e-10 2.58294579197418e-10 3.0072629254398316e-11
6.472204850670314 1.6350045218751596e-18 2.8089282489931994e-10 2.5085781910300235e-10 3.0035005796317585e-11
