Dust emission spectrum from A.P. Jones, M. Kohler, N. Ysard, M. Bocchio, and L. Verstraete (2017), A&A, 602A, 46J 
inside the DustPedia framework.

lambda    nu*dP/dnu     j_nu    j_nu(carb.) j_nu(sil)
 (um)   (erg s-1 H-1) (Jy cm2 sr-1 H-1)
0.9927057738263894 3.620079376058924e-22 9.539114772318956e-15 9.539114618476976e-15 1.5384197989017677e-22
1.0001793341362166 3.680942095817199e-22 9.772513872213294e-15 9.772513687013334e-15 1.851999605725119e-22
1.0077091589558085 3.7419558851343845e-22 1.0009290686508975e-14 1.0009290463853084e-14 2.2265589035150408e-22
1.0114953028030835 3.7725152055756717e-22 1.0128947084530864e-14 1.012894684051635e-14 2.440145142448839e-22
1.0152956718711033 3.8031072613078796e-22 1.0249449550757439e-14 1.024944928342386e-14 2.673335802407718e-22
1.0229392996569957 3.864353301357749e-22 1.0492914210683055e-14 1.0492913890127177e-14 3.2055587774981728e-22
1.0267826658714554 3.8949365975077045e-22 1.0615693083575254e-14 1.0615692732719305e-14 3.508559489758679e-22
1.0306404723013447 3.9255446468226625e-22 1.0739314157292736e-14 1.0739313773399682e-14 3.838930537984456e-22
1.03451277320114 3.9561758999536864e-22 1.0863778027110947e-14 1.086377760720892e-14 4.199020267454381e-22
1.0383996230291617 3.986828831595077e-22 1.098908531614679e-14 1.098908485701008e-14 4.5913670545327285e-22
1.0403485208654093 4.002162956943121e-22 1.1052055445866375e-14 1.1052054965817815e-14 4.800485566926267e-22
1.0423010764483396 4.017501941173391e-22 1.1115236678036125e-14 1.1115236176164756e-14 5.0187136847673935e-22
1.0462171883269815 4.0481937535310273e-22 1.12422327996493e-14 1.1242232251247023e-14 5.48402273665377e-22
1.0471985131304309 4.055869458534557e-22 1.127411390763891e-14 1.1274113346973806e-14 5.606651053017514e-22
1.048180758391296 4.06354621938193e-22 1.1306047869763625e-14 1.1306047296573314e-14 5.731903102200126e-22
1.0501480137395462 4.078902819604096e-22 1.1370074403844189e-14 1.1370073804794885e-14 5.990493035056217e-22
1.0521189612883777 4.094263377251936e-22 1.1434312498329066e-14 1.1434311872305845e-14 6.26023218758323e-22
1.0531058218030118 4.101934482610049e-22 1.1466481273027484e-14 1.1466480633084086e-14 6.399433985282601e-22
1.0540936079674168 4.1095717746749736e-22 1.1498605725041522e-14 1.1498605070878816e-14 6.541627005957974e-22
1.058054026499678 4.140128322901448e-22 1.1627626675483211e-14 1.1627625961360026e-14 7.141231869116837e-22
1.0590464539527713 4.147769199079063e-22 1.1660012760149079e-14 1.1660012030233541e-14 7.299155369412532e-22
1.06003981227728 4.1554107289526596e-22 1.1692451208869782e-14 1.1692450462828017e-14 7.460417628432607e-22
1.0620293250338977 4.170695666797042e-22 1.1757485250466166e-14 1.1757484471143366e-14 7.793228043829237e-22
1.0660195594769086 4.2012724804205186e-22 1.1888182285269743e-14 1.1888181435074508e-14 8.50195233312884e-22
1.070024785945596 4.2318574676206877e-22 1.201971866647414e-14 1.2019717739266226e-14 9.272079129804916e-22
1.0740450607676866 4.2624493626702e-22 1.2152095334937437e-14 1.2152094324072946e-14 1.0108644900030652e-21
1.07808044048254 4.293046930892e-22 1.2285313288806856e-14 1.2285312187099425e-14 1.1017074300798025e-21
1.0861967418109137 4.354205584277349e-22 1.2554136871433039e-14 1.2554135564099635e-14 1.307333407346123e-21
1.0902777775684922 4.384653564498576e-22 1.2689423104239746e-14 1.268942168081788e-14 1.4234218669469902e-21
1.0943741465085532 4.415100662052352e-22 1.2825546143032106e-14 1.282554459371876e-14 1.5493133463563221e-21
1.1026131145906286 4.475988004069006e-22 1.3100307826802034e-14 1.3100305993109425e-14 1.8336926095740513e-21
1.1109141095355224 4.536859553362226e-22 1.3378433087844878e-14 1.3378430920389452e-14 2.1674554249793323e-21
1.1192775983109025 4.597657890292083e-22 1.3659786052293606e-14 1.365978349363508e-14 2.5586585242698645e-21
1.1277040513999907 4.658146582431767e-22 1.3943690181853074e-14 1.3943687165270073e-14 3.016582999792984e-21
1.1361939428280308 4.71859143562092e-22 1.423096261771022e-14 1.4230959065804938e-14 3.5519052812397915e-21
1.1447477501889525 4.778986891232167e-22 1.4521620099136695e-14 1.4521615922245928e-14 4.176890769464616e-21
1.1533659546722406 4.839352525236553e-22 1.4815756114702383e-14 1.4815751209084155e-14 4.905618231576101e-21
1.1707974979042381 4.96017865886757e-22 1.5415177795480114e-14 1.5415171054274524e-14 6.7412055879337914e-21
1.1884924949847024 5.080827436091262e-22 1.602877459108318e-14 1.6028765373691284e-14 9.217391900243045e-21
1.2064549276569216 5.202142656957805e-22 1.6659531815185075e-14 1.665951927407064e-14 1.2541114433168615e-20
1.2246888378427687 5.323202771644347e-22 1.730486446949556e-14 1.7304847489504314e-14 1.697999124878033e-20
1.2431983285522175 5.443862340639076e-22 1.7964576570867414e-14 1.796455369196515e-14 2.2878902264902122e-20
1.2619875648066055 5.564241965931789e-22 1.8639339383273567e-14 1.863930870324561e-14 3.0680027953540975e-20
1.3004222497298317 5.803122998821558e-22 2.003159819086937e-14 2.0031543796332242e-14 5.439453713228073e-20
1.3400274889804893 6.040188783581623e-22 2.14849156529379e-14 2.1484820976824942e-14 9.467611295947863e-20
1.3808389325824078 6.275950450329442e-22 2.3003396358367087e-14 2.3003234507926087e-14 1.6185044100252052e-19
1.4228933163050095 6.512251289363406e-22 2.4596477911709587e-14 2.459620602375619e-14 2.718879533961055e-19
1.466228494730424 6.753530560264649e-22 2.628463543722132e-14 2.6284186396915342e-14 4.490403059770523e-19
1.5108834753276823 6.998691655141645e-22 2.8068374624545028e-14 2.8067645182234728e-14 7.294423102992186e-19
1.5568984535646726 7.247027858033767e-22 2.9949505155118934e-14 2.994833844565048e-14 1.1667094684523372e-18
1.6043148490894465 7.499976778424471e-22 3.193882648541743e-14 3.193698568388885e-14 1.8408015285723705e-18
1.6531753430134553 7.7590940271451185e-22 3.4048608438038364e-14 3.404574680437446e-14 2.8616336638976005e-18
1.7035239163302658 8.026377099102283e-22 3.629420001848029e-14 3.628981586124509e-14 4.384157235193058e-18
1.755405889504358 8.3081359415735295e-22 3.871244293730284e-14 3.8705820164289026e-14 6.622773013806493e-18
1.8088679632656115 8.604116229384305e-22 4.131260385322387e-14 4.1302735870909234e-14 9.867982314628476e-18
1.8639582606462262 8.914056968204405e-22 4.410430891285772e-14 4.4089800385457775e-14 1.450852739993953e-17
1.9207263702978936 9.239106495978654e-22 4.710477190367521e-14 4.708371534171145e-14 2.105656196376586e-17
1.979223391128241 9.58106549561692e-22 5.0335925364235405e-14 5.030574758219682e-14 3.017778203858945e-17
2.039501978296691 9.941602082520553e-22 5.382077414589762e-14 5.3778049684567785e-14 4.272446132983228e-17
2.1016163906111602 1.0325708617928029e-21 5.760268738850654e-14 5.754291048981207e-14 5.977689869448217e-17
2.1656225393682647 1.0735826513338437e-21 6.171456621685536e-14 6.163188519999702e-14 8.268101685835752e-17
2.231578038680979 1.1170820495587492e-21 6.617083043552343e-14 6.605773952237523e-14 1.1309091314819003e-16
2.299542257339062 1.1631206592112113e-21 7.099628064603992e-14 7.084326687329922e-14 1.5301377274068322e-16
2.369576372248914 1.211895372210308e-21 7.622637565954079e-14 7.602151754540082e-14 2.0485811413997438e-16
2.4417434235010123 1.2636422628984391e-21 8.190182936800774e-14 8.163035751876559e-14 2.714718492421586e-16
2.5161083711144245 1.3188737336786292e-21 8.808500731620785e-14 8.772881551511142e-14 3.561918010964382e-16
2.5927381535095444 1.3784879910598414e-21 9.487047579828635e-14 9.440759942429073e-14 4.628763739956511e-16
2.6717017477616296 1.4433658040784505e-21 1.0236083488957372e-13 1.0176492875287226e-13 5.959061367014735e-16
2.753070231689431 1.5148602201724264e-21 1.1070297314289294e-13 1.099427756077955e-13 7.601975350974422e-16
2.836916847834745 1.5965110103642165e-21 1.2022310977413617e-13 1.1926187632190877e-13 9.612334522273681e-16
2.9233170693905177 1.6962370630989307e-21 1.3162303597831214e-13 1.3041822111056712e-13 1.2048148677450102e-15
2.967498994190263 1.760704279729278e-21 1.3869041041990183e-13 1.3734838723981032e-13 1.3420231800914941e-15
3.0123486681368425 1.8309828340184624e-21 1.4640602320409333e-13 1.4491314274553155e-13 1.4928804585618038e-15
3.0578761833420214 1.9531863912138933e-21 1.5853787003330158e-13 1.568788841137132e-13 1.6589859195883447e-15
3.1040917844459814 2.0999346185420433e-21 1.7302535963704785e-13 1.7118539575537494e-13 1.839963881672924e-15
3.127460860933648 2.239837394002784e-21 1.859421324562503e-13 1.8400518203029639e-13 1.93695042595396e-15
3.1510058709225794 2.4198708509425792e-21 2.024001516662727e-13 2.0036204326223646e-13 2.038108404036276e-15
3.162844764501044 2.5832760083302697e-21 2.1687930878537235e-13 2.1478882661607834e-13 2.0904821692940795e-15
3.1747281389236908 2.7698111857987852e-21 2.3341359048754445e-13 2.312696526476114e-13 2.1439378399330193e-15
3.1986289994194426 3.279401518448237e-21 2.784376096858246e-13 2.7618318115690513e-13 2.2544285289194145e-15
3.2227097969389145 4.463384901234449e-21 3.81816746216711e-13 3.7944517194737487e-13 2.371574269336137e-15
3.2348180950136065 5.577394035651522e-21 4.789063822276497e-13 4.764722756111186e-13 2.434106616531099e-15
3.240889293275058 6.4095395749526985e-21 5.51392002209955e-13 5.489249111172057e-13 2.467091092749398e-15
3.2469718861334385 7.373340511325272e-21 6.354951670113313e-13 6.329939462868534e-13 2.5012207244777957e-15
3.2714166318528037 1.2461255248447405e-20 1.0820992157210802e-12 1.0794568996419374e-12 2.6423160791432054e-15
3.2744851364798273 1.2779880037453869e-20 1.1108086005636632e-12 1.1081496408462807e-12 2.6589597173820438e-15
3.2775565192852394 1.3107258114540532e-20 1.1403324274202875e-12 1.1376567394073373e-12 2.6756880129500896e-15
3.283707930232385 1.2795551341213322e-20 1.1153032264578183e-12 1.1125975904712279e-12 2.7056359865903363e-15
3.2898708863219004 1.1801132882258529e-20 1.030556929125326e-12 1.0278240089608852e-12 2.7329201644410386e-15
3.29141343181113 1.1566294661728592e-20 1.010522812886466e-12 1.007783040746717e-12 2.739772139749171e-15
3.292184975758714 1.1450854172070269e-20 1.0006715339279228e-12 9.979283311544845e-13 2.7432027734382636e-15
3.295272960557952 1.0727314774327643e-20 9.383218990372765e-13 9.355653461182231e-13 2.7565529190534147e-15
3.3076538914384823 8.208354974469247e-21 7.206852303475908e-13 7.178750416765066e-13 2.810188671084425e-15
3.310756385682612 7.69223638923627e-21 6.760040229262958e-13 6.731803118106027e-13 2.823711115693269e-15
3.313861789986515 7.214691842324549e-21 6.346314795619145e-13 6.317942004989998e-13 2.837279062914869e-15
3.3200813396944477 6.547097121849871e-21 5.769882116382113e-13 5.741217631592337e-13 2.8664484789775867e-15
3.345076488085796 5.374778935238141e-21 4.772391815172677e-13 4.742427789041578e-13 2.996402613110095e-15
3.3482140837626964 5.42193142234309e-21 4.818775261982422e-13 4.78863520782881e-13 3.014005415361288e-15
3.3513546224236106 5.4695442529275415e-21 4.865651039907442e-13 4.835334148087812e-13 3.031689181963148e-15
3.3576445397418455 5.805244548333765e-21 5.173979094081305e-13 5.143292530282062e-13 3.0686563799242673e-15
3.3702598118196083 7.027281338700786e-21 6.286662643242939e-13 6.25520064631194e-13 3.1461996930999234e-15
3.382922481734668 7.316753550421523e-21 6.570219914502492e-13 6.538003545606309e-13 3.221636889618234e-15
3.389271646505754 7.466242404803733e-21 6.717039426960821e-13 6.68444056405758e-13 3.2598862903242014e-15
3.395632727569191 7.629452908162515e-21 6.876754819740172e-13 6.843761769793321e-13 3.2993049946850588e-15
3.421196662673239 8.417786911076748e-21 7.644435145830829e-13 7.609809611150348e-13 3.462553468047981e-15
3.4276182099114902 8.272902341481538e-21 7.526962843503441e-13 7.491972266069487e-13 3.4990577433954346e-15
3.4340518103208963 7.617043608229856e-21 6.943248646963287e-13 6.907912449865106e-13 3.5336197098181672e-15
3.4469541582030403 6.679031053325705e-21 6.11108611103696e-13 6.075085823455732e-13 3.6000287581227024e-15
3.472904465399547 6.4233058053982156e-21 5.921351857569059e-13 5.883822849162953e-13 3.752900840610547e-15
3.4990501388274233 6.031503737888765e-21 5.602027030282877e-13 5.562932036095966e-13 3.909499418691031e-15
3.5253949054701885 4.623128028814479e-21 4.3262650808090335e-13 4.285646140472461e-13 4.061894033657266e-15
3.5519380250092896 3.287375990959201e-21 3.0994468370476577e-13 3.0572940936727584e-13 4.215274337490001e-15
3.578680990867387 2.7666298366705832e-21 2.628109618862478e-13 2.584275467427893e-13 4.383415143458502e-15
3.605625307711299 2.566253011160568e-21 2.456119529645927e-13 2.4105132778376425e-13 4.560625180828496e-15
3.660119384959845 2.4408309437002375e-21 2.371386727644797e-13 2.3220518408763933e-13 4.9334886768404e-15
3.715437065384467 2.35854628521979e-21 2.326075172450834e-13 2.272801472556334e-13 5.327369989450082e-15
3.8285932144167436 2.3618732276826002e-21 2.4002984335731706e-13 2.33853105937543e-13 6.176737419774043e-15
3.94519561050918 2.4092659847633354e-21 2.5230317943612803e-13 2.4519600234309654e-13 7.107177093031477e-15
4.06534921144712 2.4735189568969086e-21 2.669208710209292e-13 2.588022543769834e-13 8.118616643945758e-15
4.189162171576248 2.5465719048764263e-21 2.831734614897069e-13 2.7395955675373413e-13 9.213904735972696e-15
4.316745939156006 2.6251131583413454e-21 3.007973120603403e-13 2.9040723224850973e-13 1.0390079811830508e-14
4.448215356677963 2.7077281768746592e-21 3.1971300497181065e-13 3.080808823697667e-13 1.1632122602043817e-14
4.58368876423945 2.794217847562481e-21 3.399733043783634e-13 3.2703081396261904e-13 1.2942490415744393e-14
4.723288106065518 2.8852360290135038e-21 3.617389026597163e-13 3.4740866685505384e-13 1.4330235804662457e-14
4.867139040275056 2.9819493934484863e-21 3.8525071623816753e-13 3.694899694161252e-13 1.5760746822042284e-14
4.940699165968905 3.0347940814953935e-21 3.980036660589353e-13 3.8150712587060907e-13 1.6496540188326323e-14
5.015371051989984 3.087463705889896e-21 4.110307968663437e-13 3.9378683893553093e-13 1.724395793081277e-14
5.091171501069577 3.1472459293365016e-21 4.253219932067189e-13 4.073032585370278e-13 1.8018734669691127e-14
5.129500256944802 3.1770613703871457e-21 4.325836422872301e-13 4.14173788434933e-13 1.840985385229713e-14
5.168117569889187 3.207468944782596e-21 4.4001175419314913e-13 4.212047086657306e-13 1.8807045527418536e-14
5.20702561229733 3.2434171114833193e-21 4.482929928220618e-13 4.290534299252608e-13 1.9239562896800858e-14
5.246226572918644 3.279553744689743e-21 4.567002279324706e-13 4.370244775075324e-13 1.967575042493824e-14
5.265937586045735 3.2976960133244847e-21 4.609520594280707e-13 4.410568854187676e-13 1.9895174009303053e-14
5.285722656980489 3.315889438839341e-21 4.652365713250202e-13 4.4512111244396893e-13 2.0115458881051227e-14
5.305582063971359 3.3341354822077537e-21 4.695541818948167e-13 4.49217596081947e-13 2.0336585812869604e-14
5.3255160863122235 3.353484994159112e-21 4.740536570443325e-13 4.5349344749650737e-13 2.056020954782505e-14
5.365609099470188 3.400545139519474e-21 4.843251337038042e-13 4.633022639875609e-13 2.102286971624319e-14
5.406003951863644 3.448401332285689e-21 4.948386302829337e-13 4.733492691205078e-13 2.1489361162425943e-14
5.446702915881641 3.497102432602148e-21 5.056051328007559e-13 4.836456006244026e-13 2.1959532176353368e-14
5.487708281020852 3.548726815567792e-21 5.169315246740378e-13 4.944963698243336e-13 2.243515484970416e-14
5.529022354014368 3.61947654477575e-21 5.31206701738552e-13 5.082755978816715e-13 2.293110385688051e-14
5.570647458961463 3.692847622060071e-21 5.460551351211707e-13 5.22624017374689e-13 2.3431117746481816e-14
5.612585937458331 3.769045880583204e-21 5.615182307102344e-13 5.375831873883578e-13 2.3935043321876368e-14
5.654840148729818 3.851394094348067e-21 5.781063316400854e-13 5.53661215121176e-13 2.4445116518909275e-14
5.67608639626678 3.9076025376266746e-21 5.887471438661135e-13 5.640352093566321e-13 2.4711934509481554e-14
5.686739436050992 3.936349952235475e-21 5.941915398784725e-13 5.693457718307556e-13 2.4845768047716973e-14
5.6974124697621304 3.96554017858748e-21 5.997212662611961e-13 5.747413848053086e-13 2.4979881455887416e-14
5.718818669136295 4.025292740716706e-21 6.11045048719858e-13 5.857961103997276e-13 2.5248938320130255e-14
5.740305295436557 4.090843805018369e-21 6.233289840939155e-13 5.978079420121697e-13 2.55210420817456e-14
5.7835210386641895 4.260825837825133e-21 6.541171494458536e-13 6.280334039316625e-13 2.6083745514191152e-14
5.827062130521658 4.45334171459309e-21 6.888189755935607e-13 6.621628320855347e-13 2.665614350802606e-14
5.8489554468988025 4.589519916147491e-21 7.125494432750347e-13 6.855843858142361e-13 2.696505746079854e-14
5.870931020387893 4.734023161553672e-21 7.377458738323846e-13 7.104702279410887e-13 2.7275645891295847e-14
5.892989160043636 4.8875080893635665e-21 7.645265369166479e-13 7.369386445674473e-13 2.758789234920085e-14
5.915130176081913 5.061362472399463e-21 7.946962806755049e-13 7.667847606561039e-13 2.7911520019401102e-14
5.95966208400165 5.5492524125525845e-21 8.778605813200727e-13 8.492124703873378e-13 2.8648110932735e-14
6.004529249263818 6.248509064776642e-21 9.959207980631161e-13 9.664442012369081e-13 2.947659682620794e-14
6.027089341400364 6.73437744159789e-21 1.0773939088217414e-12 1.0474390295828173e-12 2.995487923892394e-14
6.049734195844842 7.304504969805425e-21 1.1729959581294683e-12 1.1425345156005627e-12 3.046144252890586e-14
6.095279466722835 8.949595342464935e-21 1.447992974739486e-12 1.4162877979652984e-12 3.1705176774187956e-14
6.141167624020661 1.1465110950538661e-20 1.8689541472854602e-12 1.8356364796400095e-12 3.3317667645450285e-14
6.164241091010745 1.3070404821017515e-20 2.1386419832668178e-12 2.104313095424585e-12 3.4328887842232567e-14
6.187401249150058 1.4882621098272772e-20 2.444314807797499e-12 2.408947156462866e-12 3.536765133463301e-14
6.1990139391386085 1.5765127183372843e-20 2.5941167904434746e-12 2.5582205043942107e-12 3.5896286049263717e-14
6.204828454712694 1.6228591590469607e-20 2.6728835796399273e-12 2.6367202439739753e-12 3.6163335665952886e-14
6.210648424152782 1.6565439166114433e-20 2.7309222267527314e-12 2.694531170531702e-12 3.639105622103018e-14
6.233982942956859 1.7700722384656136e-20 2.929044928983623e-12 2.8918590947478087e-12 3.718583423581376e-14
6.239830258556775 1.7840743908286004e-20 2.95498423397729e-12 2.9176874829380266e-12 3.7296751039264284e-14
6.245683058788269 1.784499088585456e-20 2.9584600250471444e-12 2.9210521650076473e-12 3.740786003949693e-14
6.257405133728602 1.779564548059612e-20 2.9558163866629285e-12 2.9182136764676313e-12 3.760271019529762e-14
6.269149208991335 1.754977209066683e-20 2.9204482859154584e-12 2.8827721806642734e-12 3.7676105251186285e-14
6.280915325867298 1.696012914046394e-20 2.8276231362475248e-12 2.79002387013994e-12 3.759926610758445e-14
6.304513850009849 1.5517199250375794e-20 2.5967753082679383e-12 2.5594657170911106e-12 3.730959117682782e-14
6.32820103803542 1.37466256970814e-20 2.3091163067392105e-12 2.2722410918395973e-12 3.687521489961344e-14
6.3519772230701035 1.2127911940482801e-20 2.0448638629968933e-12 2.008377040311496e-12 3.6486822685397186e-14
6.375842739491607 1.0762945423366825e-20 1.821537714938392e-12 1.785392185543946e-12 3.6145529394445996e-14
6.399797922933955 9.676284728083041e-21 1.6437824271549488e-12 1.6078063424426183e-12 3.5976084712330505e-14
6.42384311029221 8.769698546379656e-21 1.4953712396763962e-12 1.4595303949062181e-12 3.584084477017838e-14
6.447978639727206 8.110884405589417e-21 1.3882293918947984e-12 1.3523896178834348e-12 3.583977401136336e-14
6.472204850670314 7.560157038691854e-21 1.2988305774500962e-12 1.2629651955092626e-12 3.5865381940833754e-14
6.496522083828205 7.201787187441475e-21 1.2419114638353178e-12 1.2059116171930373e-12 3.599984664228068e-14
