Dust emission spectrum from A.P. Jones, M. Kohler, N. Ysard, M. Bocchio, and L. Verstraete (2017), A&A, 602A, 46J 
inside the DustPedia framework.

lambda    nu*dP/dnu     j_nu    j_nu(carb.) j_nu(sil)
 (um)   (erg s-1 H-1) (Jy cm2 sr-1 H-1)
0.9927057738263894 4.625383283384826e-20 1.2188147668244714e-12 1.2188147217977024e-12 4.50267684467284e-20
1.0001793341362166 4.7030116766265185e-20 1.2486001043928456e-12 1.2486000502164596e-12 5.4176386006921787e-20
1.0077091589558085 4.7809685287970754e-20 1.2788526972723116e-12 1.278852632174324e-12 6.509798820654576e-20
1.0114953028030835 4.8200669293242794e-20 1.2941552309415463e-12 1.2941551596188201e-12 7.132272645706064e-20
1.0152956718711033 4.8592436713052967e-20 1.3095758137190517e-12 1.30957573560258e-12 7.811647180716798e-20
1.0229392996569957 4.9377891855941506e-20 1.3407624581498223e-12 1.3407623645358676e-12 9.361395476491504e-20
1.0267826658714554 4.9770689048188495e-20 1.3565056741403971e-12 1.3565055717081034e-12 1.0243229356215595e-19
1.0306404723013447 5.016420430359224e-20 1.3723679079868347e-12 1.372367795943081e-12 1.1204375314635593e-19
1.03451277320114 5.0558427137816615e-20 1.3883496176990816e-12 1.3883494951830587e-12 1.2251602320680502e-19
1.0383996230291617 5.095334745191747e-20 1.4044512717852767e-12 1.404451137863041e-12 1.3392223610157445e-19
1.0403485208654093 5.1151066115676894e-20 1.4125472273558705e-12 1.4125470873558573e-12 1.4000001319140445e-19
1.0423010764483396 5.134895554166161e-20 1.4206733496905857e-12 1.4206732033492103e-12 1.463413754855761e-19
1.0462171883269815 5.1745242106772933e-20 1.437016342241876e-12 1.4370161823831628e-12 1.5985871324809786e-19
1.0471985131304309 5.1844418709156264e-20 1.4411210419320089e-12 1.4411208785117395e-12 1.6342027019735092e-19
1.048180758391296 5.1943637023969853e-20 1.4452333381160726e-12 1.445233171058385e-12 1.6705768771108355e-19
1.0501480137395462 5.2142198260099854e-20 1.4534807520981194e-12 1.4534805775318435e-12 1.7456627653930833e-19
1.0521189612883777 5.234092477030996e-20 1.4617586489439701e-12 1.4617584665468496e-12 1.823971204962953e-19
1.0531058218030118 5.244021897085312e-20 1.465905394959257e-12 1.4659052085215133e-12 1.8643774356743478e-19
1.0540936079674168 5.253912588527875e-20 1.4700477977195658e-12 1.4700476071547498e-12 1.9056481618298764e-19
1.058054026499678 5.2935143304741683e-20 1.4866932528540191e-12 1.4866930448902024e-12 2.0796381725334994e-19
1.0590464539527713 5.3034244516327055e-20 1.4908736193000803e-12 1.4908734067548122e-12 2.125452681893366e-19
1.06003981227728 5.313338424327402e-20 1.4950616036533064e-12 1.495061386430178e-12 2.172231287149649e-19
1.0620293250338977 5.333177880280925e-20 1.5034604601987326e-12 1.503460233322912e-12 2.268758205162344e-19
1.0660195594769086 5.3729025361920786e-20 1.5203499665617069e-12 1.5203497191363577e-12 2.47425349274192e-19
1.070024785945596 5.412687642648296e-20 1.5373623330161986e-12 1.5373620632696455e-12 2.6974655341399296e-19
1.0740450607676866 5.452532591140174e-20 1.5544981353838448e-12 1.5544978413999432e-12 2.9398390175351156e-19
1.07808044048254 5.492436821049717e-20 1.5717579647226006e-12 1.5717576444296805e-12 3.202929201113215e-19
1.0861967418109137 5.572360443034578e-20 1.606634651138681e-12 1.6066342713305144e-12 3.7980816694299196e-19
1.0902777775684922 5.612240998529849e-20 1.6242127124916975e-12 1.624212299103521e-12 4.133881762727481e-19
1.0943741465085532 5.652176723303921e-20 1.6419162080804875e-12 1.6419157582914189e-12 4.497890683148921e-19
1.1026131145906286 5.732212543555565e-20 1.6777021918058754e-12 1.6777016598410356e-12 5.319648398225677e-19
1.1109141095355224 5.8124661644965e-20 1.7139981686109342e-12 1.7139975402797632e-12 6.283311707538422e-19
1.1192775983109025 5.892874354142809e-20 1.750791486260951e-12 1.7507907450731498e-12 7.411878012242952e-19
1.1277040513999907 5.973150500359334e-20 1.7880021272991203e-12 1.7880012541179995e-12 8.7318112058767e-19
1.1361939428280308 6.053635312513692e-20 1.825736748117005e-12 1.825735720764735e-12 1.0273522696631608e-18
1.1447477501889525 6.134330755372627e-20 1.8640022000354127e-12 1.864000992844204e-12 1.2071912092697156e-18
1.1533659546722406 6.21526774500081e-20 1.9028142838799928e-12 1.902812867180444e-12 1.4166995484090557e-18
1.1707974979042381 6.378111890495249e-20 1.9821811985678937e-12 1.982179254853103e-12 1.9437147906867827e-18
1.1884924949847024 6.54196842657462e-20 2.063831897668571e-12 2.0638292442848565e-12 2.6533837138024043e-18
1.2064549276569216 6.707938969173933e-20 2.1481748971610205e-12 2.1481712929350185e-12 3.6042260016419355e-18
1.2246888378427687 6.874982571930813e-20 2.2349447642900226e-12 2.2349398925406857e-12 4.871749337054146e-18
1.2431983285522175 7.042975619067253e-20 2.3241600701577038e-12 2.324153517123011e-12 6.553034693977688e-18
1.2619875648066055 7.212177726217955e-20 2.4159666160195646e-12 2.415957843753666e-12 8.772265897173618e-18
1.3004222497298317 7.55324260119258e-20 2.6072775099885354e-12 2.6072620119314825e-12 1.5498057053977678e-17
1.3400274889804893 7.899286325189969e-20 2.8097714574158863e-12 2.8097445799104817e-12 2.687750540517479e-17
1.3808389325824078 8.251642777090421e-20 3.0244950292605317e-12 3.0244492517763264e-12 4.577748420432458e-17
1.4228933163050095 8.613258244604381e-20 3.253188594047202e-12 3.25311198464407e-12 7.660940313171711e-17
1.466228494730424 8.990268957443655e-20 3.498998633682264e-12 3.49887259691549e-12 1.2603676677426058e-16
1.5108834753276823 9.381957258016551e-20 3.762650278156141e-12 3.762446344341998e-12 2.0393381414275991e-16
1.5568984535646726 9.787958326406649e-20 4.045030791896803e-12 4.044705915525464e-12 3.2487637133825167e-16
1.6043148490894465 1.0210453166483227e-19 4.34814535639529e-12 4.347634852029238e-12 5.105043660511215e-16
1.6531753430134553 1.0651686378288895e-19 4.674193886945177e-12 4.673403546111375e-12 7.903408338002273e-16
1.7035239163302658 1.1114210119226869e-19 5.0256966516033e-12 5.024490883321917e-12 1.2057682813816889e-15
1.755405889504358 1.1605842272781902e-19 5.407837689272481e-12 5.40602399479487e-12 1.813694477611545e-15
1.8088679632656115 1.21260390708945e-19 5.822309172599669e-12 5.8196184568559735e-12 2.6907157436974317e-15
1.8639582606462262 1.267388174940474e-19 6.270689067778891e-12 6.266750427887587e-12 3.9386398913043236e-15
1.9207263702978936 1.325006666468564e-19 6.755429956567411e-12 6.7497393141221855e-12 5.690642445226916e-15
1.979223391128241 1.3855914867359212e-19 7.279464866779773e-12 7.271346311631607e-12 8.118555148164926e-15
2.039501978296691 1.4492248485369795e-19 7.845657330911403e-12 7.83421666764151e-12 1.1440663269891892e-14
2.1016163906111602 1.516404274802767e-19 8.459367257797587e-12 8.443435795847023e-12 1.5931461950564318e-14
2.1656225393682647 1.5872784056792284e-19 9.12442075607033e-12 9.102490744638935e-12 2.1930011431397427e-14
2.231578038680979 1.6614999878918725e-19 9.841965861938707e-12 9.812116612525238e-12 2.984924941346918e-14
2.299542257339062 1.7389426365592232e-19 1.0614415492907549e-11 1.0574229997784152e-11 4.018549512339652e-14
2.369576372248914 1.8196242078032227e-19 1.144515950830223e-11 1.1391631155440556e-11 5.3528352861669296e-14
2.4417434235010123 1.9036025399828499e-19 1.2338027540846196e-11 1.2267460077894124e-11 7.056746295207418e-14
2.5161083711144245 1.991251382739403e-19 1.3299180060837348e-11 1.320707831544929e-11 9.210174538805744e-14
2.5927381535095444 2.0833540975227243e-19 1.433808606024412e-11 1.4219042382722501e-11 1.190436775216186e-13
2.6717017477616296 2.18052700533338e-19 1.5463894470445363e-11 1.5311479419299178e-11 1.5241505114618502e-13
2.753070231689431 2.283795864959244e-19 1.6689526131569817e-11 1.649618055505652e-11 1.9334557651330174e-13
2.836916847834745 2.396420062830294e-19 1.8045918281068567e-11 1.7802842607726337e-11 2.4307567334223174e-13
2.9233170693905177 2.525829091767195e-19 1.959969515188873e-11 1.9296812242956264e-11 3.0288290893246764e-13
2.967498994190263 2.604035660567227e-19 2.0511949602783905e-11 2.0175645830901376e-11 3.363037718825274e-13
3.0123486681368425 2.6874088293568465e-19 2.1488614317928474e-11 2.111568313611244e-11 3.729311818160362e-13
3.0578761833420214 2.8216892719205395e-19 2.2903323977599393e-11 2.249018201508694e-11 4.1314196251244807e-13
3.1040917844459814 2.977891114959978e-19 2.4536510640681342e-11 2.407973641517238e-11 4.56774225508953e-13
3.127460860933648 3.1206421323503836e-19 2.5906293656660376e-11 2.54262073426251e-11 4.80086314035281e-13
3.1510058709225794 3.3010992070090176e-19 2.7610687566395754e-11 2.7106337835677107e-11 5.043497307186416e-13
3.162844764501044 3.463319757746149e-19 2.907635083284054e-11 2.8559458580387057e-11 5.168922524534742e-13
3.1747281389236908 3.646449272957534e-19 3.072883890770541e-11 3.0199158826196134e-11 5.296800815092823e-13
3.1986289994194426 4.1406977745682343e-19 3.5156597455249686e-11 3.4600527527746293e-11 5.560699275033809e-13
3.2227097969389145 5.280981052971745e-19 4.5175736511545325e-11 4.4591739614468966e-11 5.839968970763421e-13
3.2348180950136065 6.348992524030241e-19 5.4516016279967444e-11 5.3917125092582747e-11 5.988911873846987e-13
3.240889293275058 7.146459601826843e-19 6.147868536396299e-11 6.087193776138628e-11 6.067476025767127e-13
3.2469718861334385 8.07061452852919e-19 6.9559198029902e-11 6.894432138446406e-11 6.148766454379267e-13
3.2714166318528037 1.2912590951095705e-18 1.1212918973671366e-10 1.1148074972718576e-10 6.484400095279082e-13
3.2744851364798273 1.321509646776437e-18 1.1486369802103186e-10 1.1421131111887539e-10 6.523869021564764e-13
3.2775565192852394 1.3525630879148928e-18 1.176730888949261e-10 1.1701673614490227e-10 6.563527500238194e-13
3.283707930232385 1.3227404226764466e-18 1.1529449742626954e-10 1.1463106963541396e-10 6.634277908555899e-13
3.2898708863219004 1.2279383212900187e-18 1.0723210713493492e-10 1.0656225644428115e-10 6.698506906537931e-13
3.29141343181113 1.2055316894723384e-18 1.0532476557944597e-10 1.0465330246429167e-10 6.714631151543155e-13
3.292184975758714 1.1945143882098333e-18 1.043866708270899e-10 1.0371440049391214e-10 6.722703331777541e-13
3.295272960557952 1.1258738230274742e-18 9.848056908218323e-11 9.780516180605468e-11 6.754072761285213e-13
3.3076538914384823 8.861955875436678e-19 7.780707256550184e-11 7.711907364913633e-11 6.879989163654925e-13
3.310756385682612 8.36881476695014e-19 7.354626357426567e-11 7.285509243826597e-11 6.911711359996885e-13
3.313861789986515 7.911730766576459e-19 6.959456497964822e-11 6.89002118914567e-11 6.943530881915232e-13
3.3200813396944477 7.273743767231368e-19 6.41026752782246e-11 6.340147074772247e-11 7.012045305021336e-13
3.345076488085796 6.162701542527257e-19 5.472006710468735e-11 5.3988309840751065e-11 7.317572639362729e-13
3.3482140837626964 6.208469099917659e-19 5.5178155131546744e-11 5.444225815423815e-11 7.358969773085878e-13
3.3513546224236106 6.254641608383642e-19 5.5640656769147073e-11 5.4900602276092207e-11 7.400544930548666e-13
3.3576445397418455 6.576284008453353e-19 5.861175303328943e-11 5.786300331569774e-11 7.487497175916941e-13
3.3702598118196083 7.738865081871853e-19 6.923251207172498e-11 6.846552512352608e-11 7.669869481988838e-13
3.382922481734668 8.018073250448418e-19 7.199983460287652e-11 7.12151475521142e-11 7.846870507623218e-13
3.389271646505754 8.161916092631492e-19 7.342905469889163e-11 7.263540118106248e-11 7.936535178291522e-13
3.395632727569191 8.320318453369565e-19 7.499461719564164e-11 7.419172317143663e-11 8.02894024205013e-13
3.421196662673239 9.088542417171161e-19 8.253567572110292e-11 8.169455846158097e-11 8.411172595219429e-13
3.4276182099114902 8.95158014289675e-19 8.14444657328818e-11 8.059484697017681e-11 8.496187627049784e-13
3.4340518103208963 8.326991888538184e-19 7.590395714801891e-11 7.504631137810879e-11 8.576457699101179e-13
3.4469541582030403 7.430727427415302e-19 6.798862711376082e-11 6.711560275135373e-11 8.730243624070951e-13
3.472904465399547 7.184513473777991e-19 6.623074393863119e-11 6.532225086870271e-11 9.08493069928489e-13
3.4990501388274233 6.811419828809498e-19 6.326408745450288e-11 6.231936175476185e-11 9.447256997410358e-13
3.5253949054701885 5.48257178556272e-19 5.130521742222045e-11 5.0325393342575596e-11 9.798240796448398e-13
3.5519380250092896 4.2175729346581084e-19 3.976467288285345e-11 3.874965338006868e-11 1.0150195027847778e-12
3.578680990867387 3.7282396809521873e-19 3.541573374603158e-11 3.436214935204381e-11 1.0535843939877744e-12
3.605625307711299 3.5441869522733105e-19 3.3920843939927856e-11 3.28266926794612e-11 1.0941512604666554e-12
3.660119384959845 3.43727271543951e-19 3.3394786794746154e-11 3.221563372673981e-11 1.1791530680063352e-12
3.715437065384467 3.36956539120038e-19 3.32317514713958e-11 3.196331902512058e-11 1.2684324462752227e-12
3.8285932144167436 3.3920316669018446e-19 3.447216472614691e-11 3.301300225595318e-11 1.4591624701937289e-12
3.94519561050918 3.4530177141342707e-19 3.616069597275816e-11 3.4495279114846104e-11 1.665416857912059e-12
4.06534921144712 3.526479592586229e-19 3.8054731776607066e-11 3.61681898953895e-11 1.8865418812175596e-12
4.189162171576248 3.6045873432887183e-19 4.008225620044229e-11 3.795972200397346e-11 2.122534196468828e-12
4.316745939156006 3.683855603831927e-19 4.2211279926355804e-11 3.983924899622699e-11 2.372030930128811e-12
4.448215356677963 3.7624867203484907e-19 4.442528411096233e-11 4.179427032876913e-11 2.6310137821932025e-12
4.58368876423945 3.839999659743261e-19 4.6721388394020545e-11 4.3822029252738385e-11 2.8993591412821616e-12
4.723288106065518 3.916729066147356e-19 4.910632129074002e-11 4.592798403535491e-11 3.178337255385102e-12
4.867139040275056 3.992971039019591e-19 5.1586889974735314e-11 4.812724438783898e-11 3.4596455868963225e-12
4.940699165968905 4.0329445036109456e-19 5.289079437832776e-11 4.928884236185746e-11 3.6019520164703017e-12
5.015371051989984 4.0711567682820405e-19 5.4198881996329785e-11 5.0454045449773836e-11 3.744836546555957e-12
5.091171501069577 4.114238656108208e-19 5.560023668417236e-11 5.170869003709443e-11 3.8915466470779506e-12
5.129500256944802 4.13503395825244e-19 5.630196719883482e-11 5.233704991837175e-11 3.964917280463056e-12
5.168117569889187 4.1559384141784603e-19 5.701260973752954e-11 5.297351987487167e-11 4.039089862657876e-12
5.20702561229733 4.181606673969747e-19 5.7796604822785124e-11 5.367603440995031e-11 4.1205704128348e-12
5.246226572918644 4.2069218465519604e-19 5.858425614537787e-11 5.438199868497698e-11 4.202257460400902e-12
5.265937586045735 4.2194483733602145e-19 5.897946352520378e-11 5.473629845328237e-11 4.243165071921393e-12
5.285722656980489 4.23188835090382e-19 5.937559930508224e-11 5.509149107979078e-11 4.284108225291473e-12
5.305582063971359 4.244242463784825e-19 5.977266996139257e-11 5.544758846569453e-11 4.325081495698033e-12
5.3255160863122235 4.257448478944618e-19 6.018392879755842e-11 5.5817482921374294e-11 4.3664458761841126e-12
5.365609099470188 4.290853565727598e-19 6.111279637999824e-11 5.666072955778396e-11 4.452066822214259e-12
5.406003951863644 4.324295858499854e-19 6.20527726724864e-11 5.7514901758873985e-11 4.537870913612423e-12
5.446702915881641 4.357806543774257e-19 6.300442720076456e-11 5.83806126117056e-11 4.623814589058963e-12
5.487708281020852 4.393185828135828e-19 6.399411299715038e-11 5.928384729400033e-11 4.71026570315006e-12
5.529022354014368 4.444395965875744e-19 6.522746847636371e-11 6.042708840696832e-11 4.800380069395412e-12
5.570647458961463 4.496897008809879e-19 6.649485586956944e-11 6.160419454301665e-11 4.890661326552812e-12
5.612585937458331 4.550830526559167e-19 6.779897052195663e-11 6.281790535130743e-11 4.981065170649206e-12
5.654840148729818 4.608989945467825e-19 6.918238447347113e-11 6.411033544436372e-11 5.072049029107416e-12
5.67608639626678 4.650413650259522e-19 7.006643403525849e-11 6.494669472196254e-11 5.1197393132959474e-12
5.686739436050992 4.671529673936572e-19 7.051668282104764e-11 6.537308010452852e-11 5.143602716519106e-12
5.6974124697621304 4.692925027589016e-19 7.097259927440823e-11 6.580512191934894e-11 5.1674773550593e-12
5.718818669136295 4.736584515160376e-19 7.19020131518825e-11 6.668675564086383e-11 5.215257511018657e-12
5.740305295436557 4.7847366457491895e-19 7.290586428386937e-11 6.764239485293559e-11 5.263469430933788e-12
5.7835210386641895 4.91221844729266e-19 7.541182039579719e-11 7.00487620502791e-11 5.363058345518105e-12
5.827062130521658 5.056186900591871e-19 7.820638308222666e-11 7.27425541558449e-11 5.4638289263817446e-12
5.8489554468988025 5.160401370012933e-19 8.011820823222408e-11 7.459968792099759e-11 5.518520311226479e-12
5.870931020387893 5.270541979859847e-19 8.213564796387372e-11 7.65623141678571e-11 5.573333796016658e-12
5.892989160043636 5.38708317157971e-19 8.426723733128578e-11 7.86389736823037e-11 5.628263648982091e-12
5.915130176081913 5.519389501302051e-19 8.666121686014647e-11 8.09759238993054e-11 5.685292960841082e-12
5.95966208400165 5.895211423161521e-19 9.325893547813576e-11 8.744211899138871e-11 5.816816486747054e-12
6.004529249263818 6.435940620467968e-19 1.0257946419819118e-10 9.661375431086148e-11 5.965709887329675e-12
6.027089341400364 6.81314578772687e-19 1.0899955987423452e-10 1.0294703484992946e-10 6.052525024305051e-12
6.049734195844842 7.254845089480673e-19 1.1650213124631408e-10 1.1035747507041108e-10 6.144656175903004e-12
6.095279466722835 8.53145556823753e-19 1.3803403678481358e-10 1.3166026419921708e-10 6.373772585596501e-12
6.141167624020661 1.0478893425844988e-18 1.7081885567165138e-10 1.6414443179850285e-10 6.6744238731485145e-12
6.164241091010745 1.1719288330870147e-18 1.9175658582590596e-10 1.8489188665555776e-10 6.86469917034824e-12
6.187401249150058 1.3112294287675403e-18 2.153557150983521e-10 2.082959415998898e-10 7.0597734984623394e-12
6.1990139391386085 1.3787856961091217e-18 2.2687613509850219e-10 2.1971715875223341e-10 7.1589763462687585e-12
6.204828454712694 1.4142051185109677e-18 2.3292259334017296e-10 2.2571354366467852e-10 7.20904967549446e-12
6.210648424152782 1.4397189314308883e-18 2.3734718957309323e-10 2.300958260234315e-10 7.251363549661729e-12
6.233982942956859 1.5248550606340452e-18 2.5232693252433786e-10 2.449295181778821e-10 7.397414346455753e-12
6.239830258556775 1.5348399120751193e-18 2.542174118510059e-10 2.4680084503236795e-10 7.416566818637954e-12
6.245683058788269 1.5342859212493899e-18 2.5436401699745577e-10 2.469282786767615e-10 7.435738320694294e-12
6.257405133728602 1.5286765473238382e-18 2.5390971029479896e-10 2.4644106597471796e-10 7.468644320081007e-12
6.269149208991335 1.5078096359096232e-18 2.509138035485311e-10 2.434362187047459e-10 7.477584843785217e-12
6.280915325867298 1.4603488129233972e-18 2.4347197218929016e-10 2.3601503892876436e-10 7.456933260525871e-12
6.304513850009849 1.3453456381978973e-18 2.251411661336799e-10 2.1775224396401035e-10 7.388922169669472e-12
6.32820103803542 1.2057608689366452e-18 2.0254003752213757e-10 1.9524753559533724e-10 7.292501926800414e-12
6.3519772230701035 1.078564474650064e-18 1.81854677783581e-10 1.7464948570805778e-10 7.205192075523315e-12
6.375842739491607 9.712750415875377e-19 1.6438010695371678e-10 1.5725284431549314e-10 7.127262638223648e-12
6.399797922933955 8.86078392635996e-19 1.5052472429522058e-10 1.4344180483411125e-10 7.082919461109341e-12
6.42384311029221 8.149054731702323e-19 1.3895417284744788e-10 1.31908867870772e-10 7.045304976675901e-12
6.447978639727206 7.630665012623743e-19 1.3060367921071082e-10 1.2356988941761387e-10 7.033789793096925e-12
6.472204850670314 7.196227729968257e-19 1.2363077341042028e-10 1.166033435728385e-10 7.027429837581794e-12
6.496522083828205 6.910460627598573e-19 1.1916736846602375e-10 1.1212523343997667e-10 7.0421350260470706e-12
6.520930681187647 6.667549229351614e-19 1.1541048008184785e-10 1.083505255188022e-10 7.0599545630456236e-12
6.57002334288761 6.403421130385101e-19 1.1167305841248441e-10 1.0454857913987404e-10 7.124479272610334e-12
