Dust emission spectrum from A.P. Jones, M. Kohler, N. Ysard, M. Bocchio, and L. Verstraete (2017), A&A, 602A, 46J 
inside the DustPedia framework.

lambda    nu*dP/dnu     j_nu    j_nu(carb.) j_nu(sil)
 (um)   (erg s-1 H-1) (Jy cm2 sr-1 H-1)
0.9927057738263894 6.538911668149651e-22 1.7230403648342497e-14 1.7230403648084492e-14 2.580003105281791e-25
1.0001793341362166 6.646842615469553e-22 1.7646667612594937e-14 1.7646667612284176e-14 3.1076472360797314e-25
1.0077091589558085 6.75461767038639e-22 1.8067805664870742e-14 1.8067805664496904e-14 3.7383717876728163e-25
1.0114953028030835 6.808433474060688e-22 1.8280181425216006e-14 1.8280181424806177e-14 4.0982364954614554e-25
1.0152956718711033 6.862194430031993e-22 1.849375018518779e-14 1.8493750184738658e-14 4.491285960160172e-25
1.0229392996569957 6.969478017257564e-22 1.8924288030970314e-14 1.892428803043142e-14 5.388905512346659e-25
1.0267826658714554 7.022870441175454e-22 1.9140911617646397e-14 1.9140911617056376e-14 5.900232184579451e-25
1.0306404723013447 7.076184427453606e-22 1.9358681262962062e-14 1.9358681262316266e-14 6.457976466188233e-25
1.03451277320114 7.129414835744348e-22 1.9577587599081475e-14 1.957758759837486e-14 7.066145448769546e-25
1.0383996230291617 7.182556554417663e-22 1.9797621141654652e-14 1.9797621140881742e-14 7.72907291990507e-25
1.0403485208654093 7.20909256585775e-22 1.990805762019732e-14 1.9908057619389062e-14 8.082520831492869e-25
1.0423010764483396 7.235604501542216e-22 2.0018772292071496e-14 2.0018772291226345e-14 8.451444308771731e-25
1.0462171883269815 7.28855362584479e-22 2.0241031339718734e-14 2.0241031338794896e-14 9.23832339650099e-25
1.0471985131304309 7.301774876903623e-22 2.0296768062128726e-14 2.029676806118415e-14 9.445754226832181e-25
1.048180758391296 7.314989559529237e-22 2.035257326036715e-14 2.0352573259401387e-14 9.65764620979375e-25
1.0501480137395462 7.341398907647952e-22 2.0464388464238916e-14 2.04643884632294e-14 1.0095180905233059e-24
1.0521189612883777 7.367781047828377e-22 2.0576475707012657e-14 2.057647570595749e-14 1.055167992562382e-24
1.0531058218030118 7.380941447266324e-22 2.0632564279412793e-14 2.063256427833406e-14 1.078729950070351e-24
1.0540936079674168 7.394028389224331e-22 2.0688534433536863e-14 2.068853443243407e-14 1.1028007572525195e-24
1.058054026499678 7.446301528059679e-22 2.091307503741331e-14 2.091307503620898e-14 1.2043317848711652e-24
1.0590464539527713 7.459350773654338e-22 2.0969374386248138e-14 2.0969374385017058e-14 1.2310802999996988e-24
1.06003981227728 7.47239225134717e-22 2.102573909328922e-14 2.1025739092030826e-14 1.2583973686045313e-24
1.0620293250338977 7.49845159964675e-22 2.1138663937061458e-14 2.1138663935746667e-14 1.314783381953109e-24
1.0660195594769086 7.550473752262947e-22 2.1365290807813074e-14 2.136529080637818e-14 1.4348989539958193e-24
1.070024785945596 7.602363171079709e-22 2.1592945229348342e-14 2.1592945227782863e-14 1.5654802489523012e-24
1.0740450607676866 7.654115078955347e-22 2.1821616687964467e-14 2.1821616686257075e-14 1.7073916308381555e-24
1.07808044048254 7.705724737206098e-22 2.205129457884031e-14 2.2051294576978747e-14 1.861564642089287e-24
1.0861967418109137 7.808407260275131e-22 2.2513363596646707e-14 2.251336359443592e-14 2.2107874432533522e-24
1.0902777775684922 7.8592632620849345e-22 2.2745130339985747e-14 2.2745130337577667e-14 2.408082425387447e-24
1.0943741465085532 7.909954833262329e-22 2.2977843195119186e-14 2.297784319249705e-14 2.6221395232987043e-24
1.1026131145906286 8.010826690302217e-22 2.344606274519025e-14 2.3446062742084217e-14 3.106030892272649e-24
1.1109141095355224 8.110987281913068e-22 2.391793251501852e-14 2.3917932511344013e-14 3.6745032601834945e-24
1.1192775983109025 8.210308691063814e-22 2.4393085092308528e-14 2.4393085087967057e-14 4.3414649125671986e-24
1.1277040513999907 8.30832925512581e-22 2.4870142450910614e-14 2.487014244578765e-14 5.12295833883726e-24
1.1361939428280308 8.4055229934743195e-22 2.5350506636244957e-14 2.5350506630207492e-14 6.037460673096729e-24
1.1447477501889525 8.501857556477854e-22 2.5834083328132786e-14 2.583408332102656e-14 7.106226753908066e-24
1.1533659546722406 8.597353896983243e-22 2.632093816378123e-14 2.6320938155427548e-14 8.353685622293894e-24
1.1707974979042381 8.786140964385313e-22 2.7305452971944406e-14 2.7305452960443438e-14 1.1500971610267472e-23
1.1884924949847024 8.971169237771257e-22 2.830185660493905e-14 2.8301856589183363e-14 1.5755685897539703e-23
1.2064549276569216 9.153887624127158e-22 2.931474435880935e-14 2.9314744337330234e-14 2.1479118805550718e-23
1.2246888378427687 9.332299517108634e-22 3.0337784461743867e-14 3.033778443260407e-14 2.9139798489193686e-23
1.2431983285522175 9.50598794568276e-22 3.1369464847987524e-14 3.1369464808644286e-14 3.9343235521900553e-23
1.2619875648066055 9.674888797438432e-22 3.2409362658025187e-14 3.2409362605157224e-14 5.286797035775481e-23
1.3004222497298317 9.995521538340111e-22 3.450319271276339e-14 3.450319261863018e-14 9.413321061061932e-23
1.3400274889804893 1.0292949595790003e-21 3.6611960620601533e-14 3.661196045603637e-14 1.645651682253156e-22
1.3808389325824078 1.0566077411315969e-21 3.8728104781791553e-14 3.872810449918763e-14 2.8260391889949367e-22
1.4228933163050095 1.0816243548863048e-21 4.0852461570672546e-14 4.085246109371855e-14 4.769539970175919e-22
1.466228494730424 1.1049479788336827e-21 4.300440272176657e-14 4.30044019302704e-14 7.91496184251266e-22
1.5108834753276823 1.1261259900003292e-21 4.516347871754633e-14 4.5163477425476533e-14 1.2920698005998596e-21
1.5568984535646726 1.1447924230145822e-21 4.7310383299559506e-14 4.7310381222545086e-14 2.0770144498849736e-21
1.6043148490894465 1.1609823996948627e-21 4.9440706967451814e-14 4.944070367359085e-14 3.2938609468726524e-21
1.6531753430134553 1.1747461820313007e-21 5.1550442134262076e-14 5.1550436986886344e-14 5.147375730823938e-21
1.7035239163302658 1.1862480634100428e-21 5.364054535857077e-14 5.364053743015763e-14 7.928413146478299e-21
1.755405889504358 1.1964322206547934e-21 5.574874363656232e-14 5.5748731593842016e-14 1.2042720311781635e-20
1.8088679632656115 1.2050668943151492e-21 5.786120258517129e-14 5.786118454021645e-14 1.8044954854498953e-20
1.8639582606462262 1.2119954265699851e-21 5.996620942078284e-14 5.99661827366337e-14 2.668414914328009e-20
1.9207263702978936 1.2173332334456863e-21 6.206466428023185e-14 6.206462532350891e-14 3.895672295517209e-20
1.979223391128241 1.2213475630491516e-21 6.416578595100648e-14 6.41657297800434e-14 5.61709630842691e-20
2.039501978296691 1.2243579180419557e-21 6.628296972027927e-14 6.628288970031552e-14 8.001996376203354e-20
2.1016163906111602 1.227257585122675e-21 6.846342235365182e-14 6.846330967984664e-14 1.1267380517811303e-19
2.1656225393682647 1.2305648102694253e-21 7.07386370049388e-14 7.073848013591005e-14 1.568690287293586e-19
2.231578038680979 1.234317176688386e-21 7.311530306530607e-14 7.311508705306141e-14 2.1601224467616202e-19
2.299542257339062 1.2388250589768492e-21 7.561723786946867e-14 7.561694357533225e-14 2.942941363973012e-19
2.369576372248914 1.244773804110317e-21 7.829437901905177e-14 7.829398220233327e-14 3.968167185140751e-19
2.4417434235010123 1.2529725021797254e-21 8.121027848573733e-14 8.120974877723435e-14 5.2970850298457e-19
2.5161083711144245 1.2648064475763615e-21 8.447395860830612e-14 8.447325833796722e-14 7.002703389102575e-19
2.5927381535095444 1.2825422339856077e-21 8.826728470522429e-14 8.82663676066769e-14 9.170985473981502e-19
2.6717017477616296 1.3088850493660703e-21 9.282370834130542e-14 9.282251818909409e-14 1.1901522113196007e-18
2.753070231689431 1.3479072851333414e-21 9.850238457528552e-14 9.850085371735468e-14 1.5308579308232807e-18
2.836916847834745 1.4088361660912915e-21 1.0609050858416973e-13 1.0608855632776281e-13 1.952256406893922e-18
2.9233170693905177 1.5119936295955898e-21 1.1732628430111828e-13 1.173238156514361e-13 2.4686496821558048e-18
2.967498994190263 1.5994713163267494e-21 1.2599011422311407e-13 1.2598735132272396e-13 2.7629003901111323e-18
3.0123486681368425 1.7016063803169005e-21 1.3606103704104824e-13 1.360579489275665e-13 3.0881134817232396e-18
3.0578761833420214 1.9298890853583263e-21 1.566468547853608e-13 1.5664340681682673e-13 3.447968534066106e-18
3.1040917844459814 2.223998268841429e-21 1.832476577607103e-13 1.8324381521049536e-13 3.8425502149921494e-18
3.127460860933648 2.5350088235254057e-21 2.1044605635382936e-13 2.10442001348177e-13 4.0550056523802906e-18
3.1510058709225794 2.9493511108870777e-21 2.466863518472951e-13 2.4668207451241177e-13 4.27733488334337e-18
3.162844764501044 3.3349969901704564e-21 2.799901519222385e-13 2.799857591933572e-13 4.39272888126977e-18
3.1747281389236908 3.783457577504635e-21 3.1883415813702253e-13 3.188296474303836e-13 4.510706638852033e-18
3.1986289994194426 5.0342927474814136e-21 4.274366622025252e-13 4.2743190702523254e-13 4.755177292562152e-18
3.2227097969389145 7.98266717633872e-21 6.828709768134988e-13 6.828659616573542e-13 5.015156144582665e-18
3.2348180950136065 1.0778592784698072e-20 9.25510523916536e-13 9.25505369776336e-13 5.154140200114169e-18
3.240889293275058 1.2868898073941106e-20 1.1070697656591947e-12 1.1070645381999094e-12 5.2274592852683406e-18
3.2469718861334385 1.5287061556668092e-20 1.3175647757140077e-12 1.317559472383023e-12 5.303330984926542e-18
3.2714166318528037 2.818568255756219e-20 2.4475628162661583e-12 2.4475571986294556e-12 5.6176367026465644e-18
3.2744851364798273 2.8992009622335743e-20 2.5199433438916e-12 2.51993768900518e-12 5.6548864207147785e-18
3.2775565192852394 2.982149424042205e-20 2.594472209161396e-12 2.59446651681892e-12 5.692342476489609e-18
3.283707930232385 2.9023776478183586e-20 2.529809828971326e-12 2.529804069226555e-12 5.759744770217353e-18
3.2898708863219004 2.649398652965418e-20 2.313639009974671e-12 2.313633188502617e-12 5.821472054374927e-18
3.29141343181113 2.589739812658469e-20 2.262601149866083e-12 2.262595312883322e-12 5.8369827615014335e-18
3.292184975758714 2.5604255592549546e-20 2.2375142791855935e-12 2.2375084344356195e-12 5.8447499739456195e-18
3.295272960557952 2.3753937923925258e-20 2.0777650895200966e-12 2.0777592144843576e-12 5.875035738244714e-18
3.3076538914384823 1.734383495040082e-20 1.522771094234801e-12 1.522765097350514e-12 5.996884287163643e-18
3.310756385682612 1.603920386668955e-20 1.4095466896453045e-12 1.4095406620049193e-12 6.027640385538954e-18
3.313861789986515 1.4835473753177178e-20 1.304984171707503e-12 1.3049781131929504e-12 6.05851455273804e-18
3.3200813396944477 1.3147386751460394e-20 1.1586642183944974e-12 1.158658093647984e-12 6.124746513482881e-18
3.345076488085796 1.0136096328382167e-20 9.000076791666145e-13 9.000012596792032e-13 6.419487411321175e-18
3.3482140837626964 1.0249029725079701e-20 9.108888890592723e-13 9.108824296576144e-13 6.459401657826162e-18
3.3513546224236106 1.0363211347709106e-20 9.219007606305112e-13 9.218942611118628e-13 6.499518648519443e-18
3.3576445397418455 1.119762060337627e-20 9.979985239717749e-13 9.97991940642986e-13 6.583328789072783e-18
3.3702598118196083 1.427519827584738e-20 1.2770707674875531e-12 1.2770640083058596e-12 6.759181693614914e-18
3.382922481734668 1.497617911188708e-20 1.3448148767892835e-12 1.344807945911728e-12 6.930877555912145e-18
3.389271646505754 1.5339332621137157e-20 1.3800101364664049e-12 1.3800031184058373e-12 7.018060567511117e-18
3.395632727569191 1.573065551384309e-20 1.4178717979471216e-12 1.4178646900297589e-12 7.107917362542777e-18
3.421196662673239 1.760964689311423e-20 1.5991828379292382e-12 1.5991753571494676e-12 7.480779770689618e-18
3.4276182099114902 1.723103121935866e-20 1.5677367674587326e-12 1.5677292026268798e-12 7.564831852961641e-18
3.4340518103208963 1.5571884787931744e-20 1.4194413678773917e-12 1.4194337231389477e-12 7.644738444176834e-18
3.4469541582030403 1.3208942543742079e-20 1.2085732896892862e-12 1.2085654907434537e-12 7.79894583219055e-18
3.472904465399547 1.2546748641889675e-20 1.156627375808081e-12 1.1566192227511925e-12 8.15305688826074e-18
3.4990501388274233 1.1533949294731788e-20 1.0712667772898796e-12 1.0712582598701865e-12 8.517419692919196e-18
3.5253949054701885 7.929544574646295e-21 7.420368111416544e-13 7.420279366175389e-13 8.874524115662814e-18
3.5519380250092896 4.54180227915191e-21 4.28216144040943e-13 4.282069080170984e-13 9.236023844618494e-18
3.578680990867387 3.198593898651886e-21 3.038446011266224e-13 3.0383496836754485e-13 9.632759077582874e-18
3.605625307711299 2.6553399374054724e-21 2.5413831955567493e-13 2.541282672924372e-13 1.0052263237781823e-17
3.660119384959845 2.2591103706202933e-21 2.1948362966311247e-13 2.1947268874684478e-13 1.094091626767556e-17
3.715437065384467 1.9785351438842306e-21 1.9512958065954062e-13 1.9511769212546212e-13 1.1888534078507516e-17
3.8285932144167436 1.8362530540899918e-21 1.8661269697784418e-13 1.8659873338421068e-13 1.396359363351108e-17
3.94519561050918 1.8090341384112444e-21 1.8944569330085345e-13 1.8942940757058253e-13 1.6285730270914264e-17
4.06534921144712 1.8290629768937145e-21 1.9737672985416767e-13 1.9735786120490934e-13 1.8868649258383434e-17
4.189162171576248 1.876450061203421e-21 2.0865731618496347e-13 2.0863558175647292e-13 2.173442849055438e-17
4.316745939156006 1.94377741002736e-21 2.2272678734705152e-13 2.227018941558774e-13 2.489319117413634e-17
4.448215356677963 2.028546914131011e-21 2.395191789124483e-13 2.3949085275950836e-13 2.8326152939926944e-17
4.58368876423945 2.1310455520667092e-21 2.5928493683802953e-13 2.5925287765563874e-13 3.2059182390771376e-17
4.723288106065518 2.2536197177366285e-21 2.8254947446538075e-13 2.8251333662990216e-13 3.6137835478631625e-17
4.867139040275056 2.400978255961593e-21 3.1019258570038133e-13 3.1015208727098153e-13 4.049842939987999e-17
4.940699165968905 2.4898810100732203e-21 3.265400364730383e-13 3.2649723254070967e-13 4.2803932328504395e-17
5.015371051989984 2.581922819436171e-21 3.437286702012788e-13 3.436834787795198e-13 4.519142175893659e-17
5.091171501069577 2.694269969119264e-21 3.641063644951299e-13 3.640586572781565e-13 4.7707216973503525e-17
5.129500256944802 2.751920012575612e-21 3.746970686241468e-13 3.7464807166318165e-13 4.8996960965186996e-17
5.168117569889187 2.8120201832175354e-21 3.857627166294994e-13 3.8571239920928743e-13 5.031742021197119e-17
5.20702561229733 2.8858233803580727e-21 3.988677235981379e-13 3.9881598135082653e-13 5.1742247311453535e-17
5.246226572918644 2.9615027681093758e-21 4.1240946010053797e-13 4.12356266506387e-13 5.319359415099994e-17
5.265937586045735 3.0000647559028506e-21 4.1934915227582523e-13 4.192952230165043e-13 5.3929259321040626e-17
5.285722656980489 3.039118585719054e-21 4.26404178049129e-13 4.2634950643886483e-13 5.467161026415353e-17
5.305582063971359 3.078672203520092e-21 4.335766844390374e-13 4.33521263773826e-13 5.5420665211346776e-17
5.3255160863122235 3.1211745241040233e-21 4.412139013599873e-13 4.4115772058782094e-13 5.618077216630436e-17
5.365609099470188 3.22710306648583e-21 4.596225193389335e-13 4.595647642030865e-13 5.775513584700726e-17
5.406003951863644 3.337059102779763e-21 4.788612451028738e-13 4.788018860434283e-13 5.93590594455582e-17
5.446702915881641 3.451237606985674e-21 4.989740741761889e-13 4.989130814229472e-13 6.099275324191502e-17
5.487708281020852 3.5746242139925805e-21 5.207039147025093e-13 5.206412530572304e-13 6.266164527886085e-17
5.529022354014368 3.746269051211778e-21 5.49815201701416e-13 5.497507947500478e-13 6.440695136809727e-17
5.570647458961463 3.9280343352959795e-21 5.808317968246113e-13 5.807656112626478e-13 6.618556196359685e-17
5.612585937458331 4.120649625404615e-21 6.139006953865895e-13 6.138326976174653e-13 6.799776912411915e-17
5.654840148729818 4.332403328741554e-21 6.503073261808154e-13 6.502374756021481e-13 6.985057866740722e-17
5.67608639626678 4.476708745947493e-21 6.744927260943555e-13 6.744219069535134e-13 7.08191408420079e-17
5.686739436050992 4.5510925447593174e-21 6.869868584128891e-13 6.869155514394725e-13 7.130697341672108e-17
5.6974124697621304 4.627011238482197e-21 6.9975764056834e-13 6.996858433864013e-13 7.179718193874649e-17
5.718818669136295 4.783601297331224e-21 7.261573445869909e-13 7.260845598352234e-13 7.278475176744315e-17
5.740305295436557 4.95623587253444e-21 7.551902782420802e-13 7.551164904591974e-13 7.378778288272162e-17
5.7835210386641895 5.404256450739302e-21 8.296553201142689e-13 8.295794509010552e-13 7.586921321336148e-17
5.827062130521658 5.920430055477995e-21 9.157403197971984e-13 9.156623128083963e-13 7.800698880213024e-17
5.8489554468988025 6.282668369155529e-21 9.754205081391737e-13 9.753413536754578e-13 7.915446371586197e-17
5.870931020387893 6.6714046299601e-21 1.039665643884182e-12 1.0395853292658875e-12 8.031461829448114e-17
5.892989160043636 7.088772211681151e-21 1.1088584143281225e-12 1.1087769267804373e-12 8.148754768526082e-17
5.915130176081913 7.563483956478629e-21 1.1875601879809471e-12 1.1874774858546926e-12 8.270212625439477e-17
5.95966208400165 8.891072312112513e-21 1.4065177303548963e-12 1.4064323077019304e-12 8.542265296593062e-17
6.004529249263818 1.0804894966469756e-20 1.7221419552152573e-12 1.7220534928401638e-12 8.84623750927922e-17
6.027089341400364 1.2135394358463204e-20 1.9414712163587496e-12 1.9413810212287424e-12 9.019513000756906e-17
6.049734195844842 1.3707750633415545e-20 2.201262940405858e-12 2.201170913286751e-12 9.2027119107222e-17
6.095279466722835 1.8250002744754222e-20 2.9527453200026045e-12 2.9526488741863694e-12 9.644581623586967e-17
6.141167624020661 2.5240801563656518e-20 4.114561208061299e-12 4.114459130487815e-12 1.0207757348390867e-16
6.164241091010745 2.9705233909543606e-20 4.860512067656479e-12 4.860406506854551e-12 1.0556080192661392e-16
6.187401249150058 3.479093569989211e-20 5.714047192819174e-12 5.713938038348229e-12 1.0915447094543389e-16
6.1990139391386085 3.7274175804317624e-20 6.133383142376608e-12 6.133272155741951e-12 1.1098663465793026e-16
6.204828454712694 3.8582260383895886e-20 6.354580412638459e-12 6.354468498809745e-12 1.1191382871462235e-16
6.210648424152782 3.9537126939238454e-20 6.5179569136431475e-12 6.517844197046628e-12 1.1271659651895982e-16
6.233982942956859 4.2781169203646444e-20 7.079257218369467e-12 7.0791416471741824e-12 1.1557119528430515e-16
6.239830258556775 4.3195816676103165e-20 7.154575947495961e-12 7.154459938913206e-12 1.1600858275691064e-16
6.245683058788269 4.323169011294565e-20 7.16723409008627e-12 7.167117642762602e-12 1.1644732366831566e-16
6.257405133728602 4.314237816223235e-20 7.165851245496018e-12 7.165734005766588e-12 1.1723972943009053e-16
6.269149208991335 4.250409831248486e-20 7.073084506156798e-12 7.072966858151052e-12 1.176480057471346e-16
6.280915325867298 4.090374681372422e-20 6.819546000611039e-12 6.819428421304185e-12 1.1757930685297878e-16
6.304513850009849 3.6957314562941206e-20 6.184739937177297e-12 6.184622928683875e-12 1.1700849342296253e-16
6.32820103803542 3.206576681280558e-20 5.386309823745827e-12 5.386193847618126e-12 1.1597612770099268e-16
6.3519772230701035 2.7579864077947993e-20 4.650187738509989e-12 4.65007264868496e-12 1.1508982502755163e-16
6.375842739491607 2.3805949315258065e-20 4.0289560907287e-12 4.02884173862874e-12 1.1435209996027863e-16
6.399797922933955 2.0781224431986754e-20 3.530261096691629e-12 3.5301469260612316e-12 1.141706303981727e-16
6.42384311029221 1.82664368514364e-20 3.1147141688558274e-12 3.114600068311838e-12 1.141005439896006e-16
6.447978639727206 1.6433781937632133e-20 2.8127461772342798e-12 2.8126317073625812e-12 1.1446987169913565e-16
6.472204850670314 1.490708307233744e-20 2.561028192384055e-12 2.5609132626027676e-12 1.149297812874524e-16
6.496522083828205 1.391476185789648e-20 2.399529702570858e-12 2.3994139518014443e-12 1.1575076941419003e-16
