Dust emission spectrum from A.P. Jones, M. Kohler, N. Ysard, M. Bocchio, and L. Verstraete (2017), A&A, 602A, 46J 
inside the DustPedia framework.

lambda    nu*dP/dnu     j_nu    j_nu(carb.) j_nu(sil)
 (um)   (erg s-1 H-1) (Jy cm2 sr-1 H-1)
0.9927057738263894 6.238589535947241e-26 1.6439037772032583e-18 1.6439037771729449e-18 3.0313009487353526e-29
1.0001793341362166 6.34156338178578e-26 1.6836183375566755e-18 1.6836183375201635e-18 3.6512413476472924e-29
1.0077091589558085 6.444388495193118e-26 1.723797920799527e-18 1.7237979207556043e-18 4.392293142399292e-29
1.0114953028030835 6.495732622306174e-26 1.7440600877991715e-18 1.7440600877510202e-18 4.8151059009974745e-29
1.0152956718711033 6.54702442080881e-26 1.764436075504748e-18 1.764436075451979e-18 5.276908141778502e-29
1.0229392996569957 6.649380639055784e-26 1.805512466349153e-18 1.8055124662858377e-18 6.331540593412357e-29
1.0267826658714554 6.700320831688993e-26 1.8261799063997563e-18 1.826179906330433e-18 6.932309260504199e-29
1.0306404723013447 6.751186189230385e-26 1.846956688652239e-18 1.8469566885763623e-18 7.587614971776886e-29
1.03451277320114 6.801971807422231e-26 1.8678419193486026e-18 1.8678419192655807e-18 8.302165745036049e-29
1.0383996230291617 6.852672809405603e-26 1.888834693614602e-18 1.888834693523791e-18 9.081053440202742e-29
1.0403485208654093 6.877990063023312e-26 1.899371123826329e-18 1.8993711237313658e-18 9.496326967405573e-29
1.0423010764483396 6.903284346656356e-26 1.9099340956747952e-18 1.9099340955754977e-18 9.929783068445425e-29
1.0462171883269815 6.953801599900485e-26 1.9311391990678795e-18 1.9311391989593372e-18 1.0854304174753623e-28
1.0471985131304309 6.96641561943446e-26 1.9364568811797173e-18 1.9364568810687375e-18 1.1098019103426641e-28
1.048180758391296 6.979023372215614e-26 1.9417810963762203e-18 1.9417810962627507e-18 1.1346975535946385e-28
1.0501480137395462 7.004219780008744e-26 1.952449066862211e-18 1.9524490667436007e-18 1.1861044427830506e-28
1.0521189612883777 7.029390229492221e-26 1.963142991808787e-18 1.9631429916848134e-18 1.2397394911585501e-28
1.0531058218030118 7.041946192241311e-26 1.968494242931534e-18 1.9684942428047917e-18 1.2674229400667125e-28
1.0540936079674168 7.054432071301922e-26 1.9738341961043925e-18 1.9738341959748217e-18 1.2957042473638842e-28
1.058054026499678 7.104304386169265e-26 1.995256976321999e-18 1.9952569761804993e-18 1.414995227950849e-28
1.0590464539527713 7.116754300215987e-26 2.000628337029668e-18 2.000628336885026e-18 1.4464226317087718e-28
1.06003981227728 7.129196803131484e-26 2.0060059333786964e-18 2.0060059332308447e-18 1.478518041132495e-28
1.0620293250338977 7.154059286122159e-26 2.016779771470077e-18 2.0167797713156004e-18 1.5447671768056403e-28
1.0660195594769086 7.203692142272822e-26 2.0384015965023236e-18 2.0384015963337342e-18 1.6858935369815464e-28
1.070024785945596 7.253198360933188e-26 2.0601214572466446e-18 2.0601214570627133e-18 1.8393162993333933e-28
1.0740450607676866 7.302573384371317e-26 2.0819383506216023e-18 2.0819383504209974e-18 2.0060510236700725e-28
1.07808044048254 7.351812691547052e-26 2.10385126485248e-18 2.1038512646337603e-18 2.1871921991664086e-28
1.0861967418109137 7.449779166744042e-26 2.147935955503974e-18 2.1479359552442243e-18 2.5975015535704717e-28
1.0902777775684922 7.498299431947863e-26 2.1700481612655784e-18 2.1700481609826474e-18 2.829307656942771e-28
1.0943741465085532 7.546662818635803e-26 2.1922506328842244e-18 2.1922506325761438e-18 3.0808079294244426e-28
1.1026131145906286 7.642901789473157e-26 2.236922128501997e-18 2.236922128137063e-18 3.649342270663291e-28
1.1109141095355224 7.738462162543353e-26 2.281941881310422e-18 2.281941880878697e-18 4.317252640480375e-28
1.1192775983109025 7.83322189588757e-26 2.3272748375623124e-18 2.327274837052224e-18 5.100880181665061e-28
1.1277040513999907 7.926740530374985e-26 2.372789523720524e-18 2.3727895231186153e-18 6.0190735588874235e-28
1.1361939428280308 8.019470314450844e-26 2.4186197049664477e-18 2.4186197042570934e-18 7.093541953047999e-28
1.1447477501889525 8.111380384307281e-26 2.464756382500348e-18 2.464756381665422e-18 8.349258129554586e-28
1.1533659546722406 8.202490730520144e-26 2.5112058186038665e-18 2.511205817622374e-18 9.814924292321967e-28
1.1707974979042381 8.382607111810406e-26 2.6051355788808382e-18 2.6051355775295646e-18 1.3512738059194852e-27
1.1884924949847024 8.559137337955524e-26 2.700199619252501e-18 2.7001996174013313e-18 1.8511693071769344e-27
1.2064549276569216 8.733463770649822e-26 2.7968363641337e-18 2.7968363616100716e-18 2.523627707267968e-27
1.2246888378427687 8.903681505527821e-26 2.894441717558666e-18 2.894441714134967e-18 3.423697383364278e-27
1.2431983285522175 9.069392723521566e-26 2.9928714180866713e-18 2.9928714134641494e-18 4.622521070602731e-27
1.2619875648066055 9.230536258159008e-26 3.0920851224453553e-18 3.0920851162337844e-18 6.2115711556739e-27
1.3004222497298317 9.536442937966699e-26 3.2918515279151466e-18 3.291851516855233e-18 1.1059912681783744e-26
1.3400274889804893 9.820210743446364e-26 3.4930431328656594e-18 3.493043113530545e-18 1.93351143473026e-26
1.3808389325824078 1.0080794457633873e-25 3.69493851730473e-18 3.694938484100991e-18 3.320374017080103e-26
1.4228933163050095 1.0319471199932131e-25 3.8976174928051016e-18 3.897617436766753e-18 5.60383474230212e-26
1.466228494730424 1.0541995766012192e-25 4.1029282834770016e-18 4.102928190482419e-18 9.299458319757424e-26
1.5108834753276823 1.0744049871128395e-25 4.308919889992253e-18 4.308919738184204e-18 1.5180805032259335e-25
1.5568984535646726 1.0922142026743475e-25 4.513750400066016e-18 4.513750156033137e-18 2.440328796342939e-25
1.6043148490894465 1.1076607429742564e-25 4.7169991747621235e-18 4.716998787759342e-18 3.8700278278025e-25
1.6531753430134553 1.1207925757360378e-25 4.918283941139185e-18 4.918283336362978e-18 6.047762076100188e-25
1.7035239163302658 1.1317664668697888e-25 5.117696068301489e-18 5.117695136775233e-18 9.315262545104788e-25
1.755405889504358 1.1414832518841075e-25 5.318835122969961e-18 5.3188337080449395e-18 1.4149250220561672e-24
1.8088679632656115 1.149721844781614e-25 5.520381390554442e-18 5.520379270414017e-18 2.1201404237982472e-24
1.8639582606462262 1.1563328188569269e-25 5.721217626368215e-18 5.7212144911903364e-18 3.1351778782214283e-24
1.9207263702978936 1.1614263334819606e-25 5.921430015489236e-18 5.921425438380353e-18 4.5771088806784815e-24
1.979223391128241 1.1652574162926747e-25 6.121898484407881e-18 6.1218918847610325e-18 6.5996468508174976e-24
2.039501978296691 1.1681309602491466e-25 6.323901526388603e-18 6.323892124671546e-18 9.401717058907483e-24
2.1016163906111602 1.170899301999454e-25 6.5319436129923495e-18 6.531930374705474e-18 1.3238286877826533e-23
2.1656225393682647 1.1740569766922645e-25 6.7490301692575105e-18 6.7490117383790906e-18 1.8430878421852198e-23
2.231578038680979 1.1776399476595487e-25 6.975800329211221e-18 6.975774949469591e-18 2.5379741632279366e-23
2.299542257339062 1.1819444583973606e-25 7.214527556695456e-18 7.214492979446574e-18 3.45772488816813e-23
2.369576372248914 1.1876245228638785e-25 7.469977615080365e-18 7.469930992233564e-18 4.6622846803681896e-23
2.4417434235010123 1.195452236757647e-25 7.748215455215203e-18 7.748153218627802e-18 6.223658740422073e-23
2.5161083711144245 1.2067494632567359e-25 8.059644572897441e-18 8.059562296634349e-18 8.227626309302615e-23
2.5927381535095444 1.2236789183150309e-25 8.421618610955295e-18 8.421510859081233e-18 1.0775187406250004e-22
2.6717017477616296 1.2488218038718267e-25 8.85641339925189e-18 8.856273565717584e-18 1.398335343057095e-22
2.753070231689431 1.2860637738853959e-25 9.398298372656284e-18 9.39811850887672e-18 1.798637795661417e-22
2.836916847834745 1.3442086216250925e-25 1.0122381845653936e-17 1.012215247086418e-17 2.2937478975421084e-22
2.9233170693905177 1.44264535155396e-25 1.119450607125761e-17 1.1194216024315103e-17 2.9004694251314834e-22
2.967498994190263 1.5261149897030494e-25 1.202118474446056e-17 1.2020860125371667e-17 3.2461908889409686e-22
3.0123486681368425 1.6235697333661135e-25 1.2982119965318366e-17 1.298175713624627e-17 3.628290720963171e-22
3.0578761833420214 1.8413794240804262e-25 1.4946262841583018e-17 1.4945857732369498e-17 4.05109213517116e-22
3.1040917844459814 2.121993366182991e-25 1.748429032453187e-17 1.7483838855070903e-17 4.514694609639526e-22
3.127460860933648 2.418726526802114e-25 2.007927760409227e-17 2.007880117278659e-17 4.764313056842254e-22
3.1510058709225794 2.8140458786348176e-25 2.3536930179959092e-17 2.3536427626715506e-17 5.025532435753183e-22
3.162844764501044 3.1819833849161102e-25 2.6714387268792224e-17 2.671387115766049e-17 5.161111317296607e-22
3.1747281389236908 3.609850702719428e-25 3.0420420639709897e-17 3.041989066711855e-17 5.299725913440561e-22
3.1986289994194426 4.803244917163101e-25 4.078195444952161e-17 4.078139575354916e-17 5.586959724520992e-22
3.2227097969389145 7.616213705951825e-25 6.515230032913746e-17 6.515171108769243e-17 5.892414450202353e-22
3.2348180950136065 1.0283731471931912e-24 8.830189517797319e-17 8.830128960699358e-17 6.0557097960603655e-22
3.240889293275058 1.2278034787758593e-24 1.0562397042186375e-16 1.0562335623646771e-16 6.141853960744993e-22
3.2469718861334385 1.4585138363959825e-24 1.257067258219174e-16 1.257061027221927e-16 6.230997246923694e-22
3.2714166318528037 2.689135641081721e-24 2.335167292672777e-16 2.3351606923910053e-16 6.600281771569096e-22
3.2744851364798273 2.7660651368906216e-24 2.4042236192927165e-16 2.404216975245452e-16 6.644047263745888e-22
3.2775565192852394 2.845204029739946e-24 2.47532961462022e-16 2.4753229265650333e-16 6.688055186516865e-22
3.283707930232385 2.769096267099928e-24 2.4136373015217014e-16 2.4136305342741154e-16 6.767247586132806e-22
3.2898708863219004 2.527736401166339e-24 2.2073950774171258e-16 2.2073882376448305e-16 6.839772295365386e-22
3.29141343181113 2.470817648127745e-24 2.15870135850613e-16 2.158694500509972e-16 6.857996157628143e-22
3.292184975758714 2.442849777586469e-24 2.1347667146572208e-16 2.134759847535199e-16 6.867122022012913e-22
3.295272960557952 2.266316329634849e-24 1.9823546590907667e-16 1.982347756385351e-16 6.902705415639485e-22
3.3076538914384823 1.6547470304429122e-24 1.4528510871069538e-16 1.452844041239066e-16 7.045867887492263e-22
3.310756385682612 1.530275988486205e-24 1.344827007463946e-16 1.344819925460059e-16 7.082003886706218e-22
3.313861789986515 1.4154316214001143e-24 1.2450669879456036e-16 1.2450598696669962e-16 7.118278607511948e-22
3.3200813396944477 1.2543762599136243e-24 1.1054675094303365e-16 1.1054603133343788e-16 7.196095957821108e-22
3.345076488085796 9.670786062106029e-25 8.586916932805149e-17 8.586841508871584e-17 7.542393356230924e-22
3.3482140837626964 9.778533995759056e-25 8.690732885893771e-17 8.690656992999173e-17 7.589289459980152e-22
3.3513546224236106 9.887472834885522e-25 8.795795455054095e-17 8.795719090816375e-17 7.63642377222187e-22
3.3576445397418455 1.068356194187083e-24 9.52182559706773e-17 9.521748248126701e-17 7.73489410276251e-22
3.3702598118196083 1.3619797558617568e-24 1.2184380899729646e-16 1.218430148465515e-16 7.941507449577922e-22
3.382922481734668 1.4288589434728336e-24 1.283071436085114e-16 1.2830632928485154e-16 8.143236598356869e-22
3.389271646505754 1.4635066924640275e-24 1.3166505481495032e-16 1.3166423024797158e-16 8.245669787383864e-22
3.395632727569191 1.5008420137580017e-24 1.352773609853054e-16 1.3527652586085922e-16 8.351244461876372e-22
3.421196662673239 1.6801125798936006e-24 1.525758704795758e-16 1.525749915467261e-16 8.789328497220907e-22
3.4276182099114902 1.6439902230545005e-24 1.4957572098932985e-16 1.495748321810208e-16 8.888083090272662e-22
3.4340518103208963 1.485696017764237e-24 1.3542730481409887e-16 1.3542640661739315e-16 8.981967057026403e-22
3.4469541582030403 1.2602549218465798e-24 1.153090364122168e-16 1.1530812009735452e-16 9.163148622517937e-22
3.472904465399547 1.197078125804186e-24 1.1035315768289912e-16 1.103521997627699e-16 9.579201292387107e-22
3.4990501388274233 1.1004511053332494e-24 1.0220928487295293e-16 1.0220828414305684e-16 1.0007298961410813e-21
3.5253949054701885 7.565663367813814e-25 7.079852653295931e-17 7.079748384609909e-17 1.0426868601945058e-21
3.5519380250092896 4.3335275080672755e-25 4.085793096097608e-17 4.085684580073789e-17 1.085160238195779e-21
3.578680990867387 3.0520251967146596e-25 2.899215742626827e-17 2.8991025652757184e-17 1.1317735110875697e-21
3.605625307711299 2.533737841276325e-25 2.4249997829120196e-17 2.4248816767166156e-17 1.1810619540435561e-21
3.660119384959845 2.155740770101605e-25 2.0944076703288244e-17 2.0942791231584958e-17 1.2854717032837306e-21
3.715437065384467 1.8880896450165267e-25 1.8620955094910008e-17 1.861955828555899e-17 1.3968093510227124e-21
3.8285932144167436 1.7524298771985612e-25 1.7809400775136775e-17 1.7807760162590913e-17 1.6406125458672264e-21
3.94519561050918 1.7265675426066154e-25 1.808096255315134e-17 1.8079049107794625e-17 1.9134453567131863e-21
4.06534921144712 1.7458062303061815e-25 1.8839237852928752e-17 1.8837020934883917e-17 2.2169180448348816e-21
4.189162171576248 1.7911752458844338e-25 1.9917493534759814e-17 1.9914939910170413e-17 2.5536245893953016e-21
4.316745939156006 1.855603690305306e-25 2.126234446387648e-17 2.1259419709488825e-17 2.924754387649014e-21
4.448215356677963 1.9367157605387443e-25 2.2867628326444443e-17 2.286430022602065e-17 3.328100423795613e-21
4.58368876423945 2.0347943310016615e-25 2.4757402256393956e-17 2.475363555433853e-17 3.766702055430697e-21
4.723288106065518 2.1520886746520963e-25 2.698199342329816e-17 2.6977747511549166e-17 4.245911748995883e-21
4.867139040275056 2.2931036035451443e-25 2.962558008579937e-17 2.962082183852398e-17 4.758247275393867e-21
4.940699165968905 2.37816787235165e-25 3.1188921102453766e-17 3.118389197669763e-17 5.029125756142359e-21
5.015371051989984 2.4662510431392757e-25 3.283294082454027e-17 3.2827631187533547e-17 5.309637006719876e-21
5.091171501069577 2.5737337226674303e-25 3.478169744234243e-17 3.477609221916354e-17 5.6052231788887544e-21
5.129500256944802 2.62889419673847e-25 3.579460684683947e-17 3.578885008887453e-17 5.756757964936572e-21
5.168117569889187 2.686399706887221e-25 3.6852966243497875e-17 3.684705434194572e-17 5.911901552141912e-21
5.20702561229733 2.7569872572273524e-25 3.8106047610678826e-17 3.809996830313677e-17 6.0793075420650496e-21
5.246226572918644 2.8293728491850082e-25 3.940094676664558e-17 3.9394696937252486e-17 6.249829393091292e-21
5.265937586045735 2.8662578699582795e-25 4.0064562126732956e-17 4.0058225862462186e-17 6.336264270759873e-21
5.285722656980489 2.9036142655569553e-25 4.073922156557119e-17 4.073279808089694e-17 6.423484674237136e-21
5.305582063971359 2.941449657016813e-25 4.142513088192667e-17 4.141861938918114e-17 6.511492745523307e-21
5.3255160863122235 2.9821006745901864e-25 4.215542138778314e-17 4.2148820588442245e-17 6.600799340890818e-21
5.365609099470188 3.0833735892499606e-25 4.3915174320646985e-17 4.390838854594271e-17 6.785774704261476e-21
5.406003951863644 3.188498483607794e-25 4.575430961343154e-17 4.57473353903058e-17 6.974223125739457e-21
5.446702915881641 3.297661728977119e-25 4.767703344539496e-17 4.766986727608338e-17 7.166169311567733e-21
5.487708281020852 3.4156207016882215e-25 4.9754238880441937e-17 4.974687662942781e-17 7.362251014127478e-21
5.529022354014368 3.579635328011749e-25 5.2535946911012057e-17 5.252837960024457e-17 7.567310767478362e-21
5.570647458961463 3.753316877119953e-25 5.5499662164369885e-17 5.549188588083124e-17 7.776283538655693e-21
5.612585937458331 3.9373618105336407e-25 5.86594195869749e-17 5.865143038333265e-17 7.989203642269145e-21
5.654840148729818 4.139678954774975e-25 6.213787932594626e-17 6.212967243173939e-17 8.206894206861765e-21
5.67608639626678 4.27750879888201e-25 6.444798476698487e-17 6.443966407433209e-17 8.320692652792532e-21
5.686739436050992 4.348553596395171e-25 6.564136291334361e-17 6.5632984904196e-17 8.378009147626384e-21
5.6974124697621304 4.421063640681019e-25 6.686115296794148e-17 6.685271736314388e-17 8.435604797602608e-21
5.718818669136295 4.5706206897859605e-25 6.938265914972892e-17 6.937410751323537e-17 8.551636493554521e-21
5.740305295436557 4.735489822054222e-25 7.215548186775319e-17 7.214681238298399e-17 8.669484769206994e-21
5.7835210386641895 5.16327903191216e-25 7.926607401235298e-17 7.925715997587286e-17 8.914036480136268e-21
5.827062130521658 5.656108958444186e-25 8.748565522906594e-17 8.747649002074973e-17 9.165208316214747e-21
5.8489554468988025 6.001907577965552e-25 9.318307756375208e-17 9.31737775361487e-17 9.300027603351424e-21
5.870931020387893 6.372991843579655e-25 9.931612660351422e-17 9.930669026686274e-17 9.436336651493592e-21
5.892989160043636 6.771397241035396e-25 1.0592131589596723e-16 1.0591174174932754e-16 9.574146639698303e-21
5.915130176081913 7.224521436631368e-25 1.134338895240119e-16 1.1342417267393273e-16 9.716850079139597e-21
5.95966208400165 8.491613685192232e-25 1.3433256179095637e-16 1.3432252530036263e-16 1.0036490593713235e-20
6.004529249263818 1.031808317703135e-24 1.6445512882548726e-16 1.644447351914254e-16 1.039363406180379e-20
6.027089341400364 1.1587790263403706e-24 1.8538632196909894e-16 1.8537572474994815e-16 1.059721915076496e-20
6.049734195844842 1.308826813541368e-24 2.1017831715109257e-16 2.1016750468761567e-16 1.0812463476807903e-20
6.095279466722835 1.742272527401857e-24 2.8188965905408827e-16 2.818783274284147e-16 1.1331625673582893e-20
6.141167624020661 2.4093512020826777e-24 3.927538896767561e-16 3.9274189636385235e-16 1.199331290388424e-20
6.164241091010745 2.8353556108435787e-24 4.639344098271892e-16 4.639220072623095e-16 1.2402564879644207e-20
6.187401249150058 3.320636785953167e-24 5.453798503386217e-16 5.453670255458664e-16 1.28247927554126e-20
6.1990139391386085 3.557590579574696e-24 5.853936570668254e-16 5.853806170092284e-16 1.304005759709279e-20
6.204828454712694 3.682409016357057e-24 6.06500603485455e-16 6.064874544898408e-16 1.3148995614181167e-20
6.210648424152782 3.773525391510018e-24 6.220906226241444e-16 6.220773793096201e-16 1.3243314524182495e-20
6.233982942956859 4.0830865742074136e-24 6.756528781644791e-16 6.756392994570277e-16 1.3578707451731127e-20
6.239830258556775 4.1226574471072274e-24 6.828407952559029e-16 6.828271651588595e-16 1.3630097043393234e-20
6.245683058788269 4.126087245953346e-24 6.84049896976189e-16 6.840362153305354e-16 1.3681645653480883e-20
6.257405133728602 4.1175793073344714e-24 6.839205918815441e-16 6.839068171344393e-16 1.3774747104891313e-20
6.269149208991335 4.0566911420066514e-24 6.750718260587732e-16 6.750580033424089e-16 1.3822716364489033e-20
6.280915325867298 3.904005623906948e-24 6.508828166798833e-16 6.508690020350994e-16 1.381464478416398e-20
6.304513850009849 3.527478729050409e-24 5.903172032682786e-16 5.903034556895881e-16 1.3747578690777628e-20
6.32820103803542 3.060772966476818e-24 5.141393185397297e-16 5.141256922559003e-16 1.362628382930857e-20
6.3519772230701035 2.6327716951890178e-24 4.439065624349162e-16 4.438930402846878e-16 1.3522150228485822e-20
6.375842739491607 2.2727020944336768e-24 3.846356565966323e-16 3.846222211233032e-16 1.3435473329076189e-20
6.399797922933955 1.9841214093478996e-24 3.370574551782658e-16 3.370440410261845e-16 1.3414152081258616e-20
6.42384311029221 1.744194583412657e-24 2.974125510290632e-16 2.973991451115843e-16 1.3405917478890768e-20
6.447978639727206 1.5693567621177334e-24 2.6860537946260747e-16 2.685919301520243e-16 1.3449310583108974e-20
6.472204850670314 1.4237111475627535e-24 2.4459274621510153e-16 2.4457924286875506e-16 1.3503346346420378e-20
6.496522083828205 1.329056114894914e-24 2.2918894743886597e-16 2.2917534763286484e-16 1.3599806001154332e-20
