Dust emission spectrum from A.P. Jones, M. Kohler, N. Ysard, M. Bocchio, and L. Verstraete (2017), A&A, 602A, 46J 
inside the DustPedia framework.

lambda    nu*dP/dnu     j_nu    j_nu(carb.) j_nu(sil)
 (um)   (erg s-1 H-1) (Jy cm2 sr-1 H-1)
0.9927057738263894 1.5787207332145101e-24 4.1600188015677435e-17 4.1600188015677435e-17 8.488631788018477e-38
1.0001793341362166 1.6046077049806905e-24 4.260064583521466e-17 4.260064583521466e-17 1.1312168530001183e-37
1.0077091589558085 1.6304523127520322e-24 4.3612676498028364e-17 4.3612676498028364e-17 1.5048034915170888e-37
1.0114953028030835 1.6433555456443076e-24 4.4122980175931465e-17 4.4122980175931465e-17 1.7344430385721469e-37
1.0152956718711033 1.6562443769381947e-24 4.46361146788057e-17 4.46361146788057e-17 1.998255766026382e-37
1.0229392996569957 1.6819610662158647e-24 4.5670444178360117e-17 4.5670444178360117e-17 2.6489312759595087e-37
1.0267826658714554 1.694757536388964e-24 4.6190805439281036e-17 4.6190805439281036e-17 3.0479017833234938e-37
1.0306404723013447 1.7075339480971674e-24 4.671388342939992e-17 4.671388342939992e-17 3.5054816283936076e-37
1.03451277320114 1.7202890694018225e-24 4.7239655326411154e-17 4.7239655326411154e-17 4.030066982917943e-37
1.0383996230291617 1.7330216755611906e-24 4.776809803458305e-17 4.776809803458305e-17 4.6312268599547355e-37
1.0403485208654093 1.73937915475507e-24 4.8033313652026855e-17 4.8033313652026855e-17 4.963872146139811e-37
1.0423010764483396 1.7457305492639592e-24 4.8299188190260153e-17 4.8299188190260153e-17 5.3198628483583695e-37
1.0462171883269815 1.7584144808575695e-24 4.883290216737337e-17 4.883290216737337e-17 6.108390054527968e-37
1.0471985131304309 1.7615814255425744e-24 4.896673784053126e-17 4.896673784053126e-17 6.322745180844352e-37
1.048180758391296 1.764746717496167e-24 4.910073563542402e-17 4.910073563542402e-17 6.54445632045992e-37
1.0501480137395462 1.7710722685711006e-24 4.936921608294919e-17 4.936921608294919e-17 7.010941995083585e-37
1.0521189612883777 1.777390985128223e-24 4.963834048534021e-17 4.963834048534021e-17 7.509920310435206e-37
1.0531058218030118 1.7805428382258864e-24 4.9773006362962035e-17 4.9773006362962035e-17 7.772276270929811e-37
1.0540936079674168 1.783676887133644e-24 4.9907383032971286e-17 4.9907383032971286e-17 8.043584411972979e-37
1.058054026499678 1.7961944140161394e-24 5.0446451061041556e-17 5.0446451061041556e-17 9.224580253035469e-37
1.0590464539527713 1.7993190372148226e-24 5.05816064648974e-17 5.05816064648974e-17 9.54539304041181e-37
1.06003981227728 1.802441720592334e-24 5.07169164482784e-17 5.07169164482784e-17 9.877117945530705e-37
1.0620293250338977 1.808681195339636e-24 5.098799858809292e-17 5.098799858809292e-17 1.057476768655195e-36
1.0660195594769086 1.8211360709829396e-24 5.153200055226628e-17 5.153200055226628e-17 1.2117794193518433e-36
1.070024785945596 1.833557889965346e-24 5.207843166908098e-17 5.207843166908098e-17 1.3880531350860743e-36
1.0740450607676866 1.845945510634173e-24 5.262726643695235e-17 5.262726643695235e-17 1.5893503531385416e-36
1.07808044048254 1.858297800847025e-24 5.317847914269829e-17 5.317847914269829e-17 1.8191372173632414e-36
1.0861967418109137 1.882869887426462e-24 5.4287299532216745e-17 5.4287299532216745e-17 2.3804437440086406e-36
1.0902777775684922 1.89503739418014e-24 5.484340082831089e-17 5.484340082831089e-17 2.7214799298631386e-36
1.0943741465085532 1.907164272760314e-24 5.5401734308950704e-17 5.5401734308950704e-17 3.110207480374692e-36
1.1026131145906286 1.931291853739956e-24 5.652499015723121e-17 5.652499015723121e-17 4.05763873112814e-36
1.1109141095355224 1.9552441545972906e-24 5.765685004133342e-17 5.765685004133342e-17 5.2858984403741555e-36
1.1192775983109025 1.978990426099903e-24 5.879642736607506e-17 5.879642736607506e-17 6.875956675045364e-36
1.1277040513999907 2.0024194472739157e-24 5.994039881056912e-17 5.994039881056912e-17 8.931404968182799e-36
1.1361939428280308 2.0256456588669537e-24 6.109214591127081e-17 6.109214591127081e-17 1.158489918311506e-35
1.1447477501889525 2.048661369568868e-24 6.225144114799146e-17 6.225144114799146e-17 1.50057579917586e-35
1.1533659546722406 2.071471775346305e-24 6.341844381448577e-17 6.341844381448577e-17 1.9409961800634099e-35
1.1707974979042381 2.1165518902649196e-24 6.577792040507296e-17 6.577792040507296e-17 3.2344046864248966e-35
1.1884924949847024 2.160714163704962e-24 6.816527567886003e-17 6.816527567886003e-17 5.360932664735182e-35
1.2064549276569216 2.2043090399797268e-24 7.059159850783036e-17 7.059159850783036e-17 8.839465792324649e-35
1.2246888378427687 2.246855840278607e-24 7.304162074311756e-17 7.304162074311756e-17 1.4499779796596536e-34
1.2431983285522175 2.2882553763506455e-24 7.55117164063418e-17 7.55117164063418e-17 2.3663214347436905e-34
1.2619875648066055 2.328492956284428e-24 7.80008682754676e-17 7.80008682754676e-17 3.842244199427042e-34
1.3004222497298317 2.4048109779171468e-24 8.301083269200099e-17 8.301083269200099e-17 9.977966861461501e-34
1.3400274889804893 2.4755181757768888e-24 8.805403458324281e-17 8.805403458324281e-17 2.539791018078507e-33
1.3808389325824078 2.540359719050089e-24 9.311243288587747e-17 9.311243288587745e-17 6.336860852469288e-33
1.4228933163050095 2.5996669729256612e-24 9.818824310696639e-17 9.818824310696639e-17 1.549735508321038e-32
1.466228494730424 2.6548995000920484e-24 1.0332827379646303e-16 1.0332827379646302e-16 3.7149980629236177e-32
1.5108834753276823 2.7049750745626914e-24 1.084834958932701e-16 1.0848349589326998e-16 8.727385379755783e-32
1.5568984535646726 2.749021498309984e-24 1.1360772325981589e-16 1.1360772325981564e-16 2.0089037370067285e-31
1.6043148490894465 2.787130989919207e-24 1.1869062492998716e-16 1.1869062492998672e-16 4.530763942424912e-31
1.6531753430134553 2.819431476944862e-24 1.2372284449773214e-16 1.2372284449773115e-16 1.0011832945178564e-30
1.7035239163302658 2.846324629749666e-24 1.2870697969226423e-16 1.2870697969226206e-16 2.1678255334321495e-30
1.755405889504358 2.8700858121523496e-24 1.3373400966169897e-16 1.3373400966169439e-16 4.600937692056028e-30
1.8088679632656115 2.8901625519198224e-24 1.3877095264138506e-16 1.3877095264137547e-16 9.572410160969127e-30
1.8639582606462262 2.906184169488614e-24 1.437900215647843e-16 1.4379002156476473e-16 1.9526391719168248e-29
1.9207263702978936 2.918432482123807e-24 1.4879371338186627e-16 1.4879371338182715e-16 3.906162397238283e-29
1.979223391128241 2.9275540613476797e-24 1.53804545850537e-16 1.5380454585046034e-16 7.665712234653814e-29
2.039501978296691 2.9343205774575836e-24 1.5885508568953324e-16 1.5885508568938562e-16 1.4763234356436358e-28
2.1016163906111602 2.940879831144456e-24 1.6405903732984726e-16 1.640590373295681e-16 2.7915441037171475e-28
2.1656225393682647 2.9484795800395204e-24 1.6949243549652979e-16 1.6949243549601133e-16 5.184769640120405e-28
2.231578038680979 2.9572144735834723e-24 1.751718574031893e-16 1.7517185740224313e-16 9.461516629109831e-28
2.299542257339062 2.9678333163024716e-24 1.8115500345232514e-16 1.8115500345062808e-16 1.6970470140728414e-27
2.369576372248914 2.9819856656765266e-24 1.8756236287019904e-16 1.87562362867206e-16 2.993064512820046e-27
2.4417434235010123 3.0016191010283476e-24 1.9454722484217426e-16 1.945472248369813e-16 5.192907712834241e-27
2.5161083711144245 3.030065711355614e-24 2.023721858565623e-16 2.0237218584769487e-16 8.86741332636335e-27
2.5927381535095444 3.0727781187680897e-24 2.1147512639987655e-16 2.1147512638496523e-16 1.4911350399161014e-26
2.6717017477616296 3.13627094805946e-24 2.2241853851335414e-16 2.2241853848865136e-16 2.4702765634879343e-26
2.753070231689431 3.2303505324266952e-24 2.3606759453532824e-16 2.3606759449499955e-16 4.032866219096923e-26
2.836916847834745 3.377228951388477e-24 2.543176741778567e-16 2.543176741129362e-16 6.492046433324292e-26
2.9233170693905177 3.625826503009189e-24 2.8135353403067432e-16 2.813535339275659e-16 1.0310847621524245e-25
2.967498994190263 3.8365559156859735e-24 3.0220493053336795e-16 3.022049304040405e-16 1.2932738793780362e-25
3.0123486681368425 4.0826197312876924e-24 3.264476913748981e-16 3.264476912132005e-16 1.616976438872032e-25
3.0578761833420214 4.632269072845686e-24 3.7599589856535556e-16 3.7599589836354823e-16 2.0180727253980673e-25
3.1040917844459814 5.340616900087723e-24 4.4004330023519404e-16 4.4004329998406545e-16 2.5112847749806678e-25
3.127460860933648 6.0893988018586876e-24 5.055169636982731e-16 5.05516963417969e-16 2.8030411883347926e-25
3.1510058709225794 7.087084078086457e-24 5.927700198205175e-16 5.927700195076524e-16 3.128650273836095e-25
3.162844764501044 8.015409570784072e-24 6.729348632269951e-16 6.729348628957787e-16 3.312163310635127e-25
3.1747281389236908 9.09511415546811e-24 7.664505298434894e-16 7.664505294929158e-16 3.5057356289445943e-25
3.1986289994194426 1.2107016386796573e-23 1.0279463140463127e-15 1.027946313652935e-15 3.933777836098951e-25
3.2227097969389145 1.9205907279508766e-23 1.6429542125246107e-15 1.6429542120767298e-15 4.478806066666673e-25
3.2348180950136065 2.593782144204987e-23 2.227167051543601e-15 2.227167051060589e-15 4.830121313055996e-25
3.240889293275058 3.0970651555840316e-23 2.664305192506386e-15 2.6643051920017832e-15 5.046027818313959e-25
3.2469718861334385 3.679279475014417e-23 3.171105852041264e-15 3.1711058515121745e-15 5.290901376409326e-25
3.2714166318528037 6.78494634053614e-23 5.89185035329289e-15 5.891850352651271e-15 6.4161752735217475e-25
3.2744851364798273 6.97907076501874e-23 6.066106885984315e-15 6.066106885330855e-15 6.534598582003742e-25
3.2775565192852394 7.178770728889692e-23 6.2455358547392516e-15 6.245535854073741e-15 6.6551170007033435e-25
3.283707930232385 6.986653433792215e-23 6.0898017670820936e-15 6.0898017664028386e-15 6.792550979938644e-25
3.2898708863219004 6.37750478778686e-23 5.56928035228246e-15 5.569280351597703e-15 6.847552669243805e-25
3.29141343181113 6.233854211998958e-23 5.4463871772845485e-15 5.446387176598413e-15 6.861352599443272e-25
3.292184975758714 6.163269679731023e-23 5.385981195595698e-15 5.385981194908872e-15 6.868260019673991e-25
3.295272960557952 5.717731461533187e-23 5.001319301276185e-15 5.00131930058839e-15 6.877943428006667e-25
3.3076538914384823 4.1743177495956327e-23 3.665008589745945e-15 3.665008589055245e-15 6.907008050551166e-25
3.310756385682612 3.860208740570661e-23 3.3924030748879572e-15 3.392403074196527e-15 6.914296286023693e-25
3.313861789986515 3.5703994874649766e-23 3.140657922580014e-15 3.140657921887855e-15 6.921594314513794e-25
3.3200813396944477 3.163971118230194e-23 2.7883717061261168e-15 2.788371705427504e-15 6.9861236223697235e-25
3.345076488085796 2.4389298633653325e-23 2.165582818931178e-15 2.1655828181761653e-15 7.550129165978167e-25
3.3482140837626964 2.4661112974984685e-23 2.1917717484787876e-15 2.1917717477131007e-15 7.6568646854467715e-25
3.3513546224236106 2.493593202482209e-23 2.2182751976583054e-15 2.2182751968818035e-15 7.765015431935519e-25
3.3576445397418455 2.694456170511531e-23 2.4014595388830655e-15 2.401459538079838e-15 8.032280836902348e-25
3.3702598118196083 3.435346390767273e-23 3.073288627637175e-15 3.0732886267693733e-15 8.678014854644671e-25
3.382922481734668 3.604031747356835e-23 3.236309791740753e-15 3.2363097908200777e-15 9.206754018990556e-25
3.389271646505754 3.691421315004071e-23 3.3210042173895525e-15 3.3210042164413145e-15 9.482384491029537e-25
3.395632727569191 3.785578406010238e-23 3.4121050175411484e-15 3.4121050165631435e-15 9.780046532343734e-25
3.421196662673239 4.2376432543098984e-23 3.848326094607191e-15 3.848326093498526e-15 1.1086649636270492e-24
3.4276182099114902 4.146470686161817e-23 3.772597511507305e-15 3.7725975103754594e-15 1.1318458516307968e-24
3.4340518103208963 3.747076178604907e-23 3.4156141076909256e-15 3.4156141065416464e-15 1.1492791964613067e-24
3.4469541582030403 3.17828374035418e-23 2.908021458133783e-15 2.9080214569579516e-15 1.175831300372485e-24
3.472904465399547 3.018875323243394e-23 2.7829630948029335e-15 2.7829630935181903e-15 1.2847442312778504e-24
3.4990501388274233 2.7750694177925665e-23 2.5774689969481747e-15 2.5774689955493152e-15 1.3988601995883171e-24
3.5253949054701885 1.907440215481534e-23 1.7849585705902947e-15 1.78495856910427e-15 1.4860247193097107e-24
3.5519380250092896 1.0920834999517568e-23 1.029652451994019e-15 1.0296524504257151e-15 1.5683039993047403e-24
3.578680990867387 7.688375887649257e-24 7.303432629815607e-16 7.303432612869039e-16 1.6946568756313883e-24
3.605625307711299 6.3811678259702704e-24 6.107313211578413e-16 6.107313193088158e-16 1.8490254700029892e-24
3.660119384959845 5.427981264521945e-24 5.273549469623889e-16 5.273549447471075e-16 2.2152813772720206e-24
3.715437065384467 4.753461015332692e-24 4.688018089900631e-16 4.688018063423049e-16 2.6477582294472772e-24
3.8285932144167436 4.412286692753992e-24 4.484069980116813e-16 4.484069942368437e-16 3.774837666539149e-24
3.94519561050918 4.348196234642399e-24 4.553518547767332e-16 4.553518494417488e-16 5.334984382146513e-24
4.06534921144712 4.398021287823898e-24 4.745965943140618e-16 4.745965868415663e-16 7.472495460285712e-24
4.189162171576248 4.513936788777641e-24 5.019403155183727e-16 5.0194030514391305e-16 1.0374459661737526e-23
4.316745939156006 4.6781384444150586e-24 5.360422140488983e-16 5.360421997668933e-16 1.4282004945273598e-23
4.448215356677963 4.884670897027394e-24 5.767539090978956e-16 5.767538895951597e-16 1.950273583111508e-23
4.58368876423945 5.134288875107402e-24 6.246904320742309e-16 6.246904056466072e-16 2.6427623715995003e-23
4.723288106065518 5.432715417936307e-24 6.811312814566286e-16 6.81131245904046e-16 3.5552582617345946e-23
4.867139040275056 5.791373329954041e-24 7.482121354136114e-16 7.482120879064675e-16 4.7507143857439165e-23
4.940699165968905 6.0075827524320764e-24 7.878755182105179e-16 7.878754634144981e-16 5.479601972572443e-23
5.015371051989984 6.231548385359034e-24 8.295994844114431e-16 8.295994213170433e-16 6.309439955418767e-23
5.091171501069577 6.5045679789681194e-24 8.790338854601548e-16 8.790338128797844e-16 7.258037000211635e-23
5.129500256944802 6.644719219825045e-24 9.047344407255239e-16 9.047343629300148e-16 7.779550910313386e-23
5.168117569889187 6.790826692028486e-24 9.315892426773426e-16 9.315891593209767e-16 8.335636589605655e-23
5.20702561229733 6.969960857369556e-24 9.633619436551128e-16 9.633618543218825e-16 8.933323045247364e-23
5.246226572918644 7.153677211067809e-24 9.961983450157076e-16 9.961982493171579e-16 9.56985498335473e-23
5.265937586045735 7.247299504319535e-24 1.0130277679658926e-15 1.0130276689319897e-15 9.903390297885827e-23
5.285722656980489 7.342123095253095e-24 1.0301381388269186e-15 1.0301380363519776e-15 1.0247494118597974e-22
5.305582063971359 7.438167412498595e-24 1.0475347006174342e-15 1.0475345945927597e-15 1.060246742986507e-22
5.3255160863122235 7.541325551388871e-24 1.0660530650426218e-15 1.0660529553423279e-15 1.0970029418780767e-22
5.365609099470188 7.798048076457706e-24 1.1106427123601607e-15 1.110642594844659e-15 1.1751550169947843e-22
5.406003951863644 8.064541166471573e-24 1.1572453784061216e-15 1.1572452525705536e-15 1.2583556815135527e-22
5.446702915881641 8.341276826504221e-24 1.2059676428906973e-15 1.2059675082009808e-15 1.3468971645064282e-22
5.487708281020852 8.640259280156072e-24 1.2585985440402121e-15 1.2585983998937356e-15 1.441464766809551e-22
5.529022354014368 9.055492146860951e-24 1.3290148606975978e-15 1.3290147061474674e-15 1.5455013013878896e-22
5.570647458961463 9.495171348802693e-24 1.4040349357758525e-15 1.404034770140471e-15 1.6563538153815053e-22
5.612585937458331 9.961055787571697e-24 1.484013354854071e-15 1.484013177411824e-15 1.77442246825022e-22
5.654840148729818 1.0473105017687472e-23 1.5720459071019955e-15 1.5720457170140248e-15 1.900879705910858e-22
5.67608639626678 1.0821689463075418e-23 1.6304725728480334e-15 1.630472375799846e-15 1.970481875408981e-22
5.686739436050992 1.1001360436180764e-23 1.660654001207388e-15 1.6606538005923077e-15 2.0061508068317696e-22
5.6974124697621304 1.1184731614372078e-23 1.6915025707675819e-15 1.6915023665265973e-15 2.0424098466362627e-22
5.718818669136295 1.1562930895938442e-23 1.7552690270658536e-15 1.7552688153924962e-15 2.1167335733020834e-22
5.740305295436557 1.197978623984494e-23 1.8253808608836097e-15 1.8253806414173996e-15 2.1946621021812283e-22
5.7835210386641895 1.3060989295640446e-23 2.0051082612116283e-15 2.0051080244380186e-15 2.3677360992452983e-22
5.827062130521658 1.4306353968985893e-23 2.212829986323238e-15 2.21282973074534e-15 2.555778978074631e-22
5.8489554468988025 1.5179904256347155e-23 2.3567677065247303e-15 2.356767439916726e-15 2.666080037036592e-22
5.870931020387893 1.6117249153105922e-23 2.5116974831889152e-15 2.5116972051100334e-15 2.780788816241504e-22
5.892989160043636 1.7123521434735635e-23 2.6785401278018426e-15 2.6785398377951826e-15 2.9000665950086914e-22
5.915130176081913 1.8267887818341417e-23 2.8682835074941682e-15 2.868283204673419e-15 3.02820748909961e-22
5.95966208400165 2.1467368276391604e-23 3.396017155733704e-15 3.396016821779418e-15 3.3395428651728116e-22
6.004529249263818 2.607855151710944e-23 4.156539035152719e-15 4.156538661867916e-15 3.7328480456684743e-22
6.027089341400364 2.9283835455519824e-23 4.68495064619205e-15 4.6849502478927645e-15 3.9829928575378927e-22
6.049734195844842 3.3071414772800863e-23 5.310782321112166e-15 5.310781894816757e-15 4.26295408288431e-22
6.095279466722835 4.401211085769916e-23 7.12090601717097e-15 7.120905515103159e-15 5.020678130014108e-22
6.141167624020661 6.08490531096709e-23 9.919144320393133e-15 9.919143708438887e-15 6.119542461471157e-22
6.164241091010745 7.160174084254858e-23 1.1715818380363198e-14 1.1715817696192965e-14 6.8417023371725315e-22
6.187401249150058 8.3850047686729e-23 1.3771493061728529e-14 1.3771492297863592e-14 7.638649385764046e-22
6.1990139391386085 8.983096674411064e-23 1.478148678549456e-14 1.4781485980588584e-14 8.049059765950378e-22
6.204828454712694 9.29814345962158e-23 1.531424020119773e-14 1.5314239374951095e-14 8.2624663378385335e-22
6.210648424152782 9.528154109310562e-23 1.5707792335664935e-14 1.570779149165665e-14 8.440082829683909e-22
6.233982942956859 1.0309658652963178e-22 1.7060011868888796e-14 1.706001096172701e-14 9.07161786288505e-22
6.239830258556775 1.040959678912432e-22 1.724154247830251e-14 1.7241541562360475e-14 9.159420386599904e-22
6.245683058788269 1.0418330754665904e-22 1.727219434436955e-14 1.7272193419569024e-14 9.248005270341776e-22
6.257405133728602 1.0397018064464751e-22 1.726921139268838e-14 1.7269210452364532e-14 9.403238452558937e-22
6.269149208991335 1.0243517733230632e-22 1.704618364911274e-14 1.7046182703641464e-14 9.454712735294473e-22
6.280915325867298 9.85834662875755e-23 1.6436012238913946e-14 1.6436011301198964e-14 9.377149850917505e-22
6.304513850009849 8.908396524445885e-23 1.4908040914909795e-14 1.4908040004716693e-14 9.101931018726415e-22
6.32820103803542 7.730831870341486e-23 1.2986015862972694e-14 1.2986014995282705e-14 8.676899901141381e-22
6.3519772230701035 6.65090155259032e-23 1.1213956951521584e-14 1.1213956123984738e-14 8.275368491179291e-22
6.375842739491607 5.742337358100572e-23 9.718421545621717e-15 9.718420753301824e-15 7.923198960545646e-22
6.399797922933955 5.0142211393883217e-23 8.518030242407158e-15 8.518029473596266e-15 7.688108924815308e-22
6.42384311029221 4.408840434742251e-23 7.517764894162335e-15 7.517764145141086e-15 7.490212495396857e-22
6.447978639727206 3.9677514843558595e-23 6.791058724152463e-15 6.7910579840020325e-15 7.40150431926002e-22
6.472204850670314 3.600309776742164e-23 6.185311234135926e-15 6.185310500124983e-15 7.340109432329755e-22
6.496522083828205 3.361585289682065e-23 5.796882356085656e-15 5.796881618692301e-15 7.373933541544168e-22
6.520930681187647 3.1605065942385263e-23 5.470609526768878e-15 5.470608784217419e-15 7.425514598671556e-22
6.57002334288761 2.9550492896160604e-23 5.153485694782325e-15 5.153484926962673e-15 7.6781965262303245e-22
