Dust emission spectrum from A.P. Jones, M. Kohler, N. Ysard, M. Bocchio, and L. Verstraete (2017), A&A, 602A, 46J 
inside the DustPedia framework.

lambda    nu*dP/dnu     j_nu    j_nu(carb.) j_nu(sil)
 (um)   (erg s-1 H-1) (Jy cm2 sr-1 H-1)
0.9927057738263894 7.935829255093853e-25 2.0911360833275428e-17 2.0911360799820367e-17 3.345505214906105e-26
1.0001793341362166 8.066859573174896e-25 2.1416663188923813e-17 2.1416663148634496e-17 4.028931686607563e-26
1.0077091589558085 8.197722047605183e-25 2.192793968193376e-17 2.1927939633477157e-17 4.8456602046329826e-26
1.0114953028030835 8.263074555051829e-25 2.2185793923362506e-17 2.2185793870246914e-17 5.311559228291203e-26
1.0152956718711033 8.328366208350256e-25 2.2445112227353658e-17 2.244511216915015e-17 5.820351854861003e-26
1.0229392996569957 8.458677865933953e-25 2.296792613446185e-17 2.2967926064641305e-17 6.982053959475362e-26
1.0267826658714554 8.523539994473793e-25 2.3231003201646732e-17 2.3231003125209943e-17 7.643679075931909e-26
1.0306404723013447 8.588313144034955e-25 2.349548947549253e-17 2.3495489391839905e-17 8.36526265944665e-26
1.03451277320114 8.6529912046301e-25 2.3761374138785197e-17 2.37613740472655e-17 9.151969649838442e-26
1.0383996230291617 8.717568101908525e-25 2.4028646241846574e-17 2.4028646141752722e-17 1.000938497534215e-25
1.0403485208654093 8.749816726110869e-25 2.4162799126002868e-17 2.4162799021338106e-17 1.046647621545604e-25
1.0423010764483396 8.782037798361372e-25 2.4297294705409828e-17 2.4297294595974372e-17 1.094354551849454e-25
1.0462171883269815 8.846394294501596e-25 2.456730832350315e-17 2.456730820389341e-17 1.1960974334342606e-25
1.0471985131304309 8.862465031636842e-25 2.4635023708391646e-17 2.4635023586100096e-17 1.2229155855235166e-25
1.048180758391296 8.878528228296015e-25 2.4702823529697776e-17 2.470282340466683e-17 1.2503094696203418e-25
1.0501480137395462 8.910631630018507e-25 2.4838675766340416e-17 2.4838675635653238e-17 1.306871726565084e-25
1.0521189612883777 8.942703760936807e-25 2.4974863598337098e-17 2.4974863461748997e-17 1.3658810883661293e-25
1.0531058218030118 8.958703321422366e-25 2.504301429025634e-17 2.504301415062266e-17 1.3963367303570063e-25
1.0540936079674168 8.974614360801782e-25 2.5111023174018403e-17 2.5111023031273507e-17 1.4274489530507314e-25
1.058054026499678 9.038172434422757e-25 2.5383873807674894e-17 2.53838736518081e-17 1.558667973263145e-25
1.0590464539527713 9.05403997886064e-25 2.5452289319245367e-17 2.545228915992191e-17 1.5932345197877242e-25
1.06003981227728 9.06989855312093e-25 2.5520785601979236e-17 2.55207854391258e-17 1.6285344194365902e-25
1.0620293250338977 9.10158843132888e-25 2.5658019737351008e-17 2.5658019567211623e-17 1.7013937527214794e-25
1.0660195594769086 9.164856597974498e-25 2.593344905926513e-17 2.5933448873606826e-17 1.85658295787722e-25
1.070024785945596 9.227971226504577e-25 2.6210149763684146e-17 2.6210149561157423e-17 2.0252671190969638e-25
1.0740450607676866 9.290926655739605e-25 2.6488109737855172e-17 2.6488109516999365e-17 2.208558095215244e-25
1.07808044048254 9.353717272134901e-25 2.6767316768937504e-17 2.6767316528172115e-17 2.4076539056817757e-25
1.0861967418109137 9.478671235415493e-25 2.732910372408859e-17 2.732910343823649e-17 2.8585210211100534e-25
1.0902777775684922 9.540572052738633e-25 2.7610928355643167e-17 2.7610928044325346e-17 3.1131781990322264e-25
1.0943741465085532 9.60228170534726e-25 2.7893929610446566e-17 2.7893929271504084e-17 3.389424891485347e-25
1.1026131145906286 9.725106249067995e-25 2.8463410848136555e-17 2.846341044676253e-17 4.0137403491294674e-25
1.1109141095355224 9.847102873976325e-25 2.903744437294445e-17 2.903744389825127e-17 4.746931821947826e-25
1.1192775983109025 9.968117655828835e-25 2.9615590757680784e-17 2.961559019699549e-17 5.606852927067692e-25
1.1277040513999907 1.0087592172916061e-24 3.01961858543742e-17 3.0196185192965453e-17 6.614087515798047e-25
1.1361939428280308 1.0206102093497015e-24 3.078093523178227e-17 3.0780934452548974e-17 7.79233290205723e-25
1.1447477501889525 1.0323609385046231e-24 3.136973106508582e-17 3.13697301482022e-17 9.168836227790104e-25
1.1533659546722406 1.0440140301977838e-24 3.1962658581029515e-17 3.196265750353959e-17 1.0774899240486137e-24
1.1707974979042381 1.067064966209174e-24 3.316210424000691e-17 3.316210275754479e-17 1.482462120974002e-24
1.1884924949847024 1.0896777470018175e-24 3.437668215130023e-17 3.437668012178199e-17 2.02951824475366e-24
1.2064549276569216 1.1120286833725167e-24 3.5612013071699734e-17 3.561201030684951e-17 2.7648502300912412e-24
1.2246888378427687 1.1338772685609513e-24 3.6860501655149123e-17 3.686049790684757e-17 3.7483015497683376e-24
1.2431983285522175 1.1551738026675852e-24 3.8120376549135393e-17 3.81203714920018e-17 5.057133590046017e-24
1.2619875648066055 1.1759120841055415e-24 3.939121367247243e-17 3.9391206881886937e-17 6.790585497906217e-24
1.3004222497298317 1.2153787468419827e-24 4.1953235717052505e-17 4.1953223644471336e-17 1.207258117004736e-23
1.3400274889804893 1.252136901561531e-24 4.4538435270608395e-17 4.453841419814998e-17 2.1072458418960545e-23
1.3808389325824078 1.2860660482793803e-24 4.7138496847209034e-17 4.713846071840312e-17 3.6128805899506914e-23
1.4228933163050095 1.3173416664302466e-24 4.975539757418307e-17 4.9755336700635734e-17 6.087354735427509e-23
1.466228494730424 1.3467096911887845e-24 5.241373079872904e-17 5.2413629953272894e-17 1.0084545615225452e-22
1.5108834753276823 1.373638828876591e-24 5.5090024175310124e-17 5.508985984127025e-17 1.6433403986402614e-22
1.5568984535646726 1.3977034940606617e-24 5.776233901777073e-17 5.776207532683765e-17 2.636909330702881e-22
1.6043148490894465 1.4189658412783243e-24 6.042699215242531e-17 6.042657474633085e-17 4.1740609446950203e-22
1.6531753430134553 1.4375086895243417e-24 6.308103797254905e-17 6.308038691945629e-17 6.510530927471551e-22
1.7035239163302658 1.4535538090779132e-24 6.572775242543509e-17 6.572675156886151e-17 1.0008565735818969e-21
1.755405889504358 1.4682722698730571e-24 6.841535437505068e-17 6.841383717608749e-17 1.5171989631861852e-21
1.8088679632656115 1.481410347993585e-24 7.112981417163507e-17 7.112754544288847e-17 2.2687287465811332e-21
1.8639582606462262 1.4928047600480295e-24 7.385988503168046e-17 7.385653719222149e-17 3.3478394589324104e-21
1.9207263702978936 1.502625192613348e-24 7.661002390823759e-17 7.660514690848447e-17 4.876999753126884e-21
1.979223391128241 1.5112279011910493e-24 7.939519344430153e-17 7.938817703775531e-17 7.016406546211213e-21
2.039501978296691 1.5190328167710695e-24 8.223576187522732e-17 8.222578933042549e-17 9.972544801824618e-21
2.1016163906111602 1.527162881594251e-24 8.519384897910898e-17 8.51798400075897e-17 1.400897151929856e-20
2.1656225393682647 1.5362861698900127e-24 8.83129346789655e-17 8.829347814223945e-17 1.9456536726049056e-20
2.231578038680979 1.5464826935478223e-24 9.160656025817079e-17 9.15798351419488e-17 2.6725116221995252e-20
2.299542257339062 1.5581700114154022e-24 9.510988782514856e-17 9.507357149483482e-17 3.6316330313689795e-20
2.369576372248914 1.5722201294468074e-24 9.889025484776485e-17 9.884141730242801e-17 4.883754533681456e-20
2.4417434235010123 1.5896571400865507e-24 1.0303218851067181e-16 1.0296717452325132e-16 6.501398742049902e-20
2.5161083711144245 1.6122065132223883e-24 1.0767613220738839e-16 1.0759042802961716e-16 8.570417777122037e-20
2.5927381535095444 1.6426590738196564e-24 1.1305129164587552e-16 1.1293937960998402e-16 1.1191203589146864e-19
2.6717017477616296 1.6843156830667142e-24 1.1944855493260718e-16 1.1930376321210693e-16 1.4479172050024771e-19
2.753070231689431 1.7421120193029968e-24 1.2731008281599673e-16 1.2712442641270453e-16 1.8565640329217552e-19
2.836916847834745 1.827184373118222e-24 1.3759365644266006e-16 1.373576648247756e-16 2.359916178844859e-19
2.9233170693905177 1.963971849796996e-24 1.5239847251890015e-16 1.5210106738026132e-16 2.974051386388182e-19
2.967498994190263 2.07580011684353e-24 1.635104619606963e-16 1.6317821460517861e-16 3.322473555177033e-19
3.0123486681368425 2.205480353934937e-24 1.7635097493825797e-16 1.759802979405163e-16 3.7067699774167847e-19
3.0578761833420214 2.486946390128001e-24 2.0186254898738156e-16 2.0144943187180127e-16 4.1311711558031137e-19
3.1040917844459814 2.84747500389307e-24 2.3461939350672143e-16 2.341598558316944e-16 4.59537675026966e-19
3.127460860933648 3.2246491788098e-24 2.67697175847063e-16 2.672126895671476e-16 4.844862799154286e-19
3.1510058709225794 3.725730416962407e-24 3.11623407987706e-16 3.1111284732616737e-16 5.105606615385828e-19
3.162844764501044 4.190648651956081e-24 3.5182651024039918e-16 3.5130242942006093e-16 5.24080820338253e-19
3.1747281389236908 4.7307093639068085e-24 3.986596139996785e-16 3.9812171943821895e-16 5.378945614595328e-19
3.1986289994194426 6.234891190312536e-24 5.293734816904305e-16 5.288069908093607e-16 5.664908810698382e-19
3.2227097969389145 9.775155832949215e-24 8.362080072605248e-16 8.356111421409123e-16 5.968651196123113e-19
3.2348180950136065 1.3130245335749279e-23 1.127436622069434e-15 1.126823528713564e-15 6.130933558698726e-19
3.240889293275058 1.5638212388406282e-23 1.3453049378966502e-15 1.3446832840872986e-15 6.216538093510394e-19
3.2469718861334385 1.853961419957595e-23 1.5978965306143872e-15 1.597266018750651e-15 6.305118637366329e-19
3.2714166318528037 3.400864619478623e-23 2.9532120674359056e-15 2.9525448899101755e-15 6.671775257304975e-19
3.2744851364798273 3.497596224759519e-23 3.040059809932231e-15 3.03938829479718e-15 6.715151350509075e-19
3.2775565192852394 3.597100396739658e-23 3.1294800111841715e-15 3.1288041351827368e-15 6.758760014355597e-19
3.283707930232385 3.5015724907974344e-23 3.052088176992928e-15 3.0514044688395026e-15 6.837081534253705e-19
3.2898708863219004 3.198363571775918e-23 2.7930333245471297e-15 2.792342457739544e-15 6.908668075865505e-19
3.29141343181113 3.1268557865420726e-23 2.7318680677936234e-15 2.73117540257782e-15 6.926652158038246e-19
3.292184975758714 3.0917188634670966e-23 2.701802862117986e-15 2.701109296383901e-15 6.935657340855553e-19
3.295272960557952 2.869975319451949e-23 2.510377245928307e-15 2.5096801715196058e-15 6.9707440870133505e-19
3.3076538914384823 2.1016384863927718e-23 1.845217246798311e-15 1.8445060636878257e-15 7.111831104851064e-19
3.310756385682612 1.9452222773542452e-23 1.7094873563913952e-15 1.7087726137030609e-15 7.147426883343694e-19
3.313861789986515 1.800888420694674e-23 1.5841293126986031e-15 1.5834109974275012e-15 7.183152711021928e-19
3.3200813396944477 1.59852690874541e-23 1.4087635560719604e-15 1.408037570688712e-15 7.259853832486238e-19
3.345076488085796 1.237955446708962e-23 1.0992095698463396e-15 1.0984494383723948e-15 7.601314739450804e-19
3.3482140837626964 1.251571625194281e-23 1.1123420634263608e-15 1.1115773075836633e-15 7.647558426980152e-19
3.3513546224236106 1.2653373377699216e-23 1.1256312498173135e-15 1.1248618469872936e-15 7.6940283002006385e-19
3.3576445397418455 1.3655622037773748e-23 1.2170702259286658e-15 1.216291112695432e-15 7.791132332336875e-19
3.3702598118196083 1.7348866629622795e-23 1.5520436209434301e-15 1.5512441357443313e-15 7.994851990995898e-19
3.382922481734668 1.8192872570028016e-23 1.633664067511443e-15 1.6328447194912041e-15 8.19348020238655e-19
3.389271646505754 1.8630049144185115e-23 1.676060966721301e-15 1.6752315386114744e-15 8.294281098263733e-19
3.395632727569191 1.910136525169427e-23 1.7216883980982826e-15 1.7208485812725042e-15 8.398168257783965e-19
3.421196662673239 2.136452432394722e-23 1.9401740901879037e-15 1.9392911986775072e-15 8.82891510396158e-19
3.4276182099114902 2.0911953676725918e-23 1.9026393859448465e-15 1.901746814292415e-15 8.925716524315875e-19
3.4340518103208963 1.8922914761611402e-23 1.7249015375624616e-15 1.7239997775129232e-15 9.017600495384474e-19
3.4469541582030403 1.6090075524538802e-23 1.4721871522753917e-15 1.4712676894887639e-15 9.194627866275676e-19
3.472904465399547 1.5300240574015675e-23 1.4104592041696284e-15 1.4094990547031257e-15 9.6014946650272e-19
3.4990501388274233 1.40902325742526e-23 1.3086929424927281e-15 1.307691001462883e-15 1.0019410298452667e-18
3.5253949054701885 9.772601903844471e-24 9.145077986536293e-16 9.13465010370276e-16 1.0427882833531212e-18
3.5519380250092896 5.71295040941541e-24 5.386358641472622e-16 5.375518186660505e-16 1.0840454812116982e-18
3.578680990867387 4.106698023123748e-24 3.9010829830865185e-16 3.889789970067799e-16 1.129301301871964e-18
3.605625307711299 3.460652494450579e-24 3.312134906407379e-16 3.300363988624664e-16 1.1770917782715196e-18
3.660119384959845 2.9971904836757784e-24 2.9119172516049985e-16 2.8991366590205854e-16 1.2780592584413282e-18
3.715437065384467 2.672487919626194e-24 2.6356946384615777e-16 2.621841364709593e-16 1.3853273751984563e-18
3.8285932144167436 2.527142019529678e-24 2.5682559757221605e-16 2.5520679725226064e-16 1.6188003199554105e-18
3.94519561050918 2.5214200629370096e-24 2.640481800665693e-16 2.6217030122465915e-16 1.8778788419102386e-18
4.06534921144712 2.5740248282267275e-24 2.7776659938831064e-16 2.756031519802812e-16 2.163447408029506e-18
4.189162171576248 2.661180979221682e-24 2.9591775048399397e-16 2.9344049290068257e-16 2.4772575833113335e-18
4.316745939156006 2.7740503231002282e-24 3.1786320450882667e-16 3.1504361154351767e-16 2.819592965308929e-18
4.448215356677963 2.9096879131863558e-24 3.435592517003335e-16 3.403718202898204e-16 3.1874314105131155e-18
4.58368876423945 3.0685450107802255e-24 3.7335077072059486e-16 3.6976811213806064e-16 3.582658582534329e-18
4.723288106065518 3.253576998105377e-24 4.0791996258827545e-16 4.0391078693609067e-16 4.009175652184815e-18
4.867139040275056 3.470497311904693e-24 4.483682982854803e-16 4.4390963035275904e-16 4.458667932721209e-18
4.940699165968905 3.598134007155894e-24 4.718839194235284e-16 4.671901602854695e-16 4.6937591380587146e-18
5.015371051989984 3.7300783423438974e-24 4.965814077434139e-16 4.916460369272438e-16 4.9353708161701735e-18
5.091171501069577 3.887156168188798e-24 5.253142101000023e-16 5.201258998391938e-16 5.188310260808299e-18
5.129500256944802 3.967670153699107e-24 5.402316815404624e-16 5.349144817512482e-16 5.31719978921423e-18
5.168117569889187 4.051287482365803e-24 5.557697182871243e-16 5.503209905498388e-16 5.448727737285697e-18
5.20702561229733 4.1517003957197694e-24 5.738325142049266e-16 5.682414482546625e-16 5.591065950263963e-18
5.246226572918644 4.2545022997612274e-24 5.924684640970841e-16 5.867329822894582e-16 5.7354818076257954e-18
5.265937586045735 4.306822046917065e-24 6.020077302744696e-16 5.961992656067638e-16 5.8084646677056046e-18
5.285722656980489 4.359766948843758e-24 6.116980268697341e-16 6.058160650688246e-16 5.881961800909374e-18
5.305582063971359 4.413346731320199e-24 6.215420533754101e-16 6.155860820000077e-16 5.955971375402383e-18
5.3255160863122235 4.470535558726919e-24 6.319615964444272e-16 6.259306296721838e-16 6.030966772243584e-18
5.365609099470188 4.610387371658553e-24 6.566378002911584e-16 6.504516069246879e-16 6.186193366470471e-18
5.406003951863644 4.755202636628963e-24 6.823619795633255e-16 6.760182915897786e-16 6.343687973546694e-18
5.446702915881641 4.9052153265680796e-24 7.09187704507799e-16 7.026842651550158e-16 6.503439352783139e-18
5.487708281020852 5.0664774177084005e-24 7.380173319550226e-16 7.31351334686424e-16 6.665997268598562e-18
5.529022354014368 5.286355620316151e-24 7.758435504543883e-16 7.690078004446913e-16 6.835750009697093e-18
5.570647458961463 5.518474344419256e-24 8.160074723374414e-16 8.089994643851607e-16 7.008007952280806e-18
5.612585937458331 5.7637030013107826e-24 8.58685305028579e-16 8.515025418105483e-16 7.182763218030429e-18
5.654840148729818 6.0320822697647376e-24 9.05434465468581e-16 8.980737465037057e-16 7.360718964875328e-18
5.67608639626678 6.212841183738539e-24 9.360707664094798e-16 9.286170313956216e-16 7.453735013858207e-18
5.686739436050992 6.3058988505890435e-24 9.518746538837334e-16 9.44374146481226e-16 7.500507402507144e-18
5.6974124697621304 6.4007985181193255e-24 9.680131380579402e-16 9.604656820795825e-16 7.54745597835745e-18
5.718818669136295 6.596299951272536e-24 1.0013275268964576e-15 9.93685645388387e-16 7.641881508070623e-18
5.740305295436557 6.811184149413887e-24 1.0378319727393435e-15 1.0300943555474807e-15 7.73761719186312e-18
5.7835210386641895 7.365195855105052e-24 1.1306965131226409e-15 1.1227605493587277e-15 7.935963763913051e-18
5.827062130521658 8.00108646749762e-24 1.2375650775051268e-15 1.2294261921535355e-15 8.138885351591472e-18
5.8489554468988025 8.445025907434192e-24 1.311138990292617e-15 1.3028910171160298e-15 8.24797317658728e-18
5.870931020387893 8.920649201508998e-24 1.3901858769443636e-15 1.3818278574292512e-15 8.358019515112663e-18
5.892989160043636 9.43049584317561e-24 1.475161615400771e-15 1.46669258874022e-15 8.469026660550289e-18
5.915130176081913 1.000937285241682e-23 1.5715948859791963e-15 1.563010902508061e-15 8.58398347113536e-18
5.95966208400165 1.1623444134996773e-23 1.83876361475438e-15 1.8299207527098546e-15 8.842862044524974e-18
6.004529249263818 1.3943511912543642e-23 2.2223915125646723e-15 2.213258855839193e-15 9.132656725479738e-18
6.027089341400364 1.5553818966833556e-23 2.4883651026554888e-15 2.4790665505971867e-15 9.298552058301954e-18
6.049734195844842 1.7454608859436437e-23 2.8029532086683126e-15 2.7934791931116002e-15 9.474015556712203e-18
6.095279466722835 2.2939425460779386e-23 3.711466903331534e-15 3.701567032582889e-15 9.899870748644291e-18
6.141167624020661 3.13699434927068e-23 5.113686753118632e-15 5.1032408711583384e-15 1.0445881960293297e-17
6.164241091010745 3.675290048190375e-23 6.013684889930409e-15 6.002899593684426e-15 1.078529624598363e-17
6.187401249150058 4.287953109643313e-23 7.042514360765986e-15 7.031379584223942e-15 1.1134776542042623e-17
6.1990139391386085 4.5871179786160174e-23 7.548001122771228e-15 7.536688315574528e-15 1.131280719669746e-17
6.204828454712694 4.7446587385071293e-23 7.814553938616815e-15 7.803151109421354e-15 1.1402829195461287e-17
6.210648424152782 4.8597229288623126e-23 8.011574718428022e-15 8.000094400915149e-15 1.1480317512873884e-17
6.233982942956859 5.25064768599673e-23 8.688562333410713e-15 8.676808466821841e-15 1.1753866588872976e-17
6.239830258556775 5.300649963805452e-23 8.779531365619054e-15 8.767737011278182e-15 1.1794354340874449e-17
6.245683058788269 5.30507848150678e-23 8.79510822822369e-15 8.783273283418291e-15 1.183494480539554e-17
6.257405133728602 5.294552630391885e-23 8.794131936391787e-15 8.782224450724851e-15 1.190748566693424e-17
6.269149208991335 5.217972295233854e-23 8.683200081939663e-15 8.67125876205416e-15 1.194131988549848e-17
6.280915325867298 5.025626347880885e-23 8.378814346112e-15 8.366887175365995e-15 1.192717074600418e-17
6.304513850009849 4.551188491413067e-23 7.61633185672243e-15 7.604476527979166e-15 1.1855328743263431e-17
6.32820103803542 3.9632111851726257e-23 6.657281413195341e-15 6.645544258103538e-15 1.1737155091802719e-17
6.3519772230701035 3.424114592315055e-23 5.773333634797698e-15 5.761699973802608e-15 1.16336609950905e-17
6.375842739491607 2.970501880238126e-23 5.027323835910098e-15 5.015778726516873e-15 1.1545109393224322e-17
6.399797922933955 2.6073798204102708e-23 4.4293499521256e-15 4.417837881706071e-15 1.1512070419530538e-17
6.42384311029221 2.3054554512869297e-23 3.931163378053467e-15 3.919673302523635e-15 1.149007552983155e-17
6.447978639727206 2.0857724347738952e-23 3.569932024628182e-15 3.558420334885581e-15 1.1511689742599659e-17
6.472204850670314 1.9028258685348854e-23 3.2690437632017554e-15 3.257501635592983e-15 1.1542127608771568e-17
6.496522083828205 1.784289566592279e-23 3.076916340178525e-15 3.0653081449192877e-15 1.1608195259236903e-17
