Dust emission spectrum from A.P. Jones, M. Kohler, N. Ysard, M. Bocchio, and L. Verstraete (2017), A&A, 602A, 46J 
inside the DustPedia framework.

lambda    nu*dP/dnu     j_nu    j_nu(carb.) j_nu(sil)
 (um)   (erg s-1 H-1) (Jy cm2 sr-1 H-1)
0.9927057738263894 2.2711239242164767e-24 5.984540537574047e-17 5.984540292278429e-17 2.4529561973280726e-24
1.0001793341362166 2.3092216021794853e-24 6.13074032513505e-17 6.130740029813144e-17 2.953219048238349e-24
1.0077091589558085 2.3473858905195518e-24 6.27898041902654e-17 6.278980063942986e-17 3.5508355241848515e-24
1.0114953028030835 2.3664899725103074e-24 6.35386483590649e-17 6.353864446741776e-17 3.8916471387720756e-24
1.0152956718711033 2.3856070799567783e-24 6.429258428419417e-17 6.42925800204303e-17 4.2637638680745694e-24
1.0229392996569957 2.4238570356715412e-24 6.581521395915317e-17 6.581520884600706e-17 5.113146122548017e-24
1.0267826658714554 2.4429453501831484e-24 6.658274764751233e-17 6.658274205075799e-17 5.596754335046752e-24
1.0306404723013447 2.462041044732606e-24 6.735532168493801e-17 6.735531556085653e-17 6.124081472814505e-24
1.03451277320114 2.4811429851698795e-24 6.813293272608163e-17 6.813292602719946e-17 6.69888217945194e-24
1.0383996230291617 2.5002500514886193e-24 6.891557748797627e-17 6.891557016276099e-17 7.325215283601497e-24
1.0403485208654093 2.5098051608248314e-24 6.930878650914422e-17 6.930877885008051e-17 7.659063683555401e-24
1.0423010764483396 2.519361138256073e-24 6.970325276553275e-17 6.97032447580659e-17 8.007466846819674e-24
1.0462171883269815 2.538475155039751e-24 7.049595544726686e-17 7.049594669689203e-17 8.750374826350973e-24
1.0471985131304309 2.5432539907281915e-24 7.069491629517779e-17 7.06949073490076e-17 8.946170238201789e-24
1.048180758391296 2.5480329256334134e-24 7.089419112187924e-17 7.089418197572096e-17 9.146158260501718e-24
1.0501480137395462 2.557591026830782e-24 7.129368253125675e-17 7.129367297220132e-17 9.559055455793486e-24
1.0521189612883777 2.5671493267345896e-24 7.169442931993412e-17 7.169441933016442e-17 9.989769674535712e-24
1.0531058218030118 2.57192177628636e-24 7.189508513240358e-17 7.189507492035352e-17 1.02120500639389e-23
1.0540936079674168 2.576672164088753e-24 7.209543699936801e-17 7.209542656025737e-17 1.0439110663716125e-23
1.058054026499678 2.595672489762934e-24 7.289994011981222e-17 7.289992872318201e-17 1.1396630222159142e-23
1.0590464539527713 2.6004221852445836e-24 7.310183958272995e-17 7.310182793389806e-17 1.1648831892671127e-23
1.06003981227728 2.605171694765814e-24 7.330404842905942e-17 7.330403652268937e-17 1.1906370014162598e-23
1.0620293250338977 2.614670093299916e-24 7.370939409831735e-17 7.370938166043033e-17 1.2437886995964091e-23
1.0660195594769086 2.633663973806355e-24 7.452379617049731e-17 7.452378260067752e-17 1.3569819791590605e-23
1.070024785945596 2.6526531481425166e-24 7.534314377165562e-17 7.534312897174738e-17 1.479990823664602e-23
1.0740450607676866 2.6716366513205688e-24 7.61674345541605e-17 7.616741841794845e-17 1.61362120632486e-23
1.07808044048254 2.6906135368990315e-24 7.699666640504483e-17 7.699664881763185e-17 1.7587413017824887e-23
1.0861967418109137 2.728512946357106e-24 7.866905758362159e-17 7.866903671100457e-17 2.087261702539672e-23
1.0902777775684922 2.74736359056331e-24 7.951017910311912e-17 7.951015637560174e-17 2.2727517358322723e-23
1.0943741465085532 2.7662027948572707e-24 8.035617826646427e-17 8.03561535272617e-17 2.4739202560723413e-23
1.1026131145906286 2.8038435407083907e-24 8.206280590582247e-17 8.206277662186024e-17 2.928396222141851e-23
1.1109141095355224 2.8414287105942088e-24 8.37889368878396e-17 8.37889022690973e-17 3.461874231413307e-23
1.1192775983109025 2.8789206243172887e-24 8.553363631675391e-17 8.553359544416461e-17 4.0872589302822046e-23
1.1277040513999907 2.916168486723743e-24 8.729255118401984e-17 8.72925029898299e-17 4.8194189930242476e-23
1.1361939428280308 2.9533388311265472e-24 8.907076418169125e-17 8.907070742707402e-17 5.67546172084656e-23
1.1447477501889525 2.9904267040308835e-24 9.086829806945441e-17 9.086823131900999e-17 6.675044441643671e-23
1.1533659546722406 3.027443502679561e-24 9.268567303752726e-17 9.268559463017508e-17 7.840735215819176e-23
1.1707974979042381 3.1013784952654434e-24 9.638423170529554e-17 9.638412392810732e-17 1.07777188203138e-22
1.1884924949847024 3.1749734918486686e-24 1.0016269017917594e-16 1.0016254276937065e-16 1.4740980528517802e-22
1.2064549276569216 3.2487548556886895e-24 1.0403931311974727e-16 1.0403911249423668e-16 2.006255105850815e-22
1.2246888378427687 3.322122735246419e-24 1.0799679469416633e-16 1.0799652297411378e-16 2.717200525776507e-22
1.2431983285522175 3.394977641422182e-24 1.1203320726980741e-16 1.1203284103803628e-16 3.6623177107592897e-22
1.2619875648066055 3.467378886914864e-24 1.1615176377898692e-16 1.1615127251439722e-16 4.91264589657803e-22
1.3004222497298317 3.610120175393282e-24 1.2461648114112766e-16 1.24615609577162e-16 8.715639656662367e-22
1.3400274889804893 3.7504757544590406e-24 1.334041999845587e-16 1.3340268196672492e-16 1.5180178338096633e-21
1.3808389325824078 3.88869011780068e-24 1.425331203657585e-16 1.4253052349325583e-16 2.5968725026977013e-21
1.4228933163050095 4.025873863366785e-24 1.5205543084211948e-16 1.5205106533660673e-16 4.3655055127616346e-21
1.466228494730424 4.164805111841136e-24 1.6209356432901107e-16 1.6208634918302582e-16 7.215145985314191e-21
1.5108834753276823 4.304788313484245e-24 1.7264428412626464e-16 1.7263255479457723e-16 1.1729331687387947e-20
1.5568984535646726 4.445438888582596e-24 1.837148932203681e-16 1.8369611847150875e-16 1.8774748859413324e-20
1.6043148490894465 4.58779955394652e-24 1.9537251678551845e-16 1.9534287172164313e-16 2.9645063875268236e-20
1.6531753430134553 4.733064554548135e-24 2.0769726615758394e-16 2.0765114500242542e-16 4.612115515856231e-20
1.7035239163302658 4.882830764882434e-24 2.2079505391897582e-16 2.207243375400831e-16 7.071637889275339e-20
1.755405889504358 5.0415287359113784e-24 2.349141791591548e-16 2.348072666091254e-16 1.0691255002937865e-19
1.8088679632656115 5.209600304484241e-24 2.5013859398804614e-16 2.499791605308088e-16 1.5943345723730533e-19
1.8639582606462262 5.387689334077402e-24 2.6656809078540506e-16 2.663334820161963e-16 2.346087692088265e-19
1.9207263702978936 5.577511158511647e-24 2.8436450107621037e-16 2.840237117681435e-16 3.4078930806693294e-19
1.979223391128241 5.781409477974072e-24 3.0373719511312866e-16 3.032483498298953e-16 4.888452832333764e-19
2.039501978296691 6.0019030486476814e-24 3.2492456019215595e-16 3.2423184508021844e-16 6.927151119375052e-19
2.1016163906111602 6.243818406187812e-24 3.4831577480094513e-16 3.4734568024572515e-16 9.700945552200197e-19
2.1656225393682647 6.5106734606979065e-24 3.7426404749308697e-16 3.72920979027276e-16 1.3430684658110052e-18
2.231578038680979 6.804064534405667e-24 4.03041657285925e-16 4.012028292535749e-16 1.83882803235008e-18
2.299542257339062 7.126848736655752e-24 4.3501914356213487e-16 4.3252871092872115e-16 2.490432633413754e-18
2.369576372248914 7.483114275767647e-24 4.706765063782668e-16 4.673388734320732e-16 3.3376329461937617e-18
2.4417434235010123 7.87743713036829e-24 5.105689566197155e-16 5.061414209581714e-16 4.4275356615442875e-18
2.5161083711144245 8.316421502042551e-24 5.554375905332784e-16 5.496221276020795e-16 5.81546293119883e-18
2.5927381535095444 8.809398140720687e-24 6.062815189736607e-16 5.987159724098938e-16 7.565546563767003e-18
2.6717017477616296 9.366014824225249e-24 6.642204590733897e-16 6.544696553359515e-16 9.750803737438093e-18
2.753070231689431 9.999280362101966e-24 7.307275289386332e-16 7.182740919382278e-16 1.2453437000405515e-17
2.836916847834745 1.0736953206564021e-23 8.085317893911854e-16 7.927663744510179e-16 1.5765414940167512e-17
2.9233170693905177 1.1636397108199344e-23 9.029503885690769e-16 8.831658344349351e-16 1.9784554134141633e-17
2.967498994190263 1.2198721709753725e-23 9.608914682618054e-16 9.3883927821137e-16 2.2052190050435417e-17
3.0123486681368425 1.2812538291436986e-23 1.0244950108475694e-15 9.999478750640693e-16 2.4547135783500008e-17
3.0578761833420214 1.3790705564267106e-23 1.1193755476949156e-15 1.0920795031812929e-15 2.7296044513622378e-17
3.1040917844459814 1.4950800976137122e-23 1.231880122798337e-15 1.2015864513621714e-15 3.029367143616542e-17
3.127460860933648 1.598686818420139e-23 1.3271643599783985e-15 1.2952632263928243e-15 3.190113358557467e-17
3.1510058709225794 1.730108298974943e-23 1.4470779792864031e-15 1.4134994940524553e-15 3.3578485233947323e-17
3.162844764501044 1.8455914279259856e-23 1.5494689374966005e-15 1.5150217269313437e-15 3.444721056525686e-17
3.1747281389236908 1.9771945493047162e-23 1.666193281375326e-15 1.630859196775686e-15 3.5334084599639517e-17
3.1986289994194426 2.3343227027494708e-23 1.981956859910429e-15 1.944789020687297e-15 3.7167839223132156e-17
3.2227097969389145 3.151510435926725e-23 2.695934782547549e-15 2.6568219558713317e-15 3.9112826676217016e-17
3.2348180950136065 3.9165760175151677e-23 3.3629921774903947e-15 3.322840916240101e-15 4.015126125029311e-17
3.240889293275058 4.48671034868906e-23 3.859772099960929e-15 3.819073083038015e-15 4.06990169229151e-17
3.2469718861334385 5.146406947002138e-23 4.4355970503057115e-15 4.394331256454708e-15 4.1265793851003213e-17
3.2714166318528037 8.632769859782981e-23 7.496446632802615e-15 7.452837084035776e-15 4.360954876683897e-17
3.2744851364798273 8.851881660652829e-23 7.693926899946e-15 7.650040702515248e-15 4.388619743075311e-17
3.2775565192852394 9.077034969426242e-23 7.897027150920273e-15 7.852862880867124e-15 4.4164270053148685e-17
3.283707930232385 8.86720965415069e-23 7.728957723844678e-15 7.684295271921955e-15 4.4662451922722397e-17
3.2898708863219004 8.191204209538723e-23 7.153128720981841e-15 7.108012067411502e-15 4.51166535703386e-17
3.29141343181113 8.031648605423069e-23 7.0170822880063264e-15 6.9718515603115216e-15 4.5230727694804734e-17
3.292184975758714 7.953228310131964e-23 6.95019694879221e-15 6.904909105360905e-15 4.528784343130546e-17
3.295272960557952 7.46007864468819e-23 6.5253563525546786e-15 6.479846183542021e-15 4.5510169012657604e-17
3.3076538914384823 5.745744406184516e-23 5.044705234811337e-15 4.998301675815887e-15 4.640355899545001e-17
3.310756385682612 5.395250230473514e-23 4.741418068739612e-15 4.6947892360901624e-15 4.662883264944929e-17
3.313861789986515 5.071254043832376e-23 4.460866142877051e-15 4.414011264206917e-15 4.685487867013363e-17
3.3200813396944477 4.6190860840548433e-23 4.070747950488195e-15 4.0234072527322025e-15 4.734069775599255e-17
3.345076488085796 3.8306376657352295e-23 3.401312698275095e-15 3.3518079867266823e-15 4.950471154841139e-17
3.3482140837626964 3.864326643528013e-23 3.434444330541743e-15 3.3846465091220267e-15 4.979782141971631e-17
3.3513546224236106 3.8983424677649105e-23 3.467925882863675e-15 3.4178335845894167e-15 5.0092298274257324e-17
3.3576445397418455 4.130490922696439e-23 3.68133908991964e-15 3.630631257391874e-15 5.070783252776596e-17
3.3702598118196083 4.971801853676304e-23 4.4478140943324565e-15 4.395815062155631e-15 5.1999032176825993e-17
3.382922481734668 5.1754260616071444e-23 4.647373612036923e-15 4.594117826565569e-15 5.325578547135471e-17
3.389271646505754 5.280569330250113e-23 4.750688561259285e-15 4.6967954320895286e-15 5.389312916975491e-17
3.395632727569191 5.394829627688499e-23 4.8625925201259175e-15 4.808042558736399e-15 5.4549961389517115e-17
3.421196662673239 5.943411444424865e-23 5.3973833992054565e-15 5.340112532762923e-15 5.727086644253257e-17
3.4276182099114902 5.847444191252847e-23 5.3202000144894894e-15 5.2623200420460976e-15 5.787997244339298e-17
3.4340518103208963 5.40279421639447e-23 4.924869222524999e-15 4.86641222381572e-15 5.845699870927809e-17
3.4469541582030403 4.7693527243214185e-23 4.363795430734554e-15 4.3042290340445596e-15 5.956639668999468e-17
3.472904465399547 4.6089981049049305e-23 4.248824564303791e-15 4.1867053066825e-15 6.211925762128923e-17
3.4990501388274233 4.3554599665601837e-23 4.045326923817134e-15 3.980591015184558e-15 6.473590863257788e-17
3.5253949054701885 3.4055017282344583e-23 3.1868256984597508e-15 3.1195409146408896e-15 6.728478381886144e-17
3.5519380250092896 2.5068840857712654e-23 2.363573248651036e-15 2.293721092032409e-15 6.985215661862824e-17
3.578680990867387 2.1655325683504192e-23 2.0571082178780643e-15 1.984441271539622e-15 7.266694633844235e-17
3.605625307711299 2.043210304644184e-23 1.955523758018258e-15 1.8798889351904417e-15 7.563482282781632e-17
3.660119384959845 1.9875893091221913e-23 1.931040295857504e-15 1.8491552197531543e-15 8.188507610435014e-17
3.715437065384467 1.963096633706024e-23 1.9360698449722664e-15 1.8475739590911465e-15 8.849588588111884e-17
3.8285932144167436 2.032596461196568e-23 2.065664678659939e-15 1.9628841901411036e-15 1.0278048851883484e-16
3.94519561050918 2.137568663649338e-23 2.238504895318732e-15 2.120032167508448e-15 1.184727278102842e-16
4.06534921144712 2.2592928143490223e-23 2.438034300145052e-15 2.3024514653017073e-15 1.355828348433452e-16
4.189162171576248 2.3920768765163132e-23 2.6599393795852017e-15 2.5057686615067677e-15 1.5417071807843373e-16
4.316745939156006 2.5333962695002145e-23 2.9028797704509066e-15 2.728679816956351e-15 1.741999534945546e-16
4.448215356677963 2.681872867465384e-23 3.166601584060757e-15 2.9711705467482187e-15 1.9543103731253777e-16
4.58368876423945 2.837099275918528e-23 3.451907003331516e-15 3.2339876316608432e-15 2.1791937167067212e-16
4.723288106065518 2.999266038833152e-23 3.760355113973175e-15 3.51852169091563e-15 2.4183342305754396e-16
4.867139040275056 3.1685709800312694e-23 4.093611522014605e-15 3.827007529428152e-15 2.666039925864525e-16
4.940699165968905 3.2574889125383946e-23 4.272093903312771e-15 3.992702352325952e-15 2.7939155098681974e-16
5.015371051989984 3.3469491798429865e-23 4.455758251789721e-15 4.1633438619404215e-15 2.924143898493003e-16
5.091171501069577 3.4421736296695507e-23 4.65178820469014e-15 4.345845384586051e-15 3.0594282010408964e-16
5.129500256944802 3.489951189780994e-23 4.7518622433665754e-15 4.439076010872148e-15 3.1278623249442516e-16
5.168117569889187 3.538309796239155e-23 4.853976537651316e-15 4.5342334003780345e-15 3.1974313727328076e-16
5.20702561229733 3.5909615545983766e-23 4.963292870104071e-15 4.6359858890022075e-15 3.2730698110186345e-16
5.246226572918644 3.643888738310336e-23 5.074363608285153e-15 4.739418550869433e-15 3.3494505741571904e-16
5.265937586045735 3.6704553857464435e-23 5.130563770167004e-15 4.791772534903583e-15 3.3879123526342117e-16
5.285722656980489 3.697090688439539e-23 5.187210935384287e-15 4.844555809240331e-15 3.4265512614395517e-16
5.305582063971359 3.723794658026262e-23 5.2443080478421244e-15 4.897771607796803e-15 3.4653644004532184e-16
5.3255160863122235 3.7513262075601173e-23 5.302930863139397e-15 4.952467639965849e-15 3.504632231735471e-16
5.365609099470188 3.812533199114115e-23 5.4300283503134514e-15 5.07144072016037e-15 3.585876301530808e-16
5.406003951863644 3.874445172733398e-23 5.559750613803798e-15 5.19296012582933e-15 3.6679048797446725e-16
5.446702915881641 3.9370898592933614e-23 5.6921776800096215e-15 5.3171081439375926e-15 3.7506953607202996e-16
5.487708281020852 4.001961009699125e-23 5.829526796355625e-15 5.446071536366248e-15 3.834552599893743e-16
5.529022354014368 4.0807756593743883e-23 5.989085304835256e-15 5.596883894274521e-15 3.9220141056073494e-16
5.570647458961463 4.161623813053116e-23 6.153722780179297e-15 5.75269107375902e-15 4.0103170642027673e-16
5.612585937458331 4.24464905645983e-23 6.323743206332066e-15 5.913799316466591e-15 4.099438898654716e-16
5.654840148729818 4.3322554513647014e-23 6.502851293228023e-15 6.0838747492561995e-15 4.1897654397182033e-16
5.67608639626678 4.387010510535804e-23 6.60978153053737e-15 6.1860812957027065e-15 4.237002348346642e-16
5.686739436050992 4.414868884104351e-23 6.664239136354592e-15 6.238168256597772e-15 4.2607087975682044e-16
5.6974124697621304 4.4430579511600235e-23 6.719377992762368e-15 6.290930647394135e-15 4.2844734536823137e-16
5.718818669136295 4.500459755738194e-23 6.831760639145883e-15 6.398543038882961e-15 4.332176002629253e-16
5.740305295436557 4.562108448946764e-23 6.951363973661872e-15 6.513319521547999e-15 4.380444521138735e-16
5.7835210386641895 4.713761395227462e-23 7.236513024404541e-15 6.788483271225307e-15 4.480297531792348e-16
5.827062130521658 4.8819777748257554e-23 7.55118099001139e-15 7.092981458596495e-15 4.581995314148952e-16
5.8489554468988025 4.995262937512958e-23 7.755433880162917e-15 7.291751339719071e-15 4.636825404438475e-16
5.870931020387893 5.1146406144534246e-23 7.97060952319079e-15 7.501410269950275e-15 4.691992532405108e-16
5.892989160043636 5.240589246255979e-23 8.197571184714769e-15 7.722821728235784e-15 4.747494564789843e-16
5.915130176081913 5.381464765873737e-23 8.449562854562151e-15 7.969062352609305e-15 4.805005019528441e-16
5.95966208400165 5.765882392355755e-23 9.121302280874816e-15 8.62774544069142e-15 4.935568401833942e-16
6.004529249263818 6.304928861247307e-23 1.0049132870144998e-14 9.540908280449217e-15 5.082245896957809e-16
6.027089341400364 6.674220878976651e-23 1.0677698099787756e-14 1.0161022641051656e-14 5.166754587360996e-16
6.049734195844842 7.105018135332257e-23 1.1409613094428921e-14 1.0883990242708326e-14 5.256228517205972e-16
6.095279466722835 8.336169702963029e-23 1.3487442397369945e-14 1.2939909796185682e-14 5.475326011842624e-16
6.141167624020661 1.0203744075005787e-22 1.6633358271971654e-14 1.60574918350653e-14 5.758664369063593e-16
6.164241091010745 1.1393008394031036e-22 1.864178378622645e-14 1.8048183737092266e-14 5.936000491341883e-16
6.187401249150058 1.2732074720242692e-22 2.0911100650331844e-14 2.0299275166133943e-14 6.118254841979015e-16
6.1990139391386085 1.3384722413441876e-22 2.2024264532895597e-14 2.140316216671917e-14 6.21102366176426e-16
6.204828454712694 1.3727153523774515e-22 2.26089140541564e-14 2.1983124369216938e-14 6.257896849394669e-16
6.210648424152782 1.3977253618946178e-22 2.3042427184798553e-14 2.2412632312362494e-14 6.297948724360595e-16
6.233982942956859 1.4822534219994304e-22 2.452773833083534e-14 2.3883929887234717e-14 6.438084436006296e-16
6.239830258556775 1.4928533522590262e-22 2.4726312659623707e-14 2.4080522408406427e-14 6.457902512172897e-16
6.245683058788269 1.4935579350935e-22 2.4761186342598004e-14 2.4113410508900713e-14 6.477758336972859e-16
6.257405133728602 1.4907320987363706e-22 2.476072233723651e-14 2.41094491429399e-14 6.51273194296611e-16
6.269149208991335 1.473527728712853e-22 2.452089695145914e-14 2.386823292849037e-14 6.526640229687625e-16
6.280915325867298 1.431181172937618e-22 2.3860909095940874e-14 2.320946107962003e-14 6.514480163208445e-16
6.304513850009849 1.3271069231697185e-22 2.2208895006842817e-14 2.1562240199615145e-14 6.466548072276691e-16
6.32820103803542 1.1991329714393894e-22 2.0142670349184104e-14 1.95033211443822e-14 6.3934920480190625e-16
6.3519772230701035 1.082222223118355e-22 1.8247140370469972e-14 1.7614299355393938e-14 6.3284101507603e-16
6.375842739491607 9.836061682026834e-23 1.6646704610593096e-14 1.601955610426731e-14 6.271485063257832e-16
6.399797922933955 9.05610612316478e-23 1.538428076687828e-14 1.4759836392610317e-14 6.24444374267964e-16
6.42384311029221 8.406054557184153e-23 1.433364232246405e-14 1.3711307696262008e-14 6.22334626202042e-16
6.447978639727206 7.938513371047389e-23 1.3587269943143744e-14 1.2964709071854879e-14 6.225608712888652e-16
6.472204850670314 7.549160853710116e-23 1.2969414392726105e-14 1.2346161466739471e-14 6.232529259866357e-16
6.496522083828205 7.301624922465229e-23 1.2591279719634065e-14 1.1965436845052498e-14 6.258428745815694e-16
6.520930681187647 7.094149522755652e-23 1.2279462423605681e-14 1.16507369181511e-14 6.287255054545836e-16
6.57002334288761 6.892193920707492e-23 1.2019705695212487e-14 1.1382569077461626e-14 6.371366177508554e-16
