Dust emission spectrum from A.P. Jones, M. Kohler, N. Ysard, M. Bocchio, and L. Verstraete (2017), A&A, 602A, 46J 
inside the DustPedia framework.

lambda    nu*dP/dnu     j_nu    j_nu(carb.) j_nu(sil)
 (um)   (erg s-1 H-1) (Jy cm2 sr-1 H-1)
0.9927057738263894 9.735208937621939e-25 2.5652828499462556e-17 2.565282849158782e-17 7.874725287342915e-27
1.0001793341362166 9.895861592887928e-25 2.6272471062202403e-17 2.6272471052718104e-17 9.484296583704237e-27
1.0077091589558085 1.0056285917281501e-24 2.6899378844254396e-17 2.6899378832846337e-17 1.1408061568857594e-26
1.0114953028030835 1.013639278435862e-24 2.7215526126718876e-17 2.72155261142133e-17 1.2505571435212676e-26
1.0152956718711033 1.0216419026978355e-24 2.753345204636764e-17 2.753345203266343e-17 1.3704205560816994e-26
1.0229392996569957 1.037611990911611e-24 2.817437422397741e-17 2.817437420753614e-17 1.64412744481422e-26
1.0267826658714554 1.0455600739600736e-24 2.849685628439406e-17 2.849685626639379e-17 1.8000277490327248e-26
1.0306404723013447 1.0534965951944413e-24 2.8821047567472655e-17 2.882104754777197e-17 1.9700682251007446e-26
1.03451277320114 1.061420792533822e-24 2.9146934249264835e-17 2.914693422771015e-17 2.1554682267421672e-26
1.0383996230291617 1.0693319081962763e-24 2.947450233459236e-17 2.9474502311016905e-17 2.3575463884932047e-26
1.0403485208654093 1.0732823248033672e-24 2.963891248410193e-17 2.9638912459449115e-17 2.4652808515303778e-26
1.0423010764483396 1.0772291888451355e-24 2.980373766043635e-17 2.9803737634659065e-17 2.577728194119759e-26
1.0462171883269815 1.085111885732128e-24 3.013462589933205e-17 3.0134625871156516e-17 2.8175540793630165e-26
1.0471985131304309 1.0870801939453835e-24 3.021760453233785e-17 3.021760450353013e-17 2.8807720988412545e-26
1.048180758391296 1.0890475325702254e-24 3.030068533971229e-17 3.03006853102588e-17 2.945348491945047e-26
1.0501480137395462 1.092979254837286e-24 3.0467152562767665e-17 3.046715253198079e-17 3.078688103423007e-26
1.0521189612883777 1.0969069602920404e-24 3.063402573282877e-17 3.0634025700650757e-17 3.217801759190456e-26
1.0531058218030118 1.0988662609194172e-24 3.071752963342507e-17 3.071752960052905e-17 3.289602479365217e-26
1.0540936079674168 1.1008146381056028e-24 3.080085759283691e-17 3.0800857559207384e-17 3.362952457955067e-26
1.058054026499678 1.1085971238374396e-24 3.113515447864783e-17 3.113515444192455e-17 3.6723285016988527e-26
1.0590464539527713 1.1105399329287339e-24 3.121897378349598e-17 3.121897374595767e-17 3.7538301670824675e-26
1.06003981227728 1.1124815945212612e-24 3.130289064827048e-17 3.130289060989986e-17 3.837062550014662e-26
1.0620293250338977 1.1163614302550984e-24 3.147101610627387e-17 3.147101606618527e-17 4.0088599885013655e-26
1.0660195594769086 1.1241068384339652e-24 3.1808427246032e-17 3.1808427202283924e-17 4.374807241540707e-26
1.070024785945596 1.1318326349680741e-24 3.21473725283551e-17 3.214737248062902e-17 4.77260771603392e-26
1.0740450607676866 1.139538112088603e-24 3.2487836447212176e-17 3.2487836395163294e-17 5.20488895107918e-26
1.07808044048254 1.147222567779155e-24 3.2829803363523817e-17 3.282980330677899e-17 5.674482394645662e-26
1.0861967418109137 1.1625120497722098e-24 3.351779125962576e-17 3.3517791192245346e-17 6.738041607456475e-26
1.0902777775684922 1.1700848064839359e-24 3.386288325612588e-17 3.386288318273759e-17 7.338829803773869e-26
1.0943741465085532 1.1776332540267226e-24 3.420938908348199e-17 3.4209389003575934e-17 7.990605698225682e-26
1.1026131145906286 1.192654557227041e-24 3.490657664075286e-17 3.490657654611486e-17 9.463800487528804e-26
1.1109141095355224 1.2075706960330956e-24 3.560922167790803e-17 3.5609221565966014e-17 1.1194200742772923e-25
1.1192775983109025 1.2223626600011168e-24 3.6316778699832784e-17 3.6316778567592375e-17 1.3224041117891057e-25
1.1277040513999907 1.2369617659708423e-24 3.702719810609982e-17 3.7027197950079554e-17 1.56020258401496e-25
1.1361939428280308 1.2514385946187994e-24 3.774256809762644e-17 3.774256791378405e-17 1.838423810432646e-25
1.1447477501889525 1.2657883610416555e-24 3.84627497905033e-17 3.8462749574151527e-17 2.1635177005720905e-25
1.1533659546722406 1.2800142068185866e-24 3.9187842201372583e-17 3.918784194708302e-17 2.542895651337264e-25
1.1707974979042381 1.3081401966523522e-24 4.0654208446221855e-17 4.065420809624449e-17 3.4997735612680155e-25
1.1884924949847024 1.3357104904426048e-24 4.213841670387546e-17 4.213841622459039e-17 4.792850749043947e-25
1.2064549276569216 1.3629409208848626e-24 4.364731828976289e-17 4.3647317636601386e-17 6.5316149938929895e-25
1.2246888378427687 1.3895346899036475e-24 4.51715076730346e-17 4.5171506787236515e-17 8.857980828798769e-25
1.2431983285522175 1.4154299634638117e-24 4.6708748987875153e-17 4.670874779234923e-17 1.1955259361750375e-24
1.2619875648066055 1.4406175858417179e-24 4.8258433526837745e-17 4.825843192093543e-17 1.6059023168393763e-24
1.3004222497298317 1.4884535079221903e-24 5.137940829884545e-17 5.137940544168084e-17 2.8571646069288673e-24
1.3400274889804893 1.5328594821595631e-24 5.452372080078586e-17 5.4523715809821574e-17 4.990964285276036e-24
1.3808389325824078 1.5736755900318922e-24 5.76803204924771e-17 5.768031192865748e-17 8.563819615593077e-24
1.4228933163050095 1.6111044284092012e-24 6.085068392792031e-17 6.085066948691415e-17 1.4441006152618117e-23
1.466228494730424 1.646047439264671e-24 6.406390919144391e-17 6.406388524779587e-17 2.3943648066211487e-23
1.5108834753276823 1.6778354038372002e-24 6.72898807288206e-17 6.728984167739698e-17 3.905142362177108e-23
1.5568984535646726 1.7059283223066917e-24 7.050022448381983e-17 7.050016176622657e-17 6.271759327646468e-23
1.6043148490894465 1.7303835345956356e-24 7.368878744219683e-17 7.36886880744343e-17 9.936776250965963e-23
1.6531753430134553 1.7512815225411897e-24 7.68500789102003e-17 7.684992377670744e-17 1.5513349288148003e-22
1.7035239163302658 1.7688727266605594e-24 7.998605068759284e-17 7.998581197579312e-17 2.3871179968596076e-22
1.755405889504358 1.7845692024701563e-24 8.315347016963893e-17 8.315310795315606e-17 3.622164828596736e-22
1.8088679632656115 1.7980332494053384e-24 8.633244062176398e-17 8.633189844235208e-17 5.421794118779377e-22
1.8639582606462262 1.8090389502924777e-24 8.950628539135644e-17 8.950548450413212e-17 8.008872243278867e-22
1.9207263702978936 1.8177661395030197e-24 9.267720792349638e-17 9.267603999087121e-17 1.1679326251770686e-21
1.979223391128241 1.8246213462335197e-24 9.585990612841271e-17 9.585822403302323e-17 1.6820953894492076e-21
2.039501978296691 1.83008910229275e-24 9.907539189739342e-17 9.907299843950473e-17 2.393457888709092e-21
2.1016163906111602 1.8355097265662335e-24 1.0239519328909151e-16 1.0239182721490676e-16 3.36607418475648e-21
2.1656225393682647 1.8416655916697644e-24 1.0586757616211198e-16 1.0586289563242502e-16 4.68052968696062e-21
2.231578038680979 1.8486227394169842e-24 1.0950395441188299e-16 1.0949751752010664e-16 6.436891776373742e-21
2.299542257339062 1.8568550077221153e-24 1.133414647940708e-16 1.1333270686218946e-16 8.757931881356184e-21
2.369576372248914 1.86739451779409e-24 1.1745627492439778e-16 1.1744448222769532e-16 1.1792696702430562e-20
2.4417434235010123 1.8814583623369184e-24 1.219450205801754e-16 1.219293009116956e-16 1.5719668479832478e-20
2.5161083711144245 1.9011222268745115e-24 1.269722498727478e-16 1.2695149909487593e-16 2.0750777871877043e-20
2.5927381535095444 1.9297731615160563e-24 1.3281109389646034e-16 1.3278395922453833e-16 2.713467192203314e-20
2.6717017477616296 1.9714464387759187e-24 1.3981133739137112e-16 1.3977617912143587e-16 3.515826993524417e-20
2.753070231689431 2.0322073646382673e-24 1.4850967390425786e-16 1.4846452456104113e-16 4.5149343216741164e-20
2.836916847834745 2.125782331702941e-24 1.6007917324788023e-16 1.6002169298762816e-16 5.748026025203614e-20
2.9233170693905177 2.2823757601215578e-24 1.7710568488679826e-16 1.7703312825137097e-16 7.255663542724744e-20
2.967498994190263 2.414099537930307e-24 1.9015825630953184e-16 1.900771282576601e-16 8.112805187174203e-20
3.0123486681368425 2.567672619724624e-24 2.0531199427953128e-16 2.052214030339855e-16 9.05912455457056e-20
3.0578761833420214 2.9087308258905055e-24 2.3609830158108407e-16 2.3599724984475433e-16 1.0105173632970013e-19
3.1040917844459814 3.347601458835088e-24 2.758276096893872e-16 2.757151028086759e-16 1.1250688071120737e-19
3.127460860933648 3.8106133783109174e-24 3.163415252493848e-16 3.1622285643731958e-16 1.1866881206525786e-19
3.1510058709225794 4.427094058591205e-24 3.702860871896079e-16 3.7016097441749885e-16 1.251127721092215e-19
3.162844764501044 5.0004825639226755e-24 4.1981623278336266e-16 4.1968777713235273e-16 1.2845565100993548e-19
3.1747281389236908 5.6671188110604586e-24 4.775713796634295e-16 4.774395074643743e-16 1.3187219905515199e-19
3.1986289994194426 7.52593368409334e-24 6.389894539795607e-16 6.38850505734948e-16 1.3894824461253483e-19
3.2227097969389145 1.190596837628206e-23 1.0184866881486747e-15 1.0183402196724198e-15 1.4646847625502639e-19
3.2348180950136065 1.6058967942258788e-23 1.378913196804208e-15 1.378762709311005e-15 1.504874932028031e-19
3.240889293275058 1.9163749179395865e-23 1.6485954890066261e-15 1.648442881415878e-15 1.5260759074779652e-19
3.2469718861334385 2.2755520343318602e-23 1.9612580185053466e-15 1.9611032170686856e-15 1.5480143666071465e-19
3.2714166318528037 4.191242012734819e-23 3.639552841550747e-15 3.639388955760887e-15 1.63885789860064e-19
3.2744851364798273 4.311004979663655e-23 3.7470628788759884e-15 3.746897917460949e-15 1.6496141503971617e-19
3.2775565192852394 4.434206109662421e-23 3.8577626018547896e-15 3.857596558956355e-15 1.660428984340847e-19
3.283707930232385 4.3157677057680824e-23 3.76176806964316e-15 3.761600082553513e-15 1.679870896473583e-19
3.2898708863219004 3.9400957309050076e-23 3.440765388724412e-15 3.4405956229300017e-15 1.6976579441064403e-19
3.29141343181113 3.8515019750561547e-23 3.3649761859774878e-15 3.3648059732861203e-15 1.70212691366865e-19
3.292184975758714 3.8079700022665763e-23 3.3277230903995377e-15 3.327552653925901e-15 1.7043647363726627e-19
3.295272960557952 3.53320533183495e-23 3.09050681032504e-15 3.0903355016155497e-15 1.7130870949084687e-19
3.3076538914384823 2.5812962268937666e-23 2.2663518715509596e-15 2.2661770545789283e-15 1.7481697203140668e-19
3.310756385682612 2.3875474360831978e-23 2.0982086223689896e-15 2.0980329200798147e-15 1.7570228917452324e-19
3.313861789986515 2.2087796935616227e-23 1.9429258457415724e-15 1.9427492548222984e-15 1.7659091927418522e-19
3.3200813396944477 1.9580924813075704e-23 1.7256445994078374e-15 1.7254661014049283e-15 1.7849800290889598e-19
3.345076488085796 1.5110134438677995e-23 1.3416641463805729e-15 1.3414771600215517e-15 1.8698635902144343e-19
3.3482140837626964 1.5278055517263792e-23 1.3578466830915626e-15 1.3576585472049693e-15 1.8813588659357128e-19
3.3513546224236106 1.5447830162058142e-23 1.3742232883864283e-15 1.3740339972464785e-15 1.8929113994973973e-19
3.3576445397418455 1.668749664145739e-23 1.4872889167129793e-15 1.4870972118143027e-15 1.917048986763922e-19
3.3702598118196083 2.1258907805017704e-23 1.9018390625393613e-15 1.9016422933971662e-15 1.967691421956024e-19
3.382922481734668 2.230088054533653e-23 2.0025505637192063e-15 2.0023488535921236e-15 2.0171012708283658e-19
3.389271646505754 2.2840671382744265e-23 2.0548715390949327e-15 2.054667320806474e-15 2.0421828845917387e-19
3.395632727569191 2.3422387489047106e-23 2.111160760725095e-15 2.110953957427254e-15 2.068032978408826e-19
3.421196662673239 2.621557339146919e-23 2.3807118512129254e-15 2.3804943257487207e-15 2.1752546420456203e-19
3.4276182099114902 2.5653668792508988e-23 2.334056463262674e-15 2.3338365246217336e-15 2.199386409405193e-19
3.4340518103208963 2.3189759970575566e-23 2.1138420340030093e-15 2.113619803045326e-15 2.222309576837843e-19
3.4469541582030403 1.9680686604384248e-23 1.80071584640765e-15 1.8004891954299532e-15 2.266509776968029e-19
3.472904465399547 1.8698443827771742e-23 1.723724020739859e-15 1.7234872155406606e-15 2.3680519919878814e-19
3.4990501388274233 1.719557085207627e-23 1.5971150296956373e-15 1.5968677858271736e-15 2.472438684641475e-19
3.5253949054701885 1.1843808621259312e-23 1.1083287190529877e-15 1.108071258946336e-15 2.5746010665132534e-19
3.5519380250092896 6.813374289394572e-24 6.423874679672421e-16 6.421196779668676e-16 2.677900003745101e-19
3.578680990867387 4.819811592527321e-24 4.578492228895224e-16 4.575700992646593e-16 2.7912362486314953e-19
3.605625307711299 4.014545103903538e-24 3.842256624526167e-16 3.8393456302782814e-16 2.9109942478856064e-19
3.660119384959845 3.4294305239850484e-24 3.3318596066425706e-16 3.328695277440974e-16 3.1643292015962532e-19
3.715437065384467 3.016149783049473e-24 2.974625162418874e-16 2.971191213321549e-16 3.433949097325015e-19
3.8285932144167436 2.8122854196565774e-24 2.858038360587866e-16 2.8540158786023735e-16 4.022481985491505e-19
3.94519561050918 2.7799986874167277e-24 2.9112705367498164e-16 2.906592349671316e-16 4.678187078501343e-19
4.06534921144712 2.818645430949126e-24 3.0416394886738667e-16 3.036235422746269e-16 5.404065927597452e-19
4.189162171576248 2.898784644780834e-24 3.2233878038312514e-16 3.217182416800234e-16 6.205387031017797e-19
4.316745939156006 3.0095081167920507e-24 3.448430210630617e-16 3.441346355299453e-16 7.0838553311652705e-19
4.448215356677963 3.1472304975213835e-24 3.7160691693317834e-16 3.7080362763187705e-16 8.032893013012806e-19
4.58368876423945 3.312536228254934e-24 4.030372536541063e-16 4.0213141171731655e-16 9.05841936789699e-19
4.723288106065518 3.509098789960303e-24 4.3995622293639306e-16 4.389390574831564e-16 1.0171654532366439e-18
4.867139040275056 3.744107299077114e-24 4.837171354453865e-16 4.825818440701237e-16 1.1352913752627853e-18
4.940699165968905 3.884927926443624e-24 5.094960368241534e-16 5.082986442217315e-16 1.1973926024219953e-18
5.015371051989984 4.030896320263321e-24 5.366289888502191e-16 5.353675416755506e-16 1.2614471746684562e-18
5.091171501069577 4.2076092611322086e-24 5.68620564697046e-16 5.672918518293216e-16 1.3287128677244687e-18
5.129500256944802 4.298361669542372e-24 5.852581143724896e-16 5.838950261958824e-16 1.3630881766070411e-18
5.168117569889187 4.3929021585822256e-24 6.026336086404888e-16 6.012353871817456e-16 1.3982214587431167e-18
5.20702561229733 4.508007394655258e-24 6.230799361139723e-16 6.21643750419919e-16 1.4361856940532731e-18
5.246226572918644 4.626049828385347e-24 6.442089916871982e-16 6.427342152079309e-16 1.4747764792673233e-18
5.265937586045735 4.686201770508805e-24 6.550374407718201e-16 6.535431339801267e-16 1.4943067916935368e-18
5.285722656980489 4.747123644494553e-24 6.660461902474143e-16 6.645321965720899e-16 1.5139936753243754e-18
5.305582063971359 4.808827859797124e-24 6.772385956208547e-16 6.75704758536003e-16 1.5338370848519098e-18
5.3255160863122235 4.874964387968096e-24 6.891322609471357e-16 6.875783028148858e-16 1.5539581322498942e-18
5.365609099470188 5.0385299116574616e-24 7.176163153296501e-16 7.160206983847473e-16 1.5956169449029154e-18
5.406003951863644 5.2082467307391915e-24 7.473728925589667e-16 7.457349257781288e-16 1.63796678083797e-18
5.446702915881641 5.384409348467809e-24 7.784687626836274e-16 7.767877541516318e-16 1.6810085319957435e-18
5.487708281020852 5.574452884814856e-24 8.120124705935918e-16 8.102875831372332e-16 1.7248874563581685e-18
5.529022354014368 5.8365712650674426e-24 8.565950719182174e-16 8.548243341118174e-16 1.770737806400008e-18
5.570647458961463 6.11390871254428e-24 9.040533457712655e-16 9.022359869427514e-16 1.8173588285139598e-18
5.612585937458331 6.4075530101023755e-24 9.546070659288422e-16 9.527423130834772e-16 1.864752845365053e-18
5.654840148729818 6.729858081412158e-24 1.0101728030411104e-15 1.0082596966317988e-15 1.913106409311285e-18
5.67608639626678 6.948330183423235e-24 1.0468847613692404e-15 1.0449463813405358e-15 1.9383800287045492e-18
5.686739436050992 7.060898533894833e-24 1.0658417629758648e-15 1.0638906644340123e-15 1.9510985418523204e-18
5.6974124697621304 7.17575899154939e-24 1.0852128776892257e-15 1.0832490060754621e-15 1.963871613763801e-18
5.718818669136295 7.412576080981918e-24 1.1252393811578496e-15 1.1232497994565574e-15 1.9895817012920356e-18
5.740305295436557 7.673326588023947e-24 1.169198115280356e-15 1.1671824454370902e-15 2.015669843265562e-18
5.7835210386641895 8.347994081149804e-24 1.2815745819687905e-15 1.2795048241704344e-15 2.0697577983561267e-18
5.827062130521658 9.124185312311589e-24 1.4112799741725063e-15 1.4091547794585734e-15 2.1251947139331052e-18
5.8489554468988025 9.667505129565028e-24 1.500935941838656e-15 1.4987809707369934e-15 2.154971101662779e-18
5.870931020387893 1.0250225172963445e-23 1.5973857898753514e-15 1.5952007490862264e-15 2.1850407891252603e-18
5.892989160043636 1.087551038063444e-23 1.7011974479596623e-15 1.6989820427330996e-15 2.215405226562419e-18
5.915130176081913 1.1586162844127854e-23 1.819170345878054e-15 1.8169234987949248e-15 2.2468470831297266e-18
5.95966208400165 1.3570628486794768e-23 2.1467972488237407e-15 2.1444797906906806e-15 2.3174581330602218e-18
6.004529249263818 1.642765318898517e-23 2.618327236893114e-15 2.6159308205959668e-15 2.396416297147381e-18
6.027089341400364 1.8412312891617607e-23 2.9456789330242773e-15 2.9432374166415617e-15 2.4415163827153678e-18
6.049734195844842 2.0756659721103675e-23 3.3332139628583086e-15 3.3307247582406735e-15 2.48920461763504e-18
6.095279466722835 2.7525364941192053e-23 4.453445495224948e-15 4.4508409192822054e-15 2.604575942742296e-18
6.141167624020661 3.7937156407193576e-23 6.184223258660258e-15 6.1814712165165224e-15 2.7520421437357455e-18
6.164241091010745 4.458578281622207e-23 7.295338460692424e-15 7.292494982764879e-15 2.8434779275478096e-18
6.187401249150058 5.215736878148078e-23 8.566302132298753e-15 8.563364428050632e-15 2.9377042481230284e-18
6.1990139391386085 5.58546564519766e-23 9.190760115106502e-15 9.187774393055127e-15 2.985722051371292e-18
6.204828454712694 5.7802047195097e-23 9.52012021228493e-15 9.517110201549154e-15 3.0100107357724055e-18
6.210648424152782 5.922408981337853e-23 9.763482972512839e-15 9.76045199476084e-15 3.0309777519992605e-18
6.233982942956859 6.405598262627917e-23 1.0599728474652924e-14 1.0596623219681309e-14 3.10525497161521e-18
6.239830258556775 6.467416424083423e-23 1.0712060924127878e-14 1.0708944486590957e-14 3.1164375369192316e-18
6.245683058788269 6.472882670600963e-23 1.073117086485769e-14 1.0728043213497444e-14 3.1276513602476116e-18
6.257405133728602 6.459853276165464e-23 1.0729669901520463e-14 1.0726522104183131e-14 3.147797337333692e-18
6.269149208991335 6.365151664901338e-23 1.0592215199899339e-14 1.058905751423959e-14 3.1576856597485025e-18
6.280915325867298 6.127309743073661e-23 1.0215560653446782e-14 1.0212405805247606e-14 3.1548481991766126e-18
6.304513850009849 5.54065281834107e-23 9.272182562200977e-15 9.269044944569877e-15 3.137617631101996e-18
6.32820103803542 4.813431516356949e-23 8.085455624322482e-15 8.082347533784772e-15 3.108090537708116e-18
6.3519772230701035 4.146568064157007e-23 6.99144851270589e-15 6.988366052705217e-15 3.082460000672321e-18
6.375842739491607 3.585532122658723e-23 6.068210636250642e-15 6.065149846478833e-15 3.060789771810122e-18
6.399797922933955 3.136107193586239e-23 5.327538450299974e-15 5.3244845480878785e-15 3.053902212094324e-18
6.42384311029221 2.762471841566118e-23 4.710448050690648e-15 4.707398089818093e-15 3.0499608725548944e-18
6.447978639727206 2.490402655423597e-23 4.262482352145731e-15 4.259424692802595e-15 3.057659343136018e-18
6.472204850670314 2.2638183467550238e-23 3.889226738955037e-15 3.886159007233055e-15 3.067731721983401e-18
6.496522083828205 2.1168013169643435e-23 3.650315892121853e-15 3.647228553656825e-15 3.087338465027481e-18
