Dust emission spectrum from A.P. Jones, M. Kohler, N. Ysard, M. Bocchio, and L. Verstraete (2017), A&A, 602A, 46J 
inside the DustPedia framework.

lambda    nu*dP/dnu     j_nu    j_nu(carb.) j_nu(sil)
 (um)   (erg s-1 H-1) (Jy cm2 sr-1 H-1)
0.9927057738263894 1.2316710928210803e-25 3.2455232871050056e-18 3.2455232870052883e-18 9.971808377247878e-29
1.0001793341362166 1.2519088402373072e-25 3.323686216598696e-18 3.3236862164785604e-18 1.2013492974959938e-28
1.0077091589558085 1.2721144822210956e-25 3.4027562135761318e-18 3.402756213431584e-18 1.4454694389933505e-28
1.0114953028030835 1.282202769473445e-25 3.4426273443352826e-18 3.442627344176803e-18 1.5847824001971258e-28
1.0152956718711033 1.2922800455716018e-25 3.482720371126656e-18 3.48272037095296e-18 1.7369634432354666e-28
1.0229392996569957 1.3123876801464833e-25 3.563538389229579e-18 3.5635383890211204e-18 2.0845798168051395e-28
1.0267826658714554 1.322393530132325e-25 3.604198296982065e-18 3.604198296753801e-18 2.282640721941498e-28
1.0306404723013447 1.3323839373034358e-25 3.645071185832481e-18 3.64507118558261e-18 2.498713465545976e-28
1.03451277320114 1.3423579360669699e-25 3.686155271946596e-18 3.686155271673161e-18 2.734356457583498e-28
1.0383996230291617 1.3523145663707823e-25 3.727448749830328e-18 3.727448749531202e-18 2.9912555175320425e-28
1.0403485208654093 1.3572860698944758e-25 3.748173440652081e-18 3.7481734403392575e-18 3.1282401184276906e-28
1.0423010764483396 1.3622528738877501e-25 3.768949792759723e-18 3.768949792432601e-18 3.2712336363458054e-28
1.0462171883269815 1.3721719101960065e-25 3.810656553211526e-18 3.810656552853901e-18 3.5762614319753815e-28
1.0471985131304309 1.3746485475800814e-25 3.821115168235185e-18 3.821115167869518e-18 3.6566782790971114e-28
1.048180758391296 1.377123906923177e-25 3.8315864945760445e-18 3.831586494202162e-18 3.7388278823558245e-28
1.0501480137395462 1.382070732955046e-25 3.852567163294072e-18 3.852567162903225e-18 3.9084683434739366e-28
1.0521189612883777 1.387012271477486e-25 3.8735983227673306e-18 3.873598322358784e-18 4.08547577638145e-28
1.0531058218030118 1.3894772033798496e-25 3.884122089077322e-18 3.884122088659639e-18 4.176842667843659e-28
1.0540936079674168 1.3919282605227759e-25 3.894623367798493e-18 3.894623367371474e-18 4.270186338600522e-28
1.058054026499678 1.4017180309378116e-25 3.936750916120401e-18 3.936750915654007e-18 4.66395159368514e-28
1.0590464539527713 1.4041617873575075e-25 3.947313259748759e-18 3.947313259271988e-18 4.76770013033218e-28
1.06003981227728 1.406604040739627e-25 3.957887725022173e-18 3.957887724534807e-18 4.873658227151904e-28
1.0620293250338977 1.4114839814803526e-25 3.979072897991933e-18 3.979072897482694e-18 5.092383144812811e-28
1.0660195594769086 1.4212252020316991e-25 4.0215873521445595e-18 4.021587351588722e-18 5.558377143490067e-28
1.070024785945596 1.4309407895487795e-25 4.064292299624383e-18 4.064292299017876e-18 6.065057723290164e-28
1.0740450607676866 1.440629848212856e-25 4.107185744224787e-18 4.1071857435632074e-18 6.615793762198429e-28
1.07808044048254 1.450291489574091e-25 4.1502656729182404e-18 4.150265672196817e-18 7.214216782858231e-28
1.0861967418109137 1.4695118207653015e-25 4.236927305107528e-18 4.23692730425052e-18 8.570080179049132e-28
1.0902777775684922 1.47902969917977e-25 4.280391451810134e-18 4.280391450876504e-18 9.336278295837068e-28
1.0943741465085532 1.4885160043081577e-25 4.3240306754459425e-18 4.324030674429171e-18 1.0167718453008843e-27
1.1026131145906286 1.5073905247853045e-25 4.411825919091027e-18 4.411825917886251e-18 1.2047756154639773e-27
1.1109141095355224 1.5261287259274657e-25 4.500296031453639e-18 4.500296030027917e-18 1.4257207536251763e-27
1.1192775983109025 1.5447065709282986e-25 4.589371757521563e-18 4.589371755836522e-18 1.6850400234679024e-27
1.1277040513999907 1.563037226728531e-25 4.678793688975702e-18 4.678793686986699e-18 1.9890028811306945e-27
1.1361939428280308 1.5812099451659374e-25 4.76882559709199e-18 4.768825594747156e-18 2.3448336359734266e-27
1.1447477501889525 1.5992186804979696e-25 4.85944964114487e-18 4.859449638384024e-18 2.7608467589010938e-27
1.1533659546722406 1.6170674284045174e-25 4.9506781155810064e-18 4.950678112334403e-18 3.246603137555506e-27
1.1707974979042381 1.652343364272899e-25 5.135130907817679e-18 5.1351309033447914e-18 4.472887688071332e-27
1.1884924949847024 1.686903476510515e-25 5.321770109693595e-18 5.321770103561605e-18 6.1319927208272104e-27
1.2064549276569216 1.7210207652810894e-25 5.511459812707521e-18 5.511459804341872e-18 8.365650632091409e-27
1.2246888378427687 1.7543199397766705e-25 5.703008150597122e-18 5.703008139239266e-18 1.1357857704594356e-26
1.2431983285522175 1.7867231383640575e-25 5.896130839031019e-18 5.896130823684354e-18 1.534666432200872e-26
1.2619875648066055 1.818218683694551e-25 6.090747908860281e-18 6.0907478882218024e-18 2.063847943939196e-26
1.3004222497298317 1.877961441955061e-25 6.482469703094119e-18 6.482469666287087e-18 3.680703279831006e-26
1.3400274889804893 1.9333181422535858e-25 6.876801157195417e-18 6.876801092740641e-18 6.44547772022128e-26
1.3808389325824078 1.9840877470624187e-25 7.27232587584572e-18 7.272325764966474e-18 1.1087924588634635e-25
1.4228933163050095 2.0305269564655201e-25 7.669208268330998e-18 7.66920808086231e-18 1.874686873374189e-25
1.466228494730424 2.0737737893646907e-25 8.071095191813253e-18 8.07109488013502e-18 3.11678234470929e-25
1.5108834753276823 2.1129827308551157e-25 8.474153997235252e-18 8.474153487465017e-18 5.097702334946622e-25
1.5568984535646726 2.14747215153591e-25 8.874773152914159e-18 8.874772331838965e-18 8.210751960207302e-25
1.6043148490894465 2.1773138308558845e-25 9.27214186156642e-18 9.272140556826687e-18 1.3047397305745525e-24
1.6531753430134553 2.202607925240798e-25 9.665527254428432e-18 9.665525211255445e-18 2.0431729871149403e-24
1.7035239163302658 2.223668674658751e-25 1.0055131307239516e-17 1.0055128153447377e-17 3.153792141354987e-24
1.755405889504358 2.242273217253944e-25 1.0448056529554741e-17 1.0448051728608985e-17 4.8009457560638336e-24
1.8088679632656115 2.257991838249825e-25 1.0841732007158506e-17 1.0841724797038886e-17 7.210119620291749e-24
1.8639582606462262 2.270536564995233e-25 1.1233992156173118e-17 1.1233981469199694e-17 1.0686973421593832e-23
1.9207263702978936 2.2801295130575367e-25 1.1625039788226447e-17 1.1625024148462325e-17 1.5639764129197564e-23
1.979223391128241 2.287277736034812e-25 1.2016642769115351e-17 1.2016620162307522e-17 2.260680783060184e-23
2.039501978296691 2.292586205995701e-25 1.2411356175664944e-17 1.2411323887731932e-17 3.228793301442091e-23
2.1016163906111602 2.297734716874132e-25 1.281807375118221e-17 1.281802816679415e-17 4.558438805740444e-23
2.1656225393682647 2.303700344012053e-25 1.3242750080553816e-17 1.3242686441984124e-17 6.36385696925796e-23
2.231578038680979 2.3105599050470125e-25 1.368669989356446e-17 1.3686612013076502e-17 8.788048795768724e-23
2.299542257339062 2.318901556693151e-25 1.4154454605008438e-17 1.415433452528192e-17 1.2007972651891518e-22
2.369576372248914 2.330016412697998e-25 1.4655448848136343e-17 1.4655286443807993e-17 1.6240432835527894e-22
2.4417434235010123 2.345428249783062e-25 1.520168088300766e-17 1.5201463406510626e-17 2.1747649703387896e-22
2.5161083711144245 2.367741028362875e-25 1.5813681058345338e-17 1.581339261543666e-17 2.884429086703622e-22
2.5927381535095444 2.4012121596742017e-25 1.6525652857213253e-17 1.6525273819002783e-17 3.7903821047210266e-22
2.6717017477616296 2.4509247782226266e-25 1.7381505495108393e-17 1.738101186741125e-17 4.936276971499041e-22
2.753070231689431 2.524527328449897e-25 1.8448743806083817e-17 1.8448106537475716e-17 6.372686081048366e-22
2.836916847834745 2.6393375058918185e-25 1.987517534435532e-17 1.9874359552750978e-17 8.15791604356349e-22
2.9233170693905177 2.833484356514213e-25 2.1987010042104175e-17 2.1985974355707635e-17 1.0356863965307406e-21
2.967498994190263 2.997940189837869e-25 2.3614729635737735e-17 2.3613568015839753e-17 1.161619897980228e-21
3.0123486681368425 3.189935912945063e-25 2.5506838328201198e-17 2.550553718009246e-17 1.3011481087368946e-21
3.0578761833420214 3.61855089726354e-25 2.937135720583825e-17 2.936990129976589e-17 1.455906072354973e-21
3.1040917844459814 4.170765785541252e-25 3.4365272310535084e-17 3.436364621202143e-17 1.6260985136548978e-21
3.127460860933648 4.754387134248293e-25 3.9468975945831064e-17 3.946725801067306e-17 1.7179351580165154e-21
3.1510058709225794 5.531903224294265e-25 4.626933090929944e-17 4.626751672147362e-17 1.8141878258277337e-21
3.162844764501044 6.255359372763358e-25 5.2516959573588467e-17 5.251509537089798e-17 1.8642026904900346e-21
3.1747281389236908 7.0967165549261075e-25 5.980444083158651e-17 5.980252545380233e-17 1.9153777841916424e-21
3.1986289994194426 9.443510863349635e-25 8.018013582787492e-17 8.017811428147853e-17 2.021546396415177e-21
3.2227097969389145 1.4974631086998323e-24 1.2809930229974093e-16 1.2809716768846488e-16 2.1346112760336343e-21
3.2348180950136065 2.021967809772403e-24 1.7361751430312033e-16 1.7361531920310618e-16 2.19510001416264e-21
3.240889293275058 2.4140912354811067e-24 2.076764772700939e-16 2.0767425025712249e-16 2.2270129713564802e-21
3.2469718861334385 2.867712293104752e-24 2.4716304636248156e-16 2.4716078632315444e-16 2.260039327122227e-21
3.2714166318528037 5.287376137244085e-24 4.591403881279968e-16 4.591379911410558e-16 2.3969869410528443e-21
3.2744851364798273 5.438623068574349e-24 4.727172134708024e-16 4.727148002194676e-16 2.4132513348452375e-21
3.2775565192852394 5.59421367218641e-24 4.866970040999846e-16 4.866945744907074e-16 2.429609277218012e-21
3.283707930232385 5.444540018202813e-24 4.745643924949081e-16 4.745619333832795e-16 2.459111628611672e-21
3.2898708863219004 4.969952867042377e-24 4.3401082045748285e-16 4.3400833426622484e-16 2.4861912580772635e-21
3.29141343181113 4.858034523194852e-24 4.244362481722168e-16 4.244337551746158e-16 2.4929976010197695e-21
3.292184975758714 4.803041980275173e-24 4.197300318123963e-16 4.1972753540614476e-16 2.4964062517831883e-21
3.295272960557952 4.455926365788434e-24 3.897614060438468e-16 3.8975889633530904e-16 2.5097085379172487e-21
3.3076538914384823 3.2534497096468217e-24 2.8564958030128703e-16 2.8564701703892033e-16 2.563262366784357e-21
3.310756385682612 3.0087233107228523e-24 2.6441062897739544e-16 2.6440805218994113e-16 2.576787454309007e-21
3.313861789986515 2.7829279496248988e-24 2.447968285802228e-16 2.4479423821275807e-16 2.5903674648032917e-21
3.3200813396944477 2.4662757735034322e-24 2.1735007461724078e-16 2.1734745514382156e-16 2.6194734191563147e-21
3.345076488085796 1.901411887056434e-24 1.6883080469723736e-16 1.6882805574933422e-16 2.748947903132205e-21
3.3482140837626964 1.922593407178415e-24 1.7087168441828366e-16 1.7086891793717819e-16 2.766481105473008e-21
3.3513546224236106 1.94400901233889e-24 1.7293706815542002e-16 1.7293428404809456e-16 2.784107325460986e-21
3.3576445397418455 2.1005141127887053e-24 1.8721030640321366e-16 1.8720748548127141e-16 2.820921942265119e-21
3.3702598118196083 2.677768171539243e-24 2.3955530339408676e-16 2.395524052130125e-16 2.8981810741568027e-21
3.382922481734668 2.809219579651481e-24 2.5225928821086436e-16 2.522563144737872e-16 2.9737370771215585e-21
3.389271646505754 2.8773193154617814e-24 2.5885935974269733e-16 2.5885634761376745e-16 3.012128929927795e-21
3.395632727569191 2.9506958218816953e-24 2.6595893518135753e-16 2.659558834801961e-16 3.0517011614012635e-21
3.421196662673239 3.302997382379248e-24 2.9995472139146126e-16 2.999515053300276e-16 3.2160614335665894e-21
3.4276182099114902 3.2319718810688277e-24 2.940555956773986e-16 2.9405234243155605e-16 3.2532458425789965e-21
3.4340518103208963 2.9207932666997704e-24 2.6624232366427975e-16 2.6623903500406257e-16 3.288660217195886e-21
3.4469541582030403 2.4776305404276727e-24 2.2669476250375194e-16 2.266914053669475e-16 3.357136804436509e-21
3.472904465399547 2.3534466084435444e-24 2.1695347954452307e-16 2.1694996530968772e-16 3.514234835318245e-21
3.4990501388274233 2.1635114825880485e-24 2.009457397771267e-16 2.0094206355794382e-16 3.676219182841124e-21
3.5253949054701885 1.4875511514440181e-24 1.3920316639078258e-16 1.3919933090163076e-16 3.835489151843523e-21
3.5519380250092896 8.522988799505845e-25 8.035755797167912e-17 8.035356082187057e-17 3.9971498085275684e-21
3.578680990867387 6.00473794685114e-25 5.704091435614425e-17 5.703673966968767e-17 4.1746864565751516e-21
3.605625307711299 4.9865909385733945e-25 4.772586076790073e-17 4.772149805586035e-17 4.3627120403898175e-21
3.660119384959845 4.244730414417644e-25 4.123963354840364e-17 4.123487125917347e-17 4.762289230162922e-21
3.715437065384467 3.7200037762643504e-25 3.6687888974735516e-17 3.668269868786301e-17 5.190286872500043e-21
3.8285932144167436 3.4561600523665724e-25 3.5123881598053673e-17 3.511774724259093e-17 6.134355462752647e-21
3.94519561050918 3.4085958014668647e-25 3.569550076917745e-17 3.568829915942846e-17 7.201609748990016e-21
4.06534921144712 3.450252641406844e-25 3.7232156144132577e-17 3.722375439241787e-17 8.401751714708768e-21
4.189162171576248 3.5439622838068338e-25 3.940811823820251e-17 3.939836944053907e-17 9.748797663427274e-21
4.316745939156006 3.6759652232262457e-25 4.2120868384675e-17 4.210961629123529e-17 1.1252093439709851e-20
4.448215356677963 3.841755262647834e-25 4.5361241570603294e-17 4.5348333263239595e-17 1.2908307363673712e-20
4.58368876423945 4.042080583777927e-25 4.918011291887571e-17 4.916537769120949e-17 1.4735227666226568e-20
4.723288106065518 4.2815860203398705e-25 5.368074615269813e-17 5.3663985252869434e-17 1.67608998287e-20
4.867139040275056 4.5693822698633045e-25 5.903379165650592e-17 5.901482802030513e-17 1.8963636200809897e-20
4.940699165968905 4.742603692846627e-25 6.219775067860622e-17 6.217760749974544e-17 2.0143178860807932e-20
5.015371051989984 4.922300801864214e-25 6.553007302228158e-17 6.550869743469037e-17 2.1375587591235337e-20
5.091171501069577 5.1406925201761e-25 6.94718378619085e-17 6.944915353348839e-17 2.268432842011897e-20
5.129500256944802 5.252912460814278e-25 7.15228237671128e-17 7.149946375428596e-17 2.336001282684383e-20
5.168117569889187 5.369904952598436e-25 7.36662252610982e-17 7.364217075784503e-17 2.4054503253202794e-20
5.20702561229733 5.51277198880482e-25 7.61954743611968e-17 7.617067236529557e-17 2.4801995901231698e-20
5.246226572918644 5.65935038900578e-25 7.881031426283793e-17 7.87847473243556e-17 2.5566938482346725e-20
5.265937586045735 5.734068679321941e-25 8.01508312456867e-17 8.012487520511705e-17 2.595604056962723e-20
5.285722656980489 5.809760241178272e-25 8.151396434292153e-17 8.14876147327163e-17 2.6349610205219496e-20
5.305582063971359 5.886440893329264e-25 8.29001386623073e-17 8.287339097927988e-17 2.674768302744555e-20
5.3255160863122235 5.968703640335702e-25 8.437448783707627e-17 8.434733550715075e-17 2.715232992553306e-20
5.365609099470188 6.172627010820284e-25 8.791409258404069e-17 8.788610120466389e-17 2.799137937680292e-20
5.406003951863644 6.384325686547075e-25 9.161378486990372e-17 9.158493458181009e-17 2.8850288093641415e-20
5.446702915881641 6.60417313529015e-25 9.548201402333472e-17 9.545228462266484e-17 2.972940066983008e-20
5.487708281020852 6.841529698866712e-25 9.965834402420828e-17 9.962771244352213e-17 3.063158068610754e-20
5.529022354014368 7.169654065264427e-25 1.052242842715115e-16 1.0519270727053817e-16 3.157700097333694e-20
5.570647458961463 7.517009766592713e-25 1.1115275266933754e-16 1.1112020742173093e-16 3.254524760658683e-20
5.612585937458331 7.884972927118944e-25 1.1747153490603908e-16 1.1743799815542778e-16 3.353675061132438e-20
5.654840148729818 8.289103308490298e-25 1.2442204014617125e-16 1.2438748490495007e-16 3.4555241221167945e-20
5.67608639626678 8.56337169036425e-25 1.2902183822482607e-16 1.289867502878617e-16 3.508793696435712e-20
5.686739436050992 8.70471522083033e-25 1.3139756891613233e-16 1.3136221216702753e-16 3.535674910485197e-20
5.6974124697621304 8.848954178528201e-25 1.338255512751998e-16 1.337899240600488e-16 3.562721515096237e-20
5.718818669136295 9.146396253344895e-25 1.3884357000184682e-16 1.3880739685941488e-16 3.6173142431977116e-20
5.740305295436557 9.474012231242855e-25 1.443571717930066e-16 1.4432044302299914e-16 3.6728770007441504e-20
5.7835210386641895 1.0322259151272447e-24 1.5846615160684756e-16 1.584282674974582e-16 3.788410938935466e-20
5.827062130521658 1.129861700327595e-24 1.7476093883201248e-16 1.7472186266038062e-16 3.9076171631826876e-20
5.8489554468988025 1.1982379280653428e-24 1.8603335079776416e-16 1.8599363558977497e-16 3.971520798916865e-20
5.870931020387893 1.2715884680212819e-24 1.9816319301396555e-16 1.9812283003120262e-16 4.0362982763004246e-20
5.892989160043636 1.3503130506888848e-24 2.1122218961502654e-16 2.1118117001421172e-16 4.101960081485609e-20
5.915130176081913 1.4398027264359744e-24 2.2606677112036223e-16 2.2602507146644923e-16 4.169965391306669e-20
5.95966208400165 1.6897663851785226e-24 2.673115567481639e-16 2.6726834195457314e-16 4.3214793590691865e-20
6.004529249263818 2.049745669383752e-24 3.266994288904106e-16 3.266545240536003e-16 4.490483681021877e-20
6.027089341400364 2.299847920795326e-24 3.679393028635034e-16 3.678934388974271e-16 4.5863966076434143e-20
6.049734195844842 2.5953166946732737e-24 4.167696518110213e-16 4.167227741022623e-16 4.687770875910967e-20
6.095279466722835 3.448501848675087e-24 5.579477349734955e-16 5.578984287360738e-16 4.930623742170163e-20
6.141167624020661 4.7610793987392e-24 7.76114520497591e-16 7.760621396162928e-16 5.238088129822557e-20
6.164241091010745 5.599271663022735e-24 9.16179538295617e-16 9.161252665588994e-16 5.42717367177985e-20
6.187401249150058 6.5539221924449186e-24 1.0764131505037761e-15 1.0763569236736848e-15 5.622683009152418e-20
6.1990139391386085 7.020095037923924e-24 1.15514110330769e-15 1.1550838786921401e-15 5.722461555024717e-20
6.204828454712694 7.265640694569008e-24 1.1966664882664153e-15 1.1966087582602146e-15 5.773000620050678e-20
6.210648424152782 7.444943100389954e-24 1.2273481183253933e-15 1.2272899477393898e-15 5.817058600351966e-20
6.233982942956859 8.054210370017575e-24 1.3327786023985815e-15 1.3327188520687253e-15 5.975032985591696e-20
6.239830258556775 8.132168607246444e-24 1.34694103261566e-15 1.3468810308866159e-15 6.00017290439505e-20
6.245683058788269 8.13907095060292e-24 1.3493487445526427e-15 1.3492884904866802e-15 6.025406596238219e-20
6.257405133728602 8.122662979136964e-24 1.3491559136336031e-15 1.349095198738849e-15 6.071489475465735e-20
6.269149208991335 8.003273212417911e-24 1.3318204597852925e-15 1.3317594841313735e-15 6.097565391881573e-20
6.280915325867298 7.703392591834246e-24 1.2843234234755625e-15 1.2842624360188563e-15 6.09874567064451e-20
6.304513850009849 6.96369550163861e-24 1.165361882719507e-15 1.165301098077766e-15 6.078464174052295e-20
6.32820103803542 6.046706913491733e-24 1.0157074065805782e-15 1.0156470658439271e-15 6.034073665122444e-20
6.3519772230701035 5.205798155856052e-24 8.777395960002444e-16 8.77679622357571e-16 5.99736426733487e-20
6.375842739491607 4.498350526727635e-24 7.613078778285006e-16 7.612481934698583e-16 5.968435864219727e-20
6.399797922933955 3.931574190639297e-24 6.678857378878645e-16 6.678260487966286e-16 5.968909123604095e-20
6.42384311029221 3.4603839886653076e-24 5.900497796498352e-16 5.899900263575876e-16 5.97532922474904e-20
6.447978639727206 3.1172372483629447e-24 5.335349578776581e-16 5.334749065909578e-16 6.00512867003196e-20
6.472204850670314 2.831454544486251e-24 4.864422421673815e-16 4.863818433565852e-16 6.03988107962961e-20
6.496522083828205 2.6459896249606254e-24 4.56287413512886e-16 4.562264736519749e-16 6.093986091110879e-20
6.520930681187647 2.4898534977883394e-24 4.3097572680564107e-16 4.3091421123233796e-16 6.151557330293907e-20
6.57002334288761 2.330872405943221e-24 4.0649466127693405e-16 4.0643170987547453e-16 6.295140145949218e-20
