Dust emission spectrum from A.P. Jones, M. Kohler, N. Ysard, M. Bocchio, and L. Verstraete (2017), A&A, 602A, 46J 
inside the DustPedia framework.

lambda    nu*dP/dnu     j_nu    j_nu(carb.) j_nu(sil)
 (um)   (erg s-1 H-1) (Jy cm2 sr-1 H-1)
0.9927057738263894 6.902607609224256e-24 1.8188763110591132e-16 1.8188762755763385e-16 3.5482775121101655e-24
1.0001793341362166 7.017566948129593e-24 1.8630901699788024e-16 1.8630901272556015e-16 4.272320118258866e-24
1.0077091589558085 7.132557748878739e-24 1.9078750802610137e-16 1.9078750288873115e-16 5.137370261461137e-24
1.0114953028030835 7.190053465531745e-24 1.9304805181349977e-16 1.9304804618275916e-16 5.630740621913988e-24
1.0152956718711033 7.247543325425424e-24 1.9532273106420572e-16 1.953227248947423e-16 6.16946342735024e-24
1.0229392996569957 7.362431266232801e-24 1.9991277617263473e-16 1.9991276877337902e-16 7.399255736032286e-24
1.0267826658714554 7.419692990962094e-24 2.0222455897435776e-16 2.022245508748351e-16 8.099522641470359e-24
1.0306404723013447 7.476928049136081e-24 2.0455016176198321e-16 2.045501528988379e-16 8.86314531766007e-24
1.03451277320114 7.534132060299864e-24 2.0688953272021085e-16 2.0688952302464068e-16 9.695570211037396e-24
1.0383996230291617 7.59130068069932e-24 2.092426195467042e-16 2.092426089440187e-16 1.0602685544393354e-23
1.0403485208654093 7.619870372264728e-24 2.1042428994172787e-16 2.1042427885550666e-16 1.1086221195842172e-23
1.0423010764483396 7.648429604458667e-24 2.1160936948801132e-16 2.1160935789715648e-16 1.1590854838817874e-23
1.0462171883269815 7.705514564742564e-24 2.1398972937588256e-16 2.1398971670892977e-16 1.2666952788687914e-23
1.0471985131304309 7.719778439310896e-24 2.145869396348187e-16 2.1458692668424516e-16 1.2950573507651077e-23
1.048180758391296 7.734039236152751e-24 2.1518499633030643e-16 2.151849830900339e-16 1.3240272516174258e-23
1.0501480137395462 7.762551334902524e-24 2.163836456639789e-16 2.163836318255753e-16 1.3838403640113443e-23
1.0521189612883777 7.791050339125531e-24 2.1758567063061757e-16 2.1758565616825083e-16 1.4462366791491714e-23
1.0531058218030118 7.805273855450569e-24 2.1818736226480882e-16 2.181873474804225e-16 1.478438634178479e-23
1.0540936079674168 7.819425386396788e-24 2.1878797705551277e-16 2.187879619421762e-16 1.511333660759622e-23
1.058054026499678 7.87599271322384e-24 2.211987064787723e-16 2.2119868997818303e-16 1.6500589350984334e-23
1.0590464539527713 7.890124527644713e-24 2.2180345206268773e-16 2.2180343519669287e-16 1.6865994828466832e-23
1.06003981227728 7.90425220855056e-24 2.2240902120010753e-16 2.2240900396096875e-16 1.7239138769899055e-23
1.0620293250338977 7.932494918043566e-24 2.236226266538418e-16 2.236226086445735e-16 1.8009268260877792e-23
1.0660195594769086 7.988927975468655e-24 2.2605968186751867e-16 2.2605966221807263e-16 1.964944604997372e-23
1.070024785945596 8.04528790668277e-24 2.285098162426608e-16 2.2850979481067938e-16 2.1431981535246598e-23
1.0740450607676866 8.101570780477982e-24 2.3097297377730616e-16 2.309729504087293e-16 2.3368576828381324e-23
1.07808044048254 8.157772714275734e-24 2.334490983841493e-16 2.3344907291231087e-16 2.5471838357449335e-23
1.0861967418109137 8.269823512334339e-24 2.38437286129362e-16 2.3843725589565604e-16 3.0233705966696227e-23
1.0902777775684922 8.325448899531861e-24 2.4094296633665384e-16 2.4094293341399016e-16 3.292266365375033e-23
1.0943741465085532 8.380974537459885e-24 2.4346121160418153e-16 2.4346117576505516e-16 3.583912634897434e-23
1.1026131145906286 8.491712218309512e-24 2.4853517019112086e-16 2.4853512776241086e-16 4.242870998093268e-23
1.1109141095355224 8.602008417156195e-24 2.536587096788499e-16 2.536586595138819e-16 5.0164968014593485e-23
1.1192775983109025 8.711738860385291e-24 2.5882849880497585e-16 2.5882843956953526e-16 5.923544057060594e-23
1.1277040513999907 8.820431341014062e-24 2.640306819739469e-16 2.640306121176923e-16 6.985625460716827e-23
1.1361939428280308 8.928589394827842e-24 2.6928040632523794e-16 2.6928032404911224e-16 8.22761257893333e-23
1.1447477501889525 9.036188902887886e-24 2.745772386036829e-16 2.7457714182278016e-16 9.678090277228216e-23
1.1533659546722406 9.143258556178032e-24 2.7992234117182427e-16 2.7992222747299563e-16 1.1369882863092061e-22
1.1707974979042381 9.356146116719099e-24 2.907690746418463e-16 2.907689183069904e-16 1.563348559377783e-22
1.1884924949847024 9.566621949656916e-24 3.0180365060208884e-16 3.0180343671326903e-16 2.138888198692428e-22
1.2064549276569216 9.776252954301798e-24 3.130782984346923e-16 3.1307800724001167e-16 2.9119468060982913e-22
1.2246888378427687 9.983080558864811e-24 3.2453367543962064e-16 3.2453328093036167e-16 3.945092589679642e-22
1.2431983285522175 1.018673676299751e-23 3.3615914792705003e-16 3.361586160242038e-16 5.319028462322656e-22
1.2619875648066055 1.0387284600454002e-23 3.479577705713432e-16 3.479570568396756e-16 7.137316675371493e-22
1.3004222497298317 1.0776531133844454e-23 3.7199132537498007e-16 3.7199005827129958e-16 1.2671036804478574e-21
1.3400274889804893 1.1150404985829663e-23 3.966192435372764e-16 3.9661703506510545e-16 2.2084721710971812e-21
1.3808389325824078 1.1508755506450856e-23 4.2183326111590286e-16 4.218294803807519e-16 3.7807351510526055e-21
1.4228933163050095 1.1854040913851571e-23 4.477217517362625e-16 4.477153914175285e-16 6.360318733997949e-21
1.466228494730424 1.2193744071707313e-23 4.745786143700306e-16 4.745680943596562e-16 1.0520010374439177e-20
1.5108834753276823 1.2524511983849813e-23 5.022977317396694e-16 5.022806166592786e-16 1.7115080390786757e-20
1.5568984535646726 1.2843929041128472e-23 5.307959712102248e-16 5.307685541021654e-16 2.741710805955529e-20
1.6043148490894465 1.3153880325661566e-23 5.601610694846787e-16 5.60117743620777e-16 4.3325863901766416e-20
1.6531753430134553 1.3456578874080516e-23 5.905042307725824e-16 5.904367702445775e-16 6.746052800483895e-20
1.7035239163302658 1.3755462747433102e-23 6.220035641708506e-16 6.21900042314348e-16 1.035218565026082e-19
1.755405889504358 1.406242507234308e-23 6.552502655247509e-16 6.550936224732823e-16 1.5664305146879903e-19
1.8088679632656115 1.4377092275524756e-23 6.90315079323959e-16 6.900812814936291e-16 2.33797830330078e-19
1.8639582606462262 1.4699795771386683e-23 7.273055758670482e-16 7.269612321339889e-16 3.443437330592182e-19
1.9207263702978936 1.5033953492937148e-23 7.664928966924439e-16 7.659922521269172e-16 5.006445655268983e-19
1.979223391128241 1.5384756657581177e-23 8.082670588330702e-16 8.075482398503401e-16 7.188189827301651e-19
2.039501978296691 1.5757944572357002e-23 8.530866240598662e-16 8.520670549557086e-16 1.0195691041578448e-18
2.1016163906111602 1.6165844133240247e-23 9.01822916406502e-16 9.003936944356088e-16 1.429221970892947e-18
2.1656225393682647 1.6616811516359373e-23 9.552122636904217e-16 9.53231569047587e-16 1.980694642834427e-18
2.231578038680979 1.7113711162222844e-23 1.0137379612225306e-15 1.0110233675591563e-15 2.714593663374516e-18
2.299542257339062 1.7662804924212904e-23 1.0781284344533016e-15 1.0744480438908293e-15 3.6803905624720645e-18
2.369576372248914 1.8274218847344047e-23 1.149420571019868e-15 1.144482871506451e-15 4.937699513416676e-18
2.4417434235010123 1.8959495638685424e-23 1.228842546894067e-15 1.2222852135724855e-15 6.557333321581823e-18
2.5161083711144245 1.973634772507233e-23 1.3181522153066355e-15 1.3095295541085855e-15 8.622661198049479e-18
2.5927381535095444 2.0631315059616676e-23 1.419890988346823e-15 1.408660398417796e-15 1.1230589929026712e-17
2.6717017477616296 2.1673643233515913e-23 1.537054716283736e-15 1.5225629299583814e-15 1.4491786325354765e-17
2.753070231689431 2.2904843726093222e-23 1.6738404415710667e-15 1.655309191868045e-15 1.8531249703022163e-17
2.836916847834745 2.441596196000746e-23 1.8386111062832297e-15 1.815121794723234e-15 2.3489311559995205e-17
2.9233170693905177 2.6401177476343797e-23 2.048654170125233e-15 2.0191381177972947e-15 2.9516052327938324e-17
2.967498994190263 2.775593019794647e-23 2.1863304332577815e-15 2.1534081665860573e-15 3.292226667172409e-17
3.0123486681368425 2.926752769536911e-23 2.340241677465911e-15 2.303568925441653e-15 3.667275202425793e-17
3.0578761833420214 3.199626412760945e-23 2.5970995838556587e-15 2.556291656894527e-15 4.0807926961131335e-17
3.1040917844459814 3.534691782438748e-23 2.9124302797922427e-15 2.8671088257705356e-15 4.5321454021707195e-17
3.127460860933648 3.857543168492418e-23 3.202374443395105e-15 3.1546309658108204e-15 4.774347758428431e-17
3.1510058709225794 4.2767360647659434e-23 3.577100107669281e-15 3.5268280777571423e-15 5.0272029912138096e-17
3.162844764501044 4.655644321302497e-23 3.908652885323196e-15 3.85707080908162e-15 5.158207624157648e-17
3.1747281389236908 5.0917788858671465e-23 4.290871514320103e-15 4.237951692370619e-15 5.291982194948264e-17
3.1986289994194426 6.291720952022437e-23 5.341986130201883e-15 5.286299288946643e-15 5.568684125524053e-17
3.2227097969389145 9.079521018025075e-23 7.767004748682499e-15 7.708381764278058e-15 5.862298440444086e-17
3.2348180950136065 1.1706836125030087e-22 1.0052147114105048e-14 9.991956182279552e-15 6.019093182549656e-17
3.240889293275058 1.366807647763715e-22 1.1758205043017858e-14 1.169718703899834e-14 6.101800401951562e-17
3.2469718861334385 1.5937262323465953e-22 1.3736044288742596e-14 1.3674170483497734e-14 6.187380524486724e-17
3.2714166318528037 2.7986698977026047e-22 2.4302836600217377e-14 2.4237422807123836e-14 6.541379309354206e-17
3.2744851364798273 2.874202116881497e-22 2.4982147108059495e-14 2.491631517702126e-14 6.583193103822419e-17
3.2775565192852394 2.9518615577041512e-22 2.568121742999186e-14 2.5614965181304353e-14 6.625224868751427e-17
3.283707930232385 2.8783407955838463e-22 2.508858501329278e-14 2.502157916134103e-14 6.700585195174095e-17
3.2898708863219004 2.6433419504093442e-22 2.3083498764236072e-14 2.3015805301724924e-14 6.769346251115247e-17
3.29141343181113 2.587899130070856e-22 2.2609929842430683e-14 2.2542063670007204e-14 6.7866172423474e-17
3.292184975758714 2.560652886895842e-22 2.2377129371159915e-14 2.230917672249381e-14 6.795264866610037e-17
3.295272960557952 2.388984921701535e-22 2.089653296896849e-14 2.0828243606818565e-14 6.828936214992351e-17
3.3076538914384823 1.7932401094361009e-22 1.574446603926336e-14 1.567482335239182e-14 6.964268687154134e-17
3.310756385682612 1.671714279989709e-22 1.4691248698983112e-14 1.4621264704877064e-14 6.998399410604922e-17
3.313861789986515 1.5594810083012143e-22 1.3717782564750952e-14 1.3647456069706632e-14 7.0326495044317e-17
3.3200813396944477 1.4024565311469108e-22 1.2359689657057462e-14 1.228862730149476e-14 7.10623555627053e-17
3.345076488085796 1.125403371008959e-22 9.992719516998941e-15 9.918379973508757e-15 7.433954349018175e-17
3.3482140837626964 1.13648744386607e-22 1.0100602817452813e-14 1.0025819408832794e-14 7.478340862002094e-17
3.3513546224236106 1.1476865096942658e-22 1.020970267567122e-14 1.0134473300971769e-14 7.522937469945394e-17
3.3576445397418455 1.2267650577512912e-22 1.0933659571630673e-14 1.085749810224553e-14 7.616146938514436e-17
3.3702598118196083 1.515918220536082e-22 1.3561526837941328e-14 1.3483410053759821e-14 7.811678418150763e-17
3.382922481734668 1.583820102564303e-22 1.4222217964766443e-14 1.4142197013112049e-14 8.002095165439348e-17
3.389271646505754 1.6189404384068884e-22 1.456487234821593e-14 1.4483885522533815e-14 8.098682568211489e-17
3.395632727569191 1.65695090492185e-22 1.4934812834749412e-14 1.485283059129535e-14 8.19822434540585e-17
3.421196662673239 1.8394798588147377e-22 1.6704847285059892e-14 1.6618740397793457e-14 8.610688726643447e-17
3.4276182099114902 1.8051928640986197e-22 1.6424247564603253e-14 1.6337216221701203e-14 8.703134290205043e-17
3.4340518103208963 1.6507985217442869e-22 1.504770773548673e-14 1.495980008971283e-14 8.790764577390282e-17
3.4469541582030403 1.430870761269374e-22 1.3091980507454219e-14 1.3002386977324555e-14 8.959353012966175e-17
3.472904465399547 1.372150814553521e-22 1.264923081786494e-14 1.2555759365918884e-14 9.347145194605374e-17
3.4990501388274233 1.280928476883248e-22 1.1897192247900034e-14 1.1799743403421979e-14 9.74488444780606e-17
3.5253949054701885 9.481600114324127e-23 8.872762170792457e-15 8.77143490784837e-15 1.0132726294408864e-16
3.5519380250092896 6.343518001587042e-23 5.980878627770525e-15 5.875641491930559e-15 1.0523713583996575e-16
3.578680990867387 5.124250701622101e-23 4.867688615186196e-15 4.7581642010565285e-15 1.0952441412967032e-16
3.605625307711299 4.6575525327910213e-23 4.457668704679454e-15 4.343621738770181e-15 1.1404696590927377e-16
3.660119384959845 4.3737068859402826e-23 4.249270309644688e-15 4.1256896944946055e-15 1.23580615150082e-16
3.715437065384467 4.197797378921063e-23 4.140004511795088e-15 4.0063265981652574e-15 1.3367791362983005e-16
3.8285932144167436 4.247196082142557e-23 4.316293518025717e-15 4.160749091153664e-15 1.5554442687205328e-16
3.94519561050918 4.4125358404247537e-23 4.620896276939687e-15 4.441256715132841e-15 1.796395618068474e-16
4.06534921144712 4.629965824489743e-23 4.996260518740159e-15 4.7902618257220526e-15 2.0599869301810637e-16
4.189162171576248 4.880576160525701e-23 5.427098456531787e-15 5.192364001583485e-15 2.347344549483021e-16
4.316745939156006 5.156796705972794e-23 5.9088903770468846e-15 5.643075726141764e-15 2.658146509051229e-16
4.448215356677963 5.455389467892609e-23 6.441410829076179e-15 6.142514718877776e-15 2.9889611019840127e-16
4.58368876423945 5.776059605824694e-23 7.02774864956086e-15 6.6936595385300296e-15 3.3408911103083204e-16
4.723288106065518 6.12051775751307e-23 7.673650803775278e-15 7.301969697853279e-15 3.7168110592199904e-16
4.867139040275056 6.491724860788724e-23 8.386935263672437e-15 7.97611003885136e-15 4.108252248210784e-16
4.940699165968905 6.69300198218984e-23 8.77766087028439e-15 8.346547331715069e-15 4.311135385693213e-16
5.015371051989984 6.897481394001518e-23 9.182544456599761e-15 8.730711703262128e-15 4.518327533376345e-16
5.091171501069577 7.122345683225806e-23 9.625209882900705e-15 9.151803039010618e-15 4.734068438900837e-16
5.129500256944802 7.236080839975439e-23 9.85253301940459e-15 9.368188410749096e-15 4.843446086554952e-16
5.168117569889187 7.35219367721787e-23 1.0085995196750651e-14 9.590518648345708e-15 4.954765484049455e-16
5.20702561229733 7.482398237292276e-23 1.0341891233805085e-14 9.834330495218033e-15 5.075607385870509e-16
5.246226572918644 7.614193620139714e-23 1.0603283960418051e-14 1.0083502878561896e-14 5.197810818561554e-16
5.265937586045735 7.680697636605275e-23 1.0736081734435925e-14 1.0210140322848065e-14 5.2594141158786e-16
5.285722656980489 7.747611353952301e-23 1.0870302550054975e-14 1.0338167862122566e-14 5.321346879324119e-16
5.305582063971359 7.814939063814799e-23 1.1005963429649106e-14 1.0467602895490722e-14 5.383605341583849e-16
5.3255160863122235 7.885159691728451e-23 1.114657973646229e-14 1.0601917463138641e-14 5.44662273323654e-16
5.365609099470188 8.046362177881814e-23 1.1460090302411125e-14 1.0902388949273789e-14 5.577013531373358e-16
5.406003951863644 8.210934972174593e-23 1.1782525940157888e-14 1.1211639978032811e-14 5.708859621250764e-16
5.446702915881641 8.379021852318921e-23 1.2114247546446152e-14 1.1530034316823624e-14 5.842132296225266e-16
5.487708281020852 8.55559249197246e-23 1.2462654076283004e-14 1.1864922974876334e-14 5.977311014066706e-16
5.529022354014368 8.77957470388496e-23 1.2885202772896833e-14 1.2273368386736459e-14 6.118343861603739e-16
5.570647458961463 9.012126558559709e-23 1.332607919229049e-14 1.269998383858599e-14 6.260953537044952e-16
5.612585937458331 9.253843335308407e-23 1.3786517600332408e-14 1.3146006396918819e-14 6.405112034135903e-16
5.654840148729818 9.512849919153129e-23 1.427908605425433e-14 1.362394323884367e-14 6.551428154106602e-16
5.67608639626678 9.679767658541483e-23 1.458422525673552e-14 1.3921432471423307e-14 6.627927853122162e-16
5.686739436050992 9.765139822640921e-23 1.474046652038244e-14 1.4073832223933915e-14 6.666342964485224e-16
5.6974124697621304 9.851827457938537e-23 1.4899232316355624e-14 1.4228745545698496e-14 6.70486770657122e-16
5.718818669136295 1.0029273611257869e-22 1.522457713553697e-14 1.454635269262901e-14 6.782244429079636e-16
5.740305295436557 1.0221790854101047e-22 1.5575120469989863e-14 1.4889061904129837e-14 6.860585658600231e-16
5.7835210386641895 1.0705199268822077e-22 1.6434500485347268e-14 1.573222869795754e-14 7.022717873897273e-16
5.827062130521658 1.124991646457794e-22 1.7400766505859212e-14 1.668195960678371e-14 7.188068990755038e-16
5.8489554468988025 1.1622702977280853e-22 1.80449168695718e-14 1.731720393328687e-14 7.27712936284934e-16
5.870931020387893 1.2018642666175984e-22 1.8729743673512564e-14 1.7993062844616602e-14 7.366808288959594e-16
5.892989160043636 1.2439567970600957e-22 1.9458545433407584e-14 1.8712835053014196e-14 7.457103803933869e-16
5.915130176081913 1.2913709031055247e-22 2.0276114569285343e-14 1.9521050045469332e-14 7.550645238160039e-16
5.95966208400165 1.422046635624574e-22 2.2495979519508164e-14 2.1719734542534463e-14 7.762449769737007e-16
6.004529249263818 1.6074695915870405e-22 2.5620710187331428e-14 2.482069921801854e-14 8.000109693128826e-16
6.027089341400364 1.7352944414651925e-22 2.7761967271071435e-14 2.694829179317339e-14 8.136754778980431e-16
6.049734195844842 1.8852793985873487e-22 3.0274811552994566e-14 2.944667381981839e-14 8.281377331761852e-16
6.095279466722835 2.315936551787148e-22 3.7470519376651015e-14 3.660706705465672e-14 8.634523219943053e-16
6.141167624020661 2.9735561097591415e-22 4.847262313897855e-14 4.7563625023544524e-14 9.089981154340288e-16
6.164241091010745 3.3929442567546547e-22 5.551697237954899e-14 5.457952844323464e-14 9.374439363143586e-16
6.187401249150058 3.867788702383873e-22 6.352438281026979e-14 6.25576881826053e-14 9.666946276645015e-16
6.1990139391386085 4.0994930708639724e-22 6.745625128004654e-14 6.647466444115874e-14 9.81586838887825e-16
6.204828454712694 4.2212927236643743e-22 6.952558971637486e-14 6.853647662656528e-14 9.89113089809592e-16
6.210648424152782 4.310297217558062e-22 7.105810088885666e-14 7.00625424134507e-14 9.955584754059599e-16
6.233982942956859 4.612051623564843e-22 7.631839043994882e-14 7.530021903083689e-14 1.0181714091119401e-15
6.239830258556775 4.650366811292218e-22 7.702459426704445e-14 7.600317914758711e-14 1.0214151194573578e-15
6.245683058788269 4.653488242411603e-22 7.714859049389948e-14 7.61239248690602e-14 1.0246656248393001e-15
6.257405133728602 4.64472297341666e-22 7.714779602293379e-14 7.611737854898408e-14 1.0304174739497038e-15
6.269149208991335 4.584900066067957e-22 7.629707935730272e-14 7.52642479269649e-14 1.032831430337803e-15
6.280915325867298 4.435670114893354e-22 7.395228737799026e-14 7.292117472757778e-14 1.0311126504124826e-15
6.304513850009849 4.0680454067979373e-22 6.80780061842014e-14 6.705407671736038e-14 1.0239294668409952e-15
6.32820103803542 3.6139502400033153e-22 6.070603517419918e-14 5.96932744064547e-14 1.012760767744471e-15
6.3519772230701035 3.1982911187458904e-22 5.392577027407921e-14 5.292291448128583e-14 1.0028557927933733e-15
6.375842739491607 2.848122575905852e-22 4.820207187445826e-14 4.720783028330029e-14 9.942415911579672e-16
6.399797922933955 2.5694683451892576e-22 4.364946910558459e-14 4.265909193201004e-14 9.903771735745588e-16
6.42384311029221 2.337523368642803e-22 3.985844210098815e-14 3.887098501311645e-14 9.87457087871709e-16
6.447978639727206 2.169765334445765e-22 3.713691208219318e-14 3.614865697858005e-14 9.88255103613131e-16
6.472204850670314 2.0300888618243388e-22 3.4876808447018103e-14 3.388701118225009e-14 9.897972647680092e-16
6.496522083828205 1.9405081936549493e-22 3.3463073937659723e-14 3.246870889380018e-14 9.94365043859542e-16
