Dust emission spectrum from A.P. Jones, M. Kohler, N. Ysard, M. Bocchio, and L. Verstraete (2017), A&A, 602A, 46J 
inside the DustPedia framework.

lambda    nu*dP/dnu     j_nu    j_nu(carb.) j_nu(sil)
 (um)   (erg s-1 H-1) (Jy cm2 sr-1 H-1)
0.9927057738263894 4.8963590509837185e-20 1.290218420698413e-12 1.2902182298990904e-12 1.9079932300899493e-19
1.0001793341362166 4.978394627086455e-20 1.321711379536208e-12 1.321711150002965e-12 2.295332429481391e-19
1.0077091589558085 5.060791732473063e-20 1.3537021041707202e-12 1.3537018284114405e-12 2.757592794137426e-19
1.0114953028030835 5.102122801109423e-20 1.3698853166936323e-12 1.3698850145919726e-12 3.021016596841792e-19
1.0152956718711033 5.1435406554800956e-20 1.3861944152078253e-12 1.3861940843588264e-12 3.3084899854380857e-19
1.0229392996569957 5.226591747338372e-20 1.4191812844808123e-12 1.4191808880656897e-12 3.964151229257181e-19
1.0267826658714554 5.268130970176532e-20 1.4358349642779001e-12 1.435834530560356e-12 4.337175436386691e-19
1.0306404723013447 5.309750635211384e-20 1.452615759053313e-12 1.4526152846827905e-12 4.743705225301003e-19
1.03451277320114 5.3514497811435864e-20 1.469524207613114e-12 1.4695236889535533e-12 5.186595603565935e-19
1.0383996230291617 5.393227490366875e-20 1.4865608613881232e-12 1.4865602944950533e-12 5.668930699696953e-19
1.0403485208654093 5.414145531672358e-20 1.495127441130903e-12 1.495126848538837e-12 5.925920656938188e-19
1.0423010764483396 5.435082890041773e-20 1.5037262849439788e-12 1.5037256655398863e-12 6.19404092551625e-19
1.0462171883269815 5.477015153165107e-20 1.5210210564991202e-12 1.5210203799469881e-12 6.765521324126961e-19
1.0471985131304309 5.487510136395862e-20 1.5253650291151983e-12 1.5253643375067153e-12 6.916084827799358e-19
1.048180758391296 5.498009862877002e-20 1.5297171323321298e-12 1.5297164253470352e-12 7.06985094759641e-19
1.0501480137395462 5.519023499634964e-20 1.5384457684506652e-12 1.5384450297255475e-12 7.387251177760377e-19
1.0521189612883777 5.540055973428461e-20 1.5472070412073467e-12 1.5472062693818694e-12 7.718254773480418e-19
1.0531058218030118 5.550565475103503e-20 1.551596090693526e-12 1.551595301789378e-12 7.889041477847143e-19
1.0540936079674168 5.561034536916792e-20 1.5559806974876935e-12 1.5559798911399557e-12 8.063477375319964e-19
1.058054026499678 5.602955547078385e-20 1.5736003886734132e-12 1.5735995087919573e-12 8.798814557733689e-19
1.0590464539527713 5.613446941888156e-20 1.5780256766786425e-12 1.5780247774358984e-12 8.992427441061605e-19
1.06003981227728 5.623942774923339e-20 1.5824591306727606e-12 1.5824582116618723e-12 9.190108886376507e-19
1.0620293250338977 5.644947719921828e-20 1.591350576955518e-12 1.591349617155155e-12 9.598003630628506e-19
1.0660195594769086 5.687010486843386e-20 1.6092319086875244e-12 1.6092308620584573e-12 1.046629066689131e-18
1.070024785945596 5.729143331837695e-20 1.627245047251382e-12 1.6272439063187348e-12 1.1409326464008882e-18
1.0740450607676866 5.771345792521004e-20 1.6453906736306674e-12 1.6453894303111096e-12 1.2433195579484052e-18
1.07808044048254 5.813617461146854e-20 1.6636694869913078e-12 1.66366813254658e-12 1.35444472778387e-18
1.0861967418109137 5.898303071718892e-20 1.7006111135159547e-12 1.7006095077338854e-12 1.6057820690930639e-18
1.0902777775684922 5.940570991975747e-20 1.7192331774693839e-12 1.7192314299017434e-12 1.747567641023714e-18
1.0943741465085532 5.982904576191192e-20 1.7379902426874325e-12 1.737988341442226e-12 1.90124520640497e-18
1.1026131145906286 6.06776836744349e-20 1.7759125664094665e-12 1.7759103182985157e-12 2.248110951022541e-18
1.1109141095355224 6.15289432264761e-20 1.8143846866742428e-12 1.8143820318993612e-12 2.654774881674277e-18
1.1192775983109025 6.238217535891225e-20 1.8533940306403894e-12 1.8533908997317174e-12 3.1309086723284032e-18
1.1277040513999907 6.323437571263028e-20 1.892857015503176e-12 1.892853327864862e-12 3.687638314346025e-18
1.1361939428280308 6.408915843635827e-20 1.932887028580606e-12 1.932882690835051e-12 4.3377455553337705e-18
1.1447477501889525 6.494656515230341e-20 1.9734922219935474e-12 1.973487126099754e-12 5.095893794116537e-18
1.1533659546722406 6.580694087099672e-20 2.014690150211096e-12 2.0146841713202907e-12 5.978890805040445e-18
1.1707974979042381 6.753925724654027e-20 2.0989761261296615e-12 2.098967926966959e-12 8.199162701460219e-18
1.1884924949847024 6.92842401909223e-20 2.185749236130546e-12 2.185738048776897e-12 1.1187353648894325e-17
1.2064549276569216 7.105369659387284e-20 2.275449554250341e-12 2.2754343653570958e-12 1.518889324528225e-17
1.2246888378427687 7.283693624007267e-20 2.367810064876407e-12 2.367789544629975e-12 2.0520246432404388e-17
1.2431983285522175 7.463291134558783e-20 2.462862884253565e-12 2.4628352962359103e-12 2.7588017653932627e-17
1.2619875648066055 7.644470988399607e-20 2.560778090363077e-12 2.5607411783878863e-12 3.691197519066233e-17
1.3004222497298317 8.010706869612467e-20 2.765188007724463e-12 2.7651228629751243e-12 6.514474933881489e-17
1.3400274889804893 8.383919186033054e-20 2.982155078374196e-12 2.9820422216126447e-12 1.128567615500631e-16
1.3808389325824078 8.76596228581693e-20 3.2130098304482216e-12 3.2128178232360737e-12 1.9200721214753576e-16
1.4228933163050095 9.160512621564713e-20 3.4598840914549342e-12 3.4595631204657877e-12 3.2097098914637163e-16
1.466228494730424 9.574767405234346e-20 3.726484516461745e-12 3.725957055227356e-12 5.274612343881135e-16
1.5108834753276823 1.0008919865098194e-19 4.014094722321939e-12 4.0132422427736905e-12 8.524795482485389e-16
1.5568984535646726 1.0463786174314505e-19 4.3243274913354735e-12 4.322971029873996e-12 1.3564614614780028e-15
1.6043148490894465 1.0943184493559075e-19 4.660180705401016e-12 4.658051687196953e-12 2.1290182040629515e-15
1.6531753430134553 1.1451377424112408e-19 5.0251158785513125e-12 5.021823738440123e-12 3.292140111188756e-15
1.7035239163302658 1.1993400268727236e-19 5.423254637557048e-12 5.418238091070224e-12 5.016546486824837e-15
1.755405889504358 1.2580382037212266e-19 5.861932510131873e-12 5.854395911738095e-12 7.536598393777655e-15
1.8088679632656115 1.3215255562899218e-19 6.345295708868358e-12 6.334128555928016e-12 1.1167152940340969e-14
1.8639582606462262 1.3901231216463303e-19 6.877947920086701e-12 6.8616220068148676e-12 1.6325913271833326e-14
1.9207263702978936 1.4643991498405095e-19 7.46611027367169e-12 7.442552072602885e-12 2.3558201068806576e-14
1.979223391128241 1.545072798400516e-19 8.117329862547921e-12 8.083763663066894e-12 3.356619948102834e-14
2.039501978296691 1.6328953151183067e-19 8.839992712381326e-12 8.792752695185769e-12 4.724001719555732e-14
2.1016163906111602 1.7291514903037268e-19 9.646192472485476e-12 9.580495926227654e-12 6.569654625782423e-14
2.1656225393682647 1.8348510125805142e-19 1.0547584219368298e-11 1.0457272052577394e-11 9.031216679090641e-14
2.231578038680979 1.9505566261499972e-19 1.1554205155730605e-11 1.1431446098931044e-11 1.2275905679956421e-13
2.299542257339062 2.0771482370734178e-19 1.2678804904273682e-11 1.2513763019744475e-11 1.6504188452920807e-13
2.369576372248914 2.215725891391732e-19 1.3936578852327467e-11 1.3717043144566224e-11 2.1953570776124733e-13
2.4417434235010123 2.3674788702738993e-19 1.5344599983604755e-11 1.5055589466667514e-11 2.8901051693724186e-13
2.5161083711144245 2.5339749387977824e-19 1.6923924961377582e-11 1.65472593674088e-11 3.766655939687755e-13
2.5927381535095444 2.7172074736109584e-19 1.8700399824733814e-11 1.8214256768756257e-11 4.861430559775528e-13
2.6717017477616296 2.9189505151469524e-19 2.070065751090453e-11 2.007915100199011e-11 6.215065089144197e-13
2.753070231689431 3.141309589808631e-19 2.2956065947425474e-11 2.2168834979885603e-11 7.872309675398694e-13
2.836916847834745 3.388625205429191e-19 2.551758537279232e-11 2.4529375401099995e-11 9.882099716923298e-13
2.9233170693905177 3.669183177577208e-19 2.847178851940314e-11 2.724234277740176e-11 1.2294457420013898e-12
2.967498994190263 3.8276906629210476e-19 3.015066159108619e-11 2.8786701111154182e-11 1.3639604799320174e-12
3.0123486681368425 3.9960391422369683e-19 3.195246774098985e-11 3.044120488618073e-11 1.5112628548091305e-12
3.0578761833420214 4.2216913664599226e-19 3.4266978317444146e-11 3.25941185358693e-11 1.6728597815748456e-12
3.1040917844459814 4.473773620557858e-19 3.6861923356889655e-11 3.50139006890257e-11 1.84802266786395e-12
3.127460860933648 4.667308693069899e-19 3.8746086369693535e-11 3.680454930535161e-11 1.9415370643419286e-12
3.1510058709225794 4.900137185364063e-19 4.0985183532291044e-11 3.894636849389374e-11 2.0388150383972966e-12
3.162844764501044 5.090326636349698e-19 4.273591048046261e-11 4.064682950911227e-11 2.0890809713503353e-12
3.1747281389236908 5.301825527913905e-19 4.4678790343321456e-11 4.2538474426399166e-11 2.140315916922288e-12
3.1986289994194426 5.855187974040652e-19 4.9713477736160236e-11 4.746747271226266e-11 2.24600502389758e-12
3.2227097969389145 7.065560862417342e-19 6.04417839460407e-11 5.808398661277312e-11 2.3577973332675797e-12
3.2348180950136065 8.176354907358483e-19 7.020677620161957e-11 6.778936954438335e-11 2.417406657236213e-12
3.240889293275058 8.999318441683916e-19 7.741823193472812e-11 7.49693823862359e-11 2.4488495484922127e-12
3.2469718861334385 9.950822715506291e-19 8.576437957500769e-11 8.328299598664149e-11 2.4813835883661814e-12
3.2714166318528037 1.4912115272285882e-18 1.294924782388467e-10 1.2687681083445684e-10 2.615667404389837e-12
3.2744851364798273 1.5225221512517684e-18 1.3233541278968826e-10 1.2970396697371923e-10 2.6314458159690296e-12
3.2775565192852394 1.554642474498649e-18 1.3525401050499356e-10 1.3260671163557303e-10 2.6472988694205282e-12
3.283707930232385 1.525727319022292e-18 1.3298751700675394e-10 1.3031196253907466e-10 2.675554467679271e-12
3.2898708863219004 1.4309565103068267e-18 1.2496106616939204e-10 1.2225988456824114e-10 2.7011816011509056e-12
3.29141343181113 1.4085721248585758e-18 1.2306398093724745e-10 1.203563664093011e-10 2.707614527946348e-12
3.292184975758714 1.397568027436598e-18 1.221311983166019e-10 1.1942036340102194e-10 2.710834915579934e-12
3.295272960557952 1.3287337071526267e-18 1.1622479265678468e-10 1.1350144749754907e-10 2.7233451592355823e-12
3.3076538914384823 1.0886093464368103e-18 9.557879502477066e-11 9.280524554957167e-11 2.7735494751990118e-12
3.310756385682612 1.0392871000798022e-18 9.133394049257819e-11 8.854774536967282e-11 2.786195122905381e-12
3.313861789986515 9.936063406449818e-19 8.740135765278312e-11 8.460247903374451e-11 2.7988786190386094e-12
3.3200813396944477 9.303138682683692e-19 8.19875015024562e-11 7.916130107452354e-11 2.8262004279326736e-12
3.345076488085796 8.237135529316757e-19 7.313945122998365e-11 7.019138177272322e-11 2.9480694572604543e-12
3.3482140837626964 8.29142037689769e-19 7.369051411134449e-11 7.072593057854122e-11 2.964583532803254e-12
3.3513546224236106 8.346133259223378e-19 7.42463541641708e-11 7.126518678485636e-11 2.9811673793144355e-12
3.3576445397418455 8.688371489303455e-19 7.743593241075567e-11 7.442007631136522e-11 3.015856099390446e-12
3.3702598118196083 9.898961274731664e-19 8.855690707876152e-11 8.546829690631649e-11 3.0886101724450392e-12
3.382922481734668 1.0214100042413324e-18 9.17194805659657e-11 8.856030202877212e-11 3.1591785371936187e-12
3.389271646505754 1.0376040424645687e-18 9.33485264063249e-11 9.015360770753315e-11 3.1949186987917395e-12
3.395632727569191 1.0553464738476851e-18 9.512292739579587e-11 9.1891176027413e-11 3.2317513683828772e-12
3.421196662673239 1.1402656649111135e-18 1.0355081467981342e-10 1.0016675028006905e-10 3.384064399744381e-12
3.4276182099114902 1.1278093265045524e-18 1.0261185911250796e-10 9.919396490986508e-11 3.4178942026428846e-12
3.4340518103208963 1.0657248268214679e-18 9.714520281685704e-11 9.369539001734351e-11 3.449812799513532e-12
3.4469541582030403 9.773439089946162e-19 8.942364154737091e-11 8.591272387038443e-11 3.5109176769864706e-12
3.472904465399547 9.58287809665228e-19 8.834017052524867e-11 8.468824757452528e-11 3.6519229507233954e-12
3.4990501388274233 9.26440556452393e-19 8.604728214946404e-11 8.225141755437297e-11 3.79586459509107e-12
3.5253949054701885 7.975576271303144e-19 7.463443994371917e-11 7.069930414644292e-11 3.935135797276274e-12
3.5519380250092896 6.751090754896955e-19 6.365151702887991e-11 5.95768560450801e-11 4.074660983799811e-12
3.578680990867387 6.318943742623282e-19 6.002565508013229e-11 5.579812369856434e-11 4.227531381567934e-12
3.605625307711299 6.198848003007348e-19 5.932817838022746e-11 5.493991622618334e-11 4.388262154044115e-12
3.660119384959845 6.226601390558138e-19 6.049448010323817e-11 5.5769780367881715e-11 4.724699735356457e-12
3.715437065384467 6.29685536776418e-19 6.210163873932665e-11 5.7024074372677145e-11 5.077564366649494e-12
3.8285932144167436 6.605362081106508e-19 6.712824410148323e-11 6.12985935250768e-11 5.829650576406447e-12
3.94519561050918 6.96127291394808e-19 7.289985000490631e-11 6.625948772596729e-11 6.6403622789390025e-12
4.06534921144712 7.335863458142629e-19 7.916232291158647e-11 7.16557584156543e-11 7.506564495932156e-12
4.189162171576248 7.718852760733041e-19 8.583202582266065e-11 7.740431712908102e-11 8.427708693579667e-12
4.316745939156006 8.103895245250271e-19 9.2858088773973e-11 8.346022937144762e-11 9.397859402525364e-12
4.448215356677963 8.485650815503103e-19 1.0019369538405387e-10 8.979300395668427e-11 1.0400691427369595e-11
4.58368876423945 8.861160774892753e-19 1.0781400283074622e-10 9.637877033369303e-11 1.1435232497053183e-11
4.723288106065518 9.228564710273844e-19 1.1570390906840499e-10 1.031979502337959e-10 1.2505958834609099e-11
4.867139040275056 9.583854677261269e-19 1.2381789197527502e-10 1.1023804792469928e-10 1.3579844050575786e-11
4.940699165968905 9.758628989911398e-19 1.2798133940540428e-10 1.1386044001060906e-10 1.412089939479525e-11
5.015371051989984 9.927746269378908e-19 1.3216704223616235e-10 1.1750442017097012e-10 1.466262206519226e-11
5.091171501069577 1.0098812280885835e-18 1.3647636901487306e-10 1.2125877532358285e-10 1.521759369129021e-11
5.129500256944802 1.0181891331626246e-18 1.386350190985117e-10 1.2314051308238288e-10 1.549450601612883e-11
5.168117569889187 1.0264115638951362e-18 1.4080671100129523e-10 1.250325574639014e-10 1.577415353739388e-11
5.20702561229733 1.0351839705756972e-18 1.4307926003343192e-10 1.2699710324733152e-10 1.60821567861004e-11
5.246226572918644 1.0437981496209662e-18 1.4535601181083372e-10 1.2896550811827583e-10 1.6390503692557938e-11
5.265937586045735 1.0480448154549633e-18 1.464957394814129e-10 1.2995098713336724e-10 1.6544752348045612e-11
5.285722656980489 1.0522506413987386e-18 1.4763624952171436e-10 1.3093722720694562e-10 1.6699022314768756e-11
5.305582063971359 1.0564152241206254e-18 1.487774533909239e-10 1.319241615298653e-10 1.685329186105861e-11
5.3255160863122235 1.0606473761739453e-18 1.4993470028507246e-10 1.3292572362837328e-10 1.700897665669917e-11
5.365609099470188 1.0698271213304203e-18 1.52370911815489e-10 1.3503958827191828e-10 1.7331323543570693e-11
5.406003951863644 1.0788738098497727e-18 1.5481621391218122e-10 1.371623236165906e-10 1.7653890295590596e-11
5.446702915881641 1.0877869029621023e-18 1.5727038373360884e-10 1.3929388138793073e-10 1.797650234567811e-11
5.487708281020852 1.0967659921016833e-18 1.597623446303644e-10 1.414617540484985e-10 1.830059058186585e-11
5.529022354014368 1.1073782119903256e-18 1.625225969256728e-10 1.4388414505095813e-10 1.8638451874714638e-11
5.570647458961463 1.117967806190399e-18 1.6531200957863035e-10 1.4633557668185267e-10 1.8976432896777716e-11
5.612585937458331 1.1285452147567484e-18 1.6813239539781226e-10 1.4881803884240544e-10 1.9314356555406826e-11
5.654840148729818 1.1394169323132594e-18 1.710300547832454e-10 1.5137605917184866e-10 1.965399561139673e-11
5.67608639626678 1.1461579736500259e-18 1.726882984920136e-10 1.5285614879185147e-10 1.9832149700162112e-11
5.686739436050992 1.1495531012502273e-18 1.7352489887644148e-10 1.5360365455483222e-10 1.9921244321609242e-11
5.6974124697621304 1.1529655247957175e-18 1.7436664700048224e-10 1.543563000951979e-10 2.0010346905284353e-11
5.718818669136295 1.1598450469639317e-18 1.760660947862823e-10 1.5587753012579607e-10 2.0188564660486263e-11
5.740305295436557 1.1671652713309463e-18 1.778430019635401e-10 1.5747469920155512e-10 2.0368302761985037e-11
5.7835210386641895 1.1850506930067066e-18 1.8192763815336994e-10 1.6118811201889623e-10 2.073952613447378e-11
5.827062130521658 1.2044630866960475e-18 1.8629988055925252e-10 1.6518517571140936e-10 2.1114704847843148e-11
5.8489554468988025 1.2176171599726771e-18 1.8904208834743358e-10 1.677234230631338e-10 2.1318665284299756e-11
5.870931020387893 1.231306893610185e-18 1.9188574900933883e-10 1.7036281833716872e-10 2.1522930672170108e-11
5.892989160043636 1.2455778200212929e-18 1.9483902221532056e-10 1.7311154444734504e-10 2.1727477767975535e-11
5.915130176081913 1.2614745380463785e-18 1.980670479577514e-10 1.761270855845352e-10 2.1939962373216165e-11
5.95966208400165 1.3051204712230775e-18 2.064627323437256e-10 1.8403095824249382e-10 2.2431774101231808e-11
6.004529249263818 1.3659936261520421e-18 2.177193708456437e-10 1.9472980756857038e-10 2.298956327707334e-11
6.027089341400364 1.4077113874569388e-18 2.252115637084405e-10 2.0189591309828028e-10 2.3315650610160256e-11
6.049734195844842 1.4560193568288344e-18 2.3381527257198726e-10 2.101533692724108e-10 2.366190329957645e-11
6.095279466722835 1.5939380143596637e-18 2.578899892838414e-10 2.333641986502053e-10 2.4525790633636157e-11
6.141167624020661 1.801465520629722e-18 2.936610444065956e-10 2.6799820749441315e-10 2.5662836912182472e-11
6.164241091010745 1.9332521029492354e-18 3.16327930788928e-10 2.899438711919323e-10 2.6384059596995788e-11
6.187401249150058 2.079812928733034e-18 3.415875137572937e-10 3.144643491731778e-10 2.7123164584115855e-11
6.1990139391386085 2.1507913328811416e-18 3.5390795421249444e-10 3.264089765061819e-10 2.7498977706312658e-11
6.204828454712694 2.187881815061655e-18 3.6034879213457833e-10 3.3266015332070593e-10 2.7688638813872384e-11
6.210648424152782 2.21462239091875e-18 3.650951508485057e-10 3.3724657972170244e-10 2.7848571126803323e-11
6.233982942956859 2.303445921024777e-18 3.811650421687975e-10 3.52765885496459e-10 2.839915667233849e-11
6.239830258556775 2.313632929367878e-18 3.8320985182223786e-10 3.547395984622579e-10 2.84702533599801e-11
6.245683058788269 2.3129396176077624e-18 3.834543510170423e-10 3.5491294214026995e-10 2.85414088767722e-11
6.257405133728602 2.3068092314743894e-18 3.831557857641088e-10 3.5449292494848183e-10 2.866286081562687e-11
6.269149208991335 2.2846426658969116e-18 3.801861769530501e-10 3.5149368842929407e-10 2.869248852375608e-11
6.280915325867298 2.234698902127632e-18 3.7257300730849176e-10 3.439642325612975e-10 2.8608774747194233e-11
6.304513850009849 2.1138001446535026e-18 3.5374064183112674e-10 3.254015106504935e-10 2.8339131180633196e-11
6.32820103803542 1.9680205891680218e-18 3.305821031710512e-10 3.0262133118561376e-10 2.796077198543756e-11
6.3519772230701035 1.835553668099711e-18 3.0948916704775084e-10 2.818717902318543e-10 2.7617376815896394e-11
6.375842739491607 1.723318381687436e-18 2.9165709790511067e-10 2.6434707607353906e-10 2.731002183157145e-11
6.399797922933955 1.635356951406411e-18 2.7781024374425355e-10 2.506791203362382e-10 2.7131123408015367e-11
6.42384311029221 1.5615691910489066e-18 2.662720553859024e-10 2.392940377664519e-10 2.6978017619450496e-11
6.447978639727206 1.5084514782188978e-18 2.581810532113548e-10 2.312564138412287e-10 2.6924639370126196e-11
6.472204850670314 1.4638529523844605e-18 2.5148908491145857e-10 2.245981305920179e-10 2.6890954319440685e-11
6.496522083828205 1.435063766239056e-18 2.4746942616338636e-10 2.205317474668093e-10 2.6937678696576985e-11
