Dust emission spectrum from A.P. Jones, M. Kohler, N. Ysard, M. Bocchio, and L. Verstraete (2017), A&A, 602A, 46J 
inside the DustPedia framework.

lambda    nu*dP/dnu     j_nu    j_nu(carb.) j_nu(sil)
 (um)   (erg s-1 H-1) (Jy cm2 sr-1 H-1)
0.9927057738263894 7.258965146088536e-24 1.912778546093253e-16 1.912778546092672e-16 5.809123489963579e-29
1.0001793341362166 7.378861466855365e-24 1.9590100623404438e-16 1.9590100623397444e-16 6.998516377249327e-29
1.0077091589558085 7.498586000173743e-24 2.0057833207413714e-16 2.0057833207405298e-16 8.420649650327838e-29
1.0114953028030835 7.558369100758341e-24 2.0293707644646017e-16 2.029370764463678e-16 9.232223805133795e-29
1.0152956718711033 7.618091606283653e-24 2.0530908077728276e-16 2.0530908077718157e-16 1.0118761571022928e-28
1.0229392996569957 7.737272888084191e-24 2.1009088535146689e-16 2.1009088535134538e-16 1.2143816972626018e-28
1.0267826658714554 7.796587093908481e-24 2.124968497337206e-16 2.124968497335876e-16 1.3297630015710277e-28
1.0306404723013447 7.855814478813243e-24 2.1491555246396255e-16 2.1491555246381698e-16 1.4556371864154638e-28
1.03451277320114 7.914949327033184e-24 2.1734688941845664e-16 2.173468894182973e-16 1.5929121107928462e-28
1.0383996230291617 7.973985954548422e-24 2.1979075517328016e-16 2.1979075517310582e-16 1.7425698567066222e-28
1.0403485208654093 8.00346566823462e-24 2.2101735305645654e-16 2.2101735305627431e-16 1.8223708750513788e-28
1.0423010764483396 8.032918710174258e-24 2.222470430292642e-16 2.222470430290737e-16 1.9056724160439852e-28
1.0462171883269815 8.091741976626942e-24 2.2471564503696684e-16 2.2471564503675853e-16 2.0833677814879873e-28
1.0471985131304309 8.106430030593772e-24 2.253347068577509e-16 2.2533470685753787e-16 2.1302149909633297e-28
1.048180758391296 8.121110805538791e-24 2.2595452977779043e-16 2.2595452977757266e-16 2.178071625611158e-28
1.0501480137395462 8.150450171565224e-24 2.27196452021664e-16 2.271964520214363e-16 2.2768964676963853e-28
1.0521189612883777 8.179759382540287e-24 2.284413979343997e-16 2.2844139793416164e-16 2.3800129735715476e-28
1.0531058218030118 8.194379954929342e-24 2.290643712024435e-16 2.290643712022002e-16 2.4332391824698533e-28
1.0540936079674168 8.208918982552326e-24 2.2968603052721617e-16 2.296860305269674e-16 2.4876169733699247e-28
1.058054026499678 8.266992357575362e-24 2.321800035308889e-16 2.321800035306172e-16 2.7170067598656697e-28
1.0590464539527713 8.281489592741475e-24 2.3280532182419236e-16 2.3280532182391463e-16 2.7774459539399627e-28
1.06003981227728 8.295978215124784e-24 2.3343136656587823e-16 2.3343136656559434e-16 2.8391723376029642e-28
1.0620293250338977 8.32492928410143e-24 2.3468562822318145e-16 2.346856282228848e-16 2.9665915588782953e-28
1.0660195594769086 8.382724365685061e-24 2.3720278979967847e-16 2.372027897993547e-16 3.2380585369849366e-28
1.070024785945596 8.440372246709308e-24 2.397313723867021e-16 2.397313723863488e-16 3.5332276727802887e-28
1.0740450607676866 8.497867613266296e-24 2.422712590664022e-16 2.422712590660168e-16 3.8540615218592587e-28
1.07808044048254 8.555205194013602e-24 2.448223319018006e-16 2.448223319013803e-16 4.202675644688963e-28
1.0861967418109137 8.669284774079141e-24 2.4995463701625605e-16 2.4995463701575685e-16 4.992540192508578e-28
1.0902777775684922 8.725785965444861e-24 2.525289362176311e-16 2.525289362170872e-16 5.438892480552153e-28
1.0943741465085532 8.782104698726796e-24 2.551137508926044e-16 2.5511375089201204e-16 5.923251823707006e-28
1.1026131145906286 8.894174770099648e-24 2.6031443169141543e-16 2.603144316907135e-16 7.018476559504046e-28
1.1109141095355224 9.00545543058826e-24 2.655556811636554e-16 2.6555568116282486e-16 8.305602772120048e-28
1.1192775983109025 9.115804561127367e-24 2.7083341773306987e-16 2.7083341773208823e-16 9.816279280120471e-28
1.1277040513999907 9.2247094624601e-24 2.7613233822926023e-16 2.7613233822810154e-16 1.1587029093097289e-27
1.1361939428280308 9.332696359402373e-24 2.8146800761447676e-16 2.8146800761311075e-16 1.3659937762757223e-27
1.1447477501889525 9.439729238542025e-24 2.8683937612868577e-16 2.8683937612707743e-16 1.608344162791551e-27
1.1533659546722406 9.545831276109151e-24 2.922471701770026e-16 2.922471701751113e-16 1.891323808645951e-27
1.1707974979042381 9.755585665589189e-24 3.031828042428372e-16 3.0318280424023156e-16 2.605701598610377e-27
1.1884924949847024 9.96116480223353e-24 3.1425051782995654e-16 3.142505178263843e-16 3.572220983103756e-27
1.2064549276569216 1.0164176846612665e-23 3.2550131497227156e-16 3.2550131496739813e-16 4.87344883338583e-27
1.2246888378427687 1.036240383388348e-23 3.36864856771448e-16 3.3686485676483146e-16 6.616573046824052e-27
1.2431983285522175 1.0555381901344417e-23 3.4832432294603036e-16 3.483243229370901e-16 8.940270992631057e-27
1.2619875648066055 1.0743038835849076e-23 3.598749804467684e-16 3.5987498043474535e-16 1.2023042649971355e-26
1.3004222497298317 1.1099268989554579e-23 3.8313180102555807e-16 3.8313180100411585e-16 2.1442109179649883e-26
1.3400274889804893 1.1429699828816971e-23 4.0655374452538074e-16 4.0655374448783244e-16 3.754843263464507e-26
1.3808389325824078 1.1733105609547717e-23 4.3005642091523946e-16 4.3005642085064625e-16 6.459322611554044e-26
1.4228933163050095 1.2010963352722887e-23 4.536486411175954e-16 4.536486410083845e-16 1.0921076964870432e-25
1.466228494730424 1.2269962254339096e-23 4.775450141312918e-16 4.775450139497223e-16 1.8156963915612086e-25
1.5108834753276823 1.2505064838114965e-23 5.015178005771601e-16 5.015178002801912e-16 2.9696910333307403e-25
1.5568984535646726 1.2712195157355273e-23 5.253518571424205e-16 5.25351856664099e-16 4.783213734915382e-25
1.6043148490894465 1.2891731489754415e-23 5.489974000084227e-16 5.4899739924834e-16 7.600826692372216e-25
1.6531753430134553 1.3044219663900764e-23 5.724090031157073e-16 5.724090019254461e-16 1.1902610169412675e-24
1.7035239163302658 1.3171472249684083e-23 5.955962976388989e-16 5.955962958016402e-16 1.837258751308587e-24
1.755405889504358 1.3283963707703563e-23 6.189772177924644e-16 6.189772149956456e-16 2.7968187546920416e-24
1.8088679632656115 1.337910722778343e-23 6.42396897107901e-16 6.423968929076005e-16 4.2003005781183755e-24
1.8639582606462262 1.345515067745211e-23 6.657239504572427e-16 6.657239442314714e-16 6.225771180808063e-24
1.9207263702978936 1.3513364026977147e-23 6.8896698010694625e-16 6.88966970995877e-16 9.111069316897964e-24
1.979223391128241 1.3556703891870797e-23 7.122268766437541e-16 7.122268634739481e-16 1.3169806326608878e-23
2.039501978296691 1.3588708699528437e-23 7.356508697301324e-16 7.356508509204383e-16 1.880969424835478e-23
2.1016163906111602 1.3619289946470112e-23 7.59761610818501e-16 7.597615842626985e-16 2.6555802478605665e-23
2.1656225393682647 1.36541945517103e-23 7.849071450180458e-16 7.8490710794433e-16 3.7073715794373797e-23
2.231578038680979 1.3693833526849184e-23 8.11160054604179e-16 8.111600034075534e-16 5.119662558621841e-23
2.299542257339062 1.374164757950419e-23 8.387830276826802e-16 8.387829577270438e-16 6.99556364493871e-23
2.369576372248914 1.3805245391742493e-23 8.683289378222754e-16 8.683288432081468e-16 9.461412844072308e-23
2.4417434235010123 1.389361142615867e-23 9.005018475091206e-16 9.00501720808825e-16 1.2670029563963387e-22
2.5161083711144245 1.4022132622312738e-23 9.365109207082152e-16 9.365107526599717e-16 1.68048243517374e-22
2.5927381535095444 1.4215989398662308e-23 9.783746299868492e-16 9.783744091516639e-16 2.208351853238514e-22
2.6717017477616296 1.4505244888721048e-23 1.0286851558293585e-15 1.0286848682227596e-15 2.8760659876298306e-22
2.753070231689431 1.4935162122881022e-23 1.0914319548148527e-15 1.0914315835024963e-15 3.7131235652029045e-22
2.836916847834745 1.5608291491539485e-23 1.175361353095824e-15 1.1753608777410046e-15 4.753548193753502e-22
2.9233170693905177 1.6750495971532377e-23 1.2997895057708625e-15 1.2997889022477954e-15 6.035230671879569e-22
2.967498994190263 1.7720493694500945e-23 1.3958406142521012e-15 1.3958399373192318e-15 6.769328690448882e-22
3.0123486681368425 1.8853336453199336e-23 1.507519329486979e-15 1.5075185712134556e-15 7.582735232760879e-22
3.0578761833420214 2.1388118025908717e-23 1.7360486900285299e-15 1.7360478415280672e-15 8.485004629083474e-22
3.1040917844459814 2.4654481780126668e-23 2.0314206637696098e-15 2.031419716033904e-15 9.477357062997467e-22
3.127460860933648 2.810986639554322e-23 2.333566050215295e-15 2.333565048927022e-15 1.001288273162769e-21
3.1510058709225794 3.271370871595112e-23 2.7362037123161705e-15 2.7362026548965295e-15 1.0574196411783864e-21
3.162844764501044 3.6999172779262516e-23 3.106270871606807e-15 3.106269785017516e-15 1.086589290974634e-21
3.1747281389236908 4.1982834615777677e-23 3.5379177529342657e-15 3.5379166364975715e-15 1.1164366948459968e-21
3.1986289994194426 5.588375789497677e-23 4.744810868997059e-15 4.744809690633583e-15 1.1783634766803428e-21
3.2227097969389145 8.865164269056728e-23 7.583634955954003e-15 7.583633711624836e-15 1.2443291667410987e-21
3.2348180950136065 1.197258851663062e-22 1.0280337045847771e-14 1.0280335766216547e-14 1.2796312244242544e-21
3.240889293275058 1.4295790806736818e-22 1.2298207420241188e-14 1.2298206121979512e-14 1.298261673001652e-21
3.2469718861334385 1.6983376324997588e-22 1.4637671429243056e-14 1.4637670111697e-14 1.3175460537073611e-21
3.2714166318528037 3.1319428198585664e-22 2.7196881866892827e-14 2.7196880469361365e-14 1.397531458784112e-21
3.2744851364798273 3.221561426888077e-22 2.8001343750832053e-14 2.8001342343803978e-14 1.4070280748983109e-21
3.2775565192852394 3.313754122440224e-22 2.8829685425392336e-14 2.882968400881275e-14 1.4165795792840087e-21
3.283707930232385 3.225091319529762e-22 2.811097902993189e-14 2.811097759614033e-14 1.433791561210892e-21
3.2898708863219004 2.9439178807531164e-22 2.570833665763655e-14 2.5708335208059484e-14 1.4495770700494731e-21
3.29141343181113 2.8776102061266886e-22 2.514107451808044e-14 2.514107306453575e-14 1.4535446816347392e-21
3.292184975758714 2.845028969174877e-22 2.4862245731829856e-14 2.4862244276298173e-14 1.4555316807177388e-21
3.295272960557952 2.639373126197535e-22 2.3086687173275844e-14 2.3086685709993066e-14 1.4632827825690572e-21
3.3076538914384823 1.9269194682488723e-22 1.691815723315486e-14 1.6918155738668667e-14 1.4944861908982299e-21
3.310756385682612 1.781917239568173e-22 1.5659727048370163e-14 1.5659725546003527e-14 1.5023666370675398e-21
3.313861789986515 1.6481302065206385e-22 1.449757431549389e-14 1.4497572805214806e-14 1.5102790788083592e-21
3.3200813396944477 1.460508533612693e-22 1.287129534216275e-14 1.2871293814916022e-14 1.5272467294102142e-21
3.345076488085796 1.1258070562698698e-22 9.996303932764294e-15 9.996302329988069e-15 1.602776222977473e-21
3.3482140837626964 1.138357179030792e-22 1.0117220204978398e-14 1.011721859196851e-14 1.613009886709407e-21
3.3513546224236106 1.151046054885767e-22 1.0239588848629587e-14 1.0239587225331585e-14 1.6232980027334665e-21
3.3576445397418455 1.2437821966797502e-22 1.1085326431353566e-14 1.1085324786559878e-14 1.6447936883663194e-21
3.3702598118196083 1.585834462353021e-22 1.4187003184200366e-14 1.4187001494280116e-14 1.6899202540778907e-21
3.382922481734668 1.6637374303136274e-22 1.4939851017012933e-14 1.4939849282979764e-14 1.7340331702461957e-21
3.389271646505754 1.7040965515145102e-22 1.5330983248690593e-14 1.5330981492241253e-14 1.7564493398212114e-21
3.395632727569191 1.7475853198233451e-22 1.5751739889691145e-14 1.575173811013392e-14 1.779557223934184e-21
3.421196662673239 1.9564015727171935e-22 1.7766647100746105e-14 1.7766645225198803e-14 1.875547301629276e-21
3.4276182099114902 1.9143168122353956e-22 1.7417093689286038e-14 1.7417091792033918e-14 1.8972521194535484e-21
3.4340518103208963 1.7299087211518365e-22 1.5768829752438283e-14 1.576882783452311e-14 1.9179151721301513e-21
3.4469541582030403 1.4672775886384388e-22 1.3425090587802219e-14 1.342508862994659e-14 1.957855629734857e-21
3.472904465399547 1.393669012328847e-22 1.2847597241990947e-14 1.2847595192415494e-14 2.0495754527824707e-21
3.4990501388274233 1.281090326683704e-22 1.1898695499819297e-14 1.189869335566762e-14 2.1441516750274078e-21
3.5253949054701885 8.804596175041897e-23 8.239230396670697e-15 8.23922815957413e-15 2.2370965657520168e-21
3.5519380250092896 5.039150659752549e-23 4.7510779468884e-15 4.751075615463405e-15 2.331424993353651e-21
3.578680990867387 3.5460852902601796e-23 3.368539129128598e-15 3.3685366940444338e-15 2.4350841647748265e-21
3.605625307711299 2.942117913764671e-23 2.815853789588171e-15 2.8158512446820354e-15 2.5449061357702222e-21
3.660119384959845 2.5013889852617566e-23 2.430221829019514e-15 2.430219050656087e-15 2.7783634275660542e-21
3.715437065384467 2.1892062338810956e-23 2.159066497832528e-15 2.1590634693304024e-15 3.0285021256541043e-21
3.8285932144167436 2.0303682805848378e-23 2.0634002478812805e-15 2.0633966672986308e-15 3.580582649956815e-21
3.94519561050918 1.9993881294958713e-23 2.0937994608686348e-15 2.093795255622042e-15 4.20524659299881e-21
4.06534921144712 2.0208884101591895e-23 2.1807687916510006e-15 2.1807638832290002e-15 4.908422000743625e-21
4.189162171576248 2.072758127945838e-23 2.304863619980249e-15 2.3048579213479496e-15 5.698632299436498e-21
4.316745939156006 2.146748353899511e-23 2.459841140451772e-15 2.4598345586682087e-15 6.581783563615507e-21
4.448215356677963 2.2400771461851267e-23 2.644954548584574e-15 2.6449469920611155e-15 7.55652345878636e-21
4.58368876423945 2.3530567208706188e-23 2.8629710080835514e-15 2.8629623741216892e-15 8.633961861895841e-21
4.723288106065518 2.488286332959491e-23 3.119709994387163e-15 3.119700163004029e-15 9.831383134360736e-21
4.867139040275056 2.650990514721806e-23 3.424927320299298e-15 3.424916182946974e-15 1.1137352324218296e-20
4.940699165968905 2.7492304442678506e-23 3.605528962677664e-15 3.605517124298751e-15 1.1838378913446877e-20
5.015371051989984 2.8509390386298395e-23 3.795425166067295e-15 3.795412593941548e-15 1.257212574829604e-20
5.091171501069577 2.975187106517359e-23 4.020697901335174e-15 4.020684548731935e-15 1.3352603239534543e-20
5.129500256944802 3.038944116982955e-23 4.137778159040234e-15 4.137764402883485e-15 1.3756156749734337e-20
5.168117569889187 3.1054178611570975e-23 4.260120313286738e-15 4.260106141963362e-15 1.4171323375659132e-20
5.20702561229733 3.187108996898698e-23 4.405102956419994e-15 4.405088338259465e-15 1.4618160529566495e-20
5.246226572918644 3.2708798755317327e-23 4.5549233249000865e-15 4.55490824899861e-15 1.5075901476083063e-20
5.265937586045735 3.313565977177356e-23 4.631703635080925e-15 4.6316883261561234e-15 1.5308924802025815e-20
5.285722656980489 3.356797288448457e-23 4.709761558447882e-15 4.70974601369649e-15 1.5544751393333068e-20
5.305582063971359 3.4005826200400707e-23 4.789120893975573e-15 4.7891051105679115e-15 1.5783407660978014e-20
5.3255160863122235 3.4476422423490415e-23 4.873638665485974e-15 4.873622639352454e-15 1.6026133518997897e-20
5.365609099470188 3.5650016112879475e-23 5.077479672230726e-15 5.077463142423097e-15 1.6529807626643196e-20
5.406003951863644 3.686832116013419e-23 5.29052966454447e-15 5.290512618535003e-15 1.704600946840734e-20
5.446702915881641 3.8133503943379844e-23 5.513277262257472e-15 5.513259687262848e-15 1.7574994622872922e-20
5.487708281020852 3.9500942978540205e-23 5.753974239544826e-15 5.753956120981514e-15 1.811856331387683e-20
5.529022354014368 4.140441839100148e-23 6.076653421786335e-15 6.076634732643703e-15 1.868914263486296e-20
5.570647458961463 4.3420348473664283e-23 6.420493526772813e-15 6.420474252457994e-15 1.9274314821183702e-20
5.612585937458331 4.555684545934105e-23 6.787128644640024e-15 6.7871087702344244e-15 1.9874405601895154e-20
5.654840148729818 4.790598361930198e-23 7.190838375747323e-15 7.190817883931383e-15 2.0491815937107536e-20
5.67608639626678 4.950744724186713e-23 7.45914352421691e-15 7.45912270879964e-15 2.0815417271034392e-20
5.686739436050992 5.0332979629231957e-23 7.597757068215068e-15 7.597736089396139e-15 2.0978818930484226e-20
5.6974124697621304 5.117557401136223e-23 7.739444984937675e-15 7.739423841641129e-15 2.114329654543434e-20
5.718818669136295 5.291359457115842e-23 8.032357409841322e-15 8.032335934335498e-15 2.1475505821967734e-20
5.740305295436557 5.482988397937301e-23 8.354524765018829e-15 8.35450295095816e-15 2.1814060669352148e-20
5.7835210386641895 5.980404056583967e-23 9.181048470227732e-15 9.181025950029125e-15 2.252019860511056e-20
5.827062130521658 6.553570625530986e-23 1.0136711023018312e-14 1.0136687772406229e-14 2.325061208486607e-20
5.8489554468988025 6.955862486172987e-23 1.0799377783680543e-14 1.0799354139621973e-14 2.3644058571584742e-20
5.870931020387893 7.387615104039359e-23 1.1512792342735666e-14 1.1512768299287972e-14 2.404344768937921e-20
5.892989160043636 7.851201113474527e-23 1.2281210564098376e-14 1.2281186115226518e-14 2.4448871862364512e-20
5.915130176081913 8.378515018244453e-23 1.3155301085215817e-14 1.315527621553642e-14 2.4869679395584922e-20
5.95966208400165 9.853338323489023e-23 1.5587428117407622e-14 1.5587402304974125e-14 2.5812433494012048e-20
6.004529249263818 1.197963138888478e-22 1.9093777298931645e-14 1.9093750425717137e-14 2.6873214509863533e-20
6.027089341400364 1.3457914942767889e-22 2.1530535985727098e-14 2.153050850509316e-14 2.748063393876485e-20
6.049734195844842 1.5205014727512544e-22 2.4417015105605916e-14 2.4416986979845334e-14 2.812576057692729e-20
6.095279466722835 2.0252243083700456e-22 3.276696273491821e-14 3.2766933046146734e-14 2.968877147025046e-20
6.141167624020661 2.802062710634026e-22 4.5677069734308635e-14 4.5677038038526746e-14 3.169578187982999e-20
6.164241091010745 3.2981609767991705e-22 5.396608314084254e-14 5.396605020139638e-14 3.2939446150584285e-20
6.187401249150058 3.8633233515383185e-22 6.345104409445e-14 6.345100985895825e-14 3.423549175315655e-20
6.1990139391386085 4.1392780293019657e-22 6.811090396689543e-14 6.811086906922066e-14 3.4897674777414267e-20
6.204828454712694 4.284643857335684e-22 7.056899637306255e-14 7.056896113886923e-14 3.523419332560958e-20
6.210648424152782 4.390753494218973e-22 7.238447583136045e-14 7.23844403055171e-14 3.552584334387903e-20
6.233982942956859 4.751247138519739e-22 7.862174229393489e-14 7.86217057234895e-14 3.6570445391359604e-20
6.239830258556775 4.797323015252546e-22 7.945864784698647e-14 7.945861111291121e-14 3.673407525834257e-20
6.245683058788269 4.80130476316903e-22 7.959919005149889e-14 7.959915315309352e-14 3.689840535967176e-20
6.257405133728602 4.791369385215887e-22 7.958355969059114e-14 7.958352249342646e-14 3.719716468574841e-20
6.269149208991335 4.720425575950278e-22 7.855235219497184e-14 7.85523148362131e-14 3.735875874271824e-20
6.280915325867298 4.542564807901873e-22 7.573445486380162e-14 7.573441751411484e-14 3.73496867778393e-20
6.304513850009849 4.1039704832920403e-22 6.867920586000797e-14 6.867916868425265e-14 3.717575532895735e-20
6.32820103803542 3.5603369772139725e-22 5.98054559186612e-14 5.980541908719312e-14 3.683146809298755e-20
6.3519772230701035 3.0617828640264494e-22 5.162413089504651e-14 5.1624094358561036e-14 3.653648546517449e-20
6.375842739491607 2.6423652022260847e-22 4.471980190521107e-14 4.471976560855763e-14 3.6296653444126576e-20
6.399797922933955 2.306190500568766e-22 3.91769726195068e-14 3.91769363683823e-14 3.6251124514525956e-20
6.42384311029221 2.0266961790730305e-22 3.4558350685828136e-14 3.4558314438201707e-14 3.624762642616362e-20
6.447978639727206 1.8230004562214385e-22 3.1201810902646175e-14 3.120177450077058e-14 3.6401875593676016e-20
6.472204850670314 1.6533111893306097e-22 2.8403789970936162e-14 2.8403753380567463e-14 3.6590368688902065e-20
6.496522083828205 1.5430022907304313e-22 2.660828741126767e-14 2.660825050086343e-14 3.6910404246194533e-20
