Dust emission spectrum from A.P. Jones, M. Kohler, N. Ysard, M. Bocchio, and L. Verstraete (2017), A&A, 602A, 46J 
inside the DustPedia framework.

lambda    nu*dP/dnu     j_nu    j_nu(carb.) j_nu(sil)
 (um)   (erg s-1 H-1) (Jy cm2 sr-1 H-1)
0.9927057738263894 2.564953103658669e-25 6.758797114568436e-18 6.758797114568285e-18 1.535099668267579e-31
1.0001793341362166 2.6070984899315915e-25 6.921572112757319e-18 6.92157211275713e-18 1.8501080365385245e-31
1.0077091589558085 2.649176594023663e-25 7.086234959321639e-18 7.086234959321418e-18 2.226966522245824e-31
1.0114953028030835 2.670185213120817e-25 7.169265928901773e-18 7.16926592890153e-18 2.442120972261563e-31
1.0152956718711033 2.6911707862323704e-25 7.252758681456485e-18 7.252758681456221e-18 2.6772179436991316e-31
1.0229392996569957 2.733043867750656e-25 7.421059256736462e-18 7.421059256736143e-18 3.2144785132861794e-31
1.0267826658714554 2.753880330811568e-25 7.505731518068048e-18 7.505731518067697e-18 3.5207295513826275e-31
1.0306404723013447 2.7746845057625757e-25 7.590846946264008e-18 7.590846946263622e-18 3.854936056632778e-31
1.03451277320114 2.795454378390499e-25 7.676401813201814e-18 7.676401813201392e-18 4.219528462443313e-31
1.0383996230291617 2.816187945992361e-25 7.762392345405164e-18 7.762392345404705e-18 4.6171371046398425e-31
1.0403485208654093 2.826540492805769e-25 7.805549794588186e-18 7.805549794587704e-18 4.829202930300684e-31
1.0423010764483396 2.8368832177591373e-25 7.848814724936205e-18 7.848814724935699e-18 5.0506076527281266e-31
1.0462171883269815 2.8575382151509763e-25 7.935665090288866e-18 7.935665090288316e-18 5.523017647862781e-31
1.0471985131304309 2.862695440965674e-25 7.957444097815414e-18 7.95744409781485e-18 5.647588583631808e-31
1.048180758391296 2.867849996107846e-25 7.979249549234479e-18 7.979249549233901e-18 5.774854406815949e-31
1.0501480137395462 2.878150972263816e-25 8.02293953728282e-18 8.022939537282214e-18 6.037694220258102e-31
1.0521189612883777 2.888440899913964e-25 8.066734559890233e-18 8.066734559889605e-18 6.311995090414669e-31
1.0531058218030118 2.8935736928791164e-25 8.088649075743307e-18 8.088649075742664e-18 6.45360041641431e-31
1.0540936079674168 2.898677580708097e-25 8.110516728282659e-18 8.110516728281999e-18 6.5982813317618475e-31
1.058054026499678 2.919062926875822e-25 8.198242012983944e-18 8.198242012983223e-18 7.208743225401048e-31
1.0590464539527713 2.9241515626525e-25 8.220236685471393e-18 8.220236685470656e-18 7.3696211725691e-31
1.06003981227728 2.929237058527168e-25 8.24225657103085e-18 8.242256571030093e-18 7.533939746092464e-31
1.0620293250338977 2.9393985118298945e-25 8.286371725276969e-18 8.28637172527618e-18 7.873180601060223e-31
1.0660195594769086 2.959682436664361e-25 8.374901765489737e-18 8.374901765488877e-18 8.596127089581933e-31
1.070024785945596 2.9799128171789347e-25 8.463827996846328e-18 8.46382799684539e-18 9.382475581035512e-31
1.0740450607676866 3.00008778418837e-25 8.553146246363775e-18 8.553146246362748e-18 1.02375048573394e-30
1.07808044048254 3.020205483823199e-25 8.642852305747111e-18 8.642852305745994e-18 1.1166908051714386e-30
1.0861967418109137 3.0602259573096473e-25 8.823307669326251e-18 8.823307669324926e-18 1.3273866866079397e-30
1.0902777775684922 3.0800437296791314e-25 8.91381211549121e-18 8.913812115489763e-18 1.4465169523252812e-30
1.0943741465085532 3.099795564778431e-25 9.004680548223622e-18 9.004680548222046e-18 1.5758402951534915e-30
1.1026131145906286 3.139094390007655e-25 9.18749173793667e-18 9.1874917379348e-18 1.868434926624989e-30
1.1109141095355224 3.178108540396023e-25 9.371705681761021e-18 9.371705681758808e-18 2.2125655369261277e-30
1.1192775983109025 3.2167879265679725e-25 9.557178002586915e-18 9.557178002584298e-18 2.616786369225506e-30
1.1277040513999907 3.2549516811267488e-25 9.74336831084427e-18 9.743368310841178e-18 3.0909796942979554e-30
1.1361939428280308 3.2927856456853097e-25 9.930825771041606e-18 9.930825771037958e-18 3.6465447493968774e-30
1.1447477501889525 3.330277196932941e-25 1.0119513064035441e-17 1.0119513064031144e-17 4.296615346340689e-30
1.1533659546722406 3.367434625828152e-25 1.0309455632401e-17 1.0309455632395943e-17 5.05631080423929e-30
1.1707974979042381 3.440868632288439e-25 1.0693486139413858e-17 1.0693486139406878e-17 6.976698130210626e-30
1.1884924949847024 3.5128077136071017e-25 1.10820538055005e-17 1.1082053805490922e-17 9.579481232035159e-30
1.2064549276569216 3.583820144335699e-25 1.1476956641050068e-17 1.147695664103698e-17 1.3089970756327665e-29
1.2246888378427687 3.653124021657188e-25 1.1875710694655434e-17 1.1875710694637629e-17 1.7801359317650183e-29
1.2431983285522175 3.720556912160719e-25 1.2277722203926059e-17 1.2277722203901968e-17 2.4093903922698585e-29
1.2619875648066055 3.786094122008611e-25 1.2682822513689509e-17 1.268282251365705e-17 3.2458259107904454e-29
1.3004222497298317 3.9103859770093846e-25 1.3498125178213335e-17 1.3498125178155241e-17 5.809506795056334e-29
1.3400274889804893 4.025517456944e-25 1.4318741701743067e-17 1.431874170164095e-17 1.021155523778959e-28
1.3808389325824078 4.131066509662701e-25 1.514170021842013e-17 1.514170021824378e-17 1.7635242236757977e-28
1.4228933163050095 4.2275639291987805e-25 1.596731732000512e-17 1.596731731970574e-17 2.993780822381695e-28
1.466228494730424 4.317375296678355e-25 1.6803157208843496e-17 1.680315720834366e-17 4.99832017668314e-28
1.5108834753276823 4.398734920804084e-25 1.7641202915475296e-17 1.7641202914654222e-17 8.210805987752302e-28
1.5568984535646726 4.4702179915571865e-25 1.8473892940018493e-17 1.8473892938690023e-17 1.3284738650310125e-27
1.6043148490894465 4.531968061070894e-25 1.9299491960614288e-17 1.9299491958493438e-17 2.120850276412421e-27
1.6531753430134553 4.584187016575071e-25 2.011641928658698e-17 2.011641928324982e-17 3.337162302914962e-27
1.7035239163302658 4.627522054133672e-25 2.0925033666987938e-17 2.0925033661811088e-17 5.17685325454089e-27
1.755405889504358 4.665665205075377e-25 2.174005087136685e-17 2.1740050863445516e-17 7.921333937103763e-27
1.8088679632656115 4.697712832253665e-25 2.2556035283706256e-17 2.2556035271746157e-17 1.1960108549102238e-26
1.8639582606462262 4.723056266906657e-25 2.336838695909972e-17 2.3368386941273658e-17 1.7826057212714677e-26
1.9207263702978936 4.74214812241924e-25 2.417742513707638e-17 2.4177425110838354e-17 2.623800832538218e-26
1.979223391128241 4.756033463329171e-25 2.4986714217689257e-17 2.4986714179535444e-17 3.815380353041206e-26
2.039501978296691 4.765960938712922e-25 2.5801445797316043e-17 2.5801445742483144e-17 5.483290568904529e-26
2.1016163906111602 4.775414991053069e-25 2.6639986373663037e-17 2.6639986295746213e-17 7.791682773859359e-26
2.1656225393682647 4.786416658057298e-25 2.7514567920610068e-17 2.7514567811096123e-17 1.0951394985917425e-25
2.231578038680979 4.799113898674163e-25 2.842775534307167e-17 2.8427755190770255e-17 1.5230141817710277e-25
2.299542257339062 4.814717727908839e-25 2.9388786824051004e-17 2.9388786614407274e-17 2.0964374522945805e-25
2.369576372248914 4.835902286511431e-25 3.0417089857529634e-17 3.0417089571797115e-17 2.8573252847675518e-25
2.4417434235010123 4.86582520481519e-25 3.153740559018916e-17 3.1537405204457446e-17 3.8573171555344427e-25
2.5161083711144245 4.909891058556627e-25 3.279220586253094e-17 3.2792205346568464e-17 5.15962464975875e-25
2.5927381535095444 4.976945173076304e-25 3.4252395353020995e-17 3.425239466892733e-17 6.8409365132095445e-25
2.6717017477616296 5.077555345694072e-25 3.600908396988835e-17 3.6009083070574776e-17 8.993135678026105e-25
2.753070231689431 5.22763175896424e-25 3.820249357050786e-17 3.8202492397947066e-17 1.1725607911551753e-24
2.836916847834745 5.463216323528834e-25 4.114001416336118e-17 4.114001264653995e-17 1.5168212265542616e-24
2.9233170693905177 5.86368992005198e-25 4.550051912570749e-17 4.550051717857037e-17 1.9471371197139508e-24
2.967498994190263 6.204124080631954e-25 4.886979176146167e-17 4.886978956442341e-17 2.197038263687042e-24
3.0123486681368425 6.60181581958854e-25 5.2788348536864795e-17 5.278834606087798e-17 2.4759867969728606e-24
3.0578761833420214 7.492158712294833e-25 6.081298177899254e-17 6.081297899130722e-17 2.7876853110810204e-24
3.1040917844459814 8.639839825693694e-25 7.118847319565775e-17 7.118847006215475e-17 3.1335029864311065e-24
3.127460860933648 9.854030337562387e-25 8.180412645850564e-17 8.18041231371453e-17 3.321360310821142e-24
3.1510058709225794 1.1472016399689216e-24 9.595296618043203e-17 9.595296266124043e-17 3.519191575197371e-24
3.162844764501044 1.2977949509226562e-24 1.0895656174315652e-16 1.0895655812075207e-16 3.622404467363253e-24
3.1747281389236908 1.4729479032726987e-24 1.2412617165629315e-16 1.2412616792802035e-16 3.728272823663381e-24
3.1986289994194426 1.9615645534801163e-24 1.6654665262638728e-16 1.6654664867760463e-16 3.948782650809082e-24
3.2227097969389145 3.113335900352932e-24 2.663278676736265e-16 2.6632786348846665e-16 4.185159851859714e-24
3.2348180950136065 4.2055988920103524e-24 3.611163453037284e-16 3.61116340991417e-16 4.3123115643345376e-24
3.240889293275058 5.022192136661487e-24 4.3204297989490225e-16 4.320429755152611e-16 4.37964100142593e-24
3.2469718861334385 5.9668466343027695e-24 5.142719494065097e-16 5.142719449570163e-16 4.4494933992844795e-24
3.2714166318528037 1.1005962918655294e-23 9.557258562708632e-16 9.557258515301742e-16 4.7406891298292755e-24
3.2744851364798273 1.1320927084759067e-23 9.839985301309508e-16 9.839985253556071e-16 4.775343670160059e-24
3.2775565192852394 1.1644938423907853e-23 1.0131105059542128e-15 1.0131105011439857e-15 4.810227130630804e-24
3.283707930232385 1.133316439690232e-23 9.878366692281561e-16 9.878366643552536e-16 4.872902067173486e-24
3.2898708863219004 1.0344722630003866e-23 9.033730653314833e-16 9.033730604012527e-16 4.9302306125899035e-24
3.29141343181113 1.011162750465169e-23 8.834316060329117e-16 8.834316010882614e-16 4.944649925113475e-24
3.292184975758714 9.997093420538153e-24 8.736297447880268e-16 8.736297398361541e-16 4.951872702896009e-24
3.295272960557952 9.274137273950121e-24 8.112119651463003e-16 8.112119601663079e-16 4.979992068693529e-24
3.3076538914384823 6.769740793020755e-24 5.943763662739392e-16 5.943763611806211e-16 5.093318022968019e-24
3.310756385682612 6.260066610010993e-24 5.501430270754029e-16 5.501430219534229e-16 5.121979958179006e-24
3.313861789986515 5.789825445787492e-24 5.092948623958772e-16 5.09294857245102e-16 5.15077500622521e-24
3.3200813396944477 5.130348478665235e-24 4.521317675137048e-16 4.521317623009874e-16 5.2127175094163774e-24
3.345076488085796 3.953783939426881e-24 3.510657152385003e-16 3.5106570974841385e-16 5.4900865774136445e-24
3.3482140837626964 3.997867999843146e-24 3.5531300412482894e-16 3.553129985969541e-16 5.527874818474558e-24
3.3513546224236106 4.042439503837879e-24 3.596113143263066e-16 3.596113087604146e-16 5.56589213021334e-24
3.3576445397418455 4.368305409877285e-24 3.8932935002289395e-16 3.89329344377337e-16 5.645556898455761e-24
3.3702598118196083 5.5703527399948596e-24 4.983282551582882e-16 4.98328249344832e-16 5.813456163928559e-24
3.382922481734668 5.84396878305399e-24 5.2477044379799e-16 5.247704378204139e-16 5.977576045243832e-24
3.389271646505754 5.985720230992682e-24 5.385080822512058e-16 5.385080761900353e-16 6.061170407889675e-24
3.395632727569191 6.138446386868489e-24 5.532846363263164e-16 5.532846301788588e-16 6.147457270814974e-24
3.421196662673239 6.871718368611341e-24 6.240405698573863e-16 6.240405633501291e-16 6.5072572131394734e-24
3.4276182099114902 6.723743030335542e-24 6.117485964368046e-16 6.11748589847886e-16 6.588919032720688e-24
3.4340518103208963 6.075685152652644e-24 5.538236996562749e-16 5.538236929895757e-16 6.666699245195244e-24
3.4469541582030403 5.1527641384025166e-24 4.714603826248357e-16 4.714603758075431e-16 6.817292367187701e-24
3.472904465399547 4.893973088029609e-24 4.51152996815797e-16 4.511529896501657e-16 7.165631342390659e-24
3.4990501388274233 4.498251658035178e-24 4.1779510504205496e-16 4.177950975151584e-16 7.526896674677504e-24
3.5253949054701885 3.0904171614282742e-24 2.891973522534831e-16 2.8919734437031563e-16 7.883167455573597e-24
3.5519380250092896 1.7674552857839457e-24 1.666415314284688e-16 1.666415231816597e-16 8.246809104422733e-24
3.578680990867387 1.24289733611808e-24 1.1806676849265141e-16 1.1806675984301215e-16 8.649639250298518e-24
3.605625307711299 1.0306877694745152e-24 9.864547059717654e-17 9.864546151756264e-17 9.079613924324181e-24
3.660119384959845 8.757844131647416e-25 8.508674224314136e-17 8.508673223933322e-17 1.0003808176720019e-23
3.715437065384467 7.660903807978636e-25 7.555432877422863e-17 7.55543177659671e-17 1.100826154199012e-23
3.8285932144167436 7.101924418471818e-25 7.21746529712719e-17 7.217463969243467e-17 1.3278837241835976e-23
3.94519561050918 6.992090072564374e-25 7.32225734878779e-17 7.322255755315465e-17 1.5934723236061167e-23
4.06534921144712 7.066590773541388e-25 7.625656391930143e-17 7.625654488548287e-17 1.9033818531510855e-23
4.189162171576248 7.24774070871632e-25 8.059335848860134e-17 8.05933358364116e-17 2.2652189744979718e-23
4.316745939156006 7.506550535324823e-25 8.601344352323006e-17 8.601341665699132e-17 2.686623877035547e-23
4.448215356677963 7.833232226929644e-25 9.249031107710159e-17 9.249027934308106e-17 3.1734020516948604e-23
4.58368876423945 8.228860978907797e-25 1.001207926830015e-16 1.0012075530558465e-16 3.7377416858931794e-23
4.723288106065518 8.702533524307957e-25 1.091087486703439e-16 1.0910870470728165e-16 4.396306225902619e-23
4.867139040275056 9.272552711330614e-25 1.1979604956558738e-16 1.1979599800766944e-16 5.1557917927729773e-23
4.940699165968905 9.616760846934049e-25 1.2612078348346392e-16 1.2612072767556184e-16 5.580790210610154e-23
5.015371051989984 9.973150132965596e-25 1.3277149909812465e-16 1.3277143871153955e-16 6.038658509713972e-23
5.091171501069577 1.0408523748527088e-24 1.406618410654772e-16 1.4066177568248319e-16 6.538299401964335e-23
5.129500256944802 1.0631946996900349e-24 1.4476290572767523e-16 1.447628377024774e-16 6.802519783728821e-23
5.168117569889187 1.0864896860650035e-24 1.4904843691655129e-16 1.490483661372044e-16 7.077934688529728e-23
5.20702561229733 1.1151155697731926e-24 1.5412710697807336e-16 1.5412703324211547e-16 7.373595796090526e-23
5.246226572918644 1.1444715584413376e-24 1.5937547065624808e-16 1.593753938462561e-16 7.680999196716175e-23
5.265937586045735 1.1594306356854932e-24 1.6206525317184762e-16 1.6206517477934034e-16 7.839250740931934e-23
5.285722656980489 1.174581119054391e-24 1.6479985314686687e-16 1.6479977314070583e-16 8.000616103946265e-23
5.305582063971359 1.1899261040886897e-24 1.6758010623811713e-16 1.67580024586544e-16 8.165157315041164e-23
5.3255160863122235 1.2064182323514574e-24 1.7054108665083599e-16 1.705410033151804e-16 8.33356556238294e-23
5.365609099470188 1.2475431339499e-24 1.7768224515817746e-16 1.7768215830445401e-16 8.685372340285676e-23
5.406003951863644 1.2902368761563157e-24 1.851463872723119e-16 1.8514629675757047e-16 9.051474143320615e-23
5.446702915881641 1.3345755160889362e-24 1.929506624553453e-16 1.9295056813073608e-16 9.432460922568706e-23
5.487708281020852 1.3824985560544224e-24 2.0138408042731346e-16 2.0138398212808386e-16 9.829922964138862e-23
5.529022354014368 1.4491979080979626e-24 2.126892193950724e-16 2.1268911687152462e-16 1.0252354779114591e-22
5.570647458961463 1.5198415721878544e-24 2.2473640398973146e-16 2.247362970645114e-16 1.0692522000838418e-22
5.612585937458331 1.594714214426704e-24 2.375829672932463e-16 2.3758285578138525e-16 1.1151186093421546e-22
5.654840148729818 1.677040995191922e-24 2.517291126252688e-16 2.5172899631864553e-16 1.1630662330794095e-22
5.67608639626678 1.7331581955853175e-24 2.611299198660949e-16 2.611298010197189e-16 1.1884637608435938e-22
5.686739436050992 1.7620864807889984e-24 2.6598673698319085e-16 2.6598661684635737e-16 1.2013683350201354e-22
5.6974124697621304 1.7916130885331793e-24 2.7095135132081185e-16 2.7095122987959697e-16 1.2144121497356348e-22
5.718818669136295 1.8525190088926394e-24 2.812149676949253e-16 2.812148436025546e-16 1.240923706448424e-22
5.740305295436557 1.919671540158571e-24 2.9250369066967373e-16 2.925035638505527e-16 1.2681912096605326e-22
5.7835210386641895 2.093970046750343e-24 3.2146390632677824e-16 3.214637737285873e-16 1.3259819093931764e-22
5.827062130521658 2.294820776744227e-24 3.5495055127432776e-16 3.549504125889439e-16 1.3868538384747864e-22
5.8489554468988025 2.4357805095131738e-24 3.781689757761617e-16 3.7816883375720206e-16 1.420189596392949e-22
5.870931020387893 2.5870682896221136e-24 4.0316637474264706e-16 4.0316622930651947e-16 1.454361274576168e-22
5.892989160043636 2.749516156763437e-24 4.3009198697826533e-16 4.300918380391314e-16 1.4893913406534132e-22
5.915130176081913 2.9342957231752727e-24 4.607205886410163e-16 4.60720436034552e-16 1.526064643778159e-22
5.95966208400165 3.451072823594946e-24 5.459403483334081e-16 5.459401874116419e-16 1.6092176611974425e-22
6.004529249263818 4.196117690541088e-24 6.687996825815315e-16 6.687995120422631e-16 1.7053926792971427e-22
6.027089341400364 4.7140915615580415e-24 7.541801121330539e-16 7.541799359589519e-16 1.7617410191453827e-22
6.049734195844842 5.326264285565907e-24 8.553196287392729e-16 8.55319446489228e-16 1.8225004492115465e-22
6.095279466722835 7.094743334286303e-24 1.1478886041787107e-15 1.147888406831999e-15 1.9734671171973856e-22
6.141167624020661 9.816647430368442e-24 1.6002343114319596e-15 1.6002340940584513e-15 2.1737350712134247e-22
6.164241091010745 1.1554832009964087e-23 1.8906567305679464e-15 1.8906565006080706e-15 2.299598748648032e-22
6.187401249150058 1.3535010535475397e-23 2.2229838720678898e-15 2.22298362866662e-15 2.434012697431983e-22
6.1990139391386085 1.4501859324669522e-23 2.386248859853855e-15 2.3862486095534155e-15 2.5030043982114565e-22
6.204828454712694 1.5011171763381913e-23 2.4723719426805174e-15 2.4723716888388185e-15 2.538416985324605e-22
6.210648424152782 1.5382927594992005e-23 2.535977371950673e-15 2.535977115059584e-15 2.568910884850488e-22
6.233982942956859 1.664588150644871e-23 2.7544940683997424e-15 2.7544938004985873e-15 2.679011549128085e-22
6.239830258556775 1.6807282143364306e-23 2.783810697859011e-15 2.783810428221229e-15 2.696377818838407e-22
6.245683058788269 1.682119140845536e-23 2.7887278101682556e-15 2.788727538782251e-15 2.7138600428852642e-22
6.257405133728602 1.6786295697728182e-23 2.7881656750700963e-15 2.7881654004980388e-15 2.7457205818744796e-22
6.269149208991335 1.6537640578741582e-23 2.752020016656333e-15 2.7520197403653177e-15 2.7629101602282772e-22
6.280915325867298 1.5914378485311486e-23 2.6532737122092246e-15 2.6532734360295443e-15 2.761796802552672e-22
6.304513850009849 1.4377516723962225e-23 2.4060514929645095e-15 2.4060512186926404e-15 2.742718685358068e-22
6.32820103803542 1.2472663538136409e-23 2.0951200242905557e-15 2.095119753888224e-15 2.7040233132290403e-22
6.3519772230701035 1.072579938217204e-23 1.8084563662724686e-15 1.8084560992897303e-15 2.6698273820469975e-22
6.375842739491607 9.256254296956002e-24 1.5665429524859225e-15 1.5665426882734141e-15 2.642125083879385e-22
6.399797922933955 8.078372970464732e-24 1.372333276873732e-15 1.3723330135001252e-15 2.6337360676482085e-22
6.42384311029221 7.099114719264301e-24 1.2105104778925018e-15 1.2105102148531186e-15 2.63039382558213e-22
6.447978639727206 6.385429426317812e-24 1.0929068109238017e-15 1.0929065465434766e-15 2.643803253592094e-22
6.472204850670314 5.7909080935806794e-24 9.948746388007929e-16 9.948743726750202e-16 2.6612577243756655e-22
6.496522083828205 5.404429094935608e-24 9.319662291868027e-16 9.319659598766959e-16 2.693101068842633e-22
6.520930681187647 5.0788513228905034e-24 8.791126233590952e-16 8.791123505767324e-16 2.7278236310452763e-22
6.57002334288761 4.7456511318250615e-24 8.276222432643613e-16 8.276219612804861e-16 2.819838749036912e-22
