Dust emission spectrum from A.P. Jones, M. Kohler, N. Ysard, M. Bocchio, and L. Verstraete (2017), A&A, 602A, 46J 
inside the DustPedia framework.

lambda    nu*dP/dnu     j_nu    j_nu(carb.) j_nu(sil)
 (um)   (erg s-1 H-1) (Jy cm2 sr-1 H-1)
0.9927057738263894 9.952482091292591e-24 2.622535560025348e-16 2.622535538702443e-16 2.132290439251578e-24
1.0001793341362166 1.0119441946927215e-23 2.686605337198286e-16 2.686605311526728e-16 2.5671558050785942e-24
1.0077091589558085 1.0286695130123154e-23 2.7515696315377925e-16 2.751569600671311e-16 3.0866481218953373e-24
1.0114953028030835 1.0370418383773771e-23 2.7843868965310555e-16 2.784386862701987e-16 3.3829067131257114e-24
1.0152956718711033 1.0454199061663593e-23 2.817427395914367e-16 2.817427358850586e-16 3.7063780189083304e-24
1.0229392996569957 1.062183039809904e-23 2.8841554184116415e-16 2.8841553739644044e-16 4.444723718866808e-24
1.0267826658714554 1.0705485873212436e-23 2.91779209996111e-16 2.9177920513099945e-16 4.865111644659304e-24
1.0306404723013447 1.07891740014509e-23 2.9516497587936045e-16 2.9516497055585727e-16 5.323503284691388e-24
1.03451277320114 1.0872889802063284e-23 2.9857282464168643e-16 2.9857281881852403e-16 5.823162452096462e-24
1.0383996230291617 1.09566283550049e-23 3.0200274166847067e-16 3.0200273530085333e-16 6.367617380080744e-24
1.0403485208654093 1.0998504643131115e-23 3.0372597129415545e-16 3.0372596463633236e-16 6.657823031594845e-24
1.0423010764483396 1.1040384802750413e-23 3.0545471264494826e-16 3.054547056842675e-16 6.960680756833733e-24
1.0462171883269815 1.112415435208919e-23 3.0892872362231927e-16 3.089287160158482e-16 7.606471164230249e-24
1.0471985131304309 1.1145098231111188e-23 3.0980066852243316e-16 3.0980066074576214e-16 7.776670976682497e-24
1.048180758391296 1.1166042560001532e-23 3.106739898688716e-16 3.106739819183563e-16 7.950515315354125e-24
1.0501480137395462 1.1207932275902509e-23 3.124247610847155e-16 3.124247527752795e-16 8.309436009850601e-24
1.0521189612883777 1.1249822919517672e-23 3.1418103565913896e-16 3.141810269752944e-16 8.683844575186645e-24
1.0531058218030118 1.127073890506548e-23 3.1506041146196797e-16 3.150604025849008e-16 8.877067083470248e-24
1.0540936079674168 1.129155824335379e-23 3.1593845631747477e-16 3.159384472430298e-16 9.074444903165144e-24
1.058054026499678 1.1374830353566202e-23 3.1946420625806014e-16 3.1946419635126864e-16 9.906791523169373e-24
1.0590464539527713 1.1395646720104524e-23 3.2034903532258223e-16 3.2034902519655835e-16 1.0126023815772783e-23
1.06003981227728 1.1416462283132467e-23 3.2123522060856013e-16 3.2123521025866507e-16 1.0349894945146084e-23
1.0620293250338977 1.1458090722774925e-23 3.230116590477307e-16 3.23011648235802e-16 1.0811928706625272e-23
1.0660195594769086 1.1541334941730787e-23 3.265808019881522e-16 3.2658079019226407e-16 1.1795888175864392e-23
1.070024785945596 1.1624558677036213e-23 3.3017162319139783e-16 3.301716103262261e-16 1.2865171774846934e-23
1.0740450607676866 1.1707757672788027e-23 3.3378411165203455e-16 3.337840976252489e-16 1.40267856171584e-23
1.07808044048254 1.1790927752198657e-23 3.374182573199823e-16 3.374182420317057e-16 1.5288276517096355e-23
1.0861967418109137 1.1957029824112704e-23 3.4474759191378663e-16 3.447475737697685e-16 1.8144018133667708e-23
1.0902777775684922 1.2039646790457251e-23 3.4843384979534973e-16 3.4843383003891547e-16 1.9756434307250802e-23
1.0943741465085532 1.212221356725841e-23 3.521414829764964e-16 3.521414614713569e-16 2.1505139452713773e-23
1.1026131145906286 1.2287181731888815e-23 3.5962085435723264e-16 3.5962082890145297e-16 2.5455779738811103e-23
1.1109141095355224 1.24519055793251e-23 3.671856791019836e-16 3.6718564900881955e-16 3.009316405068576e-23
1.1192775983109025 1.2616219577529954e-23 3.748318477146828e-16 3.748318121852136e-16 3.55294690923531e-23
1.1277040513999907 1.2779462489037636e-23 3.8254027108079747e-16 3.8254022918685303e-16 4.1893944346690035e-23
1.1361939428280308 1.2942363481781252e-23 3.9033320304793513e-16 3.9033315371263614e-16 4.933529909291268e-23
1.1447477501889525 1.3104900237688079e-23 3.9821072336050356e-16 3.982106653360943e-16 5.80244093229218e-23
1.1533659546722406 1.3267121971502614e-23 4.0617508736705236e-16 4.0617501920959908e-16 6.815745326233526e-23
1.1707974979042381 1.359111911392721e-23 4.223830067213104e-16 4.2238291303342966e-16 9.36878808619967e-23
1.1884924949847024 1.3913601723422368e-23 4.3894028793549006e-16 4.3894015979601547e-16 1.2813947464854892e-22
1.2064549276569216 1.423686673128074e-23 4.559266246593538e-16 4.559264502608631e-16 1.7439849050566626e-22
1.2246888378427687 1.455827507643112e-23 4.732657911309554e-16 4.732655549318456e-16 2.3619910983138097e-22
1.2431983285522175 1.4877376914342947e-23 4.909488154323785e-16 4.909484970767124e-16 3.183556660595886e-22
1.2619875648066055 1.5194416119674902e-23 5.089891498596539e-16 5.089887228162406e-16 4.2704341349886685e-22
1.3004222497298317 1.581915495031709e-23 5.460559008454648e-16 5.460551432177855e-16 7.576276792918786e-22
1.3400274889804893 1.6432847579841812e-23 5.845154130780903e-16 5.845140935050309e-16 1.319573059303512e-21
1.3808389325824078 1.7036269636088568e-23 6.244346031864991e-16 6.244323457933932e-16 2.2573931061178984e-21
1.4228933163050095 1.7633876868357382e-23 6.660235356685042e-16 6.6601974084914395e-16 3.794819360207497e-21
1.466228494730424 1.8237282278276293e-23 7.097921772510714e-16 7.097859053140432e-16 6.271937028083747e-21
1.5108834753276823 1.8842687789635758e-23 7.556892714716017e-16 7.556790754714271e-16 1.0196000174430282e-20
1.5568984535646726 1.944741519283366e-23 8.036956294101171e-16 8.03679309013717e-16 1.6320396400017607e-20
1.6043148490894465 2.0054732660307935e-23 8.54035479805265e-16 8.540097101293366e-16 2.5769675928614387e-20
1.6531753430134553 2.0668209428630192e-23 9.069664157810578e-16 9.069263238714268e-16 4.009190963089742e-20
1.7035239163302658 2.1292725555705796e-23 9.628284725668165e-16 9.62767000674748e-16 6.14718920687318e-20
1.755405889504358 2.1945036112419405e-23 1.0225470120294945e-15 1.0224540757559024e-15 9.293627359179836e-20
1.8088679632656115 2.2623801816350098e-23 1.0862802607207457e-15 1.0861416694010418e-15 1.3859131970398971e-19
1.8639582606462262 2.3327850388817028e-23 1.1541980531324354e-15 1.1539941138871716e-15 2.0393924526379522e-19
1.9207263702978936 2.405989399995167e-23 1.2266725352582683e-15 1.2263762960575111e-15 2.962392007574945e-19
1.979223391128241 2.4824475985467808e-23 1.304200426332962e-15 1.3037754859590388e-15 4.249403739234371e-19
2.039501978296691 2.5625925338007608e-23 1.387308733993167e-15 1.3867065749281518e-15 6.021590650153786e-19
2.1016163906111602 2.647758011014069e-23 1.477070316743663e-15 1.4762270390090204e-15 8.432777346426518e-19
2.1656225393682647 2.7385887554257445e-23 1.574269264480706e-15 1.5731017703150874e-15 1.167494165618896e-18
2.231578038680979 2.8347793520592973e-23 1.6791936089326052e-15 1.6775951639880683e-15 1.5984449445369005e-18
2.299542257339062 2.9364590652349505e-23 1.7923993547016096e-15 1.7902344869801323e-15 2.164867721477914e-18
2.369576372248914 3.044179244584347e-23 1.9147424438913936e-15 1.911841127174612e-15 2.9013167167811636e-18
2.4417434235010123 3.1586021245910645e-23 2.047219374068022e-15 2.0433706335276343e-15 3.848740540387095e-18
2.5161083711144245 3.2811643273329196e-23 2.1914257324137935e-15 2.1863705031270493e-15 5.055229286744237e-18
2.5927381535095444 3.414415474532409e-23 2.3498733593817664e-15 2.343296828327975e-15 6.576531053792257e-18
2.6717017477616296 3.5609844761743876e-23 2.525384368813894e-15 2.516908251055867e-15 8.47611775802638e-18
2.753070231689431 3.7249532223741665e-23 2.722121757795471e-15 2.7112963118784813e-15 1.0825445916990096e-17
2.836916847834745 3.9168071145439534e-23 2.9494988048250884e-15 2.935794343415235e-15 1.370446140985411e-17
2.9233170693905177 4.1601191324975097e-23 3.22813079706211e-15 3.2109326034421912e-15 1.719819361991876e-17
2.967498994190263 4.3246465194783625e-23 3.4065175374008623e-15 3.3873481473981084e-15 1.9169390002755467e-17
3.0123486681368425 4.506052147785479e-23 3.6030549443200476e-15 3.581716763477028e-15 2.1338180843021106e-17
3.0578761833420214 4.840347726773985e-23 3.928854011451309e-15 3.905126276400554e-15 2.3727735050754396e-17
3.1040917844459814 5.248461767444547e-23 4.324501233680704e-15 4.2981677402257726e-15 2.6333493454931352e-17
3.127460860933648 5.649635279437385e-23 4.690095960855921e-15 4.662365142746062e-15 2.7730818109858253e-17
3.1510058709225794 6.170921847183538e-23 5.1614139544024e-15 5.132225058530598e-15 2.918889587180272e-17
3.162844764501044 6.648553401068993e-23 5.58180256928291e-15 5.551858513282325e-15 2.9944056000584137e-17
3.1747281389236908 7.196320691567536e-23 6.064381065145325e-15 6.033666072824738e-15 3.071499232058596e-17
3.1986289994194426 8.701391902126558e-23 7.387917424988382e-15 7.355608397904809e-15 3.230902708357508e-17
3.2227097969389145 1.2216292237255436e-22 1.0450330984386525e-14 1.0416331230760844e-14 3.399975362567531e-17
3.2348180950136065 1.5531641293790047e-22 1.3336339685739409e-14 1.3301437248194748e-14 3.4902437544653856e-17
3.240889293275058 1.8009346329830043e-22 1.5492859378079078e-14 1.5457480790905438e-14 3.5378587173642484e-17
3.2469718861334385 2.0878644216475965e-22 1.7994933874191496e-14 1.7959062602710774e-14 3.5871271480727076e-17
3.2714166318528037 3.6063900219101063e-22 3.1316843580260333e-14 3.127893494414919e-14 3.790863611114536e-17
3.2744851364798273 3.70144714290727e-22 3.217244065533768e-14 3.213429153580434e-14 3.8149119533338533e-17
3.2775565192852394 3.799145126609585e-22 3.305259075918129e-14 3.301419991841602e-14 3.8390840765262775e-17
3.283707930232385 3.7058384447900536e-22 3.23013324239755e-14 3.226250852678699e-14 3.882389718850466e-17
3.2898708863219004 3.408663586155195e-22 2.9766819108108604e-14 2.972760038534937e-14 3.9218722759231195e-17
3.29141343181113 3.3385026417439964e-22 2.916779469164802e-14 2.912847680724653e-14 3.931788440149705e-17
3.292184975758714 3.3040161092704964e-22 2.887325974555243e-14 2.883389221194033e-14 3.936753361210588e-17
3.295272960557952 3.0875389400150347e-22 2.7006808903191053e-14 2.6967248107786497e-14 3.956079540455542e-17
3.3076538914384823 2.3346409640426586e-22 2.0497910558001886e-14 2.0457573162134245e-14 4.033739586763717e-17
3.310756385682612 2.1805862438585447e-22 1.916328358354666e-14 1.9122750363204402e-14 4.053322034226269e-17
3.313861789986515 2.038126171400484e-22 1.7928125773879233e-14 1.788739605766426e-14 4.072971621497511e-17
3.3200813396944477 1.83878836353128e-22 1.6205032393887782e-14 1.6163880367892894e-14 4.115202599489e-17
3.345076488085796 1.4871811744030306e-22 1.320502917407048e-14 1.3161996027685543e-14 4.3033146384936624e-17
3.3482140837626964 1.5010199083087767e-22 1.3340407759668195e-14 1.3297119820565525e-14 4.328793910266578e-17
3.3513546224236106 1.514998356502278e-22 1.3477271574917504e-14 1.343372765481446e-14 4.3543920103041305e-17
3.3576445397418455 1.6146765051101538e-22 1.4390957024441063e-14 1.434687803656771e-14 4.407898787335109e-17
3.3702598118196083 1.9788277885249633e-22 1.7702753221249132e-14 1.7657551827411755e-14 4.520139383737268e-17
3.382922481734668 2.0641721173494566e-22 1.8535631491358423e-14 1.84893376348688e-14 4.629385648962841e-17
3.389271646505754 2.1082823737392589e-22 1.8967259646514812e-14 1.8920411763876874e-14 4.6847882637938435e-17
3.395632727569191 2.156316847564387e-22 1.943581335761418e-14 1.9388394507967844e-14 4.7418849646329663e-17
3.421196662673239 2.388170755972858e-22 2.1687667618648565e-14 2.1637883557656858e-14 4.9784060991706227e-17
3.4276182099114902 2.344503722226003e-22 2.1331077867517e-14 2.1280764326666256e-14 5.0313540850744456e-17
3.4340518103208963 2.1485887673897263e-22 1.958527063694481e-14 1.953445550230659e-14 5.081513463822425e-17
3.4469541582030403 1.8685675792038637e-22 1.7096757433281894e-14 1.704497792809781e-14 5.177950518408584e-17
3.472904465399547 1.7913169435097746e-22 1.6513331658648855e-14 1.645933301846352e-14 5.399864018533087e-17
3.4990501388274233 1.6732352072045117e-22 1.5540915277724258e-14 1.54846420514955e-14 5.627322622875734e-17
3.5253949054701885 1.25097581620401e-22 1.1706474397525642e-14 1.1647985500998959e-14 5.848889652668429e-17
3.5519380250092896 8.511313686608058e-23 8.02474811449251e-15 7.96402746817796e-15 6.072064631454964e-17
3.578680990867387 6.941942808381953e-23 6.594372122530576e-15 6.531204653393972e-15 6.316746913660612e-17
3.605625307711299 6.32658389137428e-23 6.055071804677738e-15 5.989324438408653e-15 6.574736626908343e-17
3.660119384959845 5.916369982196193e-23 5.748043012904047e-15 5.676862465516428e-15 7.118054738761812e-17
3.715437065384467 5.636034784104557e-23 5.5584410891275856e-15 5.481513938319995e-15 7.692715080759276e-17
3.8285932144167436 5.574271785803657e-23 5.6649593546998335e-15 5.575614973760007e-15 8.93443809398252e-17
3.94519561050918 5.643397226354413e-23 5.9098790753487955e-15 5.806893842684269e-15 1.0298523266452602e-16
4.06534921144712 5.762542009375197e-23 6.2184392326904246e-15 6.1005806330939804e-15 1.1785859959644463e-16
4.189162171576248 5.907919127366882e-23 6.569482315791551e-15 6.435465757205579e-15 1.3401655858597053e-16
4.316745939156006 6.070115681270606e-23 6.955412474390939e-15 6.803985027205611e-15 1.5142744718532752e-16
4.448215356677963 6.2455365255316e-23 7.374371132569339e-15 7.204488061526763e-15 1.6988307104257413e-16
4.58368876423945 6.434027311861892e-23 7.828299885717534e-15 7.638868295938961e-15 1.8943158977856962e-16
4.723288106065518 6.637962324682399e-23 8.322401297782742e-15 8.112181850897485e-15 2.1021944688525519e-16
4.867139040275056 6.861856144215042e-23 8.86512360032036e-15 8.633371747616208e-15 2.317518527041508e-16
4.940699165968905 6.988431590692797e-23 9.165107478156362e-15 8.922239736642345e-15 2.428677415140178e-16
5.015371051989984 7.115547621233094e-23 9.472853732066361e-15 9.218665578622003e-15 2.5418815344435873e-16
5.091171501069577 7.264780766480063e-23 9.817698092822821e-15 9.55175003013265e-15 2.659480626901693e-16
5.129500256944802 7.339683178478814e-23 9.993596321980337e-15 9.721699460569872e-15 2.718968614104678e-16
5.168117569889187 7.416656944080061e-23 1.0174428150027388e-14 9.896483833945486e-15 2.7794431608190296e-16
5.20702561229733 7.510134560756661e-23 1.0380227343618731e-14 1.0095707976683929e-14 2.84519366934805e-16
5.246226572918644 7.604608166646209e-23 1.0589935562629453e-14 1.0298776616494459e-14 2.911589461349994e-16
5.265937586045735 7.652232427737519e-23 1.0696293055926364e-14 1.0401790728371895e-14 2.945023275544683e-16
5.285722656980489 7.700122772277243e-23 1.0803673594768322e-14 1.0505812488320882e-14 2.978611064474377e-16
5.305582063971359 7.748285247099589e-23 1.0912093283865008e-14 1.0610858253150947e-14 3.0123503071406027e-16
5.3255160863122235 7.799834071097173e-23 1.1025962162296055e-14 1.0721313682111125e-14 3.04648480184931e-16
5.365609099470188 7.928138246447062e-23 1.1291709001619994e-14 1.0979998187766065e-14 3.117108138539276e-16
5.406003951863644 8.059446640848263e-23 1.156514324262923e-14 1.1246301899853483e-14 3.1884134277574704e-16
5.446702915881641 8.193928510246938e-23 1.1846642734741494e-14 1.1520604632841792e-14 3.2603810189969935e-16
5.487708281020852 8.337800405291764e-23 1.2145403407857635e-14 1.1812075816349621e-14 3.3332759150801025e-16
5.529022354014368 8.53954752132056e-23 1.2532930707032318e-14 1.2192000316495108e-14 3.4093039053721145e-16
5.570647458961463 8.750201420925843e-23 1.2938774919111448e-14 1.25901685842612e-14 3.48606334850248e-16
5.612585937458331 8.970437707485271e-23 1.3364295553292889e-14 1.30079420914077e-14 3.56353461885186e-16
5.654840148729818 9.210283668350336e-23 1.3824924623238e-14 1.3460719312342295e-14 3.6420531089570567e-16
5.67608639626678 9.375845084887683e-23 1.4126313927545445e-14 1.3758002436233727e-14 3.6831149131171593e-16
5.686739436050992 9.460732217490236e-23 1.4280963615788086e-14 1.3910591385102878e-14 3.703722306852114e-16
5.6974124697621304 9.547068920967546e-23 1.4438336278325166e-14 1.4065898248494642e-14 3.7243802983052586e-16
5.718818669136295 9.724232134551953e-23 1.4761519922057992e-14 1.4384935234925333e-14 3.7658468713266104e-16
5.740305295436557 9.919325882774582e-23 1.5114249333649632e-14 1.473346879096981e-14 3.807805426798212e-16
5.7835210386641895 1.0428463494144653e-22 1.6009658863155817e-14 1.5620198360514138e-14 3.89460502641683e-16
5.827062130521658 1.1008686220967244e-22 1.7027644522559338e-14 1.662934369880834e-14 3.983008237510004e-16
5.8489554468988025 1.1420581003891265e-22 1.7731110845752872e-14 1.7328043786274195e-14 4.0306705947867777e-16
5.870931020387893 1.185904192747918e-22 1.848102333054845e-14 1.8073160737545792e-14 4.0786259300265843e-16
5.892989160043636 1.2326166848346093e-22 1.9281158172466464e-14 1.8868470933582295e-14 4.126872388841766e-16
5.915130176081913 1.2856434873344616e-22 2.018618708363367e-14 1.97685006119931e-14 4.1768647164057325e-16
5.95966208400165 1.4347528928691145e-22 2.269698537654691e-14 2.226794937308016e-14 4.29036003466749e-16
6.004529249263818 1.649189870165989e-22 2.6285670303529115e-14 2.5843884010785885e-14 4.4178629274324645e-16
6.027089341400364 1.7984175224641062e-22 2.877183675884631e-14 2.832270434770518e-14 4.49132411141128e-16
6.049734195844842 1.9738875463993387e-22 3.1697727954180496e-14 3.124081780943909e-14 4.56910144741404e-16
6.095279466722835 2.4808575017747905e-22 4.013884534929433e-14 3.9662889635166626e-14 4.759557141277177e-16
6.141167624020661 3.2578937617060627e-22 5.3107676703904065e-14 5.2607091131162965e-14 5.005855727410933e-16
6.164241091010745 3.7541387039076407e-22 6.142700821533336e-14 6.091100727966187e-14 5.160009356714781e-16
6.187401249150058 4.315650551142577e-22 7.088004510617754e-14 7.034820127896934e-14 5.318438272081957e-16
6.1990139391386085 4.589343384677598e-22 7.551662979198234e-14 7.49767218151732e-14 5.399079768091522e-16
6.204828454712694 4.73318912956003e-22 7.795663248535243e-14 7.741264994558533e-14 5.439825397671393e-16
6.210648424152782 4.837877163599253e-22 7.975560529296622e-14 7.920814114901093e-14 5.474641439553276e-16
6.233982942956859 5.191492427864048e-22 8.590674572057851e-14 8.534709994765806e-14 5.596457729204455e-16
6.239830258556775 5.235543318248021e-22 8.671694432283554e-14 8.615557581665807e-14 5.61368506177438e-16
6.245683058788269 5.237547954894299e-22 8.683151677093267e-14 8.62684222501094e-14 5.630945208232655e-16
6.257405133728602 5.223666649531188e-22 8.676391928567296e-14 8.619778460123063e-14 5.661346844423427e-16
6.269149208991335 5.148937828653166e-22 8.568320191447024e-14 8.511585821921795e-14 5.673436952522812e-16
6.280915325867298 4.967684409222053e-22 8.282212507202731e-14 8.225583841935665e-14 5.662866526706792e-16
6.304513850009849 4.523214964815469e-22 7.569518664482175e-14 7.513306660272497e-14 5.621200420968068e-16
6.32820103803542 3.976286466979305e-22 6.679244873247521e-14 6.623667925838128e-14 5.557694740939216e-16
6.3519772230701035 3.47574162076134e-22 5.860380972659154e-14 5.80536976505935e-14 5.501120759980417e-16
6.375842739491607 3.0537967835786202e-22 5.16829343291972e-14 5.113777060128211e-14 5.451637279150916e-16
6.399797922933955 2.7171735063154604e-22 4.615864649217688e-14 4.561583339503941e-14 5.4281309713747e-16
6.42384311029221 2.4364572105055305e-22 4.154541937814086e-14 4.100444022941527e-14 5.409791487255923e-16
6.447978639727206 2.2321885690640564e-22 3.820532539818789e-14 3.766414958044917e-14 5.411758177387182e-16
6.472204850670314 2.0614794435745003e-22 3.541609681381255e-14 3.4874319411019484e-14 5.417774027930665e-16
6.496522083828205 1.9502768777396618e-22 3.36315299116511e-14 3.308750113454873e-14 5.440287771023573e-16
6.520930681187647 1.8562413251131001e-22 3.213020183428043e-14 3.158366726186418e-14 5.465345724162487e-16
6.57002334288761 1.7581035229472109e-22 3.0660609917041497e-14 3.0106763785710005e-14 5.538461313314953e-16
