Dust emission spectrum from A.P. Jones, M. Kohler, N. Ysard, M. Bocchio, and L. Verstraete (2017), A&A, 602A, 46J 
inside the DustPedia framework.

lambda    nu*dP/dnu     j_nu    j_nu(carb.) j_nu(sil)
 (um)   (erg s-1 H-1) (Jy cm2 sr-1 H-1)
0.9927057738263894 1.600236387127637e-22 4.216713771693578e-15 4.216713771693561e-15 1.7057374163881877e-29
1.0001793341362166 1.6266822895089477e-22 4.318670282255733e-15 4.318670282255713e-15 2.055569655239449e-29
1.0077091589558085 1.6530907191569554e-22 4.421822717083665e-15 4.4218227170836404e-15 2.4740305939966555e-29
1.0114953028030835 1.6662776296826128e-22 4.4738422562878e-15 4.4738422562877726e-15 2.712910814649302e-29
1.0152956718711033 1.679451279860616e-22 4.526154531851603e-15 4.526154531851572e-15 2.973913153846478e-29
1.0229392996569957 1.7057407314932432e-22 4.631613562594753e-15 4.6316135625947155e-15 3.5703051185512793e-29
1.0267826658714554 1.718824659186067e-22 4.684675755203747e-15 4.68467575520371e-15 3.910223657174613e-29
1.0306404723013447 1.73188954216942e-22 4.738019192863231e-15 4.738019192863188e-15 4.2811411897481327e-29
1.03451277320114 1.7449341197365948e-22 4.7916415822088496e-15 4.791641582208804e-15 4.685749399981942e-29
1.0383996230291617 1.757957138160371e-22 4.845540601161087e-15 4.845540601161035e-15 5.126961015583785e-29
1.0403485208654093 1.7644601728714588e-22 4.87259311337319e-15 4.872593113373136e-15 5.362267935851794e-29
1.0423010764483396 1.7709573509334548e-22 4.899713899474544e-15 4.899713899474488e-15 5.607926838227146e-29
1.0462171883269815 1.7839335190036356e-22 4.954159099287973e-15 4.954159099287912e-15 6.13205399187735e-29
1.0471985131304309 1.787173659563408e-22 4.96781260261019e-15 4.9678126026101294e-15 6.270254984469676e-29
1.048180758391296 1.7904122011664898e-22 4.981482911759794e-15 4.9814829117597295e-15 6.411442664497885e-29
1.0501480137395462 1.7968844110036064e-22 5.008873795674735e-15 5.008873795674668e-15 6.70302546929227e-29
1.0521189612883777 1.8033499958316776e-22 5.036331446278374e-15 5.0363314462783034e-15 7.00730931828024e-29
1.0531058218030118 1.806575293982061e-22 5.0500713418461264e-15 5.0500713418460554e-15 7.164387957488228e-29
1.0540936079674168 1.8097826207378517e-22 5.063782297741416e-15 5.063782297741343e-15 7.324874871295581e-29
1.058054026499678 1.8225937443360058e-22 5.118788111707193e-15 5.118788111707112e-15 8.001989986065142e-29
1.0590464539527713 1.82579188568644e-22 5.132579867078264e-15 5.1325798670781826e-15 8.180423485816297e-29
1.06003981227728 1.8289881338593453e-22 5.146387664581644e-15 5.146387664581561e-15 8.362668955158991e-29
1.0620293250338977 1.8353748762323334e-22 5.1740512279933614e-15 5.1740512279932754e-15 8.738907624593516e-29
1.0660195594769086 1.8481248259595283e-22 5.229569117292808e-15 5.229569117292713e-15 9.54064385007379e-29
1.070024785945596 1.8608424120340163e-22 5.285339226670009e-15 5.285339226669905e-15 1.0412611526809597e-28
1.0740450607676866 1.8735264621502886e-22 5.341358980113694e-15 5.34135898011358e-15 1.136064967262782e-28
1.07808044048254 1.8861758133699173e-22 5.397625779088524e-15 5.3976257790883995e-15 1.2391054819199909e-28
1.0861967418109137 1.911343469308103e-22 5.5108255817452424e-15 5.510825581745094e-15 1.4726645130952177e-28
1.0902777775684922 1.9238086812242857e-22 5.567605734081793e-15 5.567605734081633e-15 1.6047029264791713e-28
1.0943741465085532 1.9362337509039418e-22 5.624618149560139e-15 5.624618149559965e-15 1.7480247545769922e-28
1.1026131145906286 1.9609590460907888e-22 5.739328862407149e-15 5.739328862406941e-15 2.0722418174878234e-28
1.1109141095355224 1.9855106265521088e-22 5.854935721527179e-15 5.8549357215269346e-15 2.45348730756105e-28
1.1192775983109025 2.0098571514119371e-22 5.97134874735432e-15 5.971348747354031e-15 2.901211275025496e-28
1.1277040513999907 2.0338855742143984e-22 6.088230546274643e-15 6.088230546274303e-15 3.42632779627286e-28
1.1361939428280308 2.057711906096623e-22 6.205924291859122e-15 6.205924291858719e-15 4.041422848967737e-28
1.1447477501889525 2.0813281991260494e-22 6.324406845471825e-15 6.32440684547135e-15 4.760993386813887e-28
1.1533659546722406 2.1047395539815486e-22 6.443694224411524e-15 6.443694224410966e-15 5.601723116249823e-28
1.1707974979042381 2.151022997318888e-22 6.6849208922259694e-15 6.684920892225197e-15 7.726214476086986e-28
1.1884924949847024 2.196386965036617e-22 6.9290665782676396e-15 6.9290665782665786e-15 1.0604298525889203e-27
1.2064549276569216 2.2411859621124507e-22 7.177255854300842e-15 7.177255854299394e-15 1.4484255531914135e-27
1.2246888378427687 2.2849309030262183e-22 7.427937896646516e-15 7.427937896644547e-15 1.9688966098184064e-27
1.2431983285522175 2.327519422606734e-22 7.68074177325564e-15 7.680741773252978e-15 2.663692092131275e-27
1.2619875648066055 2.3689355329915885e-22 7.935563127354401e-15 7.935563127350814e-15 3.586775947222862e-27
1.3004222497298317 2.44756214558349e-22 8.448654536094935e-15 8.44865453608852e-15 6.413696036946918e-27
1.3400274889804893 2.5205025652122066e-22 8.965412664550389e-15 8.965412664539124e-15 1.1262450127902254e-26
1.3808389325824078 2.5874857870513723e-22 9.483975630824128e-15 9.483975630804696e-15 1.943018073665458e-26
1.4228933163050095 2.6488367828592836e-22 1.0004536453889063e-14 1.0004536453856115e-14 3.2949820581938426e-26
1.466228494730424 2.7060300113677486e-22 1.053182653077295e-14 1.0531826530718e-14 5.495139413793581e-26
1.5108834753276823 2.7579539700550196e-22 1.1060822371262019e-14 1.1060822371171852e-14 9.016685858750126e-26
1.5568984535646726 2.8037090609164865e-22 1.158677745115696e-14 1.1586777451011246e-14 1.4571625957312808e-25
1.6043148490894465 2.84337798215197e-22 1.2108591624664406e-14 1.2108591624432054e-14 2.323543114680925e-25
1.6531753430134553 2.8770804137085157e-22 1.2625260643626236e-14 1.2625260643261064e-14 3.651705947779455e-25
1.7035239163302658 2.905215442318452e-22 1.3136994319900179e-14 1.3136994319334384e-14 5.6579317000492475e-25
1.755405889504358 2.930092636554548e-22 1.3653007701285367e-14 1.3653007700420668e-14 8.646985336537935e-25
1.8088679632656115 2.951140977636692e-22 1.4169882748416196e-14 1.4169882747112174e-14 1.304021532298768e-24
1.8639582606462262 2.967973455602184e-22 1.4684718596476316e-14 1.4684718594534948e-14 1.9413642707269783e-24
1.9207263702978936 2.980869690556556e-22 1.519770195411869e-14 1.5197701951264275e-14 2.8544130004978627e-24
1.979223391128241 2.990481347008783e-22 1.5711054887896873e-14 1.5711054883750127e-14 4.146746266507988e-24
2.039501978296691 2.9975884966645834e-22 1.622802161283262e-14 1.6228021606877832e-14 5.954785925482935e-24
2.1016163906111602 3.004377133600126e-22 1.67601278737877e-14 1.67601278653308e-14 8.456898243261986e-24
2.1656225393682647 3.0121147089089983e-22 1.7315048117140563e-14 1.7315048105257213e-14 1.1883352914597003e-23
2.231578038680979 3.020891698721679e-22 1.7894380492386543e-14 1.789438047585776e-14 1.6528782101510866e-23
2.299542257339062 3.031466990681179e-22 1.8503916987044482e-14 1.8503916964276953e-14 2.2767527407299432e-23
2.369576372248914 3.0455190229609223e-22 1.9155851441126764e-14 1.9155851410053798e-14 3.107297076144616e-23
2.4417434235010123 3.065029876440954e-22 1.9865713684845995e-14 1.9865713642805934e-14 4.204006178294597e-23
2.5161083711144245 3.093394254115666e-22 2.066017758543742e-14 2.0660177529021325e-14 5.641609789124706e-23
2.5927381535095444 3.1361675107692387e-22 2.1583771919627046e-14 2.1583771844489073e-14 7.513796754259812e-23
2.6717017477616296 3.199982349082176e-22 2.26936833308923e-14 2.2693683231517e-14 9.937530026575976e-23
2.753070231689431 3.2948251270628657e-22 2.407792697271123e-14 2.4077926842120232e-14 1.3059099078236085e-22
2.836916847834745 3.443319853601412e-22 2.592945604882146e-14 2.5929455878194152e-14 1.7062730272549094e-22
2.9233170693905177 3.6952925756346106e-22 2.867438981344651e-14 2.867438959166546e-14 2.2178104355913913e-22
2.967498994190263 3.909273751927076e-22 3.079329035207888e-14 3.0793290099986695e-14 2.5209218403789263e-22
3.0123486681368425 4.159179541283179e-22 3.3256944036699554e-14 3.3256943750288153e-14 2.864113894084687e-22
3.0578761833420214 4.7183373522228035e-22 3.8298196080255914e-14 3.8298195754870235e-14 3.253856618771054e-22
3.1040917844459814 5.438864915182382e-22 4.481385037692839e-14 4.4813850007538785e-14 3.693896134703509e-22
3.127460860933648 6.201080540884415e-22 5.147883245419078e-14 5.1478832060513085e-14 3.9367769420010255e-22
3.1510058709225794 7.216618502504577e-22 6.036043943649355e-14 6.036043901694089e-14 4.1955264186761526e-22
3.162844764501044 8.16193087144631e-22 6.852360800956096e-14 6.852360757628277e-14 4.332781829775056e-22
3.1747281389236908 9.261243326110895e-22 7.804503311307628e-14 7.804503266563213e-14 4.474441701296736e-22
3.1986289994194426 1.2327518306898797e-21 1.0466680311703111e-13 1.0466680263966839e-13 4.773627011443776e-22
3.2227097969389145 1.955546985973751e-21 1.6728572681506544e-13 1.672857263041735e-13 5.108919713912759e-22
3.2348180950136065 2.6409819469556277e-21 2.2676954535763033e-13 2.267695448277094e-13 5.299208743924833e-22
3.240889293275058 3.153433909551267e-21 2.712797412187085e-13 2.7127974067819894e-13 5.4050965354674765e-22
3.2469718861334385 3.746262278757289e-21 3.228837144914666e-13 3.228837139396126e-13 5.5185405790050035e-22
3.2714166318528037 6.90850996782343e-21 5.999149418686713e-13 5.999149412677221e-13 6.009491341907241e-22
3.2744851364798273 7.106193888591028e-21 6.1766004575834e-13 6.176600451518147e-13 6.065255146325713e-22
3.2775565192852394 7.309555847252415e-21 6.35931900464729e-13 6.359318998525677e-13 6.121613586488287e-22
3.283707930232385 7.113992543003015e-21 6.200794811125167e-13 6.200794804915937e-13 6.209227610693075e-22
3.2898708863219004 6.493789356685561e-21 5.670828118437241e-13 5.670828112160089e-13 6.277153594527089e-22
3.29141343181113 6.347529881607895e-21 5.545703216491185e-13 5.545703210196955e-13 6.294229049616348e-22
3.292184975758714 6.275663143681804e-21 5.484200016903738e-13 5.484200010600958e-13 6.3027809160212445e-22
3.295272960557952 5.822032596225307e-21 5.092551861180429e-13 5.092551854847335e-13 6.333094382838208e-22
3.3076538914384823 4.250513745100909e-21 3.731907899952537e-13 3.7319078934990644e-13 6.453474089069348e-22
3.310756385682612 3.930668796501789e-21 3.454324314505222e-13 3.454324308021329e-13 6.48389258599833e-22
3.313861789986515 3.635561774794163e-21 3.1979771258434986e-13 3.197977119329058e-13 6.514441497527093e-22
3.3200813396944477 3.221707610925954e-21 2.8392542194702536e-13 2.8392542128816803e-13 6.588573423701699e-22
3.345076488085796 2.4834343922768004e-21 2.205099430139634e-13 2.2050994231717768e-13 6.967856641941496e-22
3.3482140837626964 2.5111198067556076e-21 2.231773340917462e-13 2.2317733338927752e-13 7.024686108467108e-22
3.3513546224236106 2.539111315786778e-21 2.2587676491484741e-13 2.2587676420664843e-13 7.081989845818427e-22
3.3576445397418455 2.743675698315058e-21 2.4453269084237847e-13 2.4453269012146805e-13 7.209104393237821e-22
3.3702598118196083 3.49819322126728e-21 3.1295119098010365e-13 3.129511902309738e-13 7.491297459072832e-22
3.382922481734668 3.670047074759747e-21 3.295589527729677e-13 3.2955895199803413e-13 7.74933645236264e-22
3.389271646505754 3.7590793605103645e-21 3.3818730901875325e-13 3.381873082305684e-13 7.881847665857823e-22
3.395632727569191 3.855016320144391e-21 3.474692403090625e-13 3.474692395069718e-13 8.020906916474407e-22
3.421196662673239 4.315670303274706e-21 3.9191847088407215e-13 3.919184700228679e-13 8.612041289798606e-22
3.4276182099114902 4.222844425206874e-21 3.842084889972918e-13 3.842084881238046e-13 8.734871877876237e-22
3.4340518103208963 3.816071287048752e-21 3.478505987794149e-13 3.4785059789504235e-13 8.843725375312414e-22
3.4469541582030403 3.236751430064833e-21 2.961517404429358e-13 2.961517395387563e-13 9.041795048014913e-22
3.472904465399547 3.074398972940249e-21 2.8341478081315714e-13 2.8341477985489697e-13 9.582600697334679e-22
3.4990501388274233 2.8260837186250245e-21 2.6248507950227037e-13 2.624850784877574e-13 1.0145130606750087e-21
3.5253949054701885 1.9423591325632575e-21 1.8176352541449712e-13 1.8176352434900695e-13 1.0654902160524217e-21
3.5519380250092896 1.1117538935958908e-21 1.048198349856467e-13 1.048198338693678e-13 1.1162789377853402e-21
3.578680990867387 7.82411193511306e-22 7.432372615656027e-14 7.432372497788868e-14 1.178671596150785e-21
3.605625307711299 6.491967479587769e-22 6.213357780038512e-14 6.21335765517376e-14 1.2486474861574276e-21
3.660119384959845 5.520115770322767e-22 5.3630626515089747e-14 5.363062511013416e-14 1.4049555719069202e-21
3.715437065384467 4.831863161056524e-22 4.765340839841103e-14 4.7653406817743876e-14 1.5806671582254362e-21
3.8285932144167436 4.4825356295426385e-22 4.5554617935967486e-14 4.5554615932550923e-14 2.0034165739512818e-21
3.94519561050918 4.415647745938592e-22 4.6241551269803694e-14 4.624154873040904e-14 2.5393946517760058e-21
4.06534921144712 4.465042325020688e-22 4.8182892765657053e-14 4.8182889546174197e-14 3.2194828611488692e-21
4.189162171576248 4.582091084459796e-22 5.095189304346655e-14 5.095188895957935e-14 4.083887192879782e-21
4.316745939156006 4.748776576522364e-22 5.4413624999524426e-14 5.441361981721825e-14 5.182306174011334e-21
4.448215356677963 4.9591777147323945e-22 5.855512465791073e-14 5.85551180836126e-14 6.574298093639012e-21
4.58368876423945 5.214240717671884e-22 6.344181961895083e-14 6.344181127863357e-14 8.340317277076153e-21
4.723288106065518 5.520002876698672e-22 6.920750202811602e-14 6.920749144466185e-14 1.0583454187802347e-20
4.867139040275056 5.888345807840035e-22 7.607404219911934e-14 7.607402877875113e-14 1.3420368206308497e-20
4.940699165968905 6.110643101853575e-22 8.01391557781433e-14 8.013914066558477e-14 1.51125585223045e-20
5.015371051989984 6.341239428312468e-22 8.44202537625717e-14 8.442023674925211e-14 1.7013319589049774e-20
5.091171501069577 6.622285776366886e-22 8.949423874805553e-14 8.949421958540563e-14 1.916264989991581e-20
5.129500256944802 6.766696632828095e-22 9.21342692012531e-14 9.213424886743158e-14 2.0333821518795033e-20
5.168117569889187 6.917303850834534e-22 9.489398195557688e-14 9.489396037926167e-14 2.1576315208211265e-20
5.20702561229733 7.10170968610843e-22 9.815717744311303e-14 9.815715453143127e-14 2.291168170607976e-20
5.246226572918644 7.290923818522111e-22 1.0153108712271871e-13 1.0153106279643436e-13 2.4326284365851814e-20
5.265937586045735 7.387382605748782e-22 1.0326085885854944e-13 1.0326083379389424e-13 2.5064655187822377e-20
5.285722656980489 7.485102629999691e-22 1.050198912788802e-13 1.0501986545439144e-13 2.582448877091305e-20
5.305582063971359 7.584104494622459e-22 1.0680873648899164e-13 1.0680870988262705e-13 2.6606364562680245e-20
5.3255160863122235 7.690394830300671e-22 1.0871257213819774e-13 1.0871254472411492e-13 2.741408282343963e-20
5.365609099470188 7.954467287659904e-22 1.1329208331528915e-13 1.1329205418920715e-13 2.912608201286728e-20
5.406003951863644 8.2286659848709e-22 1.180796958546107e-13 1.180796649145148e-13 3.0940095912471055e-20
5.446702915881641 8.513479156124257e-22 1.2308643633654679e-13 1.2308640347480708e-13 3.286173970350778e-20
5.487708281020852 8.821144807209094e-22 1.2849475520508573e-13 1.2849472030026376e-13 3.490482195904134e-20
5.529022354014368 9.24745485753893e-22 1.3571879617343276e-13 1.3571875903273384e-13 3.714069892092526e-20
5.570647458961463 9.698890850086269e-22 1.434158594043172e-13 1.4341581989128397e-13 3.951303322318233e-20
5.612585937458331 1.0177254610302867e-21 1.5162229867524385e-13 1.51622256645752e-13 4.2029491872366544e-20
5.654840148729818 1.070289045590316e-21 1.6065374219916627e-13 1.6065369748568448e-13 4.471348177601464e-20
5.67608639626678 1.1060104159377302e-21 1.6663938238329641e-13 1.6663933619927417e-13 4.6184022225931614e-20
5.686739436050992 1.124421814824914e-21 1.697313342896081e-13 1.697312873530615e-13 4.6936546596216376e-20
5.6974124697621304 1.1432120414402025e-21 1.7289159666055342e-13 1.7289154895975822e-13 4.7700795140703795e-20
5.718818669136295 1.1819653798223702e-21 1.7942399214675539e-13 1.7942394288161362e-13 4.926514181514844e-20
5.740305295436557 1.2246642952624223e-21 1.8660422822439895e-13 1.8660417732319647e-13 5.0901202497785435e-20
5.7835210386641895 1.3353004540198666e-21 2.0499381103149327e-13 2.049937565152929e-13 5.451620039954369e-20
5.827062130521658 1.4626999994585267e-21 2.262425791234806e-13 2.2624252069536893e-13 5.842811174751078e-20
5.8489554468988025 1.5519714593711047e-21 2.4095252217183873e-13 2.4095246146244733e-13 6.070939140254556e-20
5.870931020387893 1.647756492511365e-21 2.567848766147191e-13 2.567848135369413e-13 6.307777784122565e-20
5.892989160043636 1.7505788842390277e-21 2.7383361571907915e-13 2.738335501826772e-13 6.553640197278378e-20
5.915130176081913 1.86748504185633e-21 2.9321816508367934e-13 2.9321809691150803e-13 6.817217117902367e-20
5.95966208400165 2.1941365687668976e-21 3.471000885446002e-13 3.471000139954712e-13 7.454912889443098e-20
6.004529249263818 2.6647120566299766e-21 4.2471606114925236e-13 4.247159785900837e-13 8.255916854516943e-20
6.027089341400364 2.9917103376088182e-21 4.786263500452069e-13 4.786262624143944e-13 8.76308123182855e-20
6.049734195844842 3.3780810096739797e-21 5.424700766117823e-13 5.424699833159803e-13 9.32958019359747e-20
6.095279466722835 4.493885311814881e-21 7.270847576668976e-13 7.270846490962962e-13 1.0857060134379892e-19
6.141167624020661 6.2107456730491244e-21 1.0124279593504529e-12 1.012427828703448e-12 1.3064700495076923e-19
6.164241091010745 7.307099367138822e-21 1.1956224536623736e-12 1.195622308528335e-12 1.4513403877439567e-19
6.187401249150058 8.555933291580798e-21 1.4052225277418157e-12 1.4052223666373303e-12 1.6110448532091737e-19
6.1990139391386085 9.16574642134295e-21 1.5082032902106913e-12 1.5082031208824086e-12 1.6932828297815283e-19
6.204828454712694 9.486965388868997e-21 1.5625233937991098e-12 1.5625232201963198e-12 1.736027900462113e-19
6.210648424152782 9.7215017430474e-21 1.602653869980725e-12 1.6026536928171206e-12 1.7716360468067192e-19
6.233982942956859 1.0518435640477817e-20 1.7405487699354514e-12 1.7405485801078908e-12 1.898275601889806e-19
6.239830258556775 1.0620388134168e-20 1.7590678761220423e-12 1.7590676845283793e-12 1.9159366340307666e-19
6.245683058788269 1.0629373966776029e-20 1.762207566993541e-12 1.7622073736183135e-12 1.933752280723325e-19
6.257405133728602 1.0607816683465506e-20 1.7619343121828376e-12 1.7619341156827738e-12 1.965000636732979e-19
6.269149208991335 1.0451521291884397e-20 1.73923212702718e-12 1.739231929474361e-12 1.9755281855274063e-19
6.280915325867298 1.0059083592949998e-20 1.6770684504407755e-12 1.6770682544124157e-12 1.9602835954312216e-19
6.304513850009849 9.091138616276184e-21 1.5213856509714802e-12 1.5213854603915922e-12 1.9057988803646938e-19
6.32820103803542 7.891205213145916e-21 1.3255406118586198e-12 1.3255404297188108e-12 1.8213980927051164e-19
6.3519772230701035 6.790811224243566e-21 1.1449855952975003e-12 1.1449854211289924e-12 1.7416850782073666e-19
6.375842739491607 5.8651029299343696e-21 9.926191919246158e-13 9.926190247448246e-13 1.671797915151693e-19
6.399797922933955 5.12334853307589e-21 8.703413059372262e-13 8.703411434076192e-13 1.6252960680309978e-19
6.42384311029221 4.50671413216816e-21 7.684654909226666e-13 7.684653323031683e-13 1.586194981332556e-19
6.447978639727206 4.057555249732558e-21 6.944763573543295e-13 6.944762004679244e-13 1.5688640512895667e-19
6.472204850670314 3.683478191149743e-21 6.328194085851525e-13 6.32819252889075e-13 1.5569607736620113e-19
6.496522083828205 3.4406118503515856e-21 5.933159628779994e-13 5.933158064751007e-13 1.5640289857236665e-19
