Dust emission spectrum from A.P. Jones, M. Kohler, N. Ysard, M. Bocchio, and L. Verstraete (2017), A&A, 602A, 46J 
inside the DustPedia framework.

lambda    nu*dP/dnu     j_nu    j_nu(carb.) j_nu(sil)
 (um)   (erg s-1 H-1) (Jy cm2 sr-1 H-1)
0.9927057738263894 3.6808177386240744e-24 9.69916380754825e-17 9.699163742664906e-17 6.48833429998869e-25
1.0001793341362166 3.741762881956282e-24 9.933986658470517e-17 9.933986580340087e-17 7.813043082844465e-25
1.0077091589558085 3.802660206320452e-24 1.0171667586539355e-16 1.0171667492579996e-16 9.39593569555532e-25
1.0114953028030835 3.83308399219916e-24 1.0291570162570899e-16 1.0291570059582866e-16 1.0298803111595964e-24
1.0152956718711033 3.863487516434437e-24 1.0412175536710486e-16 1.0412175423863194e-16 1.1284729187415223e-24
1.0229392996569957 3.924193010370357e-24 1.0655397525249796e-16 1.065539738989361e-16 1.3535618255961166e-24
1.0267826658714554 3.954421914154446e-24 1.0777820976723802e-16 1.0777820828549384e-16 1.4817441559482155e-24
1.0306404723013447 3.984618125110587e-24 1.0900924506626436e-16 1.0900924344473126e-16 1.621533085240772e-24
1.03451277320114 4.014778966173501e-24 1.1024703809791039e-16 1.1024703632398297e-16 1.7739273949228757e-24
1.0383996230291617 4.04490177772001e-24 1.1149154530673755e-16 1.1149154336673055e-16 1.9400069800782465e-24
1.0403485208654093 4.059948096204728e-24 1.121163029824924e-16 1.121163009539525e-16 2.02853990586788e-24
1.0423010764483396 4.074983918149391e-24 1.127427226486724e-16 1.127427205277334e-16 2.1209390135655742e-24
1.0462171883269815 4.105022764453174e-24 1.1400052560623764e-16 1.140005232882531e-16 2.3179845436523825e-24
1.0471985131304309 4.1125254057538054e-24 1.143160063373432e-16 1.1431600396742227e-16 2.36992094385306e-24
1.048180758391296 4.120025137839466e-24 1.1463189765349227e-16 1.1463189523052094e-16 2.4229713437857076e-24
1.0501480137395462 4.135015712774303e-24 1.1526490920387265e-16 1.152649066713671e-16 2.532505552919015e-24
1.0521189612883777 4.149994166857961e-24 1.1589955456638611e-16 1.1589955191961171e-16 2.6467744283638243e-24
1.0531058218030118 4.1574674349629194e-24 1.162171718937126e-16 1.162171691879639e-16 2.7057487402228523e-24
1.0540936079674168 4.164900487010948e-24 1.1653415783925556e-16 1.1653415507326219e-16 2.7659933829484884e-24
1.058054026499678 4.194598862274001e-24 1.1780608188914272e-16 1.1780607886907328e-16 3.0200694399033835e-24
1.0590464539527713 4.202014800482679e-24 1.1812505431315199e-16 1.1812505122615534e-16 3.0869966669097137e-24
1.06003981227728 4.2094271977944865e-24 1.1844442183434088e-16 1.1844441867899838e-16 3.155342515920119e-24
1.0620293250338977 4.2242412131030485e-24 1.1908433922154914e-16 1.1908433592514416e-16 3.2964050023102577e-24
1.0660195594769086 4.253825034938042e-24 1.2036888266748567e-16 1.2036887907063705e-16 3.5968486149712714e-24
1.070024785945596 4.283347845512091e-24 1.2165966469246447e-16 1.216596607690712e-16 3.923393281667575e-24
1.0740450607676866 4.3128071853388774e-24 1.2295663741236647e-16 1.2295663313417948e-16 4.278186991962985e-24
1.07808044048254 4.342200618189288e-24 1.242597526093716e-16 1.2425974794582764e-16 4.663543954647246e-24
1.0861967418109137 4.4007290342104544e-24 1.26882742581243e-16 1.2688273704513403e-16 5.536108955470269e-24
1.0902777775684922 4.429743056742516e-24 1.2819914518492248e-16 1.281991391560323e-16 6.028890164523588e-24
1.0943741465085532 4.458679637100245e-24 1.295213989436982e-16 1.2952139238029226e-16 6.563405901550438e-24
1.1026131145906286 4.516311301187404e-24 1.3218325927914548e-16 1.321832515078866e-16 7.771258855624152e-24
1.1109141095355224 4.573605951589372e-24 1.3486792014128333e-16 1.3486791095176316e-16 9.18952017909761e-24
1.1192775983109025 4.630493797149175e-24 1.3757342563283256e-16 1.3757341478018555e-16 1.0852646991888736e-23
1.1277040513999907 4.6867180684693e-24 1.4029216032594883e-16 1.4029214752559175e-16 1.2800357087370285e-23
1.1361939428280308 4.742546262316371e-24 1.430320880555416e-16 1.4303207297717523e-16 1.5078366338006823e-23
1.1447477501889525 4.797962234615144e-24 1.457927933406028e-16 1.457927756013756e-16 1.7739227189835222e-23
1.1533659546722406 4.8529791403623876e-24 1.4857474217551982e-16 1.4857472133222076e-16 2.0843299045757705e-23
1.1707974979042381 4.961992155075549e-24 1.542081375506948e-16 1.5420810888254327e-16 2.8668151563132403e-23
1.1884924949847024 5.0692084252893095e-24 1.5992119438461205e-16 1.5992115515007562e-16 3.9234536464189426e-23
1.2064549276569216 5.175451360158961e-24 1.6574054630584194e-16 1.6574049287359298e-16 5.343224893576126e-23
1.2246888378427687 5.279627633513717e-24 1.716320879866393e-16 1.7163201557312537e-16 7.241351393449582e-23
1.2431983285522175 5.3815174299134424e-24 1.7758840302671652e-16 1.775883053615106e-16 9.766520593275427e-23
1.2619875648066055 5.481111566350447e-24 1.836086556054068e-16 1.8360852450916474e-16 1.3109624204157425e-22
1.3004222497298317 5.671923670658187e-24 1.9578715798885892e-16 1.9578692508841184e-16 2.3290044705445024e-22
1.3400274889804893 5.8515479556264544e-24 2.0813921347539063e-16 2.0813880725433876e-16 4.0622105192513345e-22
1.3808389325824078 6.0195763990084974e-24 2.2063702209216112e-16 2.2063632615806126e-16 6.959340997395331e-22
1.4228933163050095 6.176980449362214e-24 2.3330175147257173e-16 2.333005798144685e-16 1.1716581032162151e-21
1.466228494730424 6.3273894353018265e-24 2.462610083602211e-16 2.4625906891726913e-16 1.939442952003005e-21
1.5108834753276823 6.46855439795603e-24 2.594224993291314e-16 2.594193415102376e-16 3.1578188938482215e-21
1.5568984535646726 6.598720667807529e-24 2.7270271693327146e-16 2.726976541977075e-16 5.062735563945925e-21
1.6043148490894465 6.718407312605807e-24 2.8610494639525153e-16 2.86096939349477e-16 8.007045774581059e-21
1.6531753430134553 6.828255480315334e-24 2.996388448841749e-16 2.99626366899859e-16 1.2477984315877417e-20
1.7035239163302658 6.929555161321823e-24 3.1334518420799857e-16 3.1332601937981894e-16 1.916482817959239e-20
1.755405889504358 7.028035790503542e-24 3.2747710968443895e-16 3.27448084768851e-16 2.9024915587925434e-20
1.8088679632656115 7.122838615779295e-24 3.4200259759298083e-16 3.419592368907481e-16 4.336070223255e-20
1.8639582606462262 7.21351171075382e-24 3.5690477408031294e-16 3.56840851644693e-16 6.392243561990424e-20
1.9207263702978936 7.301181131767157e-24 3.7224429871979666e-16 3.721512724504702e-16 9.302626932632711e-20
1.979223391128241 7.387864767832078e-24 3.881353381049141e-16 3.880016414282913e-16 1.3369667662271595e-19
2.039501978296691 7.475875899270025e-24 4.047209141721746e-16 4.045310892794533e-16 1.8982489272137388e-19
2.1016163906111602 7.570871417251969e-24 4.2234635475705837e-16 4.220799864823548e-16 2.6636827470357303e-19
2.1656225393682647 7.676395755484828e-24 4.4127523257763507e-16 4.4090569547019333e-16 3.695371074417252e-19
2.231578038680979 7.793200683940714e-24 4.616335579027004e-16 4.611265497032996e-16 5.070081994008116e-19
2.299542257339062 7.923682925839023e-24 4.836574884110524e-16 4.829693336069191e-16 6.881548041332627e-19
2.369576372248914 8.072334947242672e-24 5.077375904290343e-16 5.068132923405444e-16 9.24298088489778e-19
2.4417434235010123 8.244372593844189e-24 5.343515465195986e-16 5.331226267192083e-16 1.2289198003902021e-18
2.5161083711144245 8.44828253982309e-24 5.642443323623272e-16 5.626263979790363e-16 1.617934383291013e-18
2.5927381535095444 8.697427769041274e-24 5.985754798166787e-16 5.964655857887853e-16 2.1098940278931456e-18
2.6717017477616296 9.007248016021372e-24 6.38777380184692e-16 6.360513264752602e-16 2.726053709431876e-18
2.753070231689431 9.400446416089952e-24 6.869659347270728e-16 6.834754289190609e-16 3.490505808011767e-18
2.836916847834745 9.92777439583124e-24 7.475976697026283e-16 7.431672721060388e-16 4.4303975965895995e-18
2.9233170693905177 1.0699627474080698e-23 8.302598042531526e-16 8.24684873003296e-16 5.574931249856785e-18
2.967498994190263 1.1284761409808418e-23 8.8889895335385e-16 8.826759596546821e-16 6.222993699167802e-18
3.0123486681368425 1.1953129980863904e-23 9.557764239106235e-16 9.488392812103643e-16 6.937142700259237e-18
3.0578761833420214 1.3308810456501136e-23 1.0802606816952587e-15 1.0725355301334191e-15 7.725151561839562e-18
3.1040917844459814 1.5020465850036494e-23 1.2376202014436797e-15 1.2290340742287345e-15 8.586127214945017e-18
3.127460860933648 1.6763528689779448e-23 1.3916395361623506e-15 1.382591052939261e-15 9.04848322308969e-18
3.1510058709225794 1.906246473349914e-23 1.5944015159694787e-15 1.5848700878768267e-15 9.53142809265216e-18
3.162844764501044 2.117827924187679e-23 1.778025479441766e-15 1.7682437394095106e-15 9.781740032255413e-18
3.1747281389236908 2.3629078778482146e-23 1.9912361340283875e-15 1.9811987210216587e-15 1.0037413006728876e-17
3.1986289994194426 3.0429465420865655e-23 2.583613982045249e-15 2.5730475197789887e-15 1.0566462266259772e-17
3.2227097969389145 4.637235614356469e-23 3.966886685538023e-15 3.955758571632492e-15 1.1128113905530154e-17
3.2348180950136065 6.145604529125915e-23 5.276961270500849e-15 5.265533156022661e-15 1.1428114478189094e-17
3.240889293275058 7.272668371957343e-23 6.256441867826625e-15 6.244855504785879e-15 1.1586363040746151e-17
3.2469718861334385 8.576602805168272e-23 7.392022142051621e-15 7.38027203154231e-15 1.175011050931226e-17
3.2714166318528037 1.5520073270849742e-22 1.3477180893483962e-14 1.346475322979806e-14 1.242766368590038e-17
3.2744851364798273 1.5954604622731619e-22 1.3867510478646017e-14 1.3855002723669372e-14 1.2507754976645817e-17
3.2775565192852394 1.640152495075174e-22 1.4269338863279703e-14 1.4256750593795567e-14 1.258826948413188e-17
3.283707930232385 1.5974331990308825e-22 1.3923764231960305e-14 1.39110314856489e-14 1.2732746311405484e-17
3.2898708863219004 1.4615438356829203e-22 1.2763216397197113e-14 1.2750351715743484e-14 1.2864681453630435e-17
3.29141343181113 1.4294921917652875e-22 1.2489172313772014e-14 1.2476274490633486e-14 1.2897823138527424e-17
3.292184975758714 1.4137423241404085e-22 1.2354464381591533e-14 1.2341549963884329e-14 1.2914417707207414e-17
3.295272960557952 1.3143964725663199e-22 1.1497070983485038e-14 1.1484091930678159e-14 1.2979052806880187e-17
3.3076538914384823 9.699982907802761e-23 8.516486479959452e-15 8.503247586495272e-15 1.3238893464180967e-17
3.310756385682612 8.998420118283004e-23 7.907931961701162e-15 7.894627524522677e-15 1.3304437178484982e-17
3.313861789986515 8.35087766397801e-23 7.345746656066955e-15 7.332376441039078e-15 1.3370215027878636e-17
3.3200813396944477 7.443577410733306e-23 6.5599399832884904e-15 6.546428494731523e-15 1.3511488556967226e-17
3.345076488085796 5.831728052803316e-23 5.178127614708735e-15 5.163987077172984e-15 1.4140537535751582e-17
3.3482140837626964 5.893685997761548e-23 5.238050073977571e-15 5.223824341402627e-15 1.422573257494314e-17
3.3513546224236106 5.95631277733697e-23 5.298675377487168e-15 5.284364040179816e-15 1.4311337307352692e-17
3.3576445397418455 6.407980327407197e-23 5.711173056233311e-15 5.6966828187029435e-15 1.449023753036764e-17
3.3702598118196083 8.068413032917122e-23 7.218067465856198e-15 7.203201922307636e-15 1.4865543548560507e-17
3.382922481734668 8.451093281517211e-23 7.588822145628199e-15 7.573590903012436e-15 1.523124261576293e-17
3.389271646505754 8.649225031257949e-23 7.78131520485281e-15 7.765898421696642e-15 1.5416783156169536e-17
3.395632727569191 8.863094176800659e-23 7.988688878715956e-15 7.973080877371233e-15 1.560800134472433e-17
3.421196662673239 9.890106897065044e-23 8.981491401316205e-15 8.965090819152254e-15 1.640058216395046e-17
3.4276182099114902 9.688671168635441e-23 8.815076605410786e-15 8.79849815353365e-15 1.6578451877136905e-17
3.4340518103208963 8.796746006577635e-23 8.0185959211075e-15 8.001848753835441e-15 1.674716727205721e-17
3.4469541582030403 7.526362939112232e-23 6.886365949882813e-15 6.869293971715805e-15 1.707197816700753e-17
3.472904465399547 7.176749732584207e-23 6.615917355924668e-15 6.5980985407689744e-15 1.781881515569819e-17
3.4990501388274233 6.638908364344978e-23 6.166181059459959e-15 6.1475957124579974e-15 1.858534700195901e-17
3.5253949054701885 4.706880158328629e-23 4.404639270557219e-15 4.38530562362259e-15 1.9333646934628515e-17
3.5519380250092896 2.888560618022641e-23 2.7234305098573117e-15 2.7033418029728163e-15 2.008870688449545e-17
3.578680990867387 2.1730023250181947e-23 2.0642039771621356e-15 2.0432871900124193e-15 2.0916787149716165e-17
3.605625307711299 1.889339059853157e-23 1.808256061599168e-15 1.7864653058820006e-15 2.1790755717167246e-17
3.660119384959845 1.6947591765607842e-23 1.6465414895789033e-15 1.6229064288542433e-15 2.3635060724659922e-17
3.715437065384467 1.562450307666713e-23 1.5409393878030362e-15 1.515348093457032e-15 2.559129434600444e-17
3.8285932144167436 1.5257360715129822e-23 1.5505582008277212e-15 1.520720295615883e-15 2.9837905211837937e-17
3.94519561050918 1.553095106777275e-23 1.6264324316399259e-15 1.5918994041738694e-15 3.4533027466056733e-17
4.06534921144712 1.607963614983522e-23 1.7351759018649473e-15 1.6954880492104017e-15 3.968785265454596e-17
4.189162171576248 1.679627233911577e-23 1.8677103007708036e-15 1.822381397597029e-15 4.5328903173774107e-17
4.316745939156006 1.7640286771181747e-23 2.021303663761943e-15 1.9698484539287124e-15 5.145520983322994e-17
4.448215356677963 1.859716692314087e-23 2.195846751435182e-15 2.1378412701074084e-15 5.800548132777331e-17
4.58368876423945 1.9668123945606397e-23 2.3930264043456987e-15 2.328019396484736e-15 6.500700786096227e-17
4.723288106065518 2.0865717899400058e-23 2.6160569950725696e-15 2.5435345101584294e-15 7.252248491413979e-17
4.867139040275056 2.2213462362851556e-23 2.8698516159328564e-15 2.7894582783180974e-15 8.039333761475872e-17
4.940699165968905 2.297624442359242e-23 3.0132619437395036e-15 2.9287714391205923e-15 8.449050461891192e-17
5.015371051989984 2.3759083066400563e-23 3.163021747256949e-15 3.074334342013495e-15 8.868740524345451e-17
5.091171501069577 2.4657388544800683e-23 3.332224388755686e-15 3.2391556786849065e-15 9.306871007077897e-17
5.129500256944802 2.511539030654983e-23 3.4196717499822194e-15 3.324376371550516e-15 9.529537843170329e-17
5.168117569889187 2.558753674289349e-23 3.5101873538125088e-15 3.4126229031559695e-15 9.756445065653941e-17
5.20702561229733 2.6137243085269577e-23 3.6125920669681025e-15 3.512568278080094e-15 1.0002378888800866e-16
5.246226572918644 2.669748286964451e-23 3.717806586195571e-15 3.6152918401577344e-15 1.0251474603783621e-16
5.265937586045735 2.698164271171657e-23 3.77149492386955e-15 3.66772297413227e-15 1.037719497372802e-16
5.285722656980489 2.7268545519917084e-23 3.825919065367585e-15 3.720882167906588e-15 1.0503689746099738e-16
5.305582063971359 2.7558229651637494e-23 3.881090629819167e-15 3.7747810965905045e-15 1.0630953322866173e-16
5.3255160863122235 2.786437294136136e-23 3.938949456194513e-15 3.831351095790424e-15 1.0759836040408838e-16
5.365609099470188 2.859316800270702e-23 4.072402908282906e-15 3.962137453054856e-15 1.1026545522805083e-16
5.406003951863644 2.934368720787858e-23 4.2107598815283484e-15 4.09779317131617e-15 1.129667102121771e-16
5.446702915881641 3.0116916759520066e-23 4.354252696686396e-15 4.238550977127072e-15 1.1570171955932403e-16
5.487708281020852 3.0940570640177353e-23 4.507012567196612e-15 4.388532466016184e-15 1.1848010118042837e-16
5.529022354014368 3.203158757628129e-23 4.701064857681011e-15 4.579684883723362e-15 1.2137997395764827e-16
5.570647458961463 3.3176227658933504e-23 4.905712699568021e-15 4.781395478568585e-15 1.243172209994342e-16
5.612585937458331 3.437825332252443e-23 5.121724858808336e-15 4.994433389542976e-15 1.2729146926535972e-16
5.654840148729818 3.568342902691717e-23 5.356194601160986e-15 5.2258796270357555e-15 1.303149741252306e-16
5.67608639626678 3.654788910871539e-23 5.506564477809068e-15 5.374668973840784e-15 1.318955039682857e-16
5.686739436050992 3.699188226532555e-23 5.583920066292437e-15 5.451230368431178e-15 1.3268969786126008e-16
5.6974124697621304 3.744396419529795e-23 5.662769915255722e-15 5.5292834106905175e-15 1.334865045652045e-16
5.718818669136295 3.8373162949605706e-23 5.8250996224195066e-15 5.690011685917761e-15 1.3508793650174432e-16
5.740305295436557 3.9389654159079294e-23 6.001870098454984e-15 5.865159699028821e-15 1.367103994261635e-16
5.7835210386641895 4.198522040208465e-23 6.445523411087286e-15 6.305453550411345e-15 1.4006986067594042e-16
5.827062130521658 4.494506693125286e-23 6.95186153358061e-15 6.808360391422397e-15 1.4350114215821078e-16
5.8489554468988025 4.6996676863022907e-23 7.296505200185194e-15 7.151157720225623e-15 1.453474799595704e-16
5.870931020387893 4.91881109108552e-23 7.665430570936108e-15 7.51822231004855e-15 1.4720826088755482e-16
5.892989160043636 5.153051960772528e-23 8.060641329053984e-15 7.911557848316222e-15 1.490834807377598e-16
5.915130176081913 5.418272498214164e-23 8.507355530250857e-15 8.356329805816495e-15 1.510257244343634e-16
5.95966208400165 6.154748578389942e-23 9.736466758445703e-15 9.581055115368417e-15 1.5541164307728136e-16
6.004529249263818 7.20864828086889e-23 1.1489529221153308e-14 1.13292021450703e-14 1.6032707608300662e-16
6.027089341400364 7.938419699647788e-23 1.2700216321765434e-14 1.2537069138153597e-14 1.6314718361183613e-16
6.049734195844842 8.798094355242719e-23 1.412844424174073e-14 1.3962313335169326e-14 1.6613090657140312e-16
6.095279466722835 1.127456672127593e-22 1.8241599514758296e-14 1.80682044425174e-14 1.7339507224089727e-16
6.141167624020661 1.50727565167681e-22 2.4570447616744757e-14 2.4387710653885397e-14 1.8273696285936301e-16
6.164241091010745 1.749707778505996e-22 2.862955329083779e-14 2.844099507248026e-14 1.8855821835752617e-16
6.187401249150058 2.0251617768562502e-22 3.326116338424906e-14 3.306661549901449e-14 1.945478852345641e-16
6.1990139391386085 2.1596451381193193e-22 3.553648282713284e-14 3.5338884654658787e-14 1.9759817247406443e-16
6.204828454712694 2.2304230234479953e-22 3.6735541971036036e-14 3.65364018503284e-14 1.9914012070762906e-16
6.210648424152782 2.282135001836663e-22 3.762250513535875e-14 3.742204127757066e-14 2.004638577880816e-16
6.233982942956859 2.457727684209917e-22 4.066949728841572e-14 4.046437543967944e-14 2.0512184873628445e-16
6.239830258556775 2.4801495604336725e-22 4.107902050868741e-14 4.087322027442965e-14 2.0580023425776055e-16
6.245683058788269 2.4821087533993315e-22 4.115003236326884e-14 4.094355217994102e-14 2.0648018332781742e-16
6.257405133728602 2.4773175766834716e-22 4.11476835505256e-14 4.093999433655113e-14 2.0768921397445496e-16
6.269149208991335 2.4428610183144354e-22 4.0651520924651546e-14 4.04432965576333e-14 2.082243670182466e-16
6.280915325867298 2.3564235074564965e-22 3.928671517355713e-14 3.907879048305833e-14 2.079246904988114e-16
6.304513850009849 2.143270040788254e-22 3.586723757983947e-14 3.566066935043383e-14 2.065682294056283e-16
6.32820103803542 1.8793491048582318e-22 3.156873373663798e-14 3.136432756042843e-14 2.0440617620956057e-16
6.3519772230701035 1.6374895783897423e-22 2.760939625316824e-14 2.740689685054713e-14 2.0249940262110627e-16
6.375842739491607 1.4338993434992638e-22 2.426753672780647e-14 2.406668378502752e-14 2.0085294277894956e-16
6.399797922933955 1.2712440989115234e-22 2.159556864165538e-14 2.1395399769596206e-14 2.0016887205917616e-16
6.42384311029221 1.1359539639818759e-22 1.9369797928073006e-14 1.9170121786789472e-14 1.9967614128353246e-16
6.447978639727206 1.0377199925014719e-22 1.7761236902287043e-14 1.756129890975716e-14 1.9993799252988678e-16
6.472204850670314 9.559225049479918e-23 1.642269297773708e-14 1.6222341389421666e-14 2.0035158831541747e-16
6.496522083828205 9.031175117751929e-23 1.5573800806275967e-14 1.5372420439936952e-14 2.013803663390106e-16
