Dust emission spectrum from A.P. Jones, M. Kohler, N. Ysard, M. Bocchio, and L. Verstraete (2017), A&A, 602A, 46J 
inside the DustPedia framework.

lambda    nu*dP/dnu     j_nu    j_nu(carb.) j_nu(sil)
 (um)   (erg s-1 H-1) (Jy cm2 sr-1 H-1)
0.9927057738263894 9.789296202584823e-22 2.5795351514735072e-14 2.5795349792727822e-14 1.7220072491453892e-21
1.0001793341362166 9.954015082139393e-22 2.6426862455936452e-14 2.64268603834827e-14 2.072453755909555e-21
1.0077091589558085 1.0119356752989611e-21 2.7068085891537204e-14 2.706808340063203e-14 2.4909051667871124e-21
1.0114953028030835 1.020225303216226e-21 2.7392356418613055e-14 2.7392353689154734e-14 2.729458320184747e-21
1.0152956718711033 1.0285295412196416e-21 2.7719075271542802e-14 2.7719072281681653e-14 2.989861138677005e-21
1.0229392996569957 1.0451725412313196e-21 2.8379666545107525e-14 2.837966296107882e-14 3.5840287060937616e-21
1.0267826658714554 1.053492370469181e-21 2.8713051909356175e-14 2.871304798715138e-14 3.922204800042425e-21
1.0306404723013447 1.0618252034945591e-21 2.904889758339438e-14 2.904889329253416e-14 4.290860220472727e-21
1.03451277320114 1.0701707621865482e-21 2.938721104800952e-14 2.938720635540663e-14 4.6926028923816426e-21
1.0383996230291617 1.0785287761860031e-21 2.972799996704531e-14 2.972799483679423e-14 5.130251078164691e-21
1.0403485208654093 1.0827123716114978e-21 2.989932516919703e-14 2.9899319805715196e-14 5.3634818382875994e-21
1.0423010764483396 1.086898983100036e-21 3.0071272196436434e-14 3.007126658958721e-14 5.606849228158682e-21
1.0462171883269815 1.0952811287055374e-21 3.0417035793383074e-14 3.0417029667698133e-14 6.125684934334281e-21
1.0471985131304309 1.0973785015299653e-21 3.050386693291923e-14 3.0503860670515887e-14 6.262403349022977e-21
1.048180758391296 1.0994766013566404e-21 3.059085442988741e-14 3.059084802784725e-14 6.402040163134297e-21
1.0501480137395462 1.1036749671516377e-21 3.076529902566401e-14 3.076529233535696e-14 6.690307056887472e-21
1.0521189612883777 1.1078761967003619e-21 3.094037064863871e-14 3.094036365766548e-14 6.990973224452293e-21
1.0531058218030118 1.1099750788702193e-21 3.1028063732734465e-14 3.102805658661054e-14 7.146123925891353e-21
1.0540936079674168 1.1120655012482688e-21 3.111565739787049e-14 3.1115650093269434e-14 7.304601062234813e-21
1.058054026499678 1.1204338007932685e-21 3.146758973182429e-14 3.146758175903442e-14 7.972789870624599e-21
1.0590464539527713 1.1225275112474513e-21 3.155596292018798e-14 3.1555954771432636e-14 8.148755335509758e-21
1.06003981227728 1.1246218692786025e-21 3.164449242850717e-14 3.1644484100075146e-14 8.328432034419212e-21
1.0620293250338977 1.1288125150619831e-21 3.182202096892709e-14 3.182201226970913e-14 8.699217962384748e-21
1.0660195594769086 1.137201436503478e-21 3.2178960148927945e-14 3.2178950660236113e-14 9.488691828516644e-21
1.070024785945596 1.1456003670295861e-21 3.2538416573011485e-14 3.253840622662071e-14 1.0346390770078158e-20
1.0740450607676866 1.1540091182081505e-21 3.290039981394047e-14 3.290038853604666e-14 1.1277893818489441e-20
1.07808044048254 1.162427511454643e-21 3.326491972632868e-14 3.326490743712024e-14 1.2289208442526895e-20
1.0861967418109137 1.1792796083942698e-21 3.4001237026865654e-14 3.40012224492339e-14 1.4577631752790312e-20
1.0902777775684922 1.1876835571269604e-21 3.43722005596034e-14 3.437218469041602e-14 1.5869187387711547e-20
1.0943741465085532 1.196096025826799e-21 3.474571916919307e-14 3.474570189968053e-14 1.7269512544243164e-20
1.1026131145906286 1.2129460379552143e-21 3.550046707021567e-14 3.550044663849688e-14 2.043171879082634e-20
1.1109141095355224 1.229828785934096e-21 3.626557518169478e-14 3.6265551040233464e-14 2.4141461325037702e-20
1.1192775983109025 1.2467302924343294e-21 3.704074871583036e-14 3.704072022807149e-14 2.848775887822244e-20
1.1277040513999907 1.2635889303101363e-21 3.782425531200374e-14 3.7824221738902944e-14 3.3573100796929656e-20
1.1361939428280308 1.2804768637889995e-21 3.86183432705404e-14 3.8618303755218524e-14 3.9515321869384525e-20
1.1447477501889525 1.2973940148896564e-21 3.94231317890552e-14 3.9423085339337774e-14 4.6449717433898674e-20
1.1533659546722406 1.314346641824765e-21 4.0238935258187116e-14 4.023888072668928e-14 5.453149784370142e-20
1.1707974979042381 1.3484100612786028e-21 4.1905709986199217e-14 4.19056351119172e-14 7.487428201943698e-20
1.1884924949847024 1.3826189321069535e-21 4.3618263928199336e-14 4.361816163728766e-14 1.0229091167790101e-19
1.2064549276569216 1.4172063134898618e-21 4.538513305990833e-14 4.538499400321324e-14 1.3905669509395709e-19
1.2246888378427687 1.451944519292609e-21 4.720034949152257e-14 4.720016138088844e-14 1.8811063413680533e-19
1.2431983285522175 1.486805098827286e-21 4.9064106276984406e-14 4.906385304136828e-14 2.5323561612788046e-19
1.2619875648066055 1.5218385624793634e-21 5.097920907516796e-14 5.0978869799235356e-14 3.392759326075508e-19
1.3004222497298317 1.5922070616201635e-21 5.4960841087663885e-14 5.496024067373495e-14 6.004139289244227e-19
1.3400274889804893 1.6632693187818928e-21 5.916239094924233e-14 5.916134788152847e-14 1.0430677138711969e-18
1.3808389325824078 1.735302442891112e-21 6.360446949253962e-14 6.360268981146745e-14 1.779681072166193e-18
1.4228933163050095 1.8089451136490924e-21 6.8323036925859e-14 6.832005322767232e-14 2.9836981866892665e-18
1.466228494730424 1.885538852198528e-21 7.338487756959659e-14 7.337995980375711e-14 4.917765839485983e-18
1.5108834753276823 1.964980013122616e-21 7.88058652327536e-14 7.879789313910069e-14 7.972093652908425e-18
1.5568984535646726 2.0472755397347747e-21 8.460694581608968e-14 8.459422173161586e-14 1.2724084473824844e-17
1.6043148490894465 2.1330183563510698e-21 9.083508547611584e-14 9.08150526878745e-14 2.003278824135007e-17
1.6531753430134553 2.222859163348301e-21 9.754394134285225e-14 9.75128669664432e-14 3.107437640905046e-17
1.7035239163302658 2.317577086209289e-21 1.0479772540781136e-13 1.047502235045102e-13 4.750190330113437e-17
1.755405889504358 2.419140592084169e-21 1.1272184613608316e-13 1.1265025098972401e-13 7.159514635916226e-17
1.8088679632656115 2.5278009927108057e-21 1.2137218773847317e-13 1.2126575558460223e-13 1.0643215387090923e-16
1.8639582606462262 2.64382020966728e-21 1.308089724500717e-13 1.3065285542730243e-13 1.5611702276929673e-16
1.9207263702978936 2.767889987264894e-21 1.4111843668143442e-13 1.4089240051928448e-13 2.2603616214993575e-16
1.979223391128241 2.9009307978242964e-21 1.5240584274566998e-13 1.5208267952106812e-13 3.2316322460187923e-16
2.039501978296691 3.0438624811052806e-21 1.647853472377199e-13 1.643289581131071e-13 4.563891246128459e-16
2.1016163906111602 3.1985898780691446e-21 1.7843557246091412e-13 1.777986370982174e-13 6.369353626966477e-16
2.1656225393682647 3.3663832376791977e-21 1.9351549782864453e-13 1.926367799023109e-13 8.787179263336257e-16
2.231578038680979 3.547559651873247e-21 2.101412051842872e-13 2.0894244950896106e-13 1.1987556753261303e-15
2.299542257339062 3.7429856899178324e-21 2.2846990154549597e-13 2.268523076853556e-13 1.6175938601403895e-15
2.369576372248914 3.953939992995218e-21 2.4869681174839294e-13 2.465370599172685e-13 2.159751831124499e-15
2.4417434235010123 4.1818519605336284e-21 2.7104294923493014e-13 2.681888974520158e-13 2.8540517829143267e-15
2.5161083711144245 4.428914534456224e-21 2.9579857359225936e-13 2.9206451733110616e-13 3.7340562611531644e-15
2.5927381535095444 4.6982757396545645e-21 3.2334533034987074e-13 3.1850701592878876e-13 4.83831442108205e-15
2.6717017477616296 4.992811025272148e-21 3.5408092913703793e-13 3.47870663693243e-13 6.21026544379489e-15
2.753070231689431 5.316343556166815e-21 3.8850781747357386e-13 3.8060955167157654e-13 7.898265801997217e-15
2.836916847834745 5.677796281597679e-21 4.275587961538554e-13 4.17603008780266e-13 9.95578737358925e-15
2.9233170693905177 6.0956702174783444e-21 4.730061839830717e-13 4.60567585218742e-13 1.243859876432973e-14
2.967498994190263 6.341842232547243e-21 4.995459556589945e-13 4.857148379750398e-13 1.3831117683954686e-14
3.0123486681368425 6.6051961020049895e-21 5.281537739244466e-13 5.12794347061732e-13 1.5359426862714643e-14
3.0578761833420214 6.99230231172012e-21 5.675570545216043e-13 5.505176146912956e-13 1.7039439830308505e-14
3.1040917844459814 7.436585298916549e-21 6.127418608442056e-13 5.938761000047729e-13 1.8865760839432783e-14
3.127460860933648 7.811264642377238e-21 6.484592179203202e-13 6.286163526735404e-13 1.9842865246779492e-14
3.1510058709225794 8.27594470010818e-21 6.92207380336484e-13 6.713465709158524e-13 2.0860809420631665e-14
3.162844764501044 8.676171836835872e-21 7.284092542988954e-13 7.07021867394944e-13 2.138738690395106e-14
3.1747281389236908 9.126470858106683e-21 7.690929773093111e-13 7.471684544304246e-13 2.192452287888658e-14
3.1986289994194426 1.0329484899000791e-20 8.770249901953256e-13 8.53991204738053e-13 2.303378545727291e-14
3.2227097969389145 1.3046290042695339e-20 1.1160346070364049e-12 1.0918259654317633e-12 2.4208641604641437e-14
3.2348180950136065 1.5572396966888178e-20 1.3371334796061384e-12 1.3122980086117608e-12 2.4835470994377602e-14
3.240889293275058 1.7452586465031032e-20 1.5013896836368062e-12 1.4762235757739834e-12 2.5166107862822928e-14
3.2469718861334385 1.962911661723095e-20 1.6917988154476248e-12 1.6662905960894113e-12 2.5508219358213977e-14
3.2714166318528037 3.103989705484473e-20 2.6954145139828876e-12 2.6684929702836995e-12 2.692154369918761e-14
3.2744851364798273 3.175703502496851e-20 2.760275333630168e-12 2.7331873564924272e-12 2.7087977137741484e-14
3.2775565192852394 3.2493239273100435e-20 2.826914225023004e-12 2.799658993999824e-12 2.725523102318083e-14
3.283707930232385 3.1809580682885394e-20 2.7726298790754793e-12 2.745075792067269e-12 2.7554087008210035e-14
3.2898708863219004 2.960188592475148e-20 2.5850423818879756e-12 2.5572165472694072e-12 2.782583461856845e-14
3.29141343181113 2.9080364927555785e-20 2.5406902578398247e-12 2.5127961918589144e-12 2.7894065980910158e-14
3.292184975758714 2.882397502628996e-20 2.518880327181999e-12 2.490952101303101e-12 2.7928225878897754e-14
3.295272960557952 2.7220251745639956e-20 2.380964747241928e-12 2.352903688884306e-12 2.806105835762234e-14
3.3076538914384823 2.16276099174579e-20 1.898882185737688e-12 1.8702877233205717e-12 2.859446241711642e-14
3.310756385682612 2.0479229014845114e-20 1.7997420385879133e-12 1.7710131511006076e-12 2.872888748730602e-14
3.313861789986515 1.9415739374111378e-20 1.7078815942623502e-12 1.679017851442059e-12 2.8863742820291766e-14
3.3200813396944477 1.793529165891946e-20 1.580616824050676e-12 1.5514629153898514e-12 2.915390866082497e-14
3.345076488085796 1.538653285705848e-20 1.366206207840209e-12 1.335758928240022e-12 3.044727960018701e-14
3.3482140837626964 1.5501294732852565e-20 1.377687207174006e-12 1.3470647091776093e-12 3.062249799639662e-14
3.3513546224236106 1.5617058697397317e-20 1.3892776870872766e-12 1.3584791937844074e-12 3.079849330286949e-14
3.3576445397418455 1.6386816543366178e-20 1.4604905186682871e-12 1.4293240208895516e-12 3.116649777873535e-14
3.3702598118196083 1.9148937542891343e-20 1.7130794187179048e-12 1.681141039207226e-12 3.193837951067852e-14
3.382922481734668 1.983497808678025e-20 1.7811200982979168e-12 1.7484317738499825e-12 3.2688324447934214e-14
3.389271646505754 2.0188325476081595e-20 1.8162520158722653e-12 1.7831836328247289e-12 3.306838304753662e-14
3.395632727569191 2.0575454164448123e-20 1.8545543867546963e-12 1.8210943302609922e-12 3.346005649370371e-14
3.421196662673239 2.243943751109613e-20 2.0377900578212197e-12 2.002708996803842e-12 3.508106101737756e-14
3.4276182099114902 2.2132602701498475e-20 2.013698110866001e-12 1.978255635351381e-12 3.5442475514620335e-14
3.4340518103208963 2.0679570211970612e-20 1.885027909501689e-12 1.849243764111106e-12 3.578414539058297e-14
3.4469541582030403 1.8604175948938607e-20 1.7022187850472078e-12 1.6657791836871719e-12 3.6439601360036745e-14
3.472904465399547 1.8090711379236374e-20 1.667699945722045e-12 1.6297499643157824e-12 3.794998140626216e-14
3.4990501388274233 1.7277727532314097e-20 1.6047456963322084e-12 1.5652508928871132e-12 3.94948034450946e-14
3.5253949054701885 1.4207639961875e-20 1.3295330837620926e-12 1.2885387222151625e-12 4.099436154693047e-14
3.5519380250092896 1.1289563848150497e-20 1.0644174276696515e-12 1.021916874152976e-12 4.2500553516676046e-14
3.578680990867387 1.0200192839885047e-20 9.689487390555437e-13 9.247975033035463e-13 4.415123575199767e-14
3.605625307711299 9.830939103099432e-21 9.40903387969626e-13 8.950143083315998e-13 4.588907963802616e-14
3.660119384959845 9.711200234618705e-21 9.434906340118929e-13 8.939534234158914e-13 4.9537210596001485e-14
3.715437065384467 9.688681161228977e-21 9.555292954883302e-13 9.021505959395316e-13 5.337869954879858e-14
3.8285932144167436 1.0028526182327492e-20 1.019167980921076e-12 9.57548477130871e-13 6.161950379020494e-14
3.94519561050918 1.0475685206021714e-20 1.0970348234551269e-12 1.026452662764261e-12 7.058216069086584e-14
4.06534921144712 1.0967313231439757e-20 1.1834980250839732e-12 1.1032479611820858e-12 8.025006390188719e-14
4.189162171576248 1.1483299404902631e-20 1.2769188396299235e-12 1.1862842685497921e-12 9.063457108013152e-14
4.316745939156006 1.2013411156716149e-20 1.3765508633917869e-12 1.2748617660466557e-12 1.0168909734513162e-13
4.448215356677963 1.2550794818600476e-20 1.4819258301144952e-12 1.36867478504304e-12 1.1325104507145539e-13
4.58368876423945 1.3092355942651558e-20 1.5929507843505478e-12 1.4676243614871657e-12 1.2532642286338224e-13
4.723288106065518 1.3637069168602282e-20 1.7097590585098542e-12 1.5717762824809024e-12 1.3798277602895161e-13
4.867139040275056 1.4182381299337425e-20 1.832282119051637e-12 1.6814127271969034e-12 1.5086939185473332e-13
4.940699165968905 1.445987812471165e-20 1.8963673810662054e-12 1.738931051848511e-12 1.5743632921769426e-13
5.015371051989984 1.47326755099365e-20 1.96134560003745e-12 1.7972818430167428e-12 1.640637570207071e-13
5.091171501069577 1.5017721841702216e-20 2.0295100956674973e-12 1.8586131497830574e-12 1.7089694588443985e-13
5.129500256944802 1.5158075801477836e-20 2.063899583869284e-12 1.8895711728857133e-12 1.7432841098357063e-13
5.168117569889187 1.5298574946634068e-20 2.0987117614571594e-12 1.920907599963177e-12 1.7780416149398229e-13
5.20702561229733 1.545186611517131e-20 2.1356991923521145e-12 1.95409292469153e-12 1.8160626766058426e-13
5.246226572918644 1.560401241076258e-20 2.1729651591151307e-12 1.9875372642742215e-12 1.854278948409097e-13
5.265937586045735 1.567964624822584e-20 2.191701478856762e-12 2.0043559887374544e-12 1.8734549011930757e-13
5.285722656980489 1.575498218865018e-20 2.210506119076158e-12 2.0212388035473213e-12 1.8926731552883717e-13
5.305582063971359 1.5830016658549802e-20 2.229378668369154e-12 2.0381855177531168e-12 1.9119315061603823e-13
5.3255160863122235 1.5907191373263622e-20 2.2486643765914773e-12 2.0555256040404502e-12 1.931387725510271e-13
5.365609099470188 1.6079555241075227e-20 2.2901424396712865e-12 2.0929777573101923e-12 1.9716468236109376e-13
5.406003951863644 1.6251686489761713e-20 2.3320842058284805e-12 2.130874218969267e-12 2.0120998685921364e-13
5.446702915881641 1.6423624358676214e-20 2.3744997279817784e-12 2.169226806326228e-12 2.0527292165555012e-13
5.487708281020852 1.6600023182745562e-20 2.4180715336658213e-12 2.2087016704403343e-12 2.0936986322548677e-13
5.529022354014368 1.6817307410585032e-20 2.468165297160026e-12 2.2545249019766155e-12 2.1364039518341064e-13
5.570647458961463 1.703754135768692e-20 2.5193124386254264e-12 2.3013818086582964e-12 2.179306299671303e-13
5.612585937458331 1.726105252569687e-20 2.5715780549017818e-12 2.349339284861964e-12 2.2223877003981796e-13
5.654840148729818 1.7495117954813343e-20 2.6260720701914447e-12 2.399486756991525e-12 2.2658531319992053e-13
5.67608639626678 1.7644291652978545e-20 2.6584142619942883e-12 2.429553091821663e-12 2.2886117017262576e-13
5.686739436050992 1.7719884423031606e-20 2.674814368526921e-12 2.4448132027550213e-12 2.300011657718996e-13
5.6974124697621304 1.7796172608721556e-20 2.6913718411263016e-12 2.460229339565653e-12 2.3114250156064924e-13
5.718818669136295 1.7950912626716084e-20 2.724973557725553e-12 2.4915444783407323e-12 2.334290793848211e-13
5.740305295436557 1.811728840287963e-20 2.7605627379001644e-12 2.524824200899159e-12 2.3573853700100544e-13
5.7835210386641895 1.8531344127408097e-20 2.8449109298040784e-12 2.6043999848653785e-12 2.4051094493870074e-13
5.827062130521658 1.8987939595411943e-20 2.9369525042025963e-12 2.6916015838373126e-12 2.453509203652849e-13
5.8489554468988025 1.9300929800359137e-20 2.996580695847766e-12 2.7486100838313267e-12 2.4797061201643983e-13
5.870931020387893 1.9629122809635325e-20 3.0589846871397538e-12 2.808384928560655e-12 2.505997585790975e-13
5.892989160043636 1.997373856627446e-20 3.124384225283353e-12 2.8711460875711744e-12 2.5323813771217887e-13
5.915130176081913 2.035964989774044e-20 3.1967159312973193e-12 2.9407409517669713e-12 2.559749795303478e-13
5.95966208400165 2.142431973143263e-20 3.389207117571232e-12 3.1269588906475523e-12 2.622482269236798e-13
6.004529249263818 2.2921874959635457e-20 3.653411040337367e-12 3.3840828437229426e-12 2.693281966144248e-13
6.027089341400364 2.3951973467273415e-20 3.831937033778333e-12 3.55849951960675e-12 2.734375141715824e-13
6.049734195844842 2.5150614475980106e-20 4.038818406825319e-12 3.761024077288912e-12 2.7779432953640675e-13
6.095279466722835 2.858304824187324e-20 4.624572560782731e-12 4.336005772087163e-12 2.885667886955678e-13
6.141167624020661 3.3777969182601075e-20 5.506224568000082e-12 5.2035980793300715e-12 3.0262648867000884e-13
6.164241091010745 3.7082396563460376e-20 6.067598610506667e-12 5.756110018664075e-12 3.114885918425919e-13
6.187401249150058 4.078164594118105e-20 6.697958672881387e-12 6.377377040006395e-12 3.2058163287499083e-13
6.1990139391386085 4.257800573217071e-20 7.006116619846515e-12 6.680909504713634e-12 3.2520711513287796e-13
6.204828454712694 4.3518760347041004e-20 7.167632464557273e-12 6.840089809884905e-12 3.275426546723685e-13
6.210648424152782 4.4200309934198215e-20 7.286713477272364e-12 6.957189435319377e-12 3.295240419529889e-13
6.233982942956859 4.648172946637677e-20 7.69161116847404e-12 7.35521506079986e-12 3.3639610767417887e-13
6.239830258556775 4.6754412463149664e-20 7.743990520110083e-12 7.406667912230981e-12 3.3732260787910284e-13
6.245683058788269 4.6751338427669944e-20 7.750744550133094e-12 7.412494229107863e-12 3.3825032102523255e-13
6.257405133728602 4.662661804343925e-20 7.744575593942122e-12 7.404717312979799e-12 3.398582809623241e-13
6.269149208991335 4.610031464387161e-20 7.671528962672845e-12 7.33115645690112e-12 3.403725057717258e-13
6.280915325867298 4.487445259650815e-20 7.481549187358267e-12 7.142013955236934e-12 3.3953523212133497e-13
6.304513850009849 4.189043786949173e-20 7.010289225318409e-12 6.673649973298e-12 3.366392520204078e-13
6.32820103803542 3.826098789870796e-20 6.426964188572901e-12 6.094520358115902e-12 3.324438304569987e-13
6.3519772230701035 3.4954683382847983e-20 5.893641810961104e-12 5.5649786097464555e-12 3.286632012146483e-13
6.375842739491607 3.2161621850037933e-20 5.443083177421229e-12 5.1177744464593015e-12 3.2530873096192873e-13
6.399797922933955 2.995855742691496e-20 5.089282883372855e-12 4.765790045493757e-12 3.234928378790985e-13
6.42384311029221 2.811716676131799e-20 4.794418222439072e-12 4.472434103243187e-12 3.2198411919588414e-13
6.447978639727206 2.6788699479480668e-20 4.585056096031174e-12 4.263382820127057e-12 3.21673275904118e-13
6.472204850670314 2.5677487843300767e-20 4.411377461115925e-12 4.089778003029887e-12 3.215994580860384e-13
6.496522083828205 2.49612470789339e-20 4.304439730322948e-12 3.981945241438673e-12 3.2249448888427346e-13
