Dust emission spectrum from A.P. Jones, M. Kohler, N. Ysard, M. Bocchio, and L. Verstraete (2017), A&A, 602A, 46J 
inside the DustPedia framework.

lambda    nu*dP/dnu     j_nu    j_nu(carb.) j_nu(sil)
 (um)   (erg s-1 H-1) (Jy cm2 sr-1 H-1)
0.9927057738263894 1.5216777229089106e-21 4.009707229434185e-14 4.009706396090699e-14 8.333434864300255e-21
1.0001793341362166 1.5472435755760465e-21 4.107768857106388e-14 4.1077678543405536e-14 1.0027658340776325e-20
1.0077091589558085 1.5729153588545333e-21 4.207363083727054e-14 4.2073618787060115e-14 1.205021043199418e-20
1.0114953028030835 1.5857898940541623e-21 4.2577381531341906e-14 4.2577368328292096e-14 1.3203049802388676e-20
1.0152956718711033 1.5986896373322145e-21 4.308500302334425e-14 4.3084988562005034e-14 1.4461339205173846e-20
1.0229392996569957 1.6245505685368944e-21 4.411157163239907e-14 4.411155430048611e-14 1.7331912951610953e-20
1.0267826658714554 1.6374824502650082e-21 4.4629766586899424e-14 4.4629747621447124e-14 1.8965452297973865e-20
1.0306404723013447 1.6504373521940884e-21 4.515186252304882e-14 4.515184177703649e-14 2.0746012349655767e-20
1.03451277320114 1.663414921815063e-21 4.5677874125350463e-14 4.567785143919932e-14 2.2686151133326812e-20
1.0383996230291617 1.6764148200333948e-21 4.6207816439486655e-14 4.620779164004924e-14 2.4799437424454245e-20
1.0403485208654093 1.6829230401556796e-21 4.64742664180101e-14 4.6474240492464005e-14 2.5925546095065606e-20
1.0423010764483396 1.6894367215271569e-21 4.674170488852365e-14 4.674167778799694e-14 2.7100526724305353e-20
1.0462171883269815 1.7024803151052195e-21 4.727955528941428e-14 4.7279525684171766e-14 2.9605242508396034e-20
1.0471985131304309 1.7057445677946484e-21 4.741463883702388e-14 4.74146085718133e-14 3.0265210584438866e-20
1.048180758391296 1.7090101531306793e-21 4.754997127643462e-14 4.754994033718883e-14 3.0939245789289906e-20
1.0501480137395462 1.7155453040654544e-21 4.782138386980002e-14 4.782135153913696e-14 3.233066307836926e-20
1.0521189612883777 1.7220857331444476e-21 4.8093795164941764e-14 4.809376138310133e-14 3.37818404547629e-20
1.0531058218030118 1.7253536032962566e-21 4.823025542075137e-14 4.823022089010401e-14 3.453064734178931e-20
1.0540936079674168 1.728608650311466e-21 4.8366570564155074e-14 4.836653526866912e-14 3.529548596478749e-20
1.058054026499678 1.7416412579842502e-21 4.8914315622631646e-14 4.891427710260106e-14 3.8520030577233836e-20
1.0590464539527713 1.744902495506013e-21 4.9051874360158347e-14 4.905183499101924e-14 3.9369139117834624e-20
1.06003981227728 1.7481649597676553e-21 4.9189682634070085e-14 4.9189642397941216e-14 4.023612887547445e-20
1.0620293250338977 1.7546935540113535e-21 4.946604890071089e-14 4.9466006875521664e-14 4.2025189215680004e-20
1.0660195594769086 1.7677653074589897e-21 5.0021788185813836e-14 5.0021742351736063e-14 4.583407776267383e-20
1.070024785945596 1.7808563038178816e-21 5.058155176795893e-14 5.058150179635787e-14 4.997160105202547e-20
1.0740450607676866 1.7939663453585875e-21 5.114535845842875e-14 5.114530399384705e-14 5.446458169799875e-20
1.07808044048254 1.8070952514864075e-21 5.171322760874852e-14 5.171316826685108e-14 5.934189744612611e-20
1.0861967418109137 1.83338901311807e-21 5.286065658538671e-14 5.286058620917019e-14 7.037621652248322e-20
1.0902777775684922 1.846508103394268e-21 5.343893706698512e-14 5.343886046434835e-14 7.660263676960388e-20
1.0943741465085532 1.859644732086623e-21 5.402132623163452e-14 5.402124287910158e-14 8.335253293239393e-20
1.1026131145906286 1.8859702808042984e-21 5.519851976429845e-14 5.5198421172259285e-14 9.85920391722549e-20
1.1109141095355224 1.9123652073647728e-21 5.63924222588989e-14 5.639230579341532e-14 1.1646548357884282e-19
1.1192775983109025 1.9388088212663187e-21 5.760261926124954e-14 5.760248186108092e-14 1.3740016862286235e-19
1.1277040513999907 1.9652068249504916e-21 5.882647663712551e-14 5.882631474923818e-14 1.6188788732214505e-19
1.1361939428280308 1.9916717731672396e-21 6.006751577753817e-14 6.00673252836574e-14 1.9049388076913355e-19
1.1447477501889525 2.0182045945083745e-21 6.132596943831846e-14 6.132574557139966e-14 2.238669187966451e-19
1.1533659546722406 2.0448158798898187e-21 6.260236925896866e-14 6.260210650796008e-14 2.6275100857915446e-19
1.1707974979042381 2.0983569658460544e-21 6.521246094447329e-14 6.52121003605491e-14 3.605839242019782e-19
1.1884924949847024 2.1522324863791456e-21 6.789769939188738e-14 6.789720703151791e-14 4.923603694900957e-19
1.2064549276569216 2.2068115686060574e-21 7.067174039938924e-14 7.067107143012999e-14 6.689692592294883e-19
1.2246888378427687 2.2617566950628024e-21 7.352602324210499e-14 7.35251187766761e-14 9.04465428915207e-19
1.2431983285522175 2.3170359104396614e-21 7.646146508850978e-14 7.646024816273153e-14 1.2169257782775144e-18
1.2619875648066055 2.372744340075273e-21 7.948322034733497e-14 7.948159086527783e-14 1.6294820571709506e-18
1.3004222497298317 2.4851832542198633e-21 8.578517530874108e-14 8.578229491473828e-14 2.8803940028262447e-18
1.3400274889804893 2.599575173512902e-21 9.246673462957228e-14 9.246173651714642e-14 4.998112425866484e-18
1.3808389325824078 2.7165549859815493e-21 9.957056156896786e-14 9.956204398143892e-14 8.517587528965556e-18
1.4228933163050095 2.8373688973910195e-21 1.071661370408698e-13 1.0715187442109892e-13 1.4262619770881586e-17
1.466228494730424 2.9644176424610817e-21 1.153746715446909e-13 1.1535119296964038e-13 2.3478575050482302e-17
1.5108834753276823 3.0979662050417605e-21 1.2424447354157988e-13 1.2420646112014633e-13 3.8012421433548774e-17
1.5568984535646726 3.2385569245417542e-21 1.3383856003697657e-13 1.337779673646041e-13 6.059267237245782e-17
1.6043148490894465 3.387773681614024e-21 1.442691344061256e-13 1.441738614689026e-13 9.527293722297258e-17
1.6531753430134553 3.5474527045714066e-21 1.5567001465357155e-13 1.5552242482739732e-13 1.475898261742126e-16
1.7035239163302658 3.719819703665379e-21 1.6820525461308733e-13 1.6797994396361803e-13 2.2531064946932685e-16
1.755405889504358 3.909174497780775e-21 1.821512018358184e-13 1.8181207526752795e-13 3.391265682905006e-16
1.8088679632656115 4.117428984423844e-21 1.9769806449889894e-13 1.9719462265275393e-13 5.03441846144989e-16
1.8639582606462262 4.3467992185973305e-21 2.150677028461965e-13 2.1433028172685937e-13 7.374211193371349e-16
1.9207263702978936 4.6005018841264414e-21 2.3455254248722615e-13 2.3348638225236794e-13 1.0661602348582055e-15
1.979223391128241 4.8824796949307994e-21 2.5651023221672177e-13 2.549881575782423e-13 1.522074638479419e-15
2.039501978296691 5.197045678140039e-21 2.8135205910210005e-13 2.792056688786596e-13 2.1463902234405586e-15
2.1016163906111602 5.5504670503944565e-21 3.096366847007093e-13 3.066456755092055e-13 2.9910091915038338e-15
2.1656225393682647 5.948443312012121e-21 3.4194442152197804e-13 3.378242991219097e-13 4.120122400068305e-15
2.231578038680979 6.395539455685e-21 3.7884250045285085e-13 3.732304901886211e-13 5.612010264229874e-15
2.299542257339062 6.897567560564994e-21 4.210239397148978e-13 4.134630494524033e-13 7.560890262494563e-15
2.369576372248914 7.461299896585893e-21 4.693044151066785e-13 4.592255640804646e-13 1.0078851026214002e-14
2.4417434235010123 8.093984909891529e-21 5.246043049214197e-13 5.113071006534247e-13 1.3297204267994966e-14
2.5161083711144245 8.804292542205012e-21 5.880215468626019e-13 5.706532296114158e-13 1.7368317251186022e-14
2.5927381535095444 9.602385994340994e-21 6.608566298655442e-13 6.383901072536544e-13 2.2466522611889667e-14
2.6717017477616296 1.0497843946497017e-20 7.444876883375898e-13 7.157002643510835e-13 2.878742398650635e-14
2.753070231689431 1.1501302136579356e-20 8.404922939947017e-13 8.039445444710591e-13 3.654774952364282e-14
2.836916847834745 1.2630749901810777e-20 9.511415969681502e-13 9.05155601951614e-13 4.598599501653628e-14
2.9233170693905177 1.3916907929440967e-20 1.0799113596522265e-12 1.0225625749784217e-12 5.734878467380487e-14
2.967498994190263 1.4635734097228866e-20 1.1528545662723817e-12 1.0891487751764457e-12 6.370579109593631e-14
3.0123486681368425 1.5400719861906627e-20 1.2314469079502617e-12 1.1607710977762686e-12 7.067581017399334e-14
3.0578761833420214 1.637152578267937e-20 1.3288577262552891e-12 1.2505269268160903e-12 7.833079943919886e-14
3.1040917844459814 1.744474426928685e-20 1.4373700611047165e-12 1.3507281430799122e-12 8.664191802480391e-14
3.127460860933648 1.8211897799149315e-20 1.5118772112279978e-12 1.420792896320412e-12 9.108431490758568e-14
3.1510058709225794 1.9114475259597885e-20 1.5987517226619266e-12 1.5030423542970205e-12 9.570936836490575e-14
3.162844764501044 1.9813292839444387e-20 1.6634278497241733e-12 1.5653271216435906e-12 9.810072808058329e-14
3.1747281389236908 2.0585008551992753e-20 1.734710575570073e-12 1.6341713497320632e-12 1.0053922583800991e-13
3.1986289994194426 2.256933044293102e-20 1.9162491647905285e-12 1.8106765668366736e-12 1.0557259795385456e-13
3.2227097969389145 2.6758679306799466e-20 2.289050147378707e-12 2.178149613512874e-12 1.1090053386583308e-13
3.2348180950136065 3.0550416856390224e-20 2.623230404507606e-12 2.5094879818609802e-12 1.137424226466256e-13
3.240889293275058 3.334349109322825e-20 2.8684329193334624e-12 2.7531914666092854e-12 1.1524145272417718e-13
3.2469718861334385 3.6567136284499854e-20 3.151656748328791e-12 3.0348642468287752e-12 1.1679250150001525e-13
3.2714166318528037 5.335054987670143e-20 4.632806810297853e-12 4.50960916722946e-12 1.231976430683924e-13
3.2744851364798273 5.441977105002961e-20 4.73008741442942e-12 4.606136226016385e-12 1.2395118841303513e-13
3.2775565192852394 5.551638943318908e-20 4.829929995330506e-12 4.705221612820427e-12 1.2470838251007977e-13
3.283707930232385 5.458601077196352e-20 4.757900016183225e-12 4.63184012784813e-12 1.2605988833509523e-13
3.2898708863219004 5.144700785218277e-20 4.49271022992541e-12 4.365422787224038e-12 1.2728744270137136e-13
3.29141343181113 5.070611734895958e-20 4.430086715978932e-12 4.3024910887821926e-12 1.2759562719673897e-13
3.292184975758714 5.0341977805853406e-20 4.399303614818547e-12 4.271553700810907e-12 1.2774991400764028e-13
3.295272960557952 4.8052242773107896e-20 4.203146140520414e-12 4.074796531813628e-12 1.2834960870678582e-13
3.3076538914384823 4.00759276874793e-20 3.5186257498216847e-12 3.38786867090715e-12 1.307570789145344e-13
3.310756385682612 3.844140968902502e-20 3.3782825022254538e-12 3.2469188457118155e-12 1.313636565136379e-13
3.313861789986515 3.692913782571157e-20 3.2484261129198934e-12 3.1164539927456147e-12 1.3197212017427822e-13
3.3200813396944477 3.484575333853515e-20 3.070916549395379e-12 2.9376345691225967e-12 1.332819802727832e-13
3.345076488085796 3.1428639018180434e-20 2.7906223013009437e-12 2.6515000680207942e-12 1.391222332801487e-13
3.3482140837626964 3.163145900499009e-20 2.8112655856459892e-12 2.671352070973424e-12 1.3991351467256505e-13
3.3513546224236106 3.183581122607905e-20 2.832081446558517e-12 2.691373214810673e-12 1.407082317478449e-13
3.3576445397418455 3.302671676706876e-20 2.943537359644987e-12 2.801167134316419e-12 1.4237022532856772e-13
3.3702598118196083 3.717890836166709e-20 3.326055170534236e-12 3.1801990603171814e-12 1.4585611021705527e-13
3.382922481734668 3.832254415164928e-20 3.4412467363351534e-12 3.2920062836325705e-12 1.4924045270258244e-13
3.389271646505754 3.8909669227752495e-20 3.5005263440772008e-12 3.349571245372386e-12 1.509550987048146e-13
3.395632727569191 3.954947245633734e-20 3.5647644543598222e-12 3.412042308263719e-12 1.5272214609610205e-13
3.421196662673239 4.258189479541847e-20 3.866984714495821e-12 3.7069520089318405e-12 1.6003270556398063e-13
3.4276182099114902 4.220354954525029e-20 3.83981988640479e-12 3.6781599507423685e-12 1.6165993566241991e-13
3.4340518103208963 4.015368709978255e-20 3.660173788750867e-12 3.496976840527606e-12 1.6319694822326106e-13
3.4469541582030403 3.725838572319709e-20 3.409015494834594e-12 3.2428726303761705e-12 1.6614286445842328e-13
3.472904465399547 3.678684259487941e-20 3.3912107773262937e-12 3.2182754678975774e-12 1.7293530942871702e-13
3.4990501388274233 3.5884994371442057e-20 3.3329782619140726e-12 3.153101541542914e-12 1.798767203711601e-13
3.5253949054701885 3.170542638480786e-20 2.96695393650886e-12 2.780348760978974e-12 1.8660517552988624e-13
3.5519380250092896 2.774269386310326e-20 2.6156729556234093e-12 2.422317243754056e-12 1.9335571186935334e-13
3.578680990867387 2.646013865350386e-20 2.513532673940737e-12 2.3127797817222994e-12 2.0075289221843635e-13
3.605625307711299 2.623449423910012e-20 2.510861297417324e-12 2.302325190655236e-12 2.085361067620879e-13
3.660119384959845 2.669656069449416e-20 2.593701537096793e-12 2.3688475086699164e-12 2.2485402842687614e-13
3.715437065384467 2.731359914436438e-20 2.6937561174068602e-12 2.451749465990886e-12 2.420066514159734e-13
3.8285932144167436 2.9148484161620225e-20 2.962269949721943e-12 2.683572546678815e-12 2.7869740304312833e-13
3.94519561050918 3.118561661817162e-20 3.2658204927148206e-12 2.947375678632375e-12 3.1844481408244534e-13
4.06534921144712 3.332393819924735e-20 3.5960325208704016e-12 3.234893787359117e-12 3.611387335112845e-13
4.189162171576248 3.552413049692694e-20 3.950208898466194e-12 3.5434151424268544e-12 4.067937560393402e-13
4.316745939156006 3.775894969141264e-20 4.326590850877778e-12 3.871426987762535e-12 4.551638631152426e-13
4.448215356677963 4.000273284900964e-20 4.723293141264767e-12 4.217802891765009e-12 5.054902494997585e-13
4.58368876423945 4.2239733944669586e-20 5.139320807702749e-12 4.5815571791203095e-12 5.577636285824397e-13
4.723288106065518 4.445823381016345e-20 5.573988592599249e-12 4.9617441746693614e-12 6.122444179298872e-13
4.867139040275056 4.6634703433855765e-20 6.024935546833863e-12 5.357590548034112e-12 6.673449987997521e-13
4.940699165968905 4.771193039138653e-20 6.25726909325047e-12 5.561987164775244e-12 6.95281928475225e-13
5.015371051989984 4.876690060197998e-20 6.4922862014198634e-12 5.768909633148838e-12 7.233765682710248e-13
5.091171501069577 4.9828228350931673e-20 6.733837099487707e-12 5.981576992591724e-12 7.522601068959831e-13
5.129500256944802 5.034875002174388e-20 6.855406027728442e-12 6.0886826864854325e-12 7.667233412430091e-13
5.168117569889187 5.08655473420295e-20 6.9779128338460336e-12 6.196559501719476e-12 7.813533321265575e-13
5.20702561229733 5.1404331817728275e-20 7.104914650970959e-12 6.307511857585881e-12 7.974027933850794e-13
5.246226572918644 5.1936311291021105e-20 7.2324855913666415e-12 6.4189798713695436e-12 8.135057199970998e-13
5.265937586045735 5.219967310307855e-20 7.296472058405138e-12 6.474897352660619e-12 8.215747057445207e-13
5.285722656980489 5.246124331362797e-20 7.360585875029367e-12 6.530931863336464e-12 8.296540116929038e-13
5.305582063971359 5.2720992770823916e-20 7.424822044962191e-12 6.587079436235964e-12 8.377426087262251e-13
5.3255160863122235 5.298310375019547e-20 7.489770831861887e-12 6.6438606595754225e-12 8.459101722864649e-13
5.365609099470188 5.3534147378201373e-20 7.624640174701625e-12 6.761825969096481e-12 8.628142056051469e-13
5.406003951863644 5.407895407685492e-20 7.760220746924231e-12 6.880452488256288e-12 8.797682586679433e-13
5.446702915881641 5.461738889599623e-20 7.89648936460888e-12 6.99972529212936e-12 8.967640724795177e-13
5.487708281020852 5.51569980624263e-20 8.034541002077961e-12 7.120667988410654e-12 9.13873013667306e-13
5.529022354014368 5.575777680652748e-20 8.18320117488284e-12 7.251494770912445e-12 9.317064039703945e-13
5.570647458961463 5.635601772888505e-20 8.333269071814635e-12 7.38368119094697e-12 9.495878808676644e-13
5.612585937458331 5.695198362610398e-20 8.48479378983303e-12 7.517284753672134e-12 9.675090361608966e-13
5.654840148729818 5.7557311698342e-20 8.63953298724312e-12 7.653974192180966e-12 9.855587950621554e-13
5.67608639626678 5.790929642435953e-20 8.725025778554526e-12 7.73000939806866e-12 9.950163804858647e-13
5.686739436050992 5.80859959091485e-20 8.768073919604326e-12 7.7683236070479e-12 9.99750312556427e-13
5.6974124697621304 5.82631965224206e-20 8.81132870208295e-12 7.806841209197633e-12 1.004487492885315e-12
5.718818669136295 5.861919440460704e-20 8.898475417344268e-12 7.884504355329371e-12 1.0139710620148961e-12
5.740305295436557 5.899144409760688e-20 8.98862891672521e-12 7.965085821780528e-12 1.0235430949446817e-12
5.7835210386641895 5.985808055351504e-20 9.189344627836546e-12 8.146027034759358e-12 1.043317593077187e-12
5.827062130521658 6.077953574976652e-20 9.401052116664653e-12 8.33771168547474e-12 1.0633404311899137e-12
5.8489554468988025 6.137169182492379e-20 9.528309200454317e-12 8.454111260330517e-12 1.0741979401238022e-12
5.870931020387893 6.198265344461968e-20 9.659320469598926e-12 8.574236234005596e-12 1.08508423559333e-12
5.892989160043636 6.261403975867788e-20 9.794376623793324e-12 8.698378382445431e-12 1.0959982413478972e-12
5.915130176081913 6.330642323385707e-20 9.939888589517515e-12 8.832562463726713e-12 1.1073261257908003e-12
5.95966208400165 6.514230780332227e-20 1.0305147422632887e-11 9.171747158201793e-12 1.1334002644310906e-12
6.004529249263818 6.762797911613896e-20 1.077890905406703e-11 9.616020096117207e-12 1.1628889579498225e-12
6.027089341400364 6.929885060515081e-20 1.1086720365442119e-11 9.906662116207952e-12 1.1800582492341658e-12
6.049734195844842 7.121518922662519e-20 1.14361109295654e-11 1.0237837589660206e-11 1.1982733399051908e-12
6.095279466722835 7.661143353201842e-20 1.2395288646484229e-11 1.1151798365264483e-11 1.2434902812197446e-12
6.141167624020661 8.462666279832876e-20 1.3795187250275476e-11 1.2492461735960929e-11 1.3027255143145496e-12
6.164241091010745 8.970147479568134e-20 1.4677383186365604e-11 1.333721584718624e-11 1.3401673391793659e-12
6.187401249150058 9.530986332704567e-20 1.5653647883738096e-11 1.4275085045856689e-11 1.3785628378814088e-12
6.1990139391386085 9.802804256302692e-20 1.6130297471704294e-11 1.473220743446165e-11 1.3980900372426418e-12
6.204828454712694 9.944528566568121e-20 1.6378850231495013e-11 1.4970902701832575e-11 1.4079475296624397e-12
6.210648424152782 1.0047368409361072e-19 1.6563751455273588e-11 1.514746398705301e-11 1.4162874682205704e-12
6.233982942956859 1.0389733324604087e-19 1.719251624120365e-11 1.5747400129755883e-11 1.4451161114477695e-12
6.239830258556775 1.0429658911441102e-19 1.7274771616869244e-11 1.5825842485685258e-11 1.448929131183986e-12
6.245683058788269 1.0428813396367896e-19 1.7289573157634635e-11 1.5836826854708822e-11 1.452746302925806e-12
6.257405133728602 1.0409149854505153e-19 1.7289362021020507e-11 1.5830043855574754e-11 1.459318165445748e-12
6.269149208991335 1.03288614191755e-19 1.7188203625237647e-11 1.572700051310026e-11 1.4612031121373864e-12
6.280915325867298 1.0143755294462175e-19 1.691185068315462e-11 1.5454551175153222e-11 1.4572995080013964e-12
6.304513850009849 9.693694375010036e-20 1.6222222704469196e-11 1.477795699270906e-11 1.4442657117601387e-12
6.32820103803542 9.150968499917861e-20 1.537151811015231e-11 1.3945845999589813e-11 1.4256721105625006e-12
6.3519772230701035 8.658635073622939e-20 1.4599157754293643e-11 1.3190298990271131e-11 1.4088587640225122e-12
6.375842739491607 8.24056427911105e-20 1.3946459854926358e-11 1.255258260204687e-11 1.393877252879484e-12
6.399797922933955 7.916848341569123e-20 1.34489388727405e-11 1.206346755662897e-11 1.3854713161115323e-12
6.42384311029221 7.645058321612751e-20 1.3036024304972152e-11 1.1657643088426528e-11 1.3783812165456236e-12
6.447978639727206 7.452483212830116e-20 1.2755398451399235e-11 1.1378994718126868e-11 1.3764037332723657e-12
6.472204850670314 7.291267130894524e-20 1.252635447847955e-11 1.1150918001819757e-11 1.375436476659797e-12
6.496522083828205 7.190599346430068e-20 1.2399821777225782e-11 1.1021223565131689e-11 1.378598212094092e-12
6.520930681187647 7.10596120505859e-20 1.2299907595861107e-11 1.0917535219017155e-11 1.3823723768439539e-12
6.57002334288761 7.024770734091509e-20 1.2250914262066246e-11 1.0855323632199057e-11 1.3955906298671865e-12
