Dust emission spectrum from A.P. Jones, M. Kohler, N. Ysard, M. Bocchio, and L. Verstraete (2017), A&A, 602A, 46J 
inside the DustPedia framework.

lambda    nu*dP/dnu     j_nu    j_nu(carb.) j_nu(sil)
 (um)   (erg s-1 H-1) (Jy cm2 sr-1 H-1)
0.9927057738263894 1.1672774554603266e-24 3.075842395173835e-17 3.075842395128967e-17 4.486887585585296e-28
1.0001793341362166 1.1865513353909536e-24 3.150168919630067e-17 3.1501689195760163e-17 5.405036101861532e-28
1.0077091589558085 1.2057974513454535e-24 3.225365977059044e-17 3.225365976994017e-17 6.5026997994723475e-28
1.0114953028030835 1.2154077275391286e-24 3.263287193694731e-17 3.263287193623441e-17 7.129043428775284e-28
1.0152956718711033 1.225008225922071e-24 3.301421482005027e-17 3.301421481926895e-17 7.81319274816416e-28
1.0229392996569957 1.2441667140731654e-24 3.378297369955867e-17 3.37829736986211e-17 9.375774910802069e-28
1.0267826658714554 1.2537014577275793e-24 3.4169772884577876e-17 3.416977288355128e-17 1.0265989649348724e-27
1.0306404723013447 1.2632222080921562e-24 3.4558618901841115e-17 3.4558618900717413e-17 1.123708846002735e-27
1.03451277320114 1.2727280464673046e-24 3.494949500567255e-17 3.494949500444294e-17 1.2296061587056728e-27
1.0383996230291617 1.2822180592668572e-24 3.5342384241638664e-17 3.534238424029361e-17 1.3450469966379e-27
1.0403485208654093 1.286956847021496e-24 3.553957842981727e-17 3.553957842841066e-17 1.4065991896027733e-27
1.0423010764483396 1.2916913381932419e-24 3.573726945056236e-17 3.573726944909152e-17 1.4708488875584426e-27
1.0462171883269815 1.3011469804087909e-24 3.613413327254234e-17 3.6134133270934445e-17 1.6078954678303902e-27
1.0471985131304309 1.3035080299587714e-24 3.623365633317749e-17 3.6233656331533465e-17 1.6440243427546062e-27
1.048180758391296 1.3058679071474538e-24 3.63333016845636e-17 3.6333301682882664e-17 1.68093095374682e-27
1.0501480137395462 1.3105840887031552e-24 3.6532958150975423e-17 3.653295814921828e-17 1.7571414863414336e-27
1.0521189612883777 1.3152954138307046e-24 3.673310044712809e-17 3.673310044529144e-17 1.8366583989782705e-27
1.0531058218030118 1.317645601079518e-24 3.683325190423735e-17 3.683325190235964e-17 1.8777018431550273e-27
1.0540936079674168 1.3199826740910373e-24 3.6933191985579177e-17 3.6933191983659545e-17 1.919632470647953e-27
1.058054026499678 1.3293176440684437e-24 3.7334130956425115e-17 3.7334130954328606e-17 2.096505425400743e-27
1.0590464539527713 1.3316479877861356e-24 3.74346589319885e-17 3.7434658929845395e-17 2.1431052113575615e-27
1.06003981227728 1.3339769447766368e-24 3.75353036268673e-17 3.7535303624676605e-17 2.190696461269452e-27
1.0620293250338977 1.3386306443446437e-24 3.7736942021452156e-17 3.7736942019163215e-17 2.2889340420923758e-27
1.0660195594769086 1.3479208076385995e-24 3.814160672033289e-17 3.814160671783468e-17 2.4982162617951933e-27
1.070024785945596 1.3571872732426591e-24 3.8548106421144964e-17 3.8548106418419203e-17 2.7257520407242372e-27
1.0740450607676866 1.3664291871640898e-24 3.89564223244096e-17 3.8956422321436563e-17 2.9730508366553873e-27
1.07808044048254 1.3756457022627174e-24 3.9366535467122667e-17 3.9366535463880935e-17 3.2417396023417345e-27
1.0861967418109137 1.3939828848502703e-24 4.019160692833899e-17 4.0191606924488554e-17 3.8504346040084004e-27
1.0902777775684922 1.4030648326783269e-24 4.0605450448103287e-17 4.060545044390892e-17 4.194363224131622e-27
1.0943741465085532 1.4121174166982152e-24 4.102098337849291e-17 4.102098337392537e-17 4.5675442678853385e-27
1.1026131145906286 1.4301312760892677e-24 4.185703789303046e-17 4.185703788761919e-17 5.4112591321896954e-27
1.1109141095355224 1.4480181065213522e-24 4.2699609984018946e-17 4.2699609977616305e-17 6.402625844142509e-27
1.1192775983109025 1.4657550604559741e-24 4.35480433922049e-17 4.354804338463895e-17 7.565959142830306e-27
1.1277040513999907 1.4832597043497474e-24 4.4399877527861866e-17 4.4399877518932565e-17 8.929311524163545e-27
1.1361939428280308 1.5006166563416954e-24 4.525761518299757e-17 4.5257615172472566e-17 1.0525000240504879e-26
1.1447477501889525 1.5178201303235583e-24 4.612108761339996e-17 4.6121087601009756e-17 1.2390209914487415e-26
1.1533659546722406 1.5348738576859787e-24 4.699041167949694e-17 4.6990411664929256e-17 1.4567688727734808e-26
1.1707974979042381 1.5685872178930584e-24 4.8748346611086404e-17 4.87483465910234e-17 2.006301265784282e-26
1.1884924949847024 1.6016289879679824e-24 5.052749842343267e-17 5.052749839593775e-17 2.7494897806256663e-26
1.2064549276569216 1.6342577806149786e-24 5.233606858888148e-17 5.233606855138519e-17 3.749629364403094e-26
1.2246888378427687 1.666117011295085e-24 5.4162748081595646e-17 5.41627480307072e-17 5.0888448497136554e-26
1.2431983285522175 1.6971321434718883e-24 5.600483339683777e-17 5.600483332810451e-17 6.873328535281063e-26
1.2619875648066055 1.7272916109695935e-24 5.786156451834337e-17 5.786156442594644e-17 9.239691058900786e-26
1.3004222497298317 1.7845420614012903e-24 6.159998596610064e-17 6.15999858014539e-17 1.6464674994663515e-25
1.3400274889804893 1.8376445731805907e-24 6.536490839852991e-17 6.536490811045439e-17 2.880755276920163e-25
1.3808389325824078 1.8864025171324437e-24 6.914277787317634e-17 6.91427773780488e-17 4.951275443946525e-25
1.4228933163050095 1.931053834000113e-24 7.293502794015937e-17 7.293502710379029e-17 8.363690824874928e-25
1.466228494730424 1.9726744400472485e-24 7.67761810363893e-17 7.677617964718872e-17 1.3892005675777951e-24
1.5108834753276823 2.010454929182489e-24 8.062964465165476e-17 8.062964238174335e-17 2.2699114182875113e-24
1.5568984535646726 2.0437405605127396e-24 8.446085712910304e-17 8.446085347668295e-17 3.652420090498517e-24
1.6043148490894465 2.072592736716366e-24 8.826184633444474e-17 8.826184053649655e-17 5.79794818770682e-24
1.6531753430134553 2.097099831092944e-24 9.202534568411743e-17 9.202533661437644e-17 9.069741013342894e-24
1.7035239163302658 2.1175538863155663e-24 9.575294476064839e-17 9.575293077611429e-17 1.3984534094899495e-23
1.755405889504358 2.1356394954217252e-24 9.951187929828852e-17 9.951185803393085e-17 2.1264357646235004e-23
1.8088679632656115 2.150941487520217e-24 1.0327730497400025e-16 1.0327727307602024e-16 3.1897979988849693e-23
1.8639582606462262 2.1631789441186744e-24 1.0702816094344226e-16 1.0702811372031258e-16 4.7223129627514996e-23
1.9207263702978936 2.172556830505344e-24 1.1076589927096153e-16 1.1076583024811718e-16 6.902284433323511e-23
1.979223391128241 2.1795513270612695e-24 1.145068186588074e-16 1.1450671901575569e-16 9.964305172796351e-23
2.039501978296691 2.184732185330768e-24 1.1827467699868838e-16 1.1827453487229941e-16 1.4212638892532834e-22
2.1016163906111602 2.189693751905055e-24 1.2215359675030492e-16 1.2215339636866948e-16 2.003816354424491e-22
2.1656225393682647 2.1953609842204683e-24 1.2619964626127694e-16 1.2619936691103351e-16 2.793502433941607e-22
2.231578038680979 2.2018011432812137e-24 1.3042462741421082e-16 1.3042424221410195e-16 3.852001088427651e-22
2.299542257339062 2.2095687300128698e-24 1.348709271221202e-16 1.348704015816272e-16 5.255404930509967e-22
2.369576372248914 2.2198884424831703e-24 1.3962760665582464e-16 1.3962689699209588e-16 7.0966372872217e-22
2.4417434235010123 2.2342064501296082e-24 1.4480806856815638e-16 1.4480711979924997e-16 9.487689064104725e-22
2.5161083711144245 2.2549985542989975e-24 1.5060696037932165e-16 1.5060570413472094e-16 1.2562446007226786e-21
2.5927381535095444 2.2863154473554998e-24 1.5734909242758299e-16 1.5734744451156203e-16 1.6479160209741355e-21
2.6717017477616296 2.3329934118416733e-24 1.6545158043318104e-16 1.6544943823685664e-16 2.142196324369317e-21
2.753070231689431 2.4023130697856835e-24 1.7555626301615782e-16 1.7555350270461149e-16 2.7603115463222494e-21
2.836916847834745 2.5107653589909794e-24 1.8906980121747388e-16 1.8906627461104076e-16 3.526606433172966e-21
2.9233170693905177 2.6946648869729965e-24 2.0909811551904223e-16 2.0909364754416043e-16 4.467974881766522e-21
2.967498994190263 2.8507542299592323e-24 2.24553480508441e-16 2.245484748126412e-16 5.005695799874297e-21
3.0123486681368425 3.033036608748832e-24 2.4252266043629575e-16 2.425170597340084e-16 5.600702287424913e-21
3.0578761833420214 3.440688116023139e-24 2.792766567578784e-16 2.7927039691746096e-16 6.259840417412743e-21
3.1040917844459814 3.96595905336864e-24 3.2677755081314974e-16 3.2677056720010465e-16 6.983613045057258e-21
3.127460860933648 4.52150689453325e-24 3.7535699517127787e-16 3.7534962144584576e-16 7.373725432042496e-21
3.1510058709225794 5.261668073101518e-24 4.4009060053701293e-16 4.4008281826521907e-16 7.782271793804494e-21
3.162844764501044 5.950588666255895e-24 4.995825272413758e-16 4.995745328055629e-16 7.994435812837418e-21
3.1747281389236908 6.75174133428205e-24 5.689731469632468e-16 5.689649355301149e-16 8.211433131940577e-21
3.1986289994194426 8.986350343167055e-24 7.629861410001414e-16 7.629774796531498e-16 8.661346991387544e-21
3.2227097969389145 1.4253679159935066e-23 1.2193197581858028e-15 1.21931061804296e-15 9.140142842407631e-21
3.2348180950136065 1.9248694755380917e-23 1.6528010588778447e-15 1.6527916626721238e-15 9.396205720920385e-21
3.240889293275058 2.2983096219185997e-23 1.9771615875192617e-15 1.977152056220202e-15 9.531299059534531e-21
3.2469718861334385 2.7303215844032736e-23 2.353215843768398e-15 2.3532061726644674e-15 9.67110393064237e-21
3.2714166318528037 5.03473654686358e-23 4.372018998168052e-15 4.372008747621695e-15 1.0250546356095879e-20
3.2744851364798273 5.178792089509117e-23 4.501330823684231e-15 4.50132050439892e-15 1.0319285311810395e-20
3.2775565192852394 5.326985181663357e-23 4.6344810561861874e-15 4.634470667773932e-15 1.038841225650882e-20
3.283707930232385 5.184469214804731e-23 4.5189574786971655e-15 4.518946965769876e-15 1.051292729015256e-20
3.2898708863219004 4.7325087665366863e-23 4.132755516068165e-15 4.1327448889972995e-15 1.0627070863920674e-20
3.29141343181113 4.625925336457036e-23 4.041573572102575e-15 4.041562916346271e-15 1.0655756303196872e-20
3.292184975758714 4.573554032180035e-23 3.996754530370896e-15 3.9967438602493885e-15 1.0670121507817581e-20
3.295272960557952 4.24298138684878e-23 3.711350357701515e-15 3.711339631547422e-15 1.0726154093638221e-20
3.3076538914384823 3.0977794143977446e-23 2.7198188647727417e-15 2.719807913114689e-15 1.095165805323234e-20
3.310756385682612 2.8647022560394955e-23 2.5175386605104132e-15 2.5175276519174248e-15 1.1008592988590276e-20
3.313861789986515 2.649652527067714e-23 2.330734202274894e-15 2.3307231365223812e-15 1.1065752513513478e-20
3.3200813396944477 2.3480702898778053e-23 2.0693275999159343e-15 2.069316411588551e-15 1.1188327382837082e-20
3.345076488085796 1.8100849671968677e-23 1.6072167406890178e-15 1.607205006946111e-15 1.1733742906770509e-20
3.3482140837626964 1.830260587944194e-23 1.6266554770173553e-15 1.626643669409428e-15 1.180760792704308e-20
3.3513546224236106 1.8506592523763794e-23 1.6463276827899814e-15 1.6463158009337307e-15 1.1881856251114842e-20
3.3576445397418455 1.9997292370487862e-23 1.782277590576829e-15 1.7822655536166666e-15 1.2036960162819648e-20
3.3702598118196083 2.549556524955532e-23 2.2808538593728115e-15 2.280841496927542e-15 1.2362445268750278e-20
3.382922481734668 2.67478804687661e-23 2.4018774954705807e-15 2.401864815003478e-15 1.2680467103234882e-20
3.389271646505754 2.7396664745260504e-23 2.4647535839814447e-15 2.4647407419764044e-15 1.2842005040324523e-20
3.395632727569191 2.8095757953138423e-23 2.5323917880375292e-15 2.5323787795324147e-15 1.3008505113710534e-20
3.421196662673239 3.14525027261868e-23 2.8562925125607293e-15 2.8562788128386e-15 1.3699722129984383e-20
3.4276182099114902 3.077608263694645e-23 2.8001107823473072e-15 2.8000969265494933e-15 1.3855797813902573e-20
3.4340518103208963 2.7811952551221044e-23 2.5351739054248235e-15 2.535159901128102e-15 1.4004296721336957e-20
3.4469541582030403 2.359051476018189e-23 2.158451816620559e-15 2.158437525489699e-15 1.4291130860508664e-20
3.472904465399547 2.2407565736512405e-23 2.065651006153097e-15 2.0656360565746974e-15 1.4949578399723923e-20
3.4990501388274233 2.0598233336433348e-23 1.9131524233650663e-15 1.913136795596973e-15 1.5627768093444196e-20
3.5253949054701885 1.415879401388971e-23 1.3249621413657178e-15 1.3249458479345617e-15 1.6293431156174055e-20
3.5519380250092896 8.10654078871365e-24 7.643114835685427e-16 7.642945154321758e-16 1.696813636702891e-20
3.578680990867387 5.706938640326023e-24 5.421202408829733e-16 5.421025319837696e-16 1.7708899203505833e-20
3.605625307711299 4.7364938104153064e-24 4.53322213328723e-16 4.533037205229029e-16 1.8492805820182885e-20
3.660119384959845 4.02887639721912e-24 3.9142506122128855e-16 3.914049052319242e-16 2.015598936428907e-20
3.715437065384467 3.527992100481797e-24 3.479420728335902e-16 3.479201394502052e-16 2.1933383385032518e-20
3.8285932144167436 3.2748843278473985e-24 3.3281632689397656e-16 3.3279048757400683e-16 2.5839319969621142e-20
3.94519561050918 3.2279209030151598e-24 3.3803436895285893e-16 3.3800413689221187e-16 3.0232060647095426e-20
4.06534921144712 3.2661159554718935e-24 3.52451115548999e-16 3.5241597121306016e-16 3.514433593883707e-20
4.189162171576248 3.354143624582951e-24 3.7297374509159044e-16 3.7293311947026783e-16 4.0625621322534587e-20
4.316745939156006 3.47900536570949e-24 3.986401345495224e-16 3.985934301348579e-16 4.67044146644546e-20
4.448215356677963 3.636542499895266e-24 4.293820702826903e-16 4.29328714526367e-16 5.3355756323240216e-20
4.58368876423945 3.827630318444565e-24 4.657089025594696e-16 4.656482622721823e-16 6.064028728725063e-20
4.723288106065518 4.056886106890057e-24 5.08635520201661e-16 5.085668619611648e-16 6.865824049609417e-20
4.867139040275056 4.3332205402379455e-24 5.598271789629707e-16 5.59749874666312e-16 7.730429665850499e-20
4.940699165968905 4.499814623409319e-24 5.901364865651873e-16 5.900545812593424e-16 8.19053058450701e-20
5.015371051989984 4.672938723826347e-24 6.221034189641855e-16 6.220167273157603e-16 8.66916484248555e-20
5.091171501069577 4.883354662239473e-24 6.5994148061917945e-16 6.598497253682799e-16 9.175525089925729e-20
5.129500256944802 4.991606877143202e-24 6.796492834249118e-16 6.795549228443418e-16 9.43605805699758e-20
5.168117569889187 5.104523734540915e-24 7.002563333962851e-16 7.001593000598616e-16 9.703333642353603e-20
5.20702561229733 5.242230727558447e-24 7.245615414682804e-16 7.244616279720213e-16 9.991349625898329e-20
5.246226572918644 5.383603227030884e-24 7.49703469523592e-16 7.496006152433152e-16 1.0285428027664692e-19
5.265937586045735 5.4557014683044336e-24 7.625981343575788e-16 7.624937867331773e-16 1.0434762440136473e-19
5.285722656980489 5.52876162453732e-24 7.757140728954555e-16 7.756082165084698e-16 1.0585638698548085e-19
5.305582063971359 5.602799539755629e-24 7.890555042678016e-16 7.889481236114733e-16 1.0738065632845145e-19
5.3255160863122235 5.68219482744795e-24 8.032435638393329e-16 8.03134635021485e-16 1.0892881784800193e-19
5.365609099470188 5.878658370693271e-24 8.372722268251778e-16 8.371600894446779e-16 1.1213738050019647e-19
5.406003951863644 6.082690900707963e-24 8.728538658073539e-16 8.727384514673059e-16 1.1541434004830004e-19
5.446702915881641 6.294655397613781e-24 9.100705911772143e-16 9.099518305919932e-16 1.1876058522125721e-19
5.487708281020852 6.523482099456574e-24 9.502544780461874e-16 9.501322908763814e-16 1.2218716980604582e-19
5.529022354014368 6.839021974386926e-24 1.0037181512821887e-15 1.0035923763284319e-15 1.257749537569118e-19
5.570647458961463 7.173094335901398e-24 1.0606733333455223e-15 1.0605438925862688e-15 1.2944075925363032e-19
5.612585937458331 7.527020137385894e-24 1.1213869939442692e-15 1.121253808214056e-15 1.3318573021355655e-19
5.654840148729818 7.915642440301273e-24 1.1881627539629245e-15 1.1880257297088576e-15 1.3702425406671358e-19
5.67608639626678 8.178876002733837e-24 1.2322875318760696e-15 1.2321484999664332e-15 1.39031909636437e-19
5.686739436050992 8.314529837126647e-24 1.2550772536070107e-15 1.2549372094752284e-15 1.400441317822654e-19
5.6974124697621304 8.452960360520021e-24 1.2783681069327828e-15 1.2782270449521617e-15 1.410619806209054e-19
5.718818669136295 8.738417245678107e-24 1.3265039179905988e-15 1.3263608033401838e-15 1.4311465041470973e-19
5.740305295436557 9.052707476525297e-24 1.379376779851551e-15 1.3792315778815464e-15 1.4520197000448994e-19
5.7835210386641895 9.865525425665233e-24 1.514544272599432e-15 1.514394732923805e-15 1.495396756269915e-19
5.827062130521658 1.0800816763829287e-23 1.6706123211823717e-15 1.670458314741666e-15 1.5400644070580194e-19
5.8489554468988025 1.1455067264238472e-23 1.7784652754405634e-15 1.778308871260367e-15 1.5640418019644852e-19
5.870931020387893 1.2156858333563774e-23 1.8945137715397364e-15 1.8943549395295877e-15 1.5883201014878862e-19
5.892989160043636 1.2910006972707861e-23 2.019442779827575e-15 2.0192814895801462e-15 1.6129024742862495e-19
5.915130176081913 1.376591874153924e-23 2.161418883480245e-15 2.1612550467040418e-15 1.6383677620276694e-19
5.95966208400165 1.6155011309859623e-23 2.5556321041778406e-15 2.5554625739550408e-15 1.6953022279938276e-19
6.004529249263818 1.9593901116811066e-23 3.1229807679124823e-15 3.1228048731496306e-15 1.758947628522157e-19
6.027089341400364 2.1982286597040103e-23 3.5168182786032442e-15 3.516638758746576e-15 1.7951985666795757e-19
6.049734195844842 2.4803607389370955e-23 3.983094177501444e-15 3.982910822631744e-15 1.8335486969985158e-19
6.095279466722835 3.2948329310136295e-23 5.330849892632157e-15 5.330657302439955e-15 1.925901922016323e-19
6.141167624020661 4.54763160342124e-23 7.413199036805861e-15 7.412994688022572e-15 2.0434878329021279e-19
6.164241091010745 5.347600218736541e-23 8.749998560967646e-15 8.749786951094416e-15 2.1160987323077702e-19
6.187401249150058 6.258702148961154e-23 1.0279263470649832e-14 1.0279044351647069e-14 2.1911900275914797e-19
6.1990139391386085 6.70362534131053e-23 1.1030667150644284e-14 1.1030444200660692e-14 2.2294998359491014e-19
6.204828454712694 6.937976114990999e-23 1.1426994345328052e-14 1.1426769454702234e-14 2.2489062581661616e-19
6.210648424152782 7.109132131528915e-23 1.1719874587223621e-14 1.1719648012340618e-14 2.2657488300512257e-19
6.233982942956859 7.690793054593705e-23 1.272641754776483e-14 1.272618496018861e-14 2.325875762207807e-19
6.239830258556775 7.765271779278139e-23 1.2861714622593994e-14 1.2861481098592962e-14 2.335240010285059e-19
6.245683058788269 7.771961402187898e-23 1.2884869077074435e-14 1.288463461337209e-14 2.3446370234523773e-19
6.257405133728602 7.756518080736409e-23 1.2883400757498097e-14 1.288316458837258e-14 2.3616912551898876e-19
6.269149208991335 7.642828533576676e-23 1.2718390515338972e-14 1.2718153430968664e-14 2.370843703097366e-19
6.280915325867298 7.356942127535999e-23 1.2265625809548423e-14 1.226538879209029e-14 2.370174581271808e-19
6.304513850009849 6.651651688354891e-23 1.1131419133578764e-14 1.1131183143422133e-14 2.3599015663378403e-19
6.32820103803542 5.777207391618509e-23 9.704376979023237e-15 9.704142971984889e-15 2.3400703834863795e-19
6.3519772230701035 4.97533539380191e-23 8.388817137692649e-15 8.388584815343343e-15 2.3232234930730334e-19
6.375842739491607 4.300770753513616e-23 7.278691680272825e-15 7.278460734580301e-15 2.3094569252340428e-19
6.399797922933955 3.7604305055550986e-23 6.38812287698509e-15 6.387892162793593e-15 2.3071419149765063e-19
6.42384311029221 3.311276390579586e-23 5.646245939817754e-15 5.646015224179541e-15 2.307156382115437e-19
6.447978639727206 2.9842973663990915e-23 5.1078145255460515e-15 5.107582897847113e-15 2.3162769894011087e-19
6.472204850670314 2.712047384694159e-23 4.659281616382719e-15 4.659048885721327e-15 2.3273066139389227e-19
6.496522083828205 2.5355237004326078e-23 4.372381283196576e-15 4.372146697738523e-15 2.3458545805228717e-19
