Dust emission spectrum from A.P. Jones, M. Kohler, N. Ysard, M. Bocchio, and L. Verstraete (2017), A&A, 602A, 46J 
inside the DustPedia framework.

lambda    nu*dP/dnu     j_nu    j_nu(carb.) j_nu(sil)
 (um)   (erg s-1 H-1) (Jy cm2 sr-1 H-1)
0.9927057738263894 4.055395150087689e-24 1.0686196562327103e-16 1.0686195512330746e-16 1.0499963592286156e-23
1.0001793341362166 4.12358217354238e-24 1.0947676693949167e-16 1.0947675429929521e-16 1.264019641902941e-23
1.0077091589558085 4.191939338709835e-24 1.1212943356186066e-16 1.1212941836523649e-16 1.519662412020304e-23
1.0114953028030835 4.226177029121867e-24 1.1346998266453134e-16 1.1346996601014667e-16 1.6654384696489937e-23
1.0152956718711033 4.260451665324986e-24 1.1482001796649798e-16 1.1481999972054936e-16 1.8245948612514235e-23
1.0229392996569957 4.329071208721361e-24 1.175476703672286e-16 1.1754764848877222e-16 2.18784563749711e-23
1.0267826658714554 4.3633369679317805e-24 1.1892323510842467e-16 1.189232111619395e-16 2.3946485172730507e-23
1.0306404723013447 4.397630809418122e-24 1.203082452478454e-16 1.2030821904652448e-16 2.620132093393978e-23
1.03451277320114 4.431951020118726e-24 1.2170270818888873e-16 1.2170267952989722e-16 2.8658991494400237e-23
1.0383996230291617 4.466295915241079e-24 1.2310663169380578e-16 1.231066003569841e-16 3.133682168276233e-23
1.0403485208654093 4.483477100900261e-24 1.2381214368959575e-16 1.2381211092550645e-16 3.276408930384512e-23
1.0423010764483396 4.5006638391054675e-24 1.245200239164661e-16 1.2451998966293463e-16 3.4253531453368105e-23
1.0462171883269815 4.535053165985987e-24 1.2594289343569657e-16 1.259428560063557e-16 3.742934088292428e-23
1.0471985131304309 4.543653654332541e-24 1.2630009269162576e-16 1.2630005442532685e-16 3.8266298947375767e-23
1.048180758391296 4.552255355914776e-24 1.266578849869429e-16 1.2665784586577846e-16 3.91211644120659e-23
1.0501480137395462 4.569462300948706e-24 1.2737524928919656e-16 1.2737520840311408e-16 4.088608246776107e-23
1.0521189612883777 4.586673806669321e-24 1.2809498754952815e-16 1.2809494482243241e-16 4.272709574838163e-23
1.0531058218030118 4.595269332104421e-24 1.284554152790012e-16 1.284553716018307e-16 4.367717049967357e-23
1.0540936079674168 4.603827012059358e-24 1.288153475361879e-16 1.2881530288852708e-16 4.4647660830878623e-23
1.058054026499678 4.63806634282826e-24 1.302609477880536e-16 1.3026089904799268e-16 4.8740060862014605e-23
1.0590464539527713 4.646628212279299e-24 1.3062381643336124e-16 1.30623766615447e-16 4.981791425720294e-23
1.06003981227728 4.655190850511724e-24 1.3098727283043853e-16 1.309872219118833e-16 5.0918555219916327e-23
1.0620293250338977 4.672318342560737e-24 1.3171594953685137e-16 1.3171589634681133e-16 5.319004005604029e-23
1.0660195594769086 4.7065815613710894e-24 1.3318036333713e-16 1.331803053099322e-16 5.802719779408229e-23
1.070024785945596 4.740854584760264e-24 1.3465420039186928e-16 1.346541371084317e-16 6.328343756187215e-23
1.0740450607676866 4.775136034429319e-24 1.3613747259000574e-16 1.3613740359687167e-16 6.899313405446388e-23
1.07808044048254 4.809424569089393e-24 1.3763019254455597e-16 1.3763011735124453e-16 7.519331143194498e-23
1.0861967418109137 4.8779631372838385e-24 1.406424563424232e-16 1.4064236711480674e-16 8.922761647966935e-23
1.0902777775684922 4.9120865630839325e-24 1.4215842553287563e-16 1.4215832838203433e-16 9.715084133782473e-23
1.0943741465085532 4.9462099219382346e-24 1.4368379894979133e-16 1.4368369320665317e-16 1.0574313813042105e-22
1.1026131145906286 5.014451950266791e-24 1.4676282436745783e-16 1.4676269921497565e-16 1.2515248213599684e-22
1.1109141095355224 5.0826806716048404e-24 1.4987967441389027e-16 1.4987952648155692e-16 1.4793233333601479e-22
1.1192775983109025 5.150832290767581e-24 1.5303284577065542e-16 1.5303267113807874e-16 1.7463257668098732e-22
1.1277040513999907 5.2186425372366015e-24 1.562147807531618e-16 1.5621457486650013e-16 2.0588666171318667e-22
1.1361939428280308 5.2864098220684564e-24 1.5943465668977278e-16 1.5943441426650074e-16 2.4242327200215726e-22
1.1447477501889525 5.354128637084099e-24 1.6269268738169186e-16 1.626924023021509e-16 2.850795409656256e-22
1.1533659546722406 5.421821709102537e-24 1.6598994952436432e-16 1.6598961470799715e-16 3.3481636719687887e-22
1.1707974979042381 5.557340747359346e-24 1.7271030255625685e-16 1.7270984245808805e-16 4.600981688609981e-22
1.1884924949847024 5.692703555449205e-24 1.7959094901745082e-16 1.795903199155669e-16 6.291018838776989e-22
1.2064549276569216 5.8288653991606236e-24 1.8666571635414395e-16 1.866648604028292e-16 8.559513147774637e-22
1.2246888378427687 5.964805872296783e-24 1.9390611561291738e-16 1.939049567010908e-16 1.158911826517096e-21
1.2431983285522175 6.100376537327075e-24 2.013105302054166e-16 2.0130896868338602e-16 1.5615220304915272e-21
1.2619875648066055 6.235729800511399e-24 2.088871849315073e-16 2.0888509097004924e-16 2.093961458065396e-21
1.3004222497298317 6.504707740548846e-24 2.2453374128753133e-16 2.245300287725214e-16 3.712515009985736e-21
1.3400274889804893 6.772340611009357e-24 2.4089175357566153e-16 2.4088529177804393e-16 6.461797617551156e-21
1.3808389325824078 7.039502920907942e-24 2.58020641076011e-16 2.580095945220136e-16 1.1046553997388051e-20
1.4228933163050095 7.308674607134961e-24 2.760453268010188e-16 2.760267700090829e-16 1.8556791935973978e-20
1.466228494730424 7.585390921743552e-24 2.9522222968814764e-16 2.9519158196203545e-16 3.0647726112169885e-20
1.5108834753276823 7.869172572345406e-24 3.1559453484926425e-16 3.155447492334896e-16 4.9785615774592337e-20
1.5568984535646726 8.160212952019086e-24 3.37233890445775e-16 3.371542606402416e-16 7.962980553338091e-20
1.6043148490894465 8.461406982259916e-24 3.60330994898987e-16 3.60205357221648e-16 1.2563767733899766e-19
1.6531753430134553 8.776133814578409e-24 3.851160236066301e-16 3.8492071248734497e-16 1.9531111928509336e-19
1.7035239163302658 9.108704535598652e-24 4.1188339426667547e-16 4.11584168454675e-16 2.9922581200038506e-19
1.755405889504358 9.46878468127021e-24 4.4120581227496765e-16 4.407537973205671e-16 4.520149544005167e-19
1.8088679632656115 9.859275402551637e-24 4.733924183804252e-16 4.727189126500198e-16 6.73505730405246e-19
1.8639582606462262 1.0283753279291759e-23 5.088119057700608e-16 5.078216753428016e-16 9.902304272592017e-19
1.9207263702978936 1.0748144642635557e-23 5.479847017667999e-16 5.465475574050587e-16 1.437144361741124e-18
1.979223391128241 1.1259978862797235e-23 5.915641176859893e-16 5.895044353227792e-16 2.0596823632102067e-18
2.039501978296691 1.1827556223007109e-23 6.403074945994806e-16 6.373914811109417e-16 2.9160134885388422e-18
2.1016163906111602 1.246393623276951e-23 6.953093961996459e-16 6.912295263201769e-16 4.079869879469216e-18
2.1656225393682647 1.3180388784611607e-23 7.576705672369024e-16 7.520274543011114e-16 5.64311293579098e-18
2.231578038680979 1.3985155737736055e-23 8.284166497005833e-16 8.206980122290551e-16 7.718637471528103e-18
2.299542257339062 1.4889398479609117e-23 9.088411462194584e-16 8.983977091027334e-16 1.044343711672493e-17
2.369576372248914 1.5906949901637944e-23 1.0005229548721566e-15 9.865410577229542e-16 1.3981897149202515e-17
2.4417434235010123 1.7052971345811398e-23 1.1052729007168566e-15 1.0867445085614243e-15 1.8528392155431894e-17
2.5161083711144245 1.8346702633090088e-23 1.225340526842139e-15 1.201029861144432e-15 2.4310665697706892e-17
2.5927381535095444 1.9812349991047555e-23 1.3635280702646765e-15 1.3319360101640892e-15 3.159206010058703e-17
2.6717017477616296 2.1474322217055937e-23 1.5229192382238906e-15 1.4822476819669312e-15 4.067155625695957e-17
2.753070231689431 2.3362316753665193e-23 1.7072716609076822e-15 1.6553869513689277e-15 5.18847095387551e-17
2.836916847834745 2.5530860683070352e-23 1.9225670519044602e-15 1.8569613163355347e-15 6.560573556892555e-17
2.9233170693905177 2.8082059209285695e-23 2.1790856773852516e-15 2.096855116807453e-15 8.223056057779871e-17
2.967498994190263 2.957988080324576e-23 2.3300027471988164e-15 2.238407497703041e-15 9.159524949577524e-17
3.0123486681368425 3.119520627886307e-23 2.4943795263749883e-15 2.392488023979319e-15 1.0189150239566896e-16
3.0578761833420214 3.3453621224773145e-23 2.7153915661782744e-15 2.6021630977964448e-15 1.1322846838182986e-16
3.1040917844459814 3.604009874032988e-23 2.969545332906488e-15 2.843964826321232e-15 1.2558050658525634e-16
3.127460860933648 3.8101595660662983e-23 3.163038516143589e-15 3.030838521271588e-15 1.3219999487200033e-16
3.1510058709225794 4.062747672016223e-23 3.39811831146931e-15 3.259014121216492e-15 1.3910419025281793e-16
3.162844764501044 4.2720833664568287e-23 3.5866337340759605e-15 3.4439549497572677e-15 1.426787843186929e-16
3.1747281389236908 4.507693462739277e-23 3.798659350318767e-15 3.652332130144589e-15 1.4632722017417784e-16
3.1986289994194426 5.133233309461218e-23 4.358372113343267e-15 4.204503725196134e-15 1.5386838814713262e-16
3.2227097969389145 6.517846055293583e-23 5.575640076403307e-15 5.41377630227476e-15 1.6186377412854727e-16
3.2348180950136065 7.797134106023605e-23 6.695057337872644e-15 6.528925630054243e-15 1.661317078184024e-16
3.240889293275058 8.74604288916082e-23 7.523938410356275e-15 7.355555458763902e-15 1.6838295159237098e-16
3.2469718861334385 9.84284256596621e-23 8.483371777984873e-15 8.312659423905468e-15 1.7071235407940434e-16
3.2714166318528037 1.5612039939681428e-22 1.3557042077795748e-14 1.3376699737882273e-14 1.8034233991347319e-16
3.2744851364798273 1.5976901027712884e-22 1.3886890189834425e-14 1.3705411894730599e-14 1.8147829510382983e-16
3.2775565192852394 1.6351594867300076e-22 1.422589965367066e-14 1.4043279625377026e-14 1.8262002829363188e-16
3.283707930232385 1.6016173162771674e-22 1.3960234403039445e-14 1.3775570377176943e-14 1.8466402586249973e-16
3.2898708863219004 1.4914315522905693e-22 1.3024216707532164e-14 1.2837690492465635e-14 1.865262150665281e-16
3.29141343181113 1.4654282295369712e-22 1.2803137909799886e-14 1.2616144036352191e-14 1.8699387344769295e-16
3.292184975758714 1.4526483640391456e-22 1.2694457940495546e-14 1.2507229920757875e-14 1.8722801973766958e-16
3.295272960557952 1.3721907962207483e-22 1.2002599912819518e-14 1.1814460724082264e-14 1.8813918873725522e-16
3.3076538914384823 1.0923995808602192e-22 9.591157375778135e-15 9.399357460339542e-15 1.9179991543859207e-16
3.310756385682612 1.0351839437250758e-22 9.097334962379366e-15 8.904612118256595e-15 1.9272284412277125e-16
3.313861789986515 9.822910686314716e-23 8.640602369029111e-15 8.44695349059535e-15 1.9364887843376078e-16
3.3200813396944477 9.088360303741005e-23 8.009468411395102e-15 7.813828673204562e-15 1.956397381905412e-16
3.345076488085796 7.836065071719107e-23 6.957825291427697e-15 6.753315973698251e-15 2.0450931772944536e-16
3.3482140837626964 7.897389031796602e-23 7.0188536033211164e-15 6.8131428659083595e-15 2.0571073741275722e-16
3.3513546224236106 7.959258642909538e-23 7.080475685343746e-15 6.8735580022999815e-15 2.0691768304376504e-16
3.3576445397418455 8.353449086499942e-23 7.445090482782252e-15 7.23564972877322e-15 2.094407540090351e-16
3.3702598118196083 9.760675579942736e-23 8.731979208418075e-15 8.51724599804732e-15 2.1473321037075686e-16
3.382922481734668 1.0120368151090222e-22 9.087779697671932e-15 8.867897776802831e-15 2.1988192086909968e-16
3.389271646505754 1.03057153821727e-22 9.271584391708529e-15 9.049091887465982e-15 2.224925042425464e-16
3.395632727569191 1.0507085856459691e-22 9.470489453775905e-15 9.24530655929696e-15 2.251828944789406e-16
3.421196662673239 1.1467737720344902e-22 1.0414183466347813e-14 1.0177858599904972e-14 2.363248664428392e-16
3.4276182099114902 1.1320913636765163e-22 1.0300145315529344e-14 1.0061328973337267e-14 2.388163421920766e-16
3.4340518103208963 1.0598131270358127e-22 9.660632705810923e-15 9.41945745359067e-15 2.411752522202468e-16
3.4469541582030403 9.572831233821623e-23 8.758814793528905e-15 8.51310701650695e-15 2.4570777702195424e-16
3.472904465399547 9.351936985416999e-23 8.621123003972355e-15 8.36498146042227e-15 2.56141543550084e-16
3.4990501388274233 8.978957275273905e-23 8.339605436014598e-15 8.072775786593654e-15 2.668296494209436e-16
3.5253949054701885 7.461076880839504e-23 6.981981933795767e-15 6.704751105776184e-15 2.7723082801958247e-16
3.5519380250092896 6.024843656044289e-23 5.680421912427624e-15 5.3927226309523146e-15 2.876992814753114e-16
3.578680990867387 5.511086895286399e-23 5.235156611091549e-15 4.935981448050575e-15 2.9917516304097526e-16
3.605625307711299 5.360560225330972e-23 5.130506073259032e-15 4.819236038961843e-15 3.112700342971883e-16
3.660119384959845 5.374055266390117e-23 5.22115772304477e-15 4.884439152946026e-15 3.36718570098745e-16
3.715437065384467 5.441321837301719e-23 5.366408838520039e-15 5.0028072326918e-15 3.6360160582823787e-16
3.8285932144167436 5.780781299188395e-23 5.874828561770567e-15 5.453256257039198e-15 4.215723047313708e-16
3.94519561050918 6.18995401307967e-23 6.4822443347484214e-15 5.9971680195967745e-15 4.850763151516464e-16
4.06534921144712 6.637010754434535e-23 7.162090618344814e-15 6.607981920302753e-15 5.541086980420617e-16
4.189162171576248 7.111517881037016e-23 7.907858917955501e-15 7.27899503867125e-15 6.28863879284251e-16
4.316745939156006 7.607870028964558e-23 8.717440800391568e-15 8.008301072580942e-15 7.091397278106262e-16
4.448215356677963 8.121826813048986e-23 9.589787034153667e-15 8.795875879931265e-15 7.939111542223968e-16
4.58368876423945 8.651299297132159e-23 1.05260612080693e-14 9.64271533423278e-15 8.833458738365209e-16
4.723288106065518 9.195254740445098e-23 1.1528628250987353e-14 1.055056651305831e-14 9.780617379290441e-16
4.867139040275056 9.751219622482461e-23 1.2598015083725592e-14 1.1522318658492247e-14 1.0756964252333478e-15
4.940699165968905 1.0036063782077127e-22 1.3161980914697734e-14 1.203606540386146e-14 1.1259155108362718e-15
5.015371051989984 1.0321092387670063e-22 1.3740361775078517e-14 1.2563433796189386e-14 1.1769279788891321e-15
5.091171501069577 1.0615613977341006e-22 1.434604793311351e-14 1.3116240190481215e-14 1.229807742632295e-15
5.129500256944802 1.0762674950844978e-22 1.4654287683535435e-14 1.3397785425007417e-14 1.2565022585280177e-15
5.168117569889187 1.091048786484995e-22 1.496738701811839e-14 1.3683775786273005e-14 1.2836112318453854e-15
5.20702561229733 1.1066300210619156e-22 1.529542661448522e-14 1.398229537363587e-14 1.3131312408493502e-15
5.246226572918644 1.1222154577617735e-22 1.5627615683353576e-14 1.4284713939237686e-14 1.3429017441158925e-15
5.265937586045735 1.1300086185281653e-22 1.579526426260605e-14 1.443738650447393e-14 1.3578777581321195e-15
5.285722656980489 1.1378014830591476e-22 1.5963947851417138e-14 1.459103529501384e-14 1.3729125564032972e-15
5.305582063971359 1.1455936167503346e-22 1.61336657243735e-14 1.4745660897739253e-14 1.3880048266342466e-15
5.3255160863122235 1.1535215787513632e-22 1.630635365415594e-14 1.490308614644414e-14 1.4032675077118002e-15
5.365609099470188 1.1704391971295643e-22 1.667006604482401e-14 1.523522123339147e-14 1.4348448114325365e-15
5.406003951863644 1.1874151003297818e-22 1.703916699959628e-14 1.5572483393547813e-14 1.4666836060484687e-15
5.446702915881641 1.2044499919965214e-22 1.7413733509148014e-14 1.59149599720423e-14 1.4987735371057167e-15
5.487708281020852 1.2218049765632338e-22 1.779763679239722e-14 1.6266401239673826e-14 1.5312355527233932e-15
5.529022354014368 1.2415442146928047e-22 1.8221325630676435e-14 1.6656240757223424e-14 1.5650848734530115e-15
5.570647458961463 1.2615351321057337e-22 1.865410673614018e-14 1.7054895107167e-14 1.5992116289731829e-15
5.612585937458331 1.281796056316812e-22 1.9096394060424683e-14 1.746278869705831e-14 1.6336053633663684e-15
5.654840148729818 1.3027423994614687e-22 1.9554571959537547e-14 1.7886153276672365e-14 1.6684186828651801e-15
5.67608639626678 1.3150862276426521e-22 1.9814022869698623e-14 1.812739342804851e-14 1.6866294416501095e-15
5.686739436050992 1.321325763336118e-22 1.9945396103614004e-14 1.8249632306829476e-14 1.6957637967845265e-15
5.6974124697621304 1.3276118515364007e-22 2.0077896701336313e-14 1.8372979447842292e-14 1.7049172534940176e-15
5.718818669136295 1.3403282827084123e-22 2.034637015399635e-14 1.862308933497346e-14 1.723280819022888e-15
5.740305295436557 1.3537401429345042e-22 2.062717395827649e-14 1.8885321618058126e-14 1.7418523402183682e-15
5.7835210386641895 1.3853331925015352e-22 2.1267478028962744e-14 1.9487220270677405e-14 1.78025775828534e-15
5.827062130521658 1.4195226655599808e-22 2.1956414104014233e-14 2.0137089258189747e-14 1.8193248458244808e-15
5.8489554468988025 1.441585177251587e-22 2.2381441506988983e-14 2.05410327849717e-14 1.840408722017284e-15
5.870931020387893 1.464574135535135e-22 2.2823790432366e-14 2.09621835483468e-14 1.8616068840191967e-15
5.892989160043636 1.4885624843311845e-22 2.3284780307707982e-14 2.1401862098638475e-14 1.882918209069507e-15
5.915130176081913 1.515008147646779e-22 2.3787494902676067e-14 2.1882488582435694e-14 1.9050063202403648e-15
5.95966208400165 1.5851870686582099e-22 2.50767695923432e-14 2.3121489752625665e-14 1.955279839717532e-15
6.004529249263818 1.6809945725215104e-22 2.6792590662029114e-14 2.4780765322023568e-14 2.011825340005545e-15
6.027089341400364 1.7455538024361915e-22 2.79261008248322e-14 2.5881631937701653e-14 2.044468887130548e-15
6.049734195844842 1.8201049396383332e-22 2.922820569487703e-14 2.714916304507262e-14 2.0790426498044026e-15
6.095279466722835 2.0305659293743172e-22 3.285338708587412e-14 3.0689457565117697e-14 2.163929520756428e-15
6.141167624020661 2.34560955177589e-22 3.823632164238215e-14 3.5962337015384657e-14 2.273984626997487e-15
6.164241091010745 2.5454818736434035e-22 4.165038862349991e-14 3.9307386584885793e-14 2.343002038614121e-15
6.187401249150058 2.76871124770795e-22 4.547318551349437e-14 4.305928618885345e-14 2.4138993246409055e-15
6.1990139391386085 2.8773848585706543e-22 4.7346731094300164e-14 4.4896751596606334e-14 2.4499794976938232e-15
6.204828454712694 2.9342453655770576e-22 4.832764576373521e-14 4.5859439698399884e-14 2.4682060653353206e-15
6.210648424152782 2.975857727757858e-22 4.9058983169077285e-14 4.657523480807446e-14 2.4837483610028218e-15
6.233982942956859 3.1161748899484573e-22 5.1565218983049674e-14 4.902722573891981e-14 2.5379932441298737e-15
6.239830258556775 3.133654211118513e-22 5.190309796606101e-14 4.93575344709578e-14 2.5455634951032075e-15
6.245683058788269 3.1348720268536986e-22 5.197197148717432e-14 4.941882462335697e-14 2.5531468638173337e-15
6.257405133728602 3.130279733915073e-22 5.199323701089545e-14 4.9426791309249076e-14 2.5664457016463773e-15
6.269149208991335 3.1018991022542634e-22 5.1618538801873156e-14 4.9047083769124594e-14 2.571455032748557e-15
6.280915325867298 3.032042349534572e-22 5.0550753632951016e-14 4.798454299585348e-14 2.5662106370975285e-15
6.304513850009849 2.860391014065016e-22 4.7868127730174215e-14 4.5321687874944647e-14 2.546439855229575e-15
6.32820103803542 2.650278275987266e-22 4.4518567096638094e-14 4.2001774123874285e-14 2.5167929727638155e-15
6.3519772230701035 2.4589290640733792e-22 4.145952913800807e-14 3.8969244561143136e-14 2.4902845768649242e-15
6.375842739491607 2.2972454563895244e-22 3.887894135558471e-14 3.6411950597038025e-14 2.4669907585466908e-15
6.399797922933955 2.1709343577632997e-22 3.6879275962616154e-14 3.4423850077288e-14 2.4554258853281512e-15
6.42384311029221 2.065586323335161e-22 3.522148868229284e-14 3.2775293141437865e-14 2.4461955408549858e-15
6.447978639727206 1.990893086197407e-22 3.4075399921551935e-14 3.162927746171542e-14 2.4461224598365156e-15
6.472204850670314 1.9288559733541592e-22 3.313763331724573e-14 3.0689763074864394e-14 2.4478702423813372e-15
6.496522083828205 1.8905202015344855e-22 3.2601056512640976e-14 3.014400883721667e-14 2.4570476754243085e-15
