Dust emission spectrum from A.P. Jones, M. Kohler, N. Ysard, M. Bocchio, and L. Verstraete (2017), A&A, 602A, 46J 
inside the DustPedia framework.

lambda    nu*dP/dnu     j_nu    j_nu(carb.) j_nu(sil)
 (um)   (erg s-1 H-1) (Jy cm2 sr-1 H-1)
0.9927057738263894 8.009671064038533e-25 2.1105938193975674e-17 2.110593819205022e-17 1.9254469897690805e-27
1.0001793341362166 8.141878307195098e-25 2.161583003257543e-17 2.161583003025621e-17 2.3192258969472773e-27
1.0077091589558085 8.27389459607019e-25 2.2131692265695473e-17 2.2131692262905533e-17 2.789933349489555e-27
1.0114953028030835 8.33981488517622e-25 2.239183649727461e-17 2.2391836494216115e-17 3.0584990798630037e-27
1.0152956718711033 8.405667990629215e-25 2.2653442064829592e-17 2.2653442061477768e-17 3.3518304743427906e-27
1.0229392996569957 8.537082273855706e-25 2.3180818347441792e-17 2.318081834342007e-17 4.0217207008999294e-27
1.0267826658714554 8.602483957598863e-25 2.3446165852528674e-17 2.3446165848125342e-17 4.4033219477448384e-27
1.0306404723013447 8.667789561972045e-25 2.371291719498453e-17 2.3712917190164972e-17 4.819564488649555e-27
1.03451277320114 8.732992790487209e-25 2.3981060900078772e-17 2.398106089480533e-17 5.273438801585398e-27
1.0383996230291617 8.798087381836118e-25 2.4250585350369825e-17 2.425058534460165e-17 5.76817917655627e-27
1.0403485208654093 8.83059199183017e-25 2.4385861686170633e-17 2.438586168013868e-17 6.031956075124211e-27
1.0423010764483396 8.863067111092158e-25 2.4521478788466726e-17 2.4521478782159438e-17 6.307282332417278e-27
1.0462171883269815 8.927925790885755e-25 2.4793729319794397e-17 2.4793729312899873e-17 6.894527350719326e-27
1.0471985131304309 8.944120825442491e-25 2.48620025917101e-17 2.4862002584660776e-17 7.049332229453327e-27
1.048180758391296 8.960307814233898e-25 2.4930359741534885e-17 2.4930359734327417e-17 7.207466450266599e-27
1.0501480137395462 8.992657272553114e-25 2.5067324915361355e-17 2.5067324907827366e-17 7.533997011616884e-27
1.0521189612883777 9.024973403492325e-25 2.5204623317101702e-17 2.5204623309227018e-17 7.874680580115122e-27
1.0531058218030118 9.041093899846718e-25 2.5273327579896117e-17 2.5273327571845594e-17 8.05052261714178e-27
1.0540936079674168 9.057124416431963e-25 2.534188678951463e-17 2.5341886781284472e-17 8.230162180890117e-27
1.058054026499678 9.121155068667443e-25 2.5616932064881086e-17 2.5616932055893197e-17 8.987884569271244e-27
1.0590464539527713 9.13713941044985e-25 2.5685894514275612e-17 2.5685894505088107e-17 9.18750777061387e-27
1.06003981227728 9.153114237221714e-25 2.575493702277186e-17 2.575493701338048e-17 9.391374065994726e-27
1.0620293250338977 9.18503497412031e-25 2.5893261427096757e-17 2.5893261417284576e-17 9.81218084504409e-27
1.0660195594769086 9.248758189873955e-25 2.617086222948284e-17 2.6170862218774234e-17 1.07085990165593e-26
1.070024785945596 9.3123188182085e-25 2.6449721708210382e-17 2.6449721696527262e-17 1.1683122499803887e-26
1.0740450607676866 9.375711007572198e-25 2.672982698508017e-17 2.672982697233797e-17 1.2742202012176197e-26
1.07808044048254 9.438928953526128e-25 2.7011165070297602e-17 2.7011165056404815e-17 1.3892789621196553e-26
1.0861967418109137 9.56470731934888e-25 2.7577164765919503e-17 2.7577164749420477e-17 1.649902676053764e-26
1.0902777775684922 9.627002098681982e-25 2.7861061554483353e-17 2.7861061536511925e-17 1.797143207923259e-26
1.0943741465085532 9.689095464963805e-25 2.814611726482601e-17 2.8146117245257075e-17 1.9568932461957586e-26
1.1026131145906286 9.81265591827729e-25 2.8719650948810154e-17 2.871965092562996e-17 2.3180196254077552e-26
1.1109141095355224 9.935345134888461e-25 2.929765590677038e-17 2.929765587934768e-17 2.742268498333547e-26
1.1192775983109025 1.0057006427267843e-24 2.987968209054656e-17 2.9879682058146367e-17 3.24001956818482e-26
1.1277040513999907 1.0177074294966523e-24 3.046404152714159e-17 3.046404148890914e-17 3.8232452868111017e-26
1.1361939428280308 1.0296129377169776e-24 3.105245162094225e-17 3.10524515758849e-17 4.5057350725915636e-26
1.1447477501889525 1.0414132049583041e-24 3.16447968425578e-17 3.1644796789524283e-17 5.303351334700956e-26
1.1533659546722406 1.0531107979577241e-24 3.224115759894673e-17 3.224115753660348e-17 6.23432537813409e-26
1.1707974979042381 1.0762358187741985e-24 3.34471147860953e-17 3.344711470026396e-17 8.583133532310425e-26
1.1884924949847024 1.0989004250183242e-24 3.466763520749467e-17 3.466763508991055e-17 1.1758411422474457e-25
1.2064549276569216 1.1212820989931148e-24 3.5908347836230455e-17 3.590834767593256e-17 1.6029788709313598e-25
1.2246888378427687 1.1431362741780943e-24 3.7161496834555864e-17 3.71614966170866e-17 2.174692626091529e-25
1.2431983285522175 1.1644118779696837e-24 3.842523016362358e-17 3.842522987000643e-17 2.936171442907837e-25
1.2619875648066055 1.1851010609104327e-24 3.969903000810282e-17 3.9699029613551074e-17 3.9455175139962428e-25
1.3004222497298317 1.2243764413935143e-24 4.2263824001907166e-17 4.2263823299394414e-17 7.0251274750973465e-25
1.3400274889804893 1.2608095759963796e-24 4.484692178550773e-17 4.484692055736382e-17 1.2281439008022757e-24
1.3808389325824078 1.2942663354559423e-24 4.743906400061126e-17 4.7439061891548425e-17 2.109062829529208e-24
1.4228933163050095 1.3249107787151769e-24 5.004127951401486e-17 5.004127595452443e-17 3.559490436022365e-24
1.466228494730424 1.3534818833463478e-24 5.267730345955282e-17 5.267729755264542e-17 5.906907407438421e-24
1.5108834753276823 1.3794253963065962e-24 5.5322095468658594e-17 5.532208582598839e-17 9.642670208588037e-24
1.5568984535646726 1.4022932719899887e-24 5.795201895339131e-17 5.795200345270757e-17 1.550068374743724e-23
1.6043148490894465 1.4221288415634449e-24 6.056168925918224e-17 6.056166467721706e-17 2.4581965160779077e-23
1.6531753430134553 1.4389940729330693e-24 6.314621985833003e-17 6.314618144365105e-17 3.8414678981725044e-23
1.7035239163302658 1.4530907289727301e-24 6.570681256458061e-17 6.570675339511993e-17 5.916946066956346e-23
1.755405889504358 1.4655760120096713e-24 6.828972002167152e-17 6.828963014728521e-17 8.987438629620696e-23
1.8088679632656115 1.4761668561995086e-24 7.087804828014638e-17 7.08779136113007e-17 1.34668845684661e-22
1.8639582606462262 1.4846723862243124e-24 7.345751748052457e-17 7.345731833768424e-17 1.9914284032176067e-22
1.9207263702978936 1.4912352271480062e-24 7.602931653629726e-17 7.602902580368227e-17 2.907326149792039e-22
1.979223391128241 1.4961842578931759e-24 7.860484741588291e-17 7.86044282140162e-17 4.1920186670171987e-22
2.039501978296691 1.4999126686245906e-24 8.120065589684878e-17 8.120005871075225e-17 5.971860965268503e-22
2.1016163906111602 1.5035168492464636e-24 8.387473853380435e-17 8.38738976532699e-17 8.408805344531957e-22
2.1656225393682647 1.5076341937059929e-24 8.666588470171824e-17 8.666471399382827e-17 1.1707078899889675e-21
2.231578038680979 1.5123137400872992e-24 8.958254776375406e-17 8.95809356721817e-17 1.612091572345418e-21
2.299542257339062 1.5179391740937807e-24 9.265421842018067e-17 9.265202211368061e-17 2.1963065000690575e-21
2.369576372248914 1.5253540587144463e-24 9.594245028043159e-17 9.593948885160777e-17 2.9614288238212035e-21
2.4417434235010123 1.5355541530187137e-24 9.952555238015351e-17 9.952159918474671e-17 3.953195406775795e-21
2.5161083711144245 1.5502417953017216e-24 1.0353762941367161e-16 1.035324033214498e-16 5.226092221823364e-21
2.5927381535095444 1.5721997016880204e-24 1.0820212777797882e-16 1.0819528350467621e-16 6.844273302595497e-21
2.6717017477616296 1.6047488405849664e-24 1.1380582153616307e-16 1.1379693947323853e-16 8.88206292450199e-21
2.753070231689431 1.6528860903789599e-24 1.2078962932346062e-16 1.2077820458606927e-16 1.1424737391336864e-20
2.836916847834745 1.727924289419327e-24 1.301190096276658e-16 1.3010444000868272e-16 1.4569618983077722e-20
2.9233170693905177 1.8547682001533555e-24 1.4392458863869063e-16 1.4390616519536387e-16 1.8423443326755747e-20
2.967498994190263 1.9621947766148757e-24 1.5456178645419545e-16 1.5454116702847353e-16 2.0619425721932474e-20
3.0123486681368425 2.087601486609967e-24 1.6692533977434156e-16 1.6690229329507458e-16 2.3046479266930562e-20
3.0578761833420214 2.3675597917997707e-24 1.9217207751234954e-16 1.921463454478372e-16 2.5732064512422312e-20
3.1040917844459814 2.728181093643717e-24 2.247901009463013e-16 2.247614241329698e-16 2.867681333152923e-20
3.127460860933648 3.1093386797810323e-24 2.581245702010404e-16 2.580943078404608e-16 3.026236057967641e-20
3.1510058709225794 3.617079004696911e-24 3.025357071656869e-16 3.0250378557009454e-16 3.1921595592297745e-20
3.162844764501044 4.0895718262790916e-24 3.433405908046305e-16 3.4330780802780356e-16 3.2782776826885996e-20
3.1747281389236908 4.639010337128756e-24 3.909320839809469e-16 3.908984207403805e-16 3.3663240566373106e-20
3.1986289994194426 6.17141386385391e-24 5.239839388275152e-16 5.239484511112988e-16 3.548771621645808e-20
3.2227097969389145 9.78319339982077e-24 8.36895574588529e-16 8.368581466595391e-16 3.742792898985257e-20
3.2348180950136065 1.3208123354892752e-23 1.1341236662633086e-15 1.1340852011013373e-15 3.846516197147646e-20
3.240889293275058 1.5768660211888853e-23 1.3565269431175972e-15 1.3564879307779441e-15 3.9012339653215356e-20
3.2469718861334385 1.8730800993613242e-23 1.6143745819698717e-15 1.6143350034024666e-15 3.9578567404711005e-20
3.2714166318528037 3.4530939559229606e-23 2.9985665063565686e-15 2.9985245821369544e-15 4.1924219612695953e-20
3.2744851364798273 3.551866445683995e-23 3.0872306972807232e-15 3.087188495067812e-15 4.220221291191857e-20
3.2775565192852394 3.653475582235234e-23 3.178526464348258e-15 3.178483982602155e-15 4.248174610198577e-20
3.283707930232385 3.5557673864938827e-23 3.099326268120045e-15 3.0992832833530627e-15 4.298476698322397e-20
3.2898708863219004 3.245892767617554e-23 2.8345391211507685e-15 2.834495675715295e-15 4.3445435473213424e-20
3.29141343181113 3.172816586845314e-23 2.7720230513586045e-15 2.7719794901672845e-15 4.356119131972687e-20
3.292184975758714 3.136909537877482e-23 2.7412942579579366e-15 2.7412506388001915e-15 4.361915774538325e-20
3.295272960557952 2.910262337668755e-23 2.5456164388064822e-15 2.545572593627173e-15 4.384517930940064e-20
3.3076538914384823 2.1250841496723517e-23 1.865802301043469e-15 1.865757546512844e-15 4.47545306246893e-20
3.310756385682612 1.9652794717464908e-23 1.7271138871058508e-15 1.7270689030435755e-15 4.4984062274913077e-20
3.313861789986515 1.81783441046875e-23 1.5990356438323496e-15 1.598990429357281e-15 4.521447506850007e-20
3.3200813396944477 1.6110626326570874e-23 1.4198111467625739e-15 1.419765438000777e-15 4.5708761796998917e-20
3.345076488085796 1.2422305156658992e-23 1.103005503473605e-15 1.1029575950711435e-15 4.790840246154994e-20
3.3482140837626964 1.2560679373537425e-23 1.1163381888135022e-15 1.1162899825324623e-15 4.820628104016327e-20
3.3513546224236106 1.2700582816432241e-23 1.1298309535593912e-15 1.1297824478867e-15 4.8505672691323826e-20
3.3576445397418455 1.372275512640323e-23 1.2230535259291752e-15 1.2230043947844344e-15 4.9131144740214744e-20
3.3702598118196083 1.7492733597129702e-23 1.5649140760544468e-15 1.5648636325258378e-15 5.044352860905435e-20
3.382922481734668 1.835155171195782e-23 1.6479129669876779e-15 1.647861242099056e-15 5.172488862191336e-20
3.389271646505754 1.8796473702848555e-23 1.6910334289258183e-15 1.6909810533935328e-15 5.2375532285475553e-20
3.395632727569191 1.9275904327310018e-23 1.7374203574395544e-15 1.737367311309256e-15 5.3046130298128356e-20
3.421196662673239 2.1577906484978046e-23 1.959551939835427e-15 1.959496111046457e-15 5.582878896971929e-20
3.4276182099114902 2.1114212086042078e-23 1.9210415315144294e-15 1.9209850754478085e-15 5.645606662090963e-20
3.4340518103208963 1.9081949607108805e-23 1.7393982180675702e-15 1.7393411656609475e-15 5.705240662221827e-20
3.4469541582030403 1.6187665459525617e-23 1.4811162992057387e-15 1.481058095954955e-15 5.820325078377492e-20
3.472904465399547 1.5376878275671597e-23 1.4175240833892778e-15 1.417463237420485e-15 6.084596879275121e-20
3.4990501388274233 1.413663824394044e-23 1.3130030752099905e-15 1.3129395100147597e-15 6.356519523080165e-20
3.5253949054701885 9.721862646615328e-24 9.097596827587526e-16 9.096934525061255e-16 6.623025262704004e-20
3.5519380250092896 5.572492610294323e-24 5.253930381844947e-16 5.2532411007246e-16 6.892811203463183e-20
3.578680990867387 3.927575968210729e-24 3.7309292497508618e-16 3.730210360423514e-16 7.188893273474167e-20
3.605625307711299 3.2625770173816293e-24 3.1225600494243707e-16 3.1218098526532143e-16 7.501967711561889e-20
3.660119384959845 2.7781941659395502e-24 2.6991516102060535e-16 2.6983350935805586e-16 8.165166254949372e-20
3.715437065384467 2.4355760401228122e-24 2.402044425860333e-16 2.401157188860216e-16 8.872370001170704e-20
3.8285932144167436 2.2637634620936955e-24 2.3005925247626724e-16 2.2995504268181804e-16 1.0420979444932132e-19
3.94519561050918 2.2334293320406012e-24 2.3388921152062197e-16 2.337676717044019e-16 1.215398162200978e-19
4.06534921144712 2.26162780769206e-24 2.4405540239386133e-16 2.439145863466202e-16 1.408160472411327e-19
4.189162171576248 2.3241460007634584e-24 2.584401668703653e-16 2.5827796361632343e-16 1.6220325404189204e-19
4.316745939156006 2.4120778182087494e-24 2.7638676142097883e-16 2.762009844352308e-16 1.8577698574805408e-19
4.448215356677963 2.5225771384863925e-24 2.9785143283827064e-16 2.976400357829793e-16 2.113970552913887e-19
4.58368876423945 2.6562518555146423e-24 3.231869416939866e-16 3.22947685174867e-16 2.3925651911968007e-19
4.723288106065518 2.8162768072129485e-24 3.5309308201573606e-16 3.5282338665608066e-16 2.696953596553978e-19
4.867139040275056 3.0087656191565904e-24 3.8871521841367365e-16 3.884129800992363e-16 3.0223831443744623e-19
4.940699165968905 3.12457592061511e-24 4.0977827091039626e-16 4.094588267109553e-16 3.194441994409792e-19
5.015371051989984 3.244909749528821e-24 4.3199142311011285e-16 4.316541611633694e-16 3.3726194674337676e-19
5.091171501069577 3.390871972906703e-24 4.582458627659657e-16 4.578898255304916e-16 3.5603723547402467e-19
5.129500256944802 3.465957593453761e-24 4.719192942774691e-16 4.715536317292143e-16 3.6566254825475655e-19
5.168117569889187 3.5442545660320204e-24 4.862131779774824e-16 4.858376608896086e-16 3.7551708787383066e-19
5.20702561229733 3.639573195679793e-24 5.030482063838127e-16 5.026620558628083e-16 3.8615052100429213e-19
5.246226572918644 3.7374165901244764e-24 5.204607521228234e-16 5.200637702528271e-16 3.9698186999606126e-19
5.265937586045735 3.787310737421239e-24 5.293904219959966e-16 5.289879498834338e-16 4.024721125629519e-19
5.285722656980489 3.837867300934497e-24 5.384727860263514e-16 5.380647737755388e-16 4.0801225081256405e-19
5.305582063971359 3.8890971442394685e-24 5.477107446946401e-16 5.472971422738377e-16 4.136024208022523e-19
5.3255160863122235 3.9440053784502904e-24 5.575305022426965e-16 5.571112271711702e-16 4.1927507152631316e-19
5.365609099470188 4.0796774628178965e-24 5.810510525753183e-16 5.806200280845624e-16 4.3102449075610147e-19
5.406003951863644 4.220550192361279e-24 6.056404330536906e-16 6.051974385391064e-16 4.429945145840853e-19
5.446702915881641 4.366872342671273e-24 6.3135498982149565e-16 6.308998031091737e-16 4.55186712321987e-19
5.487708281020852 4.524771387364444e-24 6.591087715771459e-16 6.586411299838888e-16 4.676415932568533e-19
5.529022354014368 4.742174293527333e-24 6.959776460411008e-16 6.954969792915996e-16 4.806667495013024e-19
5.570647458961463 4.972292941744557e-24 7.352445516426997e-16 7.347506111866278e-16 4.939404560719073e-19
5.612585937458331 5.21603256423694e-24 7.770925241016406e-16 7.765850592090481e-16 5.074648925926321e-19
5.654840148729818 5.483576706270908e-24 8.231020602595341e-16 8.225807679163059e-16 5.212923432280058e-19
5.67608639626678 5.66463753501265e-24 8.534745122263771e-16 8.529459915386573e-16 5.285206877198058e-19
5.686739436050992 5.7579363361436145e-24 8.6915977990026e-16 8.686276185356723e-16 5.321613645878679e-19
5.6974124697621304 5.853139197382678e-24 8.851888754050473e-16 8.846530556319823e-16 5.358197730648218e-19
5.718818669136295 6.0494392297410894e-24 9.183133071228017e-16 9.177701171518095e-16 5.431899709919402e-19
5.740305295436557 6.265518743212861e-24 9.546879859449247e-16 9.54137310388983e-16 5.50675555941834e-19
5.7835210386641895 6.824069581645758e-24 1.0476234214362357e-15 1.047057212240988e-15 5.662091952476938e-19
5.827062130521658 7.466606996008513e-24 1.1548946637750286e-15 1.1543125004378503e-15 5.82163337177872e-19
5.8489554468988025 7.91589582792453e-24 1.2289884929719364e-15 1.228397766070963e-15 5.907269009734242e-19
5.870931020387893 8.397775639878879e-24 1.3087017355566686e-15 1.3081023504640189e-15 5.993850926496127e-19
5.892989160043636 8.914862323048093e-24 1.3945038441493752e-15 1.3938957055270883e-15 6.081386222870963e-19
5.915130176081913 9.502427506824978e-24 1.4919982194996649e-15 1.4913810165214277e-15 6.1720297823685995e-19
5.95966208400165 1.114212341485486e-23 1.7626213786886006e-15 1.7619838725178728e-15 6.375061707275567e-19
6.004529249263818 1.3501826442531746e-23 2.151993319775485e-15 2.1513331282684227e-15 6.60191507062688e-19
6.027089341400364 1.5140498262395357e-23 2.4222403252408803e-15 2.4215672022465348e-15 6.731229943459188e-19
6.049734195844842 1.7076048296328733e-23 2.7421619555624393e-15 2.741475160499677e-15 6.867950627631823e-19
6.095279466722835 2.2663227670516118e-23 3.666779691827999e-15 3.666059920188318e-15 7.197716396813977e-19
6.141167624020661 3.1256494824199776e-23 5.095193224322884e-15 5.094431423082469e-15 7.618012404138454e-19
6.164241091010745 3.674362179654655e-23 6.012166667172494e-15 6.011378870724146e-15 7.877964483496603e-19
6.187401249150058 4.299266531021407e-23 7.0610954717266985e-15 7.0602808558563845e-15 8.146158703121683e-19
6.1990139391386085 4.6044310151976884e-23 7.57648934133596e-15 7.575661052094102e-15 8.282892418587695e-19
6.204828454712694 4.76516450337219e-23 7.848327369841719e-15 7.847492160984137e-15 8.352088575822343e-19
6.210648424152782 4.88255985490666e-23 8.049222901672566e-15 8.048381701787881e-15 8.411998846828633e-19
6.233982942956859 5.28152185989773e-23 8.739651684758136e-15 8.738789181106071e-15 8.625036520639202e-19
6.239830258556775 5.332610671846333e-23 8.832468277248446e-15 8.831602509389487e-15 8.657678589587368e-19
6.245683058788269 5.337208725440103e-23 8.84837586107359e-15 8.84750681890707e-15 8.690421665183825e-19
6.257405133728602 5.326637588412868e-23 8.847424324570243e-15 8.846549368708173e-15 8.74955862069995e-19
6.269149208991335 5.248687547522467e-23 8.734313170721848e-15 8.733435167908385e-15 8.780028134633368e-19
6.280915325867298 5.0526414836162445e-23 8.423854464734633e-15 8.422976974618535e-15 8.774901160999809e-19
6.304513850009849 4.568978543412424e-23 7.646103187888147e-15 7.645229957732039e-15 8.732301561088689e-19
6.32820103803542 3.96931768142827e-23 6.667538919576664e-15 6.666673393928615e-15 8.65525648049796e-19
6.3519772230701035 3.4194315425631135e-23 5.76543763484869e-15 5.764578723645449e-15 8.589112032411534e-19
6.375842739491607 2.9568411314146954e-23 5.004204170969536e-15 5.0033507653817994e-15 8.534055877356913e-19
6.399797922933955 2.5863270211086665e-23 4.3935859967368536e-15 4.392733945449898e-15 8.520512869545168e-19
6.42384311029221 2.2783382871540003e-23 3.8849243572575835e-15 3.884072829022962e-15 8.515282346212364e-19
6.447978639727206 2.0541504704538548e-23 3.515809023851254e-15 3.514954739337288e-15 8.542845139648802e-19
6.472204850670314 1.867491098794166e-23 3.2083388345190226e-15 3.207481117716428e-15 8.5771680259498885e-19
6.496522083828205 1.746490356710806e-23 3.011733530892548e-15 3.0108696870852446e-15 8.638438073029559e-19
