Dust emission spectrum from A.P. Jones, M. Kohler, N. Ysard, M. Bocchio, and L. Verstraete (2017), A&A, 602A, 46J 
inside the DustPedia framework.

lambda    nu*dP/dnu     j_nu    j_nu(carb.) j_nu(sil)
 (um)   (erg s-1 H-1) (Jy cm2 sr-1 H-1)
0.9927057738263894 2.735996260940859e-24 7.209505549064394e-17 7.209505549061983e-17 2.4094633003665146e-29
1.0001793341362166 2.78119773139308e-24 7.383787276168222e-17 7.383787276165318e-17 2.9030703379773293e-29
1.0077091589558085 2.8263347429060495e-24 7.56011211449926e-17 7.560112114495767e-17 3.493347099177744e-29
1.0114953028030835 2.8488735175989682e-24 7.649031889290402e-17 7.649031889286572e-17 3.830237629079178e-29
1.0152956718711033 2.8713895243900207e-24 7.738451757652493e-17 7.738451757648295e-17 4.1982726291317395e-29
1.0229392996569957 2.916322346005602e-24 7.918717001518233e-17 7.918717001513193e-17 5.0390428004142773e-29
1.0267826658714554 2.938684667901417e-24 8.009417797406909e-17 8.00941779740139e-17 5.518139586706709e-29
1.0306404723013447 2.961014334718248e-24 8.100599031659148e-17 8.100599031653107e-17 6.040845814593552e-29
1.03451277320114 2.9833091915699782e-24 8.192256781058565e-17 8.192256781051953e-17 6.610939033164977e-29
1.0383996230291617 3.0055670955214743e-24 8.284387073340881e-17 8.28438707333365e-17 7.232506075772967e-29
1.0403485208654093 3.016681523861555e-24 8.330628168550212e-17 8.330628168542648e-17 7.563959794347092e-29
1.0423010764483396 3.027785915999483e-24 8.376985888133553e-17 8.376985888125641e-17 7.909966799397848e-29
1.0462171883269815 3.0499635351944843e-24 8.470049157896603e-17 8.470049157887954e-17 8.648099514404951e-29
1.0471985131304309 3.0555012553591313e-24 8.493387065346797e-17 8.493387065337953e-17 8.842708964864448e-29
1.048180758391296 3.0610362360823022e-24 8.516753679620143e-17 8.516753679611105e-17 9.041515767668619e-29
1.0501480137395462 3.0720978484534196e-24 8.563572768864196e-17 8.563572768854746e-17 9.452068214757725e-29
1.0521189612883777 3.0831481113448502e-24 8.610505904339817e-17 8.610505904329937e-17 9.880467399565279e-29
1.0531058218030118 3.0886604212661715e-24 8.633991359280464e-17 8.63399135927036e-17 1.0101603336669485e-28
1.0540936079674168 3.094141999567766e-24 8.657427308988955e-17 8.65742730897863e-17 1.0327528183669113e-28
1.058054026499678 3.1160371687431087e-24 8.751447800459162e-17 8.751447800447882e-17 1.1280630372547095e-28
1.0590464539527713 3.121503014895464e-24 8.775021761723428e-17 8.775021761711894e-17 1.1531765031510225e-28
1.06003981227728 3.126965618741854e-24 8.798623123872905e-17 8.798623123861117e-17 1.178825359752096e-28
1.0620293250338977 3.1378809722896035e-24 8.845907780594916e-17 8.845907780582598e-17 1.2317729258027323e-28
1.0660195594769086 3.159671375559652e-24 8.940802923223483e-17 8.940802923210034e-17 1.3445851319474812e-28
1.070024785945596 3.181406359281562e-24 9.036128861824804e-17 9.036128861810132e-17 1.467257703222299e-28
1.0740450607676866 3.203083919891606e-24 9.13188119047682e-17 9.131881190460813e-17 1.6006081679919376e-28
1.07808044048254 3.2247020698569643e-24 9.228055464799056e-17 9.228055464781605e-17 1.7455178944237753e-28
1.0861967418109137 3.2677140657015567e-24 9.421541735570756e-17 9.421541735550015e-17 2.0738883264547215e-28
1.0902777775684922 3.2890171427867955e-24 9.51859240598686e-17 9.518592405964265e-17 2.2594751771877776e-28
1.0943741465085532 3.310251506505975e-24 9.616039744380018e-17 9.61603974435541e-17 2.460883210733866e-28
1.1026131145906286 3.35250654463645e-24 9.812105771101354e-17 9.81210577107219e-17 2.916367471598004e-28
1.1109141095355224 3.394464264087664e-24 1.0009702194224315e-16 1.0009702194189793e-16 3.4517604676299314e-28
1.1192775983109025 3.436071089926831e-24 1.0208675170890112e-16 1.0208675170849311e-16 4.080261199797725e-28
1.1277040513999907 3.4771337623095896e-24 1.0408447876106803e-16 1.040844787605863e-16 4.8171053136472885e-28
1.1361939428280308 3.517850625586142e-24 1.0609607004641457e-16 1.0609607004584654e-16 5.679853213956575e-28
1.1447477501889525 3.558208098888871e-24 1.0812112990000961e-16 1.0812112989934072e-16 6.688720466392432e-28
1.1533659546722406 3.5982149109704556e-24 1.1015993212153512e-16 1.1015993212074843e-16 7.8669591976933375e-28
1.1707974979042381 3.6773057481619895e-24 1.1428282288767363e-16 1.142828228865894e-16 1.0842346977295814e-27
1.1884924949847024 3.754823535362903e-24 1.184555485000435e-16 1.1845554849855657e-16 1.4869598799383511e-27
1.2064549276569216 3.8313743964227005e-24 1.2269733427575093e-16 1.2269733427372154e-16 2.029383626599469e-27
1.2246888378427687 3.906122245868461e-24 1.2698166680048362e-16 1.2698166679772724e-16 2.7563345597670635e-27
1.2431983285522175 3.978892165271794e-24 1.3130220512126023e-16 1.3130220511753436e-16 3.7258444617717115e-27
1.2619875648066055 4.049656880829242e-24 1.3565716489280116e-16 1.3565716488778852e-16 5.012652655641356e-27
1.3004222497298317 4.1839942186435766e-24 1.4442583939338928e-16 1.44425839384442e-16 8.947272130474946e-27
1.3400274889804893 4.308608062256051e-24 1.532569330461367e-16 1.532569330304548e-16 1.5681937544456353e-26
1.3808389325824078 4.4230357869002106e-24 1.6211862429214487e-16 1.6211862426514297e-16 2.700188843449633e-26
1.4228933163050095 4.527833585974825e-24 1.7101422202062054e-16 1.7101422197492368e-16 4.5696848118463877e-26
1.466228494730424 4.625522529417718e-24 1.8002461424803892e-16 1.8002461417199014e-16 7.604874391128604e-26
1.5108834753276823 4.7142031369283385e-24 1.8906393683782307e-16 1.8906393671331348e-16 1.245095717708841e-25
1.5568984535646726 4.792338292077321e-24 1.980510675483798e-16 1.9805106734762416e-16 2.0075571480897021e-25
1.6043148490894465 4.8600699996334606e-24 2.0696721738101714e-16 2.0696721706165918e-16 3.1935795108960414e-25
1.6531753430134553 4.9176034446354446e-24 2.1579523789009672e-16 2.1579523738943673e-16 5.006600040939704e-25
1.7035239163302658 4.9656213767235084e-24 2.2453873427277874e-16 2.24538733499082e-16 7.736967658040458e-25
1.755405889504358 5.00807203404429e-24 2.333552366105394e-16 2.333552354313562e-16 1.1791832400811617e-24
1.8088679632656115 5.043979780842847e-24 2.4218633613756145e-16 2.4218633436446833e-16 1.7730930862410675e-24
1.8639582606462262 5.072683594290567e-24 2.509824707849527e-16 2.5098246815349034e-16 2.6314623400185057e-24
1.9207263702978936 5.0946618250599054e-24 2.597468524691881e-16 2.5974684861310784e-16 3.8560802499973695e-24
1.979223391128241 5.1110287162737954e-24 2.685174839004233e-16 2.6851747831893522e-16 5.581487941432648e-24
2.039501978296691 5.123117935336345e-24 2.7734983861939805e-16 2.773498306363454e-16 7.983052615336324e-24
2.1016163906111602 5.1346659817422624e-24 2.864409314021959e-16 2.864409201149533e-16 1.1287242661414775e-23
2.1656225393682647 5.147839391403352e-24 2.9592195309768187e-16 2.9592193731567326e-16 1.5782008655189423e-23
2.231578038680979 5.162793144916005e-24 3.0582024829855883e-16 3.058202264695487e-16 2.1829010223892363e-23
2.299542257339062 5.18082467274846e-24 3.162348459134241e-16 3.1623481603598537e-16 2.9877438783299595e-23
2.369576372248914 5.204803147839343e-24 3.2737420166690166e-16 3.273741611870458e-16 4.047985585722333e-23
2.4417434235010123 5.2381169308324785e-24 3.3950380710968227e-16 3.3950375280207995e-16 5.43076022705799e-23
2.5161083711144245 5.286569024881727e-24 3.5307964617317513e-16 3.5307957400286556e-16 7.217030966835815e-23
2.5927381535095444 5.359655862768914e-24 3.688629172786812e-16 3.688628222443728e-16 9.50343083372751e-23
2.6717017477616296 5.4687163499562405e-24 3.878312550941919e-16 3.8783113105773293e-16 1.240364590161554e-22
2.753070231689431 5.630822552350213e-24 4.1148931728781543e-16 4.1148915678428046e-16 1.6050353503337082e-22
2.836916847834745 5.884648220880593e-24 4.431355026356537e-16 4.4313529665788432e-16 2.059777694562123e-22
2.9233170693905177 6.3153626779615854e-24 4.900536764942427e-16 4.900534142986748e-16 2.6219556788867e-22
2.967498994190263 6.681131355452472e-24 5.262717086707211e-16 5.262714141655857e-16 2.945051353058604e-22
3.0123486681368425 7.108313867821336e-24 5.683832451832454e-16 5.68382914812245e-16 3.3037100035867144e-22
3.0578761833420214 8.064071658993426e-24 6.545513271870459e-16 6.545509569582074e-16 3.702288386689849e-22
3.1040917844459814 9.295666876204507e-24 7.659219911514002e-16 7.659215769882098e-16 4.141631902920292e-22
3.127460860933648 1.0598473327965065e-23 8.798418745303199e-16 8.798414366168839e-16 4.37913436142091e-22
3.1510058709225794 1.2334266443005297e-23 1.031649022832801e-15 1.031648559994634e-15 4.628381671912573e-22
3.162844764501044 1.394999343412352e-23 1.1711737049378385e-15 1.1711732291321689e-15 4.758056691571287e-22
3.1747281389236908 1.582894584223064e-23 1.3339144204526093e-15 1.3339139313695366e-15 4.890830729895215e-22
3.1986289994194426 2.1069854452513133e-23 1.788936144959154e-15 1.788935628297948e-15 5.166612061914417e-22
3.2227097969389145 3.3423835118506495e-23 2.8592156521169464e-15 2.8592151060148684e-15 5.461020782791958e-22
3.2348180950136065 4.513923262422187e-23 3.875908077216057e-15 3.87590751532492e-15 5.618911375257124e-22
3.240889293275058 5.389800068145247e-23 4.6366710374947516e-15 4.63667046725682e-15 5.702379313494696e-22
3.2469718861334385 6.403054070583661e-23 5.518678962022836e-15 5.518678383135119e-15 5.788877184701852e-22
3.2714166318528037 1.1807924902808019e-22 1.0253659059117618e-14 1.0253658444283663e-14 6.148339547690097e-22
3.2744851364798273 1.2145801376060176e-22 1.0556954047867224e-14 1.0556953428767106e-14 6.191001180365438e-22
3.2775565192852394 1.2493382575746434e-22 1.0869252100473084e-14 1.0869251477080982e-14 6.233921003220105e-22
3.283707930232385 1.2159123632002256e-22 1.0598300499949934e-14 1.0598299868849739e-14 6.311001966416426e-22
3.2898708863219004 1.1099077558061335e-22 9.692485796474175e-15 9.692485158327673e-15 6.381465013124553e-22
3.29141343181113 1.0849092337823413e-22 9.478623558466263e-15 9.478622918548447e-15 6.399178157475563e-22
3.292184975758714 1.0726258470119865e-22 9.37350293289226e-15 9.373502292087324e-15 6.408049377289517e-22
3.295272960557952 9.950917635420836e-23 8.704101752637189e-15 8.704101108377798e-15 6.442593884841566e-22
3.3076538914384823 7.264901069622018e-23 6.378509356744216e-15 6.378508698577688e-15 6.581665284212549e-22
3.310756385682612 6.71822873044488e-23 5.904069270511161e-15 5.904068608831299e-15 6.616798598546043e-22
3.313861789986515 6.213838632458684e-23 5.465926599861065e-15 5.465925934653176e-15 6.6520788954761925e-22
3.3200813396944477 5.506488781785139e-23 4.852805839712934e-15 4.852805166921249e-15 6.727916864788392e-22
3.345076488085796 4.2446511796212163e-23 3.7689249719793e-15 3.768924265311581e-15 7.066677178857904e-22
3.3482140837626964 4.2919705660719916e-23 3.81451552554065e-15 3.81451481426931e-15 7.112713382902373e-22
3.3513546224236106 4.3398131214680057e-23 3.860653694532692e-15 3.860652978632257e-15 7.159004347384744e-22
3.3576445397418455 4.6894487808550557e-23 4.179515566122564e-15 4.179514840532856e-15 7.25589708488779e-22
3.3702598118196083 5.979048601255199e-23 5.348905170003395e-15 5.348904424032135e-15 7.459712590312819e-22
3.382922481734668 6.272773226818492e-23 5.632757655425826e-15 5.6327568895587e-15 7.658671236296301e-22
3.389271646505754 6.424942985557376e-23 5.780229600126242e-15 5.780228824141805e-15 7.759844363130223e-22
3.395632727569191 6.588912919428135e-23 5.938871269137737e-15 5.938870482717146e-15 7.864205929986749e-22
3.421196662673239 7.376231397152588e-23 6.6985685349169075e-15 6.6985677050890615e-15 8.298278451484161e-22
3.4276182099114902 7.217576408894183e-23 6.56679206491933e-15 6.566791225285401e-15 8.396339304929478e-22
3.4340518103208963 6.522338549752399e-23 5.945379945268426e-15 5.945379096310666e-15 8.489577599245025e-22
3.4469541582030403 5.532195750582904e-23 5.0617708384647994e-15 5.061769971497546e-15 8.669672526672235e-22
3.472904465399547 5.2547201739620574e-23 4.844086208217957e-15 4.844085299696514e-15 9.08521443725498e-22
3.4990501388274233 4.830323320736278e-23 4.486377358566003e-15 4.486376407136867e-15 9.514291361422883e-22
3.5253949054701885 3.319921451147849e-23 3.106740751199334e-15 3.106739757639861e-15 9.935594738294324e-22
3.5519380250092896 1.9003228952022878e-23 1.7916872919624235e-15 1.7916862556094783e-15 1.0363529453724401e-21
3.578680990867387 1.3374567334419864e-23 1.27049266200399e-15 1.2704915784417261e-15 1.0835622639880016e-21
3.605625307711299 1.1098023749525812e-23 1.06217402388385e-15 1.0621728901659291e-15 1.1337179206148002e-21
3.660119384959845 9.43760405859726e-24 9.169094264019938e-16 9.169081856958511e-16 1.240706142544536e-21
3.715437065384467 8.262028241662605e-24 8.148281374612961e-16 8.148267816470631e-16 1.3558142333306059e-21
3.8285932144167436 7.666824636151264e-24 7.791555850222418e-16 7.791539733087145e-16 1.6117135277145018e-21
3.94519561050918 7.555006870230922e-24 7.911755140677404e-16 7.911736098360312e-16 1.9042317093177178e-21
4.06534921144712 7.642787327276616e-24 8.247438107301385e-16 8.247415734350658e-16 2.237295072608857e-21
4.189162171576248 7.847296482511449e-24 8.7260293103587e-16 8.726003147316219e-16 2.616304248068609e-21
4.316745939156006 8.138035595200021e-24 9.324928431025124e-16 9.324897972391483e-16 3.0458633644439907e-21
4.448215356677963 8.505240362898126e-24 1.0042499751833712e-15 1.0042464474919745e-15 3.527691396863851e-21
4.58368876423945 8.950951927007208e-24 1.0890649440991641e-15 1.0890608743872292e-15 4.069711934836061e-21
4.723288106065518 9.485987368578191e-24 1.1893136737678471e-15 1.189308990383517e-15 4.683384330262898e-21
4.867139040275056 1.0131237791743263e-23 1.3088976708402706e-15 1.3088923030541916e-15 5.36778607964849e-21
4.940699165968905 1.0520456646863037e-23 1.3797246869554823e-15 1.3797189454119817e-15 5.7415435008906086e-21
5.015371051989984 1.0924933679337913e-23 1.4544249337615877e-15 1.4544187962093491e-15 6.137552238397923e-21
5.091171501069577 1.1416820827663766e-23 1.5428806961804966e-15 1.5428741327500019e-15 6.563430494611058e-21
5.129500256944802 1.1669882253034462e-23 1.588952677192257e-15 1.5889458913829959e-15 6.785809260898662e-21
5.168117569889187 1.1933869169057565e-23 1.637129711241671e-15 1.6371226953199367e-15 7.015921734072761e-21
5.20702561229733 1.2255984440645374e-23 1.6939763699911015e-15 1.6939691066592223e-15 7.263331878990681e-21
5.246226572918644 1.2586682179942741e-23 1.7527813440475357e-15 1.752773825594899e-15 7.518452636965651e-21
5.265937586045735 1.275533721186389e-23 1.7829414636010687e-15 1.782933814622318e-15 7.648978750420109e-21
5.285722656980489 1.2926244614388219e-23 1.8136194934809033e-15 1.8136117119581835e-15 7.781522719659794e-21
5.305582063971359 1.3099441531042896e-23 1.844825318050637e-15 1.844817401934861e-15 7.916115775303168e-21
5.3255160863122235 1.3285200073572456e-23 1.8780157628293953e-15 1.878007709410381e-15 8.05341901400052e-21
5.365609099470188 1.3745066528296037e-23 1.9576511738424862e-15 1.957642834460684e-15 8.339381802811484e-21
5.406003951863644 1.4222672236647147e-23 2.0409247562494898e-15 2.0409161217192994e-15 8.634530190299803e-21
5.446702915881641 1.4718868587142955e-23 2.1280290326359824e-15 2.128020093471837e-15 8.939164145415364e-21
5.487708281020852 1.525460059915941e-23 2.2220881898893876e-15 2.222078935391636e-15 9.254497751693335e-21
5.529022354014368 1.599369967092339e-23 2.3472898209690047e-15 2.347280232903733e-15 9.588065272240443e-21
5.570647458961463 1.6776258167271182e-23 2.480676934957456e-15 2.4806670021312997e-15 9.932826156031689e-21
5.612585937458331 1.7605375104038356e-23 2.62287576023881e-15 2.6228654710661838e-15 1.028917262613817e-20
5.654840148729818 1.8515864299647318e-23 2.7792892976398043e-15 2.779278638788296e-15 1.0658851507669697e-20
5.67608639626678 1.9132759697492087e-23 2.8826774263015714e-15 2.8826665720637968e-15 1.0854237774040205e-20
5.686739436050992 1.9450676779569058e-23 2.9360772613133795e-15 2.9360663080945856e-15 1.0953218794637724e-20
5.6974124697621304 1.9775106959830118e-23 2.9906523833593513e-15 2.9906413302901945e-15 1.1053069156891394e-20
5.718818669136295 2.0444130161577415e-23 3.10344745470411e-15 3.103436199293441e-15 1.1255410667707557e-20
5.740305295436557 2.1180781476829624e-23 3.2273525046523125e-15 3.2273410418342486e-15 1.146281806417047e-20
5.7835210386641895 2.3086210900724154e-23 3.544168910127425e-15 3.5441570093752026e-15 1.1900752222329244e-20
5.827062130521658 2.5278928700694488e-23 3.910008907391033e-15 3.9099965485933504e-15 1.2358797682195866e-20
5.8489554468988025 2.6812964516228724e-23 4.1628674213553745e-15 4.162854811650082e-15 1.2609705293951794e-20
5.870931020387893 2.8458528846407886e-23 4.434951312085859e-15 4.434938446141783e-15 1.286594407750476e-20
5.892989160043636 3.0224577203168613e-23 4.72786764060729e-15 4.72785451296223e-15 1.312764506035765e-20
5.915130176081913 3.2231675649363806e-23 5.060770276416406e-15 5.060756875050914e-15 1.3401365492713446e-20
5.95966208400165 3.783446943486861e-23 5.985200683411073e-15 5.98518665833262e-15 1.402507845461496e-20
6.004529249263818 4.589975156106936e-23 7.315747921897748e-15 7.315733174916049e-15 1.4746981698148797e-20
6.027089341400364 5.1501488604729333e-23 8.239423851601346e-15 8.239408679950653e-15 1.5171650692599795e-20
6.049734195844842 5.811881008771207e-23 9.333025250306101e-15 9.333009620829824e-15 1.5629476279433594e-20
6.095279466722835 7.722252816561239e-23 1.2494160238157932e-14 1.2494143463835779e-14 1.677432215651743e-20
6.141167624020661 1.06608221286462e-22 1.7378451736544087e-14 1.7378433434733087e-14 1.8301811000517128e-20
6.164241091010745 1.2537239577669506e-22 2.0514029429266767e-14 2.051401016268642e-14 1.9266580349150864e-20
6.187401249150058 1.4674374091948703e-22 2.4101124157674756e-14 2.410110386363355e-14 2.0294041202986906e-20
6.1990139391386085 1.5718010642049774e-22 2.586363867835739e-14 2.5863617857626565e-14 2.0820730816670356e-20
6.204828454712694 1.6267720592452143e-22 2.6793282095576732e-14 2.679326100478417e-14 2.1090792566048892e-20
6.210648424152782 1.6669190781756227e-22 2.748026366907209e-14 2.7480242347300466e-14 2.1321771621244085e-20
6.233982942956859 1.803355440078763e-22 2.984120643288844e-14 2.9841184284086145e-14 2.214880229014543e-20
6.239830258556775 1.8208249980277304e-22 3.015854714166226e-14 3.015852486726967e-14 2.2274392587976653e-20
6.245683058788269 1.8223930796257443e-22 3.0212831771570475e-14 3.021280937083314e-14 2.240073734839784e-20
6.257405133728602 1.8187682697889663e-22 3.020932880038879e-14 3.020930617201172e-14 2.2628377069308824e-20
6.269149208991335 1.7920975398327152e-22 2.982220031894956e-14 2.982217757970851e-14 2.2739241056714585e-20
6.280915325867298 1.7250341423619365e-22 2.8760078483848676e-14 2.876005577910097e-14 2.2704747716535217e-20
6.304513850009849 1.5595878938528413e-22 2.609942212176322e-14 2.6099399619856864e-14 2.250190635981986e-20
6.32820103803542 1.3544614661893482e-22 2.2751831084567602e-14 2.2751808940904647e-14 2.2143662956328376e-20
6.3519772230701035 1.1663580590257513e-22 1.9665738487560374e-14 1.9665716666802506e-14 2.1820757869385648e-20
6.375842739491607 1.0081189612151287e-22 1.7061562952935963e-14 1.7061541404347557e-14 2.1548588403829604e-20
6.399797922933955 8.813626749346933e-23 1.4972363026929473e-14 1.4972341599048674e-14 2.1427880799603686e-20
6.42384311029221 7.759974359174178e-23 1.3231974184706464e-14 1.3231952838894039e-14 2.134581242784593e-20
6.447978639727206 6.992898860656017e-23 1.1968790636715859e-14 1.1968769242918583e-14 2.139379727367855e-20
6.472204850670314 6.354208927561452e-23 1.0916493941045481e-14 1.091647246906964e-14 2.14719758412466e-20
6.496522083828205 5.940057860427856e-23 1.0243326775296205e-14 1.024330511445604e-14 2.1660840168349303e-20
