Dust emission spectrum from A.P. Jones, M. Kohler, N. Ysard, M. Bocchio, and L. Verstraete (2017), A&A, 602A, 46J 
inside the DustPedia framework.

lambda    nu*dP/dnu     j_nu    j_nu(carb.) j_nu(sil)
 (um)   (erg s-1 H-1) (Jy cm2 sr-1 H-1)
0.9927057738263894 4.243058832490659e-25 1.1180701024543297e-17 1.1180701024542817e-17 4.780587193271855e-31
1.0001793341362166 4.312751006883965e-25 1.1449900037837611e-17 1.144990003783703e-17 5.761582108391107e-31
1.0077091589558085 4.382331026507635e-25 1.1722218667269754e-17 1.1722218667269059e-17 6.93518984472771e-31
1.0114953028030835 4.417070373671785e-25 1.1859533930425414e-17 1.1859533930424651e-17 7.605221001031692e-31
1.0152956718711033 4.45177138503954e-25 1.1997612238466529e-17 1.1997612238465697e-17 8.337356894833692e-31
1.0229392996569957 4.521010552448219e-25 1.2275941709513032e-17 1.2275941709512023e-17 1.0010486687675008e-30
1.0267826658714554 4.555464272643514e-25 1.2415968620007884e-17 1.2415968620006787e-17 1.0964209638245385e-30
1.0306404723013447 4.589864371651154e-25 1.2556727756599008e-17 1.2556727756597808e-17 1.2004991136132794e-30
1.03451277320114 4.6242075182644825e-25 1.2698212946070226e-17 1.2698212946068915e-17 1.3140400004944713e-30
1.0383996230291617 4.658490400375744e-25 1.2840417940315336e-17 1.2840417940313898e-17 1.4378627601748907e-30
1.0403485208654093 4.67560821258839e-25 1.2911788391581345e-17 1.291178839157984e-17 1.5039040202760852e-30
1.0423010764483396 4.692709725611293e-25 1.2983336417818117e-17 1.2983336417816544e-17 1.5728535872900332e-30
1.0462171883269815 4.726862221952679e-25 1.3126961985134216e-17 1.3126961985132495e-17 1.7199708856361465e-30
1.0471985131304309 4.735389522571012e-25 1.3162978103786166e-17 1.3162978103784408e-17 1.758764602334158e-30
1.048180758391296 4.743912392497788e-25 1.3199037910217941e-17 1.3199037910216146e-17 1.7983975573149096e-30
1.0501480137395462 4.760944638343449e-25 1.3271288178373967e-17 1.3271288178372087e-17 1.8802507857024977e-30
1.0521189612883777 4.777958556480137e-25 1.3343711970852378e-17 1.3343711970850417e-17 1.9656732012456438e-30
1.0531058218030118 4.786445362952907e-25 1.3379951910822925e-17 1.3379951910820912e-17 2.009771745267738e-30
1.0540936079674168 4.794884340605946e-25 1.3416114269999348e-17 1.3416114269997294e-17 2.0548280852647266e-30
1.058054026499678 4.828590159257614e-25 1.3561184427591e-17 1.3561184427588757e-17 2.24493732363718e-30
1.0590464539527713 4.83700384375323e-25 1.3597556621900585e-17 1.359755662189829e-17 2.29503772189798e-30
1.06003981227728 4.8454123216350775e-25 1.3633970467187486e-17 1.3633970467185141e-17 2.3462095954745497e-30
1.0620293250338977 4.862213461212103e-25 1.370692268676656e-17 1.3706922686764112e-17 2.451855535343438e-30
1.0660195594769086 4.895751106508109e-25 1.3853322260986477e-17 1.3853322260983799e-17 2.67699457769012e-30
1.070024785945596 4.929199979571908e-25 1.4000376302502378e-17 1.4000376302499457e-17 2.9218781880121213e-30
1.0740450607676866 4.962556989729536e-25 1.4148077903845234e-17 1.4148077903842044e-17 3.188150277567651e-30
1.07808044048254 4.9958190717045265e-25 1.42964200993102e-17 1.4296420099306723e-17 3.4775837943423785e-30
1.0861967418109137 5.061987123048931e-25 1.4594827449961758e-17 1.459482744995763e-17 4.133730127959282e-30
1.0902777775684922 5.0947524895351805e-25 1.4744487563291425e-17 1.4744487563286923e-17 4.5047240288264635e-30
1.0943741465085532 5.127408593461232e-25 1.4894748850198837e-17 1.4894748850193928e-17 4.907461075409195e-30
1.1026131145906286 5.19238138635885e-25 1.5197045759198008e-17 1.5197045759192193e-17 5.818655411418628e-30
1.1109141095355224 5.256882535195642e-25 1.550165933517936e-17 1.5501659335172474e-17 6.890342408867812e-30
1.1192775983109025 5.320829200277847e-25 1.5808350736590913e-17 1.5808350736582766e-17 8.149161577284056e-30
1.1277040513999907 5.383922221660707e-25 1.6116226076947564e-17 1.6116226076937937e-17 9.625888151633894e-30
1.1361939428280308 5.446469024519855e-25 1.642619373683056e-17 1.6426193736819204e-17 1.1356021483059138e-29
1.1447477501889525 5.508448746274997e-25 1.673819197448083e-17 1.6738191974467448e-17 1.3380462710847545e-29
1.1533659546722406 5.569875124288595e-25 1.705226288030622e-17 1.7052262880290476e-17 1.5746296213470223e-29
1.1707974979042381 5.6912689624365425e-25 1.768725059550305e-17 1.7687250595481327e-17 2.1726740853795433e-29
1.1884924949847024 5.810187587762621e-25 1.8329728444350098e-17 1.8329728444320263e-17 2.983229320589504e-29
1.2064549276569216 5.927571183791959e-25 1.8982670648425738e-17 1.8982670648384967e-17 4.076461254851414e-29
1.2246888378427687 6.042126577167668e-25 1.9641968568694108e-17 1.964196856863867e-17 5.543675517171317e-29
1.2431983285522175 6.153585363044261e-25 2.0306640492088575e-17 2.0306640492013543e-17 7.503291195003243e-29
1.2619875648066055 6.261906897028222e-25 2.0976407667890645e-17 2.0976407667789566e-17 1.0108107196281345e-28
1.3004222497298317 6.467327341530591e-25 2.2324342031122235e-17 2.2324342030941317e-17 1.8091886267855085e-28
1.3400274889804893 6.657592868561917e-25 2.3681018318741547e-17 2.3681018318423537e-17 3.180068147366835e-28
1.3808389325824078 6.832008099830684e-25 2.5041528209600493e-17 2.50415282090513e-17 5.491941330687721e-28
1.4228933163050095 6.991453926596158e-25 2.6406404549703395e-17 2.6406404548771067e-17 9.32318591257267e-28
1.466228494730424 7.139845924325911e-25 2.778816879914776e-17 2.7788168797591197e-17 1.5565684975874866e-27
1.5108834753276823 7.274267124645703e-25 2.9173574838601066e-17 2.917357483604407e-17 2.5569938758762284e-27
1.5568984535646726 7.392364910866597e-25 3.0550133840190337e-17 3.055013383605324e-17 4.1371047478183496e-27
1.6043148490894465 7.494380763336816e-25 3.1914995724313124e-17 3.1914995717708435e-17 6.604697565468821e-27
1.6531753430134553 7.580652846296554e-25 3.3265569351944263e-17 3.3265569341551785e-17 1.0392485371900643e-26
1.7035239163302658 7.6522559806398255e-25 3.460247453175568e-17 3.460247451563413e-17 1.6121548613295865e-26
1.755405889504358 7.715300527102471e-25 3.5950077550491833e-17 3.595007752582363e-17 2.466820463061574e-26
1.8088679632656115 7.768296813315719e-25 3.72994227770606e-17 3.729942273981525e-17 3.7245343911721397e-26
1.8639582606462262 7.810243283617333e-25 3.8642941557800945e-17 3.8642941502288674e-17 5.55122600001043e-26
1.9207263702978936 7.841893433417474e-25 3.9981203987077844e-17 3.998120390537071e-17 8.170714246527476e-26
1.979223391128241 7.86498071728822e-25 4.1320151976591765e-17 4.132015185777959e-17 1.1881217809943649e-25
2.039501978296691 7.881575211448897e-25 4.2668422639356765e-17 4.26684224686085e-17 1.7074825615676256e-25
2.1016163906111602 7.8974442388772335e-25 4.405644479163028e-17 4.405644454900531e-17 2.4262497838327426e-25
2.1656225393682647 7.915935335898229e-25 4.550450911708359e-17 4.550450877607957e-17 3.410040253944932e-25
2.231578038680979 7.937298400121738e-25 4.701692474228455e-17 4.701692426806932e-17 4.742152343496664e-25
2.299542257339062 7.963541310207002e-25 4.860904234812676e-17 4.860904169540283e-17 6.527239236303124e-25
2.369576372248914 7.999091339902673e-25 5.0313067892843487e-17 5.0313067003280666e-17 8.895628220234688e-25
2.4417434235010123 8.049175548537614e-25 5.2170002672857104e-17 5.217000147207755e-17 1.2007795594173661e-24
2.5161083711144245 8.122736994345955e-25 5.42501779589569e-17 5.425017635295202e-17 1.6060048878254378e-24
2.5927381535095444 8.2344097104640905e-25 5.66709592115587e-17 5.667095708252394e-17 2.1290347665603126e-24
2.6717017477616296 8.401676599131783e-25 5.958313746447747e-17 5.958313466612849e-17 2.798348981698392e-24
2.753070231689431 8.650856140445857e-25 6.321873676700036e-17 6.32187331191932e-17 3.647807147079574e-24
2.836916847834745 9.041563078801477e-25 6.808627209558328e-17 6.808626737804375e-17 4.717539549841646e-24
2.9233170693905177 9.705091539695828e-25 7.530867239561628e-17 7.530866634168775e-17 6.0539284961759476e-24
2.967498994190263 1.0268771526927409e-24 8.088695835945506e-17 8.088695152983966e-17 6.829615395597621e-24
3.0123486681368425 1.0927185895589592e-24 8.737415786001847e-17 8.737415016486809e-17 7.695150403633542e-24
3.0578761833420214 1.240042867848666e-24 1.006528388192038e-16 1.0065283015729948e-16 8.661904307644269e-24
3.1040917844459814 1.4299353164833502e-24 1.1782036936179683e-16 1.178203596278058e-16 9.733991002499419e-24
3.127460860933648 1.6307917011202751e-24 1.3538165194945535e-16 1.3538164163332023e-16 1.03161350789146e-23
3.1510058709225794 1.8984364419667613e-24 1.5878691362110602e-16 1.5878690269210565e-16 1.0929000339144583e-23
3.162844764501044 2.147528026289607e-24 1.8029602428737404e-16 1.8029601303876561e-16 1.1248608479027221e-23
3.1747281389236908 2.4372415692119857e-24 2.0538775656334342e-16 2.0538774498695846e-16 1.1576384984561139e-23
3.1986289994194426 3.245433927790834e-24 2.7555359115493443e-16 2.755535788960862e-16 1.225884835039704e-23
3.2227097969389145 5.150459147599012e-24 4.4059197151347206e-16 4.405919585239169e-16 1.2989555145829292e-23
3.2348180950136065 6.957043685074299e-24 5.973708511397025e-16 5.973708377576695e-16 1.3382032829465013e-23
3.240889293275058 8.30767049022392e-24 7.14682078445382e-16 7.146820648558237e-16 1.3589558555693776e-23
3.2469718861334385 9.870109075643385e-24 8.506872300027082e-16 8.506872161980573e-16 1.3804651194111416e-23
3.2714166318528037 1.820466392414956e-23 1.580840145076275e-15 1.5808401303760224e-15 1.4700252121189358e-23
3.2744851364798273 1.8725608366518323e-23 1.6276026663282769e-15 1.627602651521289e-15 1.480698805708712e-23
3.2775565192852394 1.9261516290969882e-23 1.6757533448975688e-15 1.6757533299831541e-15 1.49144155898208e-23
3.283707930232385 1.8745864811133266e-23 1.6339525315535566e-15 1.6339525164453366e-15 1.5108220024222634e-23
3.2898708863219004 1.711102934791937e-23 1.4942539868757332e-15 1.4942539715895343e-15 1.5286199060005643e-23
3.29141343181113 1.6725500986892658e-23 1.4612718073087886e-15 1.4612717919778236e-15 1.533096482833678e-23
3.292184975758714 1.6536066979782763e-23 1.4450600157108132e-15 1.4450600003574252e-15 1.5353388504119335e-23
3.295272960557952 1.5340332097036248e-23 1.341824104910329e-15 1.341824089469469e-15 1.5440859957652793e-23
3.3076538914384823 1.1198174704833921e-23 9.831883662106887e-16 9.831883504172027e-16 1.5793486055777137e-23
3.310756385682612 1.0355195108105399e-23 9.10028397081146e-16 9.100283811984742e-16 1.5882671661874127e-23
3.313861789986515 9.577435224694622e-24 8.424672903420903e-16 8.424672743698188e-16 1.5972271801291856e-23
3.3200813396944477 8.486690803801602e-24 7.479223934634988e-16 7.479223772989721e-16 1.6164526788852178e-23
3.345076488085796 6.540743164275682e-24 5.807678700547869e-16 5.807678530321273e-16 1.7022659741831426e-23
3.3482140837626964 6.6136632597178386e-24 5.877934341935631e-16 5.877934170542937e-16 1.7139269635444634e-23
3.3513546224236106 6.687389588264041e-24 5.949033886504726e-16 5.949033713938943e-16 1.7256578498488993e-23
3.3576445397418455 7.226374934690973e-24 6.440574988148561e-16 6.440574813128676e-16 1.7501988555323615e-23
3.3702598118196083 9.21454652163203e-24 8.243407741901819e-16 8.243407561718072e-16 1.801837447333336e-23
3.382922481734668 9.667125319388903e-24 8.680781558616401e-16 8.680781373374774e-16 1.85241628462967e-23
3.389271646505754 9.901590953935737e-24 8.908011985310477e-16 8.90801179749327e-16 1.8781720657632385e-23
3.395632727569191 1.0154209991715695e-23 9.152427224038293e-16 9.15242703356388e-16 1.9047441057531976e-23
3.421196662673239 1.136708495213534e-23 1.0322777783719533e-15 1.0322777582171794e-15 2.0154774128998834e-23
3.4276182099114902 1.1122353127692894e-23 1.0119488332975573e-15 1.0119488128908094e-15 2.040674792691541e-23
3.4340518103208963 1.0050498227454974e-23 9.161442655216822e-16 9.161442448744697e-16 2.0647212903250383e-23
3.4469541582030403 8.524035280395816e-24 7.79920218907772e-16 7.799201977942594e-16 2.1113512521637372e-23
3.472904465399547 8.096055341468559e-24 7.463383153095062e-16 7.463382931221899e-16 2.21873166727078e-23
3.4990501388274233 7.441596971976998e-24 6.911713761132245e-16 6.911713528123841e-16 2.3300840250210903e-23
3.5253949054701885 5.1131306603982325e-24 4.784803382433557e-16 4.784803138418174e-16 2.440153828966419e-23
3.5519380250092896 2.925030373645774e-24 2.757815401949025e-16 2.757815146692123e-16 2.5525690181103458e-23
3.578680990867387 2.0574763842888636e-24 1.954462214084691e-16 1.9544619464105985e-16 2.6767409220253004e-23
3.605625307711299 1.706541326758052e-24 1.633303287933704e-16 1.6333030070256342e-16 2.809080696916296e-23
3.660119384959845 1.450444778053326e-24 1.4091780935237848e-16 1.409177784205914e-16 3.093178705929631e-23
3.715437065384467 1.2691256713073105e-24 1.2516530768328054e-16 1.251652736673683e-16 3.401591225323887e-23
3.8285932144167436 1.176904164739647e-24 1.1960511639577048e-16 1.196050754236789e-16 4.097209156660079e-23
3.94519561050918 1.1589831556883768e-24 1.213710470086675e-16 1.213709979251137e-16 4.908355385050289e-23
4.06534921144712 1.171564648067438e-24 1.2642517068549084e-16 1.2642511216988598e-16 5.851560485474847e-23
4.189162171576248 1.2018004261979006e-24 1.3363768996845926e-16 1.336376204827902e-16 6.948566905673704e-23
4.316745939156006 1.244896293996307e-24 1.426458352235636e-16 1.4264575301697113e-16 8.220659250330855e-23
4.448215356677963 1.2992341247211377e-24 1.5340610986142687e-16 1.534060130342439e-16 9.682718299001417e-23
4.58368876423945 1.3649926529743974e-24 1.660790561082113e-16 1.6607894242182723e-16 1.1368638405089892e-22
4.723288106065518 1.4436780163636973e-24 1.8100234995745496e-16 1.8100221670578276e-16 1.3325167221530752e-22
4.867139040275056 1.5383195788842582e-24 1.9874204467400348e-16 1.9874188900765334e-16 1.5566635019647317e-22
4.940699165968905 1.595441467762332e-24 2.092371133263068e-16 2.0923694517926024e-16 1.6814704649034015e-22
5.015371051989984 1.6545829120755524e-24 2.2027288338141934e-16 2.202727018346146e-16 1.8154680471932004e-22
5.091171501069577 1.7267984577366735e-24 2.333612874242989e-16 2.3336109129992657e-16 1.9612437237597028e-22
5.129500256944802 1.7638568544631075e-24 2.4016395455526544e-16 2.4016375074252446e-16 2.0381274101135283e-22
5.168117569889187 1.8024927201391278e-24 2.4727222534731555e-16 2.472720135333575e-16 2.1181395812115536e-22
5.20702561229733 1.8499519258760227e-24 2.5569344210822894e-16 2.556932217057173e-16 2.204025116621686e-22
5.246226572918644 1.8986200871356995e-24 2.643957971282071e-16 2.6439556781162893e-16 2.293165781403009e-22
5.265937586045735 1.9234195891283955e-24 2.6885565472701684e-16 2.6885542082749604e-16 2.338995208480815e-22
5.285722656980489 1.9485360167103318e-24 2.733897592903276e-16 2.7338952072181293e-16 2.3856851467559453e-22
5.305582063971359 1.9739744896647993e-24 2.7799949387840676e-16 2.779992505532233e-16 2.433251833760652e-22
5.3255160863122235 2.001311801772609e-24 2.829084311302194e-16 2.8290818294098585e-16 2.48189233467333e-22
5.365609099470188 2.0694607054679978e-24 2.947444576525129e-16 2.9474419931663733e-16 2.5833587570891427e-22
5.406003951863644 2.1402061360878765e-24 3.071152603351086e-16 3.0711499145958147e-16 2.6887552717071537e-22
5.446702915881641 2.2136738904681464e-24 3.200492130094393e-16 3.2004893318586864e-16 2.798235706742387e-22
5.487708281020852 2.2930744570469644e-24 3.3402471840671183e-16 3.3402442718435643e-16 2.9122235534661645e-22
5.529022354014368 2.403554990907805e-24 3.527539143775487e-16 3.5275361107775656e-16 3.0329979208765e-22
5.570647458961463 2.5205618710192813e-24 3.727112228619098e-16 3.7271090700285367e-16 3.15859055989735e-22
5.612585937458331 2.644565930614226e-24 3.9399148468983005e-16 3.9399115577007005e-16 3.2891976007500587e-22
5.654840148729818 2.7809057996587667e-24 4.1742268152631086e-16 4.1742233898465004e-16 3.4254166070668067e-22
5.67608639626678 2.8738286247055925e-24 4.3299142593548624e-16 4.329910762065708e-16 3.4972891541266217e-22
5.686739436050992 2.921728882573765e-24 4.4103461453115773e-16 4.4103426115352203e-16 3.5337763589663236e-22
5.6974124697621304 2.970619023237885e-24 4.492561724164413e-16 4.49255815352842e-16 3.5706359945686734e-22
5.718818669136295 3.0714644494869255e-24 4.662525846117429e-16 4.662522200629185e-16 3.6454882436519334e-22
5.740305295436557 3.1826485901142634e-24 4.849456999483136e-16 4.849453277165953e-16 3.7223171833408255e-22
5.7835210386641895 3.471214904449393e-24 5.328969746323586e-16 5.328965862026632e-16 3.8842969545513756e-22
5.827062130521658 3.803717370768739e-24 5.883385715034346e-16 5.883381660728708e-16 4.0543056368721623e-22
5.8489554468988025 4.037066092542091e-24 6.267778001321004e-16 6.267773854709358e-16 4.146611647092662e-22
5.870931020387893 4.287501522415331e-24 6.681603467638877e-16 6.68159922658093e-16 4.241057947776123e-22
5.892989160043636 4.556399880929689e-24 7.127330652107852e-16 7.127326314410366e-16 4.337697483394037e-22
5.915130176081913 4.862256151706692e-24 7.634341346868739e-16 7.634336908353812e-16 4.438514928299864e-22
5.95966208400165 5.717639323089821e-24 9.04498445338753e-16 9.044979788567916e-16 4.664819611191513e-22
6.004529249263818 6.950814537234886e-24 1.107858000900432e-15 1.1078575086076119e-15 4.922928195012861e-22
6.027089341400364 7.808142137194071e-24 1.249179282091325e-15 1.2491787748926433e-15 5.071986817947534e-22
6.049734195844842 8.8213553926639e-24 1.4165798043250528e-15 1.4165792811661636e-15 5.231588892522371e-22
6.095279466722835 1.1748378038739452e-23 1.9008198933822396e-15 1.9008193312527842e-15 5.621294551390088e-22
6.141167624020661 1.6253361001856407e-23 2.64949781845069e-15 2.6494972056602883e-15 6.127904017294464e-22
6.164241091010745 1.913026779423264e-23 3.130185668778545e-15 3.1301850244985142e-15 6.442800301117155e-22
6.187401249150058 2.2407624616560788e-23 3.680217906252001e-15 3.680217228629548e-15 6.776224534552538e-22
6.1990139391386085 2.4007866442560983e-23 3.9504412946986245e-15 3.950440599977586e-15 6.947210371368819e-22
6.204828454712694 2.4850827419035814e-23 4.092984174166676e-15 4.092983470699733e-15 7.034669425509685e-22
6.210648424152782 2.546614380642417e-23 4.198262264782312e-15 4.1982615537159705e-15 7.1106634356195755e-22
6.233982942956859 2.755657817015018e-23 4.559952627661485e-15 4.5599518890483726e-15 7.386131103150815e-22
6.239830258556775 2.782375342475544e-23 4.608482310092352e-15 4.608481567003044e-15 7.430893080065081e-22
6.245683058788269 2.784682715881262e-23 4.616630263400613e-15 4.61662951580735e-15 7.475932648140649e-22
6.257405133728602 2.7789180893294983e-23 4.615719971827072e-15 4.615719215956417e-15 7.558706559873766e-22
6.269149208991335 2.7377754362845505e-23 4.555917614662802e-15 4.555916853966953e-15 7.606958486962671e-22
6.280915325867298 2.6346330044666456e-23 4.392507378482986e-15 4.392506617273187e-15 7.612097995993738e-22
6.304513850009849 2.3802924935152878e-23 3.9833765577678765e-15 3.983375799484321e-15 7.582835546854371e-22
6.32820103803542 2.0650449570898134e-23 3.468799609185594e-15 3.468798858318124e-15 7.508674696997023e-22
6.3519772230701035 1.7759412523326927e-23 2.9943803249250853e-15 2.994379580319958e-15 7.446051274463395e-22
6.375842739491607 1.5327275166566653e-23 2.5940120185433586e-15 2.59401127871033e-15 7.398330288227171e-22
6.399797922933955 1.337789734743871e-23 2.272602883230684e-15 2.272602143403578e-15 7.398271061645106e-22
6.42384311029221 1.1757192583679965e-23 2.0047858607670907e-15 2.004785119774458e-15 7.409926326793723e-22
6.447978639727206 1.0576054611316275e-23 1.810158933050018e-15 1.8101581868431965e-15 7.462068213146413e-22
6.472204850670314 9.592110013323826e-24 1.6479189154152747e-15 1.647918163026784e-15 7.523884909973777e-22
6.496522083828205 8.952518134910494e-24 1.5438160851693834e-15 1.5438153231374656e-15 7.620319176324975e-22
6.520930681187647 8.413708796954458e-24 1.4563524589376123e-15 1.4563516865539789e-15 7.72383633333899e-22
