Dust emission spectrum from A.P. Jones, M. Kohler, N. Ysard, M. Bocchio, and L. Verstraete (2017), A&A, 602A, 46J 
inside the DustPedia framework.

lambda    nu*dP/dnu     j_nu    j_nu(carb.) j_nu(sil)
 (um)   (erg s-1 H-1) (Jy cm2 sr-1 H-1)
0.9927057738263894 1.8011523310939314e-23 4.746138695842558e-16 4.746138695841117e-16 1.441406055131484e-28
1.0001793341362166 1.830901962521094e-23 4.860852021478934e-16 4.860852021477197e-16 1.7365277051748954e-28
1.0077091589558085 1.860608968676335e-23 4.976909560957663e-16 4.976909560955572e-16 2.089398756127916e-28
1.0114953028030835 1.8754428284360823e-23 5.035436607708309e-16 5.035436607706018e-16 2.2907730087060534e-28
1.0152956718711033 1.8902616528664008e-23 5.0942926711256705e-16 5.09429267112316e-16 2.5107478303918205e-28
1.0229392996569957 1.9198338631219464e-23 5.21294262028913e-16 5.212942620286116e-16 3.013220728909203e-28
1.0267826658714554 1.9345513769737613e-23 5.272641327589857e-16 5.272641327586556e-16 3.299514024216954e-28
1.0306404723013447 1.949247348126522e-23 5.332656108941247e-16 5.332656108937635e-16 3.611843091645071e-28
1.03451277320114 1.9639203583389517e-23 5.392984380742104e-16 5.392984380738152e-16 3.9524605833495153e-28
1.0383996230291617 1.9785689972467025e-23 5.453623527129972e-16 5.453623527125649e-16 4.323803319530183e-28
1.0403485208654093 1.9858837389429739e-23 5.484058852167847e-16 5.484058852163326e-16 4.521811971345762e-28
1.0423010764483396 1.9931918626327497e-23 5.514570900599971e-16 5.514570900595241e-16 4.728506399164303e-28
1.0462171883269815 2.0077875606918456e-23 5.575823822624435e-16 5.575823822619267e-16 5.169418313263399e-28
1.0471985131304309 2.0114320777971305e-23 5.591184478298575e-16 5.591184478293288e-16 5.285659346046461e-28
1.048180758391296 2.015074788773466e-23 5.60656401897451e-16 5.606564018969105e-16 5.404405045081389e-28
1.0501480137395462 2.0223547062889535e-23 5.637379584273038e-16 5.637379584267388e-16 5.649617125742378e-28
1.0521189612883777 2.0296271414925733e-23 5.668270175255115e-16 5.668270175249207e-16 5.9054780249111645e-28
1.0531058218030118 2.0332549145305336e-23 5.683727884878517e-16 5.683727884872479e-16 6.0375471398650155e-28
1.0540936079674168 2.0368624540307182e-23 5.699152991893445e-16 5.699152991887273e-16 6.172473651934272e-28
1.058054026499678 2.0512720830469962e-23 5.761035439306365e-16 5.761035439299624e-16 6.741653886803677e-28
1.0590464539527713 2.0548692526694362e-23 5.776551335566951e-16 5.776551335560061e-16 6.891620435899191e-28
1.06003981227728 2.0584642852195102e-23 5.792085257044235e-16 5.79208525703719e-16 7.044780862471184e-28
1.0620293250338977 2.0656478553738654e-23 5.823206997710955e-16 5.823206997703595e-16 7.360943597527022e-28
1.0660195594769086 2.0799884320022312e-23 5.885664818488489e-16 5.885664818480456e-16 8.034529116387477e-28
1.070024785945596 2.0942924840537003e-23 5.948406026488853e-16 5.948406026480086e-16 8.76692631943956e-28
1.0740450607676866 2.108558692999065e-23 6.011427720653087e-16 6.011427720643523e-16 9.563004856162951e-28
1.07808044048254 2.1227857508707984e-23 6.07472697463482e-16 6.074726974624393e-16 1.0428014023930248e-27
1.0861967418109137 2.1510920861995995e-23 6.202073822770164e-16 6.202073822757776e-16 1.2387888941252799e-27
1.0902777775684922 2.165111612466755e-23 6.265949387870352e-16 6.265949387856857e-16 1.349541384035222e-27
1.0943741465085532 2.1790858657788365e-23 6.330085871288827e-16 6.330085871274132e-16 1.4697244876117126e-27
1.1026131145906286 2.2068935857825392e-23 6.459129311442295e-16 6.459129311424881e-16 1.7414803848025862e-27
1.1109141095355224 2.2345054308611384e-23 6.58917937387932e-16 6.589179373858712e-16 2.0608524070686847e-27
1.1192775983109025 2.2618861372985835e-23 6.720134783274321e-16 6.720134783249962e-16 2.4356935117101604e-27
1.1277040513999907 2.2889084900658662e-23 6.851615825157233e-16 6.85161582512848e-16 2.8750660791822503e-27
1.1361939428280308 2.3157030602615878e-23 6.984008709786357e-16 6.984008709752462e-16 3.389412712257719e-27
1.1447477501889525 2.342260911950676e-23 7.117287389678423e-16 7.117287389638516e-16 3.990751821661917e-27
1.1533659546722406 2.3685877958041987e-23 7.251469888976552e-16 7.251469888929623e-16 4.6929034900129244e-27
1.1707974979042381 2.420633727967509e-23 7.52281356391184e-16 7.522813563847186e-16 6.46547464276118e-27
1.1884924949847024 2.471643663094523e-23 7.79743450127867e-16 7.797434501190032e-16 8.863679631203325e-27
1.2064549276569216 2.522016630813022e-23 8.076598253848348e-16 8.076598253727423e-16 1.209238996201791e-26
1.2246888378427687 2.5712022919951724e-23 8.358559516771601e-16 8.358559516607423e-16 1.6417568795687208e-26
1.2431983285522175 2.619085549327599e-23 8.642900931808742e-16 8.642900931586907e-16 2.2183313481902864e-26
1.2619875648066055 2.6656484847084276e-23 8.929505058766595e-16 8.929505058468271e-16 2.9832532406505e-26
1.3004222497298317 2.754039151813139e-23 9.506571841101153e-16 9.506571840569113e-16 5.320387156467816e-26
1.3400274889804893 2.83602828723742e-23 1.0087735785057935e-15 1.0087735784126253e-15 9.316816599575049e-26
1.3808389325824078 2.9113117495812264e-23 1.067090293787655e-15 1.067090293627381e-15 1.6027386473066836e-25
1.4228933163050095 2.980256029070172e-23 1.1256291923192894e-15 1.1256291920483066e-15 2.709824725351105e-25
1.466228494730424 3.044520902369388e-23 1.1849227790662956e-15 1.1849227786157704e-15 4.505250710538983e-25
1.5108834753276823 3.1028564306839566e-23 1.2444059689161043e-15 1.2444059681792406e-15 7.3686342607590845e-25
1.5568984535646726 3.1542512576092435e-23 1.3035449311207585e-15 1.303544929933909e-15 1.1868491438350088e-24
1.6043148490894465 3.198799244424005e-23 1.3622161380985604e-15 1.3622161362125825e-15 1.8859777447180775e-24
1.6531753430134553 3.236635826471235e-23 1.420306875087501e-15 1.4203068721341304e-15 2.953370572979259e-24
1.7035239163302658 3.2682107530494213e-23 1.4778410397262619e-15 1.4778410351675089e-15 4.558752957403751e-24
1.755405889504358 3.2961230308689564e-23 1.5358556437230971e-15 1.535855636783407e-15 6.93968977434095e-24
1.8088679632656115 3.319730799956079e-23 1.5939664200438796e-15 1.5939664096217587e-15 1.042212081931496e-23
1.8639582606462262 3.338599307226563e-23 1.6518473654295431e-15 1.6518473499816638e-15 1.5447880034542175e-23
1.9207263702978936 3.353043667832745e-23 1.7095198245097583e-15 1.7095198019026462e-15 2.2607111907310713e-23
1.979223391128241 3.363797500798117e-23 1.767234135055594e-15 1.7672341023776198e-15 3.267797390928245e-23
2.039501978296691 3.371738788951268e-23 1.825355615048913e-15 1.825355568376799e-15 4.667211367014752e-23
2.1016163906111602 3.379326851864951e-23 1.8851811089612475e-15 1.8851810430688727e-15 6.589237525707664e-23
2.1656225393682647 3.387987660923685e-23 1.947574214078327e-15 1.947574122088066e-15 9.199026070724684e-23
2.231578038680979 3.3978231996040233e-23 2.012715027331222e-15 2.0127149002980713e-15 1.270331509560272e-22
2.299542257339062 3.4096872037238136e-23 2.081255351400551e-15 2.0812551778210466e-15 1.735795049682366e-22
2.369576372248914 3.4254676001660284e-23 2.154567020283407e-15 2.154566785519285e-15 2.347641221107889e-22
2.4417434235010123 3.447393685451614e-23 2.2343970099779588e-15 2.2343966955990787e-15 3.1437887942551286e-22
2.5161083711144245 3.479283389753695e-23 2.3237455945596467e-15 2.3237451775849414e-15 4.1697470569982954e-22
2.5927381535095444 3.5273846793443366e-23 2.427621169160085e-15 2.4276206212062086e-15 5.4795387610856e-22
2.6717017477616296 3.599157058700883e-23 2.552455658754825e-15 2.5524549451223927e-15 7.136324329633662e-22
2.753070231689431 3.705831551951749e-23 2.708148021215477e-15 2.7081470998856406e-15 9.213298356596692e-22
2.836916847834745 3.872853779925978e-23 2.916400338617137e-15 2.916399159128845e-15 1.1794882931432716e-21
2.9233170693905177 4.1562666659671355e-23 3.225141395687951e-15 3.22513989817838e-15 1.497509572587345e-21
2.967498994190263 4.3969502378977805e-23 3.463471067291845e-15 3.463469387632016e-15 1.6796598282763431e-21
3.0123486681368425 4.678040218980271e-23 3.740577203263946e-15 3.7405753217751995e-15 1.8814887474579924e-21
3.0578761833420214 5.306990440756657e-23 4.307622480626406e-15 4.307620375259378e-15 2.1053670267657318e-21
3.1040917844459814 6.117466668663679e-23 5.0405229813682125e-15 5.040520629770786e-15 2.351597427882073e-21
3.127460860933648 6.9748442603218e-23 5.790230213974459e-15 5.790227729498131e-15 2.484476328248981e-21
3.1510058709225794 8.117186338084747e-23 6.789286896413525e-15 6.7892842726595686e-15 2.6237539557263623e-21
3.162844764501044 9.180529863244365e-23 7.707527049387402e-15 7.707524353255386e-15 2.6961320174339818e-21
3.1747281389236908 1.0417115788864906e-22 8.778563720408355e-15 8.778560950216579e-15 2.7701917766118788e-21
3.1986289994194426 1.3866323749613803e-22 1.1773203184339468e-14 1.1773200260490021e-14 2.9238494471107928e-21
3.2227097969389145 2.199695268869858e-22 1.881711993953053e-14 1.881711685200175e-14 3.087528778852968e-21
3.2348180950136065 2.9707341586531242e-22 2.5508392259656365e-14 2.5508389084533306e-14 3.175123060143449e-21
3.240889293275058 3.5471856412287496e-22 3.051529318222452e-14 3.051528996087411e-14 3.2213504151578017e-21
3.2469718861334385 4.2140507967720426e-22 3.632015788197393e-14 3.632015461277357e-14 3.269200358727937e-21
3.2714166318528037 7.771226335038739e-22 6.74830725691472e-14 6.748306910148066e-14 3.467666525610019e-21
3.2744851364798273 7.993595170970641e-22 6.947916756116422e-14 6.947916406993395e-14 3.491230286982823e-21
3.2775565192852394 8.222351040659669e-22 7.153451499437299e-14 7.153451147944275e-14 3.514930241512876e-21
3.283707930232385 8.002353822144914e-22 6.975120336040924e-14 6.975119980277126e-14 3.557637983934063e-21
3.2898708863219004 7.304683858862146e-22 6.378957546641576e-14 6.378957186960953e-14 3.596806247550034e-21
3.29141343181113 7.140155967738209e-22 6.238203939971706e-14 6.238203579306608e-14 3.606651001880516e-21
3.292184975758714 7.059312803864772e-22 6.169018717529641e-14 6.169018356371512e-14 3.611581302492518e-21
3.295272960557952 6.549023122722932e-22 5.728452965749366e-14 5.728452602667971e-14 3.630813954650343e-21
3.3076538914384823 4.78122627980504e-22 4.197868115502708e-14 4.197867744678875e-14 3.708238340246751e-21
3.310756385682612 4.421435184317018e-22 3.885616380547723e-14 3.8856160077685294e-14 3.7277919318431515e-21
3.313861789986515 4.089472126781807e-22 3.597253774889641e-14 3.59725340014715e-14 3.747424913403617e-21
3.3200813396944477 3.623930266859826e-22 3.1937284644805113e-14 3.193728085527872e-14 3.78952640145276e-21
3.345076488085796 2.7934422647767043e-22 2.4803626644389783e-14 2.480362266745357e-14 3.976936205284532e-21
3.3482140837626964 2.8245826303955296e-22 2.5103653743545886e-14 2.5103649741217096e-14 4.002328787994942e-21
3.3513546224236106 2.856067281258558e-22 2.5407284582555918e-14 2.5407280554699432e-14 4.0278564820758056e-21
3.3576445397418455 3.0861715931092567e-22 2.750579613063501e-14 2.750579204944171e-14 4.081193291809544e-21
3.3702598118196083 3.934898957512362e-22 3.520192388611842e-14 3.520191969295349e-14 4.1931649260437396e-21
3.382922481734668 4.1281980153222623e-22 3.7069949977633745e-14 3.706994567501233e-14 4.302621412180343e-21
3.389271646505754 4.228340285975046e-22 3.804045846840917e-14 3.8040454110166977e-14 4.358242200091129e-21
3.395632727569191 4.336248086659375e-22 3.908447340650232e-14 3.9084468990923e-14 4.41557932528611e-21
3.421196662673239 4.854379628967056e-22 4.408402189184691e-14 4.408401723808937e-14 4.65375756243547e-21
3.4276182099114902 4.749955564489815e-22 4.3216682086210306e-14 4.321667737859703e-14 4.7076132876433855e-21
3.4340518103208963 4.292387500112606e-22 3.912687813707424e-14 3.912687337819014e-14 4.758884102073504e-21
3.4469541582030403 3.640726186103901e-22 3.3311405580169783e-14 3.331140072218223e-14 4.857987551217956e-21
3.472904465399547 3.45808271538829e-22 3.1878483028448086e-14 3.187847794287799e-14 5.085570091931422e-21
3.4990501388274233 3.1787435010506874e-22 2.952399233935514e-14 2.952398701911498e-14 5.320240158165747e-21
3.5253949054701885 2.1846666302789273e-22 2.0443835638720392e-14 2.0443830087857958e-14 5.550862434513372e-21
3.5519380250092896 1.2503542550328322e-22 1.1788753557878892e-14 1.178874777296124e-14 5.784917652914109e-21
3.578680990867387 8.798829665481522e-23 8.358287969023255e-15 8.358281926898198e-15 6.0421250571198195e-21
3.605625307711299 7.300217637201227e-23 6.986921021200003e-15 6.986914706575912e-15 6.3146240911870565e-21
3.660119384959845 6.206645866325179e-23 6.0300602418135194e-15 6.030053347916574e-15 6.893896944639891e-21
3.715437065384467 5.432033123240743e-23 5.357248006147731e-15 5.357240491586696e-15 7.514561033929348e-21
3.8285932144167436 5.037911724269841e-23 5.119873276225584e-15 5.119864391798318e-15 8.884427265943429e-21
3.94519561050918 4.961041302345304e-23 5.195302228195547e-15 5.195291793802281e-15 1.043439326594094e-20
4.06534921144712 5.014389513635141e-23 5.411097468591135e-15 5.41108528942296e-15 1.2179168174400115e-20
4.189162171576248 5.143092794646136e-23 5.7190114547085155e-15 5.718997314807521e-15 1.4139900996367218e-20
4.316745939156006 5.326683244899829e-23 6.103554039838373e-15 6.103537708592019e-15 1.6331246355067162e-20
4.448215356677963 5.558258088421425e-23 6.562872193135746e-15 6.562853443287016e-15 1.8749848730287627e-20
4.58368876423945 5.838592020621701e-23 7.1038320219000746e-15 7.103810598625241e-15 2.142327483485636e-20
4.723288106065518 6.174134520337446e-23 7.740873272762977e-15 7.740848878350972e-15 2.439441200495801e-20
4.867139040275056 6.577849113756916e-23 8.498202846597788e-15 8.498175211710861e-15 2.7634886925706595e-20
4.940699165968905 6.821609862771817e-23 8.94632604683724e-15 8.946296672507227e-15 2.937433001426896e-20
5.015371051989984 7.073977339596109e-23 9.417511653211758e-15 9.417480458250573e-15 3.1194961186101353e-20
5.091171501069577 7.38227155592819e-23 9.97647633218984e-15 9.976443200645653e-15 3.3131544189903305e-20
5.129500256944802 7.540470535689878e-23 1.0266985206177452e-14 1.0266951073304104e-14 3.413287334769538e-20
5.168117569889187 7.705410491821659e-23 1.0570550317563721e-14 1.0570515154545825e-14 3.5163017894511105e-20
5.20702561229733 7.908109053682064e-23 1.0930292815829242e-14 1.0930256544083362e-14 3.62717458814657e-20
5.246226572918644 8.115968039489402e-23 1.1302039064092574e-14 1.1302001656563346e-14 3.7407529228351875e-20
5.265937586045735 8.221884199626571e-23 1.1492552493873747e-14 1.1492514508148458e-14 3.7985725291116e-20
5.285722656980489 8.329153177373558e-23 1.1686236039397458e-14 1.1686197468520417e-14 3.857087703949693e-20
5.305582063971359 8.437796834529638e-23 1.1883148752577777e-14 1.188310958952777e-14 3.9163050006507945e-20
5.3255160863122235 8.554564922977996e-23 1.2092860988566194e-14 1.2092821223245428e-14 3.976532076575641e-20
5.365609099470188 8.845766350021529e-23 1.2598647553292545e-14 1.2598606538215404e-14 4.101507713576162e-20
5.406003951863644 9.148061915805965e-23 1.3127284187540915e-14 1.3127241891622592e-14 4.229591831890115e-20
5.446702915881641 9.461989159351239e-23 1.3679983293807502e-14 1.3679939685329025e-14 4.360847847713964e-20
5.487708281020852 9.801289039739163e-23 1.4277219832354586e-14 1.427717487513012e-14 4.495722446945086e-20
5.529022354014368 1.027359454160288e-22 1.5077877156908556e-14 1.5077830783917164e-14 4.637299139129909e-20
5.570647458961463 1.077380319319932e-22 1.5931040650817448e-14 1.5930992825850157e-14 4.7824967294573515e-20
5.612585937458331 1.1303927866438786e-22 1.6840764948864618e-14 1.6840715634904212e-14 4.931396040418891e-20
5.654840148729818 1.1886814763912772e-22 1.7842481734432915e-14 1.784243088850474e-14 5.0845928173876434e-20
5.67608639626678 1.228418269155734e-22 1.8508221869403673e-14 1.8508170220530054e-14 5.164887361474484e-20
5.686739436050992 1.2489020372131815e-22 1.885216085088233e-14 1.885210879656348e-14 5.205431884543489e-20
5.6974124697621304 1.2698091610937572e-22 1.920372821118337e-14 1.9203675748749553e-14 5.246243382273272e-20
5.718818669136295 1.3129343135055013e-22 1.9930525883170902e-14 1.9930472596432926e-14 5.328673797738427e-20
5.740305295436557 1.3604828147752202e-22 2.0729913221589268e-14 2.0729859094801997e-14 5.412678726856756e-20
5.7835210386641895 1.4839055554914814e-22 2.2780749764238303e-14 2.278069388532527e-14 5.587891303783157e-20
5.827062130521658 1.626124216276803e-22 2.5152015915895533e-14 2.5151958224622305e-14 5.769127322313013e-20
5.8489554468988025 1.7259440815045475e-22 2.679627753815775e-14 2.6796218870633715e-14 5.866752402810323e-20
5.870931020387893 1.8330739848000546e-22 2.856645864554449e-14 2.856639898702433e-14 5.965852016329846e-20
5.892989160043636 1.9481026431214986e-22 3.047311922705768e-14 3.047305856256672e-14 6.066449095880196e-20
5.915130176081913 2.078943975140619e-22 3.264198234736915e-14 3.2641920638736966e-14 6.170863217473031e-20
5.95966208400165 2.4448888971415597e-22 3.86767699312568e-14 3.8676705883387955e-14 6.40478688398152e-20
6.004529249263818 2.9724816922922693e-22 4.7377003194305824e-14 4.737693651434251e-14 6.667996330649087e-20
6.027089341400364 3.3392851987850814e-22 5.3423283209026655e-14 5.34232150218858e-14 6.818714084254346e-20
6.049734195844842 3.772789532614562e-22 6.058544543297e-14 6.05853756450895e-14 6.97878805138218e-20
6.095279466722835 5.0251480901163585e-22 8.130400150036218e-14 8.130392783421436e-14 7.3666147811401e-20
6.141167624020661 6.9527014960932515e-22 1.1333758872478072e-13 1.133375100786786e-13 7.864610212305915e-20
6.164241091010745 8.183660083952697e-22 1.339049499383722e-13 1.3390486820639115e-13 8.17319811089561e-20
6.187401249150058 9.585986046705829e-22 1.57439791597077e-13 1.574397066492441e-13 8.494783283340604e-20
6.1990139391386085 1.0270706803903695e-21 1.6900220759290081e-13 1.690021210020066e-13 8.659089417031751e-20
6.204828454712694 1.063140009110788e-21 1.7510142253374926e-13 1.7510133510785844e-13 8.742589083353328e-20
6.210648424152782 1.0894687785672513e-21 1.796061349721723e-13 1.796060468226161e-13 8.814955612148781e-20
6.233982942956859 1.1789173369649654e-21 1.9508253801672125e-13 1.9508244727521523e-13 9.07415060413727e-20
6.239830258556775 1.1903500510108803e-21 1.9715913482831577e-13 1.9715904368079826e-13 9.114751751879625e-20
6.245683058788269 1.1913380340631846e-21 1.9750785935609643e-13 1.9750776780083005e-13 9.155526647353184e-20
6.257405133728602 1.1888727888387674e-21 1.9746907605790139e-13 1.974689837613294e-13 9.229657194307107e-20
6.269149208991335 1.1712696450209068e-21 1.9491036176847255e-13 1.949102690709405e-13 9.269753200630952e-20
6.280915325867298 1.1271374125975064e-21 1.8791837014890203e-13 1.8791827747388005e-13 9.267502192345269e-20
6.304513850009849 1.018309890453907e-21 1.7041232357905656e-13 1.704122313356073e-13 9.224344933934535e-20
6.32820103803542 8.834192087896069e-22 1.4839406743546058e-13 1.4839397604628415e-13 9.138917638837655e-20
6.3519772230701035 7.597139856521123e-22 1.2809391122702207e-13 1.280938205697801e-13 9.065724196380642e-20
6.375842739491607 6.556447300419302e-22 1.109623394335104e-13 1.1096224937135875e-13 9.006215162367141e-20
6.399797922933955 5.722303816659556e-22 9.72090293019946e-14 9.720893935281296e-14 8.994918161206225e-20
6.42384311029221 5.028800213104133e-22 8.574893616906436e-14 8.574884622856251e-14 8.994050187620269e-20
6.447978639727206 4.523374138361644e-22 7.742042193429721e-14 7.742033161106001e-14 9.032323721387536e-20
6.472204850670314 4.1023275945760916e-22 7.047774922245108e-14 7.047765843150977e-14 9.079094131635957e-20
6.496522083828205 3.8286203568974886e-22 6.60226050583072e-14 6.602251347326815e-14 9.158503906782878e-20
6.520930681187647 3.598038242000568e-22 6.227945330109165e-14 6.22793608632399e-14 9.243785176170092e-20
