Dust emission spectrum from A.P. Jones, M. Kohler, N. Ysard, M. Bocchio, and L. Verstraete (2017), A&A, 602A, 46J 
inside the DustPedia framework.

lambda    nu*dP/dnu     j_nu    j_nu(carb.) j_nu(sil)
 (um)   (erg s-1 H-1) (Jy cm2 sr-1 H-1)
0.9927057738263894 5.2773254277859326e-24 1.3906052248316185e-16 1.3906052247308275e-16 1.0079069800616804e-26
1.0001793341362166 5.364413041098207e-24 1.4241952058953983e-16 1.4241952057740057e-16 1.2139202802484224e-26
1.0077091589558085 5.451376875549386e-24 1.458179023591757e-16 1.4581790234457424e-16 1.4601480641751646e-26
1.0114953028030835 5.494801712137807e-24 1.475316937092119e-16 1.4753169369320568e-16 1.6006212635087125e-26
1.0152956718711033 5.538182842154895e-24 1.4925512677761357e-16 1.4925512676007327e-16 1.754037625051955e-26
1.0229392996569957 5.624754499165793e-24 1.527294784231125e-16 1.5272947840206892e-16 2.104362332998126e-26
1.0267826658714554 5.667839964730071e-24 1.5447760959933677e-16 1.5447760957629774e-16 2.3039032681824067e-26
1.0306404723013447 5.7108627537941206e-24 1.562350061967022e-16 1.5623500617148683e-16 2.5215425844356805e-26
1.03451277320114 5.753818735126466e-24 1.5800159327439913e-16 1.5800159324681069e-16 2.758840964936887e-26
1.0383996230291617 5.796703800794074e-24 1.5977729496320693e-16 1.5977729493303214e-16 3.0174861650104356e-26
1.0403485208654093 5.8181184630906665e-24 1.6066853982830159e-16 1.6066853979674774e-16 3.15537836229495e-26
1.0423010764483396 5.83951386695522e-24 1.6156203448385557e-16 1.6156203445086254e-16 3.2993026991443756e-26
1.0462171883269815 5.8822448746350294e-24 1.633557341654153e-16 1.6335573412935272e-16 3.6062622119094406e-26
1.0471985131304309 5.892914800435371e-24 1.6380554992547604e-16 1.6380554988860427e-16 3.6871766321244603e-26
1.048180758391296 5.9035794701012375e-24 1.6425591955508884e-16 1.6425591951739058e-16 3.769829670778564e-26
1.0501480137395462 5.924892790483574e-24 1.6515831546370828e-16 1.6515831542430332e-16 3.940494576820886e-26
1.0521189612883777 5.94618433573872e-24 1.660629119398296e-16 1.6606291189864408e-16 4.118549835326572e-26
1.0531058218030118 5.9568054318419405e-24 1.6651557508013298e-16 1.6651557503802852e-16 4.2104494818500066e-26
1.0540936079674168 5.967367313303274e-24 1.669672844626288e-16 1.6696728441958546e-16 4.304332065318553e-26
1.058054026499678 6.009555083454321e-24 1.6877946176119659e-16 1.6877946171419344e-16 4.700310671015977e-26
1.0590464539527713 6.020086780299285e-24 1.6923383463833958e-16 1.6923383459029332e-16 4.8046268146646077e-26
1.06003981227728 6.0306122565565445e-24 1.6968873636992242e-16 1.6968873632081083e-16 4.91115814961716e-26
1.0620293250338977 6.051644303604184e-24 1.7060012123909363e-16 1.7060012118778319e-16 5.13104624867984e-26
1.0660195594769086 6.093631076411446e-24 1.724291803332708e-16 1.7242918027727652e-16 5.599431845908977e-26
1.070024785945596 6.135511534442025e-24 1.7426655572207545e-16 1.7426655566098963e-16 6.10858722629793e-26
1.0740450607676866 6.177281840811082e-24 1.7611216334377427e-16 1.7611216327715556e-16 6.661875446843352e-26
1.07808044048254 6.21893818980747e-24 1.7796591841504888e-16 1.7796591834241959e-16 7.262920552915313e-26
1.0861967418109137 6.301820301939535e-24 1.8169540477233725e-16 1.816954046860953e-16 8.624198204116567e-26
1.0902777775684922 6.3428711355667465e-24 1.8356610015113136e-16 1.835661000571997e-16 9.393162954646026e-26
1.0943741465085532 6.383790188626929e-24 1.8544445959157498e-16 1.8544445948930104e-16 1.0227388212649391e-25
1.1026131145906286 6.465218508877699e-24 1.8922381507019366e-16 1.8922381494906392e-16 1.2112969305256788e-25
1.1109141095355224 6.546076728839516e-24 1.9303275420940893e-16 1.930327540661314e-16 1.4327754497020033e-25
1.1192775983109025 6.626261793235432e-24 1.9686831987478126e-16 1.9686831970552324e-16 1.6925801041933732e-25
1.1277040513999907 6.705401377422955e-24 2.0071940136960282e-16 2.0071940116990838e-16 1.9969446772530567e-25
1.1361939428280308 6.783878087015837e-24 2.045973184510772e-16 2.0459731821577245e-16 2.353047405761478e-25
1.1447477501889525 6.86166598065932e-24 2.085013181373555e-16 2.085013178604411e-16 2.769143700032985e-25
1.1533659546722406 6.938782085056262e-24 2.1243193706008124e-16 2.1243193673460934e-16 3.254719603578868e-25
1.1707974979042381 7.091248596948138e-24 2.2038088833449605e-16 2.203808878865508e-16 4.479453025119543e-25
1.1884924949847024 7.240702576841913e-24 2.284265524565033e-16 2.2842655184305357e-16 6.134496821266556e-25
1.2064549276569216 7.388313981979137e-24 2.3660606784539494e-16 2.3660606700939624e-16 8.359987305209975e-25
1.2246888378427687 7.532473858771251e-24 2.4486844638042943e-16 2.448684452466729e-16 1.1337564652507794e-24
1.2431983285522175 7.672846950931285e-24 2.532015652518688e-16 2.5320156372168346e-16 1.5301853613260182e-24
1.2619875648066055 7.809383551781867e-24 2.616021217032764e-16 2.616021196478394e-16 2.0554369776444338e-24
1.3004222497298317 8.068689821595806e-24 2.7852029409989534e-16 2.7852029044293463e-16 3.656960776952358e-24
1.3400274889804893 8.309399844601113e-24 2.955648592856232e-16 2.955648528975556e-16 6.3880675919624846e-24
1.3808389325824078 8.53064539454471e-24 3.126758548469577e-16 3.1267584388589785e-16 1.096105991204405e-23
1.4228933163050095 8.73352287759057e-24 3.298612000751979e-16 3.2986118159177106e-16 1.8483426874245506e-23
1.466228494730424 8.922916366850573e-24 3.4727851106413295e-16 3.472784804180226e-16 3.064611035113055e-23
1.5108834753276823 9.0951947221466e-24 3.6476436643246973e-16 3.647643164495166e-16 4.9982953072651946e-23
1.5568984535646726 9.247426165004586e-24 3.8216472052520724e-16 3.821646402512958e-16 8.027391144377015e-23
1.6043148490894465 9.3799155802322e-24 3.9944589832161265e-16 3.994457711381773e-16 1.2718343532259402e-22
1.6531753430134553 9.493091575996393e-24 4.165777045705808e-16 4.1657750601110764e-16 1.9855947301159976e-22
1.7035239163302658 9.588301912586073e-24 4.3357014398426195e-16 4.3356983845069675e-16 3.055335651051623e-22
1.755405889504358 9.673188658643961e-24 4.507301837656204e-16 4.507297201551349e-16 4.636104855041136e-22
1.8088679632656115 9.745905627345227e-24 4.679489765588974e-16 4.67948282609085e-16 6.93949812517077e-22
1.8639582606462262 9.805208961279814e-24 4.851348454759946e-16 4.851338203991897e-16 1.0250768048248622e-21
1.9207263702978936 9.85205011014216e-24 5.022981101298227e-16 5.022966152618723e-16 1.4948679505681256e-21
1.979223391128241 9.888604499530705e-24 5.195163922765461e-16 5.195142393180335e-16 2.1529585125724253e-21
2.039501978296691 9.917464996051215e-24 5.3690103387943e-16 5.36897970429183e-16 3.0634502468181614e-21
2.1016163906111602 9.94585730374001e-24 5.548366027715692e-16 5.548322944439231e-16 4.308327646266688e-21
2.1656225393682647 9.977975736959296e-24 5.735808449993893e-16 5.7357485426527525e-16 5.990734114186871e-21
2.231578038680979 1.0014124613706606e-23 5.93190931709562e-16 5.931826929610157e-16 8.238748546233834e-21
2.299542257339062 1.0056810986623753e-23 6.138625168043406e-16 6.1385130729499e-16 1.120950935051867e-20
2.369576372248914 1.0111559872771383e-23 6.360017366516138e-16 6.359866428662609e-16 1.509378535303886e-20
2.4417434235010123 1.0184890537974576e-23 6.601244604305174e-16 6.601043404098095e-16 2.012002070795387e-20
2.5161083711144245 1.0287966676348473e-23 6.871132518709148e-16 6.87086692399828e-16 2.6559471087062404e-20
2.5927381535095444 1.0439051352219833e-23 7.18437719509192e-16 7.184029891227545e-16 3.473038643755541e-20
2.6717017477616296 1.065991209639929e-23 7.559812619598339e-16 7.559362619574446e-16 4.50000023893941e-20
2.753070231689431 1.0983311976479932e-23 8.026386029292369e-16 8.025808150871055e-16 5.778784213145373e-20
2.836916847834745 1.1483530968249118e-23 8.647518214581863e-16 8.646782509482198e-16 7.35705099667515e-20
2.9233170693905177 1.2324167509979781e-23 9.563193605764318e-16 9.562264934139234e-16 9.286716250845739e-20
2.967498994190263 1.3033668228922586e-23 1.026660079581364e-15 1.0265562416355608e-15 1.0383794580334559e-19
3.0123486681368425 1.3861243993859154e-23 1.1083498829689632e-15 1.1082339328305317e-15 1.1595013843182236e-19
3.0578761833420214 1.570472663435491e-23 1.2747344141172811e-15 1.2746050753191926e-15 1.293387980883123e-19
3.1040917844459814 1.8078035109657393e-23 1.4895504358851649e-15 1.4894064353438936e-15 1.4400054127101488e-19
3.127460860933648 2.0584911757150598e-23 1.7088751169155467e-15 1.7087232295548682e-15 1.518873606784052e-19
3.1510058709225794 2.3923605777169142e-23 2.0009916792943973e-15 2.00083154413831e-15 1.6013515608783855e-19
3.162844764501044 2.7030224227655496e-23 2.269326362302538e-15 2.2691619485070626e-15 1.644137954747211e-19
3.1747281389236908 3.064229653380888e-23 2.582244050212292e-15 2.5820752634863384e-15 1.687867259539908e-19
3.1986289994194426 4.0715227307213537e-23 3.4569266695344705e-15 3.4567488259900905e-15 1.7784354438038587e-19
3.2227097969389145 6.44550955139844e-23 5.513760383835684e-15 5.513572914947322e-15 1.874688883607414e-19
3.2348180950136065 8.69659419239046e-23 7.467384294093878e-15 7.467191681159107e-15 1.926129347710475e-19
3.240889293275058 1.0379547167059782e-22 8.929189417665769e-15 8.928994091161908e-15 1.9532650386207988e-19
3.2469718861334385 1.2326487638788728e-22 1.0623981502879468e-14 1.0623783368414022e-14 1.9813446544565927e-19
3.2714166318528037 2.271073289906265e-22 1.9721340883045115e-14 1.9721131121275015e-14 2.0976177010057427e-19
3.2744851364798273 2.335989994027306e-22 2.0304085551597715e-14 2.030387441310641e-14 2.111384913028288e-19
3.2775565192852394 2.402770455897174e-22 2.090412077463711e-14 2.0903908251926515e-14 2.1252271058950901e-19
3.283707930232385 2.3385575556802656e-22 2.038365301780103e-14 2.0383438006668535e-14 2.1501113250002656e-19
3.2898708863219004 2.1349028577612848e-22 1.8643455293880947e-14 1.8643238006137033e-14 2.172877439130826e-19
3.29141343181113 2.0868753722132738e-22 1.8232590755709498e-14 1.823237289597032e-14 2.178597391828953e-19
3.292184975758714 2.063276272901742e-22 1.8030635984847155e-14 1.8030417838683108e-14 2.1814616404740964e-19
3.295272960557952 1.914326125681709e-22 1.6744676215944422e-14 1.674445695338257e-14 2.1926256185559346e-19
3.3076538914384823 1.3982932566779258e-22 1.2276872782875397e-14 1.227664902999525e-14 2.237528801505092e-19
3.310756385682612 1.2932606708709275e-22 1.1365347760560794e-14 1.136512287453975e-14 2.2488602104819827e-19
3.313861789986515 1.196349095592866e-22 1.0523537431697623e-14 1.0523311408295335e-14 2.2602340228685793e-19
3.3200813396944477 1.0604461269151309e-22 9.345590922508686e-15 9.34536245817946e-15 2.284643292231611e-19
3.345076488085796 8.180501090877044e-23 7.263658081666383e-15 7.263418752864988e-15 2.393288013957169e-19
3.3482140837626964 8.271472385721546e-23 7.351322509951796e-15 7.351081709839562e-15 2.408001122306272e-19
3.3513546224236106 8.363448209640729e-23 7.440038620524814e-15 7.439796341773165e-15 2.4227875164842816e-19
3.3576445397418455 9.035334246844581e-23 8.052827079374048e-15 8.052581711188572e-15 2.453681854762826e-19
3.3702598118196083 1.1513179659681996e-22 1.0299783512701778e-14 1.0299531662656674e-14 2.5185004510375207e-19
3.382922481734668 1.2077779976471972e-22 1.0845475384342278e-14 1.084521721019954e-14 2.5817414273827794e-19
3.389271646505754 1.2370272121713243e-22 1.1128972387813386e-14 1.1128711003408364e-14 2.61384405021833e-19
3.395632727569191 1.2685486992214845e-22 1.1433976310560183e-14 1.1433711617533078e-14 2.6469302710613207e-19
3.421196662673239 1.4199107524786482e-22 1.2894619185367871e-14 1.289434076875559e-14 2.784166122789446e-19
3.4276182099114902 1.3894397317061541e-22 1.2641586715463047e-14 1.2641305210161843e-14 2.8150530120146887e-19
3.4340518103208963 1.2558658413467478e-22 1.1447733861306635e-14 1.144744942200842e-14 2.8443929821310137e-19
3.4469541582030403 1.0656251322095806e-22 9.750107303027578e-15 9.749817206428495e-15 2.9009659908465587e-19
3.472904465399547 1.0123324494768492e-22 9.332229870091874e-15 9.331926776835312e-15 3.030932565622105e-19
3.4990501388274233 9.308162141635348e-23 8.645369079709695e-15 8.645052625723417e-15 3.164539862781052e-19
3.5253949054701885 6.406600135216998e-23 5.995215853626961e-15 5.994886323606402e-15 3.2953002055625274e-19
3.5519380250092896 3.679218232717388e-23 3.4688886654783366e-15 3.4685459139527665e-15 3.427515255700568e-19
3.578680990867387 2.598016034226379e-23 2.4679380085505367e-15 2.467580750818319e-15 3.572577322181265e-19
3.605625307711299 2.1609368188243697e-23 2.0681979134415875e-15 2.067825327565344e-15 3.7258587624372815e-19
3.660119384959845 1.8425763562387208e-23 1.7901531145096933e-15 1.789748103620662e-15 4.050108890310275e-19
3.715437065384467 1.6172885570280596e-23 1.595022655593649e-15 1.5945831353389004e-15 4.395202547488781e-19
3.8285932144167436 1.50401375127988e-23 1.5284824811752105e-15 1.5279676330348107e-15 5.148481403999872e-19
3.94519561050918 1.4833819848724846e-23 1.5534274483120897e-15 1.5528286747373425e-15 5.987735747473746e-19
4.06534921144712 1.5007867055286852e-23 1.6195198081639093e-15 1.6188281274296116e-15 6.916807342973137e-19
4.189162171576248 1.540209885051816e-23 1.7126811292294944e-15 1.7118868852813787e-15 7.9424394811586385e-19
4.316745939156006 1.59567106079428e-23 1.828391909484992e-15 1.827485228048688e-15 9.066814363041424e-19
4.448215356677963 1.6651507172943186e-23 1.966114413196417e-15 1.9650862619095503e-15 1.0281512868668202e-18
4.58368876423945 1.7488715033627824e-23 2.1278570833339656e-15 2.1266976722083605e-15 1.1594111256051125e-18
4.723288106065518 1.8487147599903137e-23 2.3178417359441165e-15 2.316539838896555e-15 1.301897047561314e-18
4.867139040275056 1.9684604371426734e-23 2.5431377036842117e-15 2.5416846141353357e-15 1.4530895488765472e-18
4.940699165968905 2.0405725934969872e-23 2.6761465564444534e-15 2.674613981887478e-15 1.5325745569755204e-18
5.015371051989984 2.1151878425736735e-23 2.815927334778081e-15 2.814312775074809e-15 1.6145597032711537e-18
5.091171501069577 2.2061465088274225e-23 2.981408671289757e-15 2.97970801644148e-15 1.700654848277435e-18
5.129500256944802 2.2528025061258212e-23 3.0673801977421524e-15 3.0656355450241086e-15 1.7446527180446622e-18
5.168117569889187 2.301424985508698e-23 3.1571749016147157e-15 3.155385280876829e-15 1.789620737887009e-18
5.20702561229733 2.3610903488973516e-23 3.2634108486478685e-15 3.2615726364780707e-15 1.8382121697980554e-18
5.246226572918644 2.4222560298592727e-23 3.3731567373724668e-15 3.371269131832915e-15 1.8876055395525774e-18
5.265937586045735 2.4534164263554655e-23 3.4293863042370455e-15 3.427473701332507e-15 1.91260290453851e-18
5.285722656980489 2.4849700889470345e-23 3.4865425562307567e-15 3.4846047555615942e-15 1.937800669162855e-18
5.305582063971359 2.5169233586167788e-23 3.544642666304268e-15 3.5426794675288344e-15 1.9631987754347918e-18
5.3255160863122235 2.5512517561448983e-23 3.606487660293018e-15 3.604498708055235e-15 1.9889522377824576e-18
5.365609099470188 2.636774265246219e-23 3.755445071793941e-15 3.753402799336694e-15 2.042272457246558e-18
5.406003951863644 2.725525009221186e-23 3.9110733711233735e-15 3.9089768939876316e-15 2.0964771357412042e-18
5.446702915881641 2.817660235576648e-23 4.07372533419359e-15 4.0715737667787055e-15 2.1515674148849427e-18
5.487708281020852 2.917201090357199e-23 4.249392206815546e-15 4.2471844776013246e-15 2.207729214222338e-18
5.529022354014368 3.05564351421741e-23 4.484566463675746e-15 4.482300049382159e-15 2.266414293585957e-18
5.570647458961463 3.202211102830422e-23 4.735055424429141e-15 4.73272933865256e-15 2.326085776579515e-18
5.612585937458331 3.3574895662464664e-23 5.00203940360383e-15 4.999652656967785e-15 2.3867466360435993e-18
5.654840148729818 3.528161614745786e-23 5.295881227857838e-15 5.2934325922125474e-15 2.4486356452901804e-18
5.67608639626678 3.644473991390815e-23 5.491023287718703e-15 5.48854230369748e-15 2.4809840212250683e-18
5.686739436050992 3.704422828141529e-23 5.591821690966127e-15 5.589324428182519e-15 2.497262783607102e-18
5.6974124697621304 3.7656049238580115e-23 5.6948442115644635e-15 5.692330600187265e-15 2.513611377198175e-18
5.718818669136295 3.8917877769393785e-23 5.907788091317442e-15 5.905241572917163e-15 2.546518400277894e-18
5.740305295436557 4.030892411143196e-23 6.1419408596033635e-15 6.139360950298092e-15 2.5799093052713935e-18
5.7835210386641895 4.3919001588993513e-23 6.742395305358024e-15 6.739746167444156e-15 2.64913791386891e-18
5.827062130521658 4.8077412315329986e-23 7.43635589241118e-15 7.4336357993184e-15 2.7200930927790048e-18
5.8489554468988025 5.0996060500900827e-23 7.917432581845915e-15 7.914674377164554e-15 2.7582046813597513e-18
5.870931020387893 5.412777845038362e-23 8.435223878029869e-15 8.432427186357817e-15 2.796691672049347e-18
5.892989160043636 5.74897135580711e-23 8.992805906661012e-15 8.98997035073996e-15 2.8355559210508315e-18
5.915130176081913 6.131339750400314e-23 9.6269589893471e-15 9.62408319015972e-15 2.8757991873794018e-18
5.95966208400165 7.200748713130578e-23 1.1391180255109133e-14 1.1388214078965742e-14 2.9661761433969296e-18
6.004529249263818 8.742309010065648e-23 1.3933959726967569e-14 1.393089249017531e-14 3.0672367922607273e-18
6.027089341400364 9.814025195884288e-23 1.5700888550969013e-14 1.5697763589380794e-14 3.124961588220803e-18
6.049734195844842 1.108045237297104e-22 1.779357519978157e-14 1.7790389200756374e-14 3.1859990251960536e-18
6.095279466722835 1.4738963198968493e-22 2.3846793458677333e-14 2.3843459792832496e-14 3.333665844839237e-18
6.141167624020661 2.036933066289065e-22 3.3204515145184676e-14 3.320099273343712e-14 3.522411747560915e-18
6.164241091010745 2.3965068313263543e-22 3.921278791930544e-14 3.920914847647252e-14 3.6394428329242575e-18
6.187401249150058 2.806077999076055e-22 4.6086895310211214e-14 4.6083135264610896e-14 3.7600456003197635e-18
6.1990139391386085 3.0060626760324867e-22 4.9464096104760816e-14 4.946027459990027e-14 3.821504860541759e-18
6.204828454712694 3.111404052480206e-22 5.124548704758438e-14 5.1241634454992314e-14 3.8525925920512565e-18
6.210648424152782 3.1883008351005334e-22 5.2561248324529925e-14 5.255736889569757e-14 3.879428832345354e-18
6.233982942956859 3.4495360566652206e-22 5.708154658636952e-14 5.707757208815332e-14 3.9744982162016016e-18
6.239830258556775 3.4829201579745275e-22 5.76880325614471e-14 5.768404375036892e-14 3.988811078191891e-18
6.245683058788269 3.4857989356660818e-22 5.778986872273843e-14 5.778586555879028e-14 4.003163948156789e-18
6.257405133728602 3.47858514271132e-22 5.777851091964942e-14 5.777448197033072e-14 4.028949318673599e-18
6.269149208991335 3.4271595043587406e-22 5.703117993985901e-14 5.702713833421415e-14 4.0416056448555526e-18
6.280915325867298 3.2982519463840374e-22 5.4989047757414766e-14 5.498500978351096e-14 4.0379739037957656e-18
6.304513850009849 2.9803791964625465e-22 4.9876108321944427e-14 4.9872092401901825e-14 4.0159200426144146e-18
6.32820103803542 2.5864043759580294e-22 4.3445632782555084e-14 4.3441654655022614e-14 3.9781275324674766e-18
6.3519772230701035 2.225104443240005e-22 3.7517057261830476e-14 3.7513111939502305e-14 3.9453223281733944e-18
6.375842739491607 1.9211329989476655e-22 3.251355530799669e-14 3.250963772196932e-14 3.917586027372081e-18
6.399797922933955 1.677521910531983e-22 2.8497311883526514e-14 2.849340311306954e-14 3.908770456974593e-18
6.42384311029221 1.4749668582579966e-22 2.515049984500773e-14 2.5146596119175788e-14 3.9037258319399025e-18
6.447978639727206 1.3273587723056063e-22 2.2718588616972533e-14 2.271467503766387e-14 3.913579308666241e-18
6.472204850670314 1.2043845899077781e-22 2.069125713098399e-14 2.0687330659770437e-14 3.926471213559e-18
6.496522083828205 1.124453338371884e-22 1.9390624231539534e-14 1.9386672665135418e-14 3.951566404120336e-18
