Dust emission spectrum from A.P. Jones, M. Kohler, N. Ysard, M. Bocchio, and L. Verstraete (2017), A&A, 602A, 46J 
inside the DustPedia framework.

lambda    nu*dP/dnu     j_nu    j_nu(carb.) j_nu(sil)
 (um)   (erg s-1 H-1) (Jy cm2 sr-1 H-1)
0.9927057738263894 3.258835859414149e-20 8.587217587737849e-13 8.587216941296714e-13 6.464411341103545e-20
1.0001793341362166 3.3134811832874164e-20 8.796943822014983e-13 8.796943044278162e-13 7.777368198198721e-20
1.0077091589558085 3.3683628655394885e-20 9.009973418651431e-13 9.009972484207295e-13 9.344441341774073e-20
1.0114953028030835 3.3958901994203707e-20 9.117734524692808e-13 9.117733500940661e-13 1.0237521490159223e-19
1.0152956718711033 3.423474099352527e-20 9.226330644582334e-13 9.22632952336364e-13 1.1212186944345835e-19
1.0229392996569957 3.478781486408629e-20 9.445967500376577e-13 9.445966156841202e-13 1.3435353734312915e-19
1.0267826658714554 3.5064423144897524e-20 9.556847587635433e-13 9.556846117608017e-13 1.4700274146680653e-19
1.0306404723013447 3.5341552972180817e-20 9.668570206736938e-13 9.668568598848378e-13 1.6078885590626633e-19
1.03451277320114 3.5619197454436194e-20 9.78113876719587e-13 9.781137009107542e-13 1.758088330544459e-19
1.0383996230291617 3.589734997977501e-20 9.89455675711821e-13 9.894554835444079e-13 1.9216741331590132e-19
1.0403485208654093 3.603661477050635e-20 9.951585400439846e-13 9.951583391603012e-13 2.008836834331149e-19
1.0423010764483396 3.617600422268073e-20 1.0008827746410194e-12 1.00088256466331e-12 2.0997770913536645e-19
1.0462171883269815 3.6455154150725797e-20 1.0123955390032437e-12 1.0123953096414144e-12 2.2936182942909125e-19
1.0471985131304309 3.652501840506163e-20 1.015287158985775e-12 1.0152869245167856e-12 2.344689893703667e-19
1.048180758391296 3.659491319332573e-20 1.0181841623460509e-12 1.0181839226611945e-12 2.3968485607494756e-19
1.0501480137395462 3.673479403124047e-20 1.0239943431298416e-12 1.0239940926782945e-12 2.5045154695394654e-19
1.0521189612883777 3.6874795995809194e-20 1.0298261295813817e-12 1.029825867901381e-12 2.6168000060100605e-19
1.0531058218030118 3.69447503359812e-20 1.032747572298259e-12 1.0327473048246332e-12 2.674736257596909e-19
1.0540936079674168 3.701443377543811e-20 1.03566600963694e-12 1.0356657362458164e-12 2.733911235890352e-19
1.058054026499678 3.72934543411026e-20 1.0473935363762443e-12 1.0473932380389242e-12 2.9833732031178758e-19
1.0590464539527713 3.7363280816632183e-20 1.0503388934458893e-12 1.0503385885400511e-12 3.0490583799266166e-19
1.06003981227728 3.7433135683140265e-20 1.053289653223847e-12 1.0532893416113652e-12 3.1161248171454997e-19
1.0620293250338977 3.757293031406989e-20 1.0592074063359543e-12 1.0592070808847247e-12 3.254512297566439e-19
1.0660195594769086 3.785285731543059e-20 1.071108027106833e-12 1.0711076721957298e-12 3.549111032244327e-19
1.070024785945596 3.8133231301594563e-20 1.0830958168977614e-12 1.0830954299888035e-12 3.869089577752046e-19
1.0740450607676866 3.84140485705646e-20 1.0951712048914184e-12 1.0951707832398534e-12 4.2165156501525983e-19
1.07808044048254 3.8695305768137645e-20 1.10733463160388e-12 1.1073341722423748e-12 4.593615050816168e-19
1.0861967418109137 3.925870160920769e-20 1.131915119433985e-12 1.131914574774368e-12 5.446596168492459e-19
1.0902777775684922 3.953986529233353e-20 1.1443049554507795e-12 1.1443043626681606e-12 5.927826187077542e-19
1.0943741465085532 3.982144250791469e-20 1.1567839273905644e-12 1.1567832824455911e-12 6.449449733636053e-19
1.1026131145906286 4.038583214457161e-20 1.1820112843342823e-12 1.182010521642809e-12 7.626914734105861e-19
1.1109141095355224 4.095186362894867e-20 1.2076013395133978e-12 1.2076004387595995e-12 9.007537983153668e-19
1.1192775983109025 4.151909784182337e-20 1.2335454423459131e-12 1.2335443799248798e-12 1.062421033081073e-18
1.1277040513999907 4.208552504581212e-20 1.2597875828825278e-12 1.2597863314050973e-12 1.2514774304984479e-18
1.1361939428280308 4.2653547366174684e-20 1.286403042862491e-12 1.2864015705914324e-12 1.4722710586696537e-18
1.1447477501889525 4.322318491107179e-20 1.3133969291794604e-12 1.3133951993885882e-12 1.7297908721354836e-18
1.1533659546722406 4.3794660523940557e-20 1.3407806231623327e-12 1.3407785934060238e-12 2.0297563090469486e-18
1.1707974979042381 4.4944870809301107e-20 1.3967907653520638e-12 1.3967879811910377e-12 2.784161026806848e-18
1.1884924949847024 4.610284741732583e-20 1.4544326855310733e-12 1.454428885775932e-12 3.799755141482993e-18
1.2064549276569216 4.7276387511032e-20 1.5139963161018793e-12 1.5139911559854972e-12 5.160116382331212e-18
1.2246888378427687 4.845825525282811e-20 1.5752988859362538e-12 1.575291912888144e-12 6.973048110127156e-18
1.2431983285522175 4.964764923390404e-20 1.6383569980598234e-12 1.6383476209536728e-12 9.37710615036673e-18
1.2619875648066055 5.084649225063555e-20 1.7032778791996256e-12 1.7032653297323441e-12 1.25494672817093e-17
1.3004222497298317 5.3266119803382884e-20 1.8386746400252985e-12 1.8386524804831964e-12 2.2159542101568637e-17
1.3400274889804893 5.572583398008431e-20 1.982164607182684e-12 1.9821261978060835e-12 3.840937660059824e-17
1.3808389325824078 5.823613398230562e-20 2.134543417728269e-12 2.134478035440258e-12 6.538228801007611e-17
1.4228933163050095 6.081911733642801e-20 2.297110491756465e-12 2.2970011350149122e-12 1.0935674155238912e-16
1.466228494730424 6.351964837447237e-20 2.4721747917256302e-12 2.4719949826396203e-12 1.7980908600946914e-16
1.5108834753276823 6.633491808595681e-20 2.6603734287354595e-12 2.660082658270823e-12 2.9077046463679143e-16
1.5568984535646726 6.926514471046609e-20 2.8624932168247467e-12 2.8620302794066555e-12 4.629374180908921e-16
1.6043148490894465 7.232914291752605e-20 3.080153464111271e-12 3.0794264470716743e-12 7.270170395968587e-16
1.6531753430134553 7.554702170982159e-20 3.3151692090064033e-12 3.3140443526579878e-12 1.124856348414768e-15
1.7035239163302658 7.894203909315156e-20 3.569653059328581e-12 3.567937995012146e-12 1.7150643164350103e-15
1.755405889504358 8.257569083031271e-20 3.847682249974593e-12 3.84510408316846e-12 2.578166806133521e-15
1.8088679632656115 8.645210705838657e-20 4.150991869428985e-12 4.147169422835719e-12 3.822446593266976e-15
1.8639582606462262 9.057429067134069e-20 4.4813674733968526e-12 4.475775784406312e-12 5.591688990538304e-15
1.9207263702978936 9.495837119476445e-20 4.841369040849116e-12 4.833295249997283e-12 8.073790851834101e-15
1.979223391128241 9.962683480806999e-20 5.234082705590691e-12 5.22257176792917e-12 1.1510937661520504e-14
2.039501978296691 1.0460060876411634e-19 5.662755050028694e-12 5.646544598007271e-12 1.6210452021424722e-14
2.1016163906111602 1.0993206808699497e-19 6.132637271007799e-12 6.110078905564325e-12 2.2558365443472315e-14
2.1656225393682647 1.1565123785222117e-19 6.64817559004383e-12 6.617144650588263e-12 3.103093945556647e-14
2.231578038680979 1.2175506869374745e-19 7.212213291209775e-12 7.17000581044638e-12 4.2207480763397015e-14
2.299542257339062 1.2825811033164957e-19 7.828808407901396e-12 7.772025053161073e-12 5.6783354740322774e-14
2.369576372248914 1.3518667956104029e-19 8.503036529953483e-12 8.427453044598803e-12 7.55834853546783e-14
2.4417434235010123 1.425711093209023e-19 9.240617389311395e-12 9.141046062965112e-12 9.95713263462797e-14
2.5161083711144245 1.5046506628501276e-19 1.0049268649532901e-11 9.919407371718336e-12 1.2986127781456195e-13
2.5927381535095444 1.5895087286851308e-19 1.0939337183485215e-11 1.077161317466999e-11 1.6772400881522552e-13
2.6717017477616296 1.6809805728381531e-19 1.192120350798577e-11 1.1706623752912075e-11 2.145797550736982e-13
2.753070231689431 1.780024644680185e-19 1.3008066210312705e-11 1.2736070649635966e-11 2.7199556067673774e-13
2.836916847834745 1.8891342488041547e-19 1.42258708331895e-11 1.3884182401005938e-11 3.416884321835608e-13
2.9233170693905177 2.0136084030269264e-19 1.5625012390286798e-11 1.5199592381857067e-11 4.254200084297328e-13
2.967498994190263 2.0862100494990527e-19 1.643304507850888e-11 1.596088665470352e-11 4.721584238053587e-13
3.0123486681368425 2.1634472371464036e-19 1.7298999232414118e-11 1.6775639338159088e-11 5.233598942550279e-13
3.0578761833420214 2.2770868336712637e-19 1.8482849261854366e-11 1.790329967102927e-11 5.795495908250958e-13
3.1040917844459814 2.4067859049773e-19 1.9830855356211052e-11 1.919036792659588e-11 6.404874296151737e-13
3.127460860933648 2.5166112919658737e-19 2.0891876858764154e-11 2.0218844226736417e-11 6.73032632027734e-13
3.1510058709225794 2.6526308254998244e-19 2.2186840309542392e-11 2.1479943786650962e-11 7.068965228914372e-13
3.162844764501044 2.7704046386260324e-19 2.325897198531896e-11 2.253457376020198e-11 7.243982251169748e-13
3.1747281389236908 2.902577289234204e-19 2.446018668064462e-11 2.371794698171849e-11 7.422396989261302e-13
3.1986289994194426 3.2551168812435134e-19 2.7637572238799522e-11 2.685852133561903e-11 7.790509031804953e-13
3.2227097969389145 4.052792698564889e-19 3.466929596031288e-11 3.385129921383366e-11 8.179967464792237e-13
3.2348180950136065 4.794469006723245e-19 4.116800412585882e-11 4.0329238712285346e-11 8.387654135734772e-13
3.240889293275058 5.346746158077121e-19 4.599633148270694e-11 4.51466110049393e-11 8.49720477767638e-13
3.2469718861334385 5.9862476043431865e-19 5.159440846723474e-11 5.073335276654854e-11 8.610557006861927e-13
3.2714166318528037 9.330596060624718e-19 8.10241863930216e-11 8.011633738431034e-11 9.078490087112505e-13
3.2744851364798273 9.540249842898074e-19 8.292246520280035e-11 8.200911580358068e-11 9.133493992196892e-13
3.2775565192852394 9.755413316769774e-19 8.48721681589486e-11 8.395329215718792e-11 9.18876001760663e-13
3.283707930232385 9.553219252888561e-19 8.326906728503064e-11 8.234033654556153e-11 9.28730739469117e-13
3.2898708863219004 8.903913566856121e-19 7.775516057828216e-11 7.68174877602638e-11 9.376728180183446e-13
3.29141343181113 8.750481896405129e-19 7.645111800001369e-11 7.551120044082285e-11 9.399175591908419e-13
3.292184975758714 8.675044823213212e-19 7.580980667199244e-11 7.486876535792934e-11 9.410413140631094e-13
3.295272960557952 8.2044758128606145e-19 7.176483106240621e-11 7.081942352235542e-11 9.454075400507862e-13
3.3076538914384823 6.561802970972184e-19 5.761196366798662e-11 5.664903225140847e-11 9.629314165781479e-13
3.310756385682612 6.223990638050737e-19 5.4697262240476195e-11 5.372991644707661e-11 9.673457933995942e-13
3.313861789986515 5.910950470203383e-19 5.1994947594514583e-11 5.1023174051583673e-11 9.717735429309058e-13
3.3200813396944477 5.475128481463543e-19 4.8251683642604814e-11 4.7270374133825065e-11 9.813095087797585e-13
3.345076488085796 4.72479067965675e-19 4.1952520540268444e-11 4.092868138531833e-11 1.023839154950114e-12
3.3482140837626964 4.758145505891201e-19 4.2288314017060793e-11 4.1258712075702744e-11 1.0296019413580488e-12
3.3513546224236106 4.791782523666386e-19 4.262721086278507e-11 4.159182157706187e-11 1.0353892857232087e-12
3.3576445397418455 5.016927739196949e-19 4.471384284159393e-11 4.366634883081769e-11 1.0474940107762569e-12
3.3702598118196083 5.824393488345555e-19 5.210549456882715e-11 5.103261257718713e-11 1.0728819916400235e-12
3.382922481734668 6.024080537911747e-19 5.4094392607325744e-11 5.2996878079977714e-11 1.0975145273480463e-12
3.389271646505754 6.12685275471905e-19 5.512051348634617e-11 5.4010522148899645e-11 1.1099913374465297e-12
3.395632727569191 6.239833763162611e-19 5.624231176431807e-11 5.5119462262225074e-11 1.1228495020930074e-12
3.421196662673239 6.7851616853405e-19 6.161801077348363e-11 6.044198172612697e-11 1.1760290473566588e-12
3.4276182099114902 6.694275228884138e-19 6.090675174460338e-11 5.971890313406503e-11 1.1878486105383588e-12
3.4340518103208963 6.267400184192996e-19 5.712993135795935e-11 5.5930927011215406e-11 1.1990043467439488e-12
3.4469541582030403 5.656476287237246e-19 5.175483299951617e-11 5.0534464230757565e-11 1.2203687687586198e-12
3.472904465399547 5.5008764796139145e-19 5.0710064486491385e-11 4.944040811033492e-11 1.2696563761564752e-12
3.4990501388274233 5.258201917650467e-19 4.883788612833389e-11 4.7517898734576576e-11 1.319987393757306e-12
3.5253949054701885 4.3578158225142e-19 4.077989254036476e-11 3.941117932675175e-11 1.3687132136130044e-12
3.5519380250092896 3.5012514546009874e-19 3.301095699584132e-11 3.159340687709252e-11 1.4175501187488027e-12
3.578680990867387 3.179777656073791e-19 3.0205718643691986e-11 2.8734658501837024e-11 1.4710601418549646e-12
3.605625307711299 3.068953239111518e-19 2.9372458418443525e-11 2.7845124115239467e-11 1.527334303204056e-12
3.660119384959845 3.0277550380887593e-19 2.9416122121914297e-11 2.7770936954132886e-11 1.6451851677814194e-12
3.715437065384467 3.014194419606054e-19 2.97269671929806e-11 2.7958091683434364e-11 1.7688755095462413e-12
3.8285932144167436 3.0976361894271163e-19 3.1480314887843154e-11 2.944751307840382e-11 2.032801809439323e-12
3.94519561050918 3.209652911343868e-19 3.361213081244871e-11 3.129439082771843e-11 2.3177399847302852e-12
4.06534921144712 3.3317909954815624e-19 3.595382004629175e-11 3.333113682124802e-11 2.622683225043732e-12
4.189162171576248 3.4581198076234024e-19 3.8453567884561916e-11 3.5506039678220406e-11 2.9475282063415154e-12
4.316745939156006 3.5855825516369877e-19 4.108522294651571e-11 3.77949377813331e-11 3.2902851651826143e-12
4.448215356677963 3.712112567930469e-19 4.383049502614869e-11 4.01851909359234e-11 3.6453040902252965e-12
4.58368876423945 3.8367937890166625e-19 4.6682382470939707e-11 4.2670059325759424e-11 4.012323145180281e-12
4.723288106065518 3.9593313416640777e-19 4.9640450916228406e-11 4.524745086114775e-11 4.393000055080667e-12
4.867139040275056 4.078896669934779e-19 5.2696999721266264e-11 4.792120947507203e-11 4.775790246194217e-12
4.940699165968905 4.1388653834845556e-19 5.427991328952296e-11 4.9310885250272996e-11 4.969028039249945e-12
5.015371051989984 4.196731297971666e-19 5.587064250661459e-11 5.070787511721427e-11 5.162767389400316e-12
5.091171501069577 4.2572528946829355e-19 5.75329455468817e-11 5.217148495195493e-11 5.361460594926772e-12
5.129500256944802 4.286606453529038e-19 5.836575427857022e-11 5.290504334125087e-11 5.460710937319351e-12
5.168117569889187 4.31581044004962e-19 5.9205789835638e-11 5.364479822189297e-11 5.560991613745055e-12
5.20702561229733 4.348446206437189e-19 6.010259849427616e-11 5.44312996925338e-11 5.671298801742355e-12
5.246226572918644 4.380552499058897e-19 6.100218141049601e-11 5.5220377109044e-11 5.781804301452022e-12
5.265937586045735 4.396405028627229e-19 6.145296424647257e-11 5.5615851512851696e-11 5.837112733620867e-12
5.285722656980489 4.412122812525283e-19 6.190438274331203e-11 5.601193450020481e-11 5.892448243107215e-12
5.305582063971359 4.427705163645951e-19 6.235641853433483e-11 5.640861528327599e-11 5.9478032510588465e-12
5.3255160863122235 4.443827697951777e-19 6.28186133278694e-11 5.6814937495782625e-11 6.003675832086782e-12
5.365609099470188 4.480884189002108e-19 6.381932145904042e-11 5.769997784169055e-11 6.119343617349861e-12
5.406003951863644 4.517641779940006e-19 6.482724761658525e-11 5.859207634432696e-11 6.235171272258292e-12
5.446702915881641 4.554112679849876e-19 6.584258798996005e-11 5.949149006848188e-11 6.351097921478167e-12
5.487708281020852 4.591570853184269e-19 6.688392330942656e-11 6.041629442385843e-11 6.4676288855681194e-12
5.529022354014368 4.6399430715015775e-19 6.809738438074913e-11 6.150828052037188e-11 6.589103860377247e-12
5.570647458961463 4.688830522996626e-19 6.933294429751976e-11 6.262223505666733e-11 6.710709240852422e-12
5.612585937458331 4.738320190794719e-19 7.0592220269336e-11 6.375983708059518e-11 6.832383188740823e-12
5.654840148729818 4.790380147636593e-19 7.190510829249359e-11 6.495035541733425e-11 6.9547528751593345e-12
5.67608639626678 4.824989981901098e-19 7.269672500397678e-11 6.567780742939468e-11 7.018917574582108e-12
5.686739436050992 4.842531626606554e-19 7.309795518788838e-11 6.604694017927578e-11 7.0510150086125936e-12
5.6974124697621304 4.860237563760351e-19 7.350292002606395e-11 6.641979883829442e-11 7.083121187769528e-12
5.718818669136295 4.896162510825531e-19 7.432442936895669e-11 6.717707353365528e-11 7.147355835301414e-12
5.740305295436557 4.935125568653918e-19 7.519736645313302e-11 6.798521252208274e-11 7.212153931050283e-12
5.7835210386641895 5.034586908805783e-19 7.72904071363408e-11 6.99444138172375e-11 7.345993319103322e-12
5.827062130521658 5.144968203481926e-19 7.957960458706186e-11 7.209826845200674e-11 7.481336135055134e-12
5.8489554468988025 5.2226424063123745e-19 8.108453622674896e-11 7.352968302894778e-11 7.554853197801187e-12
5.870931020387893 5.304206798291867e-19 8.266027743956451e-11 7.503177129416739e-11 7.628506145397115e-12
5.892989160043636 5.389979097262577e-19 8.431253673525627e-11 7.661024982284222e-11 7.70228691241408e-12
5.915130176081913 5.486595199982779e-19 8.614630591614876e-11 7.836739652237635e-11 7.77890939377242e-12
5.95966208400165 5.757266080322283e-19 9.107671758908594e-11 8.312077108127502e-11 7.955946507810918e-12
6.004529249263818 6.1418977403191155e-19 9.789285149063498e-11 8.973629858698974e-11 8.156552903645244e-12
6.027089341400364 6.408337593226758e-19 1.0252326883207303e-10 9.424958998507426e-11 8.273678846998774e-12
6.049734195844842 6.718975210324027e-19 1.0789684991743007e-10 9.949883678628012e-11 8.398013131149932e-12
6.095279466722835 7.612485182550239e-19 1.231656252918942e-10 1.1445789110832312e-10 8.707734183571103e-12
6.141167624020661 8.968267572865007e-19 1.4619379565170514e-10 1.3707900279018732e-10 9.114792861517827e-12
6.164241091010745 9.830728853113033e-19 1.6085507479900117e-10 1.514823649214729e-10 9.372709877528289e-12
6.187401249150058 1.0795696716405556e-18 1.7730802370197714e-10 1.676709496339094e-10 9.637074068067782e-12
6.1990139391386085 1.1263385057696988e-18 1.8533650858343905e-10 1.7556500470451568e-10 9.771503878923383e-12
6.204828454712694 1.150828365296965e-18 1.895438814538007e-10 1.797045294200976e-10 9.839352033703132e-12
6.210648424152782 1.1684721693311166e-18 1.9263036654625604e-10 1.8273374330934207e-10 9.896623236913941e-12
6.233982942956859 1.2272386065390146e-18 2.0307854894397073e-10 1.9298451612322138e-10 1.0094032820749366e-11
6.239830258556775 1.2340697605815211e-18 2.0440048379669077e-10 1.9428076932682942e-10 1.0119714469861369e-11
6.245683058788269 1.2336500743968385e-18 2.0452262785365422e-10 1.9437720844764065e-10 1.0145419406013634e-11
6.257405133728602 1.2296905968966352e-18 2.0424882147689517e-10 1.9405940872914916e-10 1.0189412747745986e-11
6.269149208991335 1.215166843905319e-18 2.0221527140354696e-10 1.9201453370371808e-10 1.0200737699828853e-11
6.280915325867298 1.1822723691579924e-18 1.9711056895206317e-10 1.869388368631166e-10 1.0171732088946583e-11
6.304513850009849 1.1026087520964483e-18 1.8451958603643238e-10 1.7444225047088444e-10 1.0077335565547996e-11
6.32820103803542 1.006170278078333e-18 1.690134181045089e-10 1.590691799823009e-10 9.944238122207982e-12
6.3519772230701035 9.183919302069939e-19 1.5484829370170096e-10 1.4502472400791242e-10 9.823569693788524e-12
6.375842739491607 8.442362854294976e-19 1.4287986919367576e-10 1.331641630867297e-10 9.715706106946061e-12
6.399797922933955 7.856406781223281e-19 1.3346262300524745e-10 1.2380904109156454e-10 9.653581913682949e-12
6.42384311029221 7.366211444504779e-19 1.2560546615407803e-10 1.1600483459621827e-10 9.600631557859767e-12
6.447978639727206 7.010748434268083e-19 1.1999341315879755e-10 1.1041020631217078e-10 9.583206846626764e-12
6.472204850670314 6.712690115683226e-19 1.1532362535031414e-10 1.057508274561502e-10 9.572797894163952e-12
6.496522083828205 6.518004786224793e-19 1.1239966767501517e-10 1.028086209467184e-10 9.591046728296751e-12
