Dust emission spectrum from A.P. Jones, M. Kohler, N. Ysard, M. Bocchio, and L. Verstraete (2017), A&A, 602A, 46J 
inside the DustPedia framework.

lambda    nu*dP/dnu     j_nu    j_nu(carb.) j_nu(sil)
 (um)   (erg s-1 H-1) (Jy cm2 sr-1 H-1)
0.9927057738263894 5.880650090663702e-24 1.5495847003155837e-16 1.5495847003154222e-16 1.6139226933338338e-29
1.0001793341362166 5.9778044722525695e-24 1.5870441753715657e-16 1.5870441753713714e-16 1.9445538340813178e-29
1.0077091589558085 6.0748203080149695e-24 1.624942789218536e-16 1.624942789218302e-16 2.3399369304347812e-29
1.0114953028030835 6.123264322981953e-24 1.644054879365703e-16 1.6440548793654467e-16 2.565595180259328e-29
1.0152956718711033 6.171659401417078e-24 1.6632744577792571e-16 1.6632744577789759e-16 2.812114825707173e-29
1.0229392996569957 6.268236358593382e-24 1.7020200078469936e-16 1.7020200078466556e-16 3.375285079889775e-29
1.0267826658714554 6.31630111222985e-24 1.7215149040881008e-16 1.721514904087731e-16 3.6961968678315324e-29
1.0306404723013447 6.3642956781958555e-24 1.741113063976149e-16 1.741113063975744e-16 4.046319421267054e-29
1.03451277320114 6.412215424857508e-24 1.7608136442690625e-16 1.7608136442686195e-16 4.4281830431899085e-29
1.0383996230291617 6.460055746267897e-24 1.780615791182589e-16 1.7806157911821048e-16 4.8445252034298386e-29
1.0403485208654093 6.4839446903869886e-24 1.7905546824815691e-16 1.7905546824810625e-16 5.066541732220832e-29
1.0423010764483396 6.507812063050291e-24 1.800518640592253e-16 1.8005186405917236e-16 5.298306439912768e-29
1.0462171883269815 6.555479823261835e-24 1.8205213182355787e-16 1.8205213182349994e-16 5.792727392189096e-29
1.0471985131304309 6.567382395600344e-24 1.8255374824063736e-16 1.8255374824057815e-16 5.923081985424043e-29
1.048180758391296 6.579279079880994e-24 1.8305598167155348e-16 1.830559816714929e-16 6.056248077053654e-29
1.0501480137395462 6.603054503237691e-24 1.8406229399144664e-16 1.8406229399138336e-16 6.331247040955723e-29
1.0521189612883777 6.626805532427565e-24 1.8507105757883955e-16 1.850710575787734e-16 6.618200225119787e-29
1.0531058218030118 6.638653488903651e-24 1.855758453269982e-16 1.8557584532693052e-16 6.766322965627946e-29
1.0540936079674168 6.650435391959727e-24 1.860795690277363e-16 1.8607956902766712e-16 6.917653445534077e-29
1.058054026499678 6.697496064316798e-24 1.8810041095976815e-16 1.881004109596926e-16 7.556066677004479e-29
1.0590464539527713 6.709244153253647e-24 1.8860710102978406e-16 1.886071010297068e-16 7.72428336041343e-29
1.06003981227728 6.720985273294004e-24 1.8911438004427832e-16 1.8911438004419936e-16 7.896086233361285e-29
1.0620293250338977 6.744446333227864e-24 1.901306990984199e-16 1.901306990983374e-16 8.250743133065525e-29
1.0660195594769086 6.791281825495197e-24 1.921703404584824e-16 1.9217034045839232e-16 9.006389336742372e-29
1.070024785945596 6.837998200969491e-24 1.9421924118753552e-16 1.9421924118743728e-16 9.828082892315204e-29
1.0740450607676866 6.884591153263533e-24 1.9627730658626604e-16 1.962773065861589e-16 1.0721299822515367e-28
1.07808044048254 6.931056410446344e-24 1.9834444112874882e-16 1.9834444112863187e-16 1.1691943766075596e-28
1.0861967418109137 7.023504813680167e-24 2.0250316399046086e-16 2.0250316399032195e-16 1.3891456379502685e-28
1.0902777775684922 7.069292864610921e-24 2.0458913546363527e-16 2.0458913546348393e-16 1.513456653576394e-28
1.0943741465085532 7.114933225498936e-24 2.0668363277092336e-16 2.0668363277075856e-16 1.648365118839313e-28
1.1026131145906286 7.205754651148605e-24 2.1089780394550385e-16 2.1089780394530859e-16 1.9534606083423894e-28
1.1109141095355224 7.295937030706958e-24 2.151448688908743e-16 2.1514486889064312e-16 2.312081096986677e-28
1.1192775983109025 7.385365212169956e-24 2.1942152096463324e-16 2.1942152096435992e-16 2.7330676271688274e-28
1.1277040513999907 7.473623809905303e-24 2.2371536210145974e-16 2.2371536210113705e-16 3.2266254400686426e-28
1.1361939428280308 7.561139137980189e-24 2.2803900250317466e-16 2.2803900250279423e-16 3.8045169625182556e-28
1.1447477501889525 7.647882006166973e-24 2.323915917416248e-16 2.3239159174117677e-16 4.480283118831949e-28
1.1533659546722406 7.733871175718098e-24 2.3677371831134573e-16 2.367737183108187e-16 5.2694988028069385e-28
1.1707974979042381 7.903866109511479e-24 2.456353081798179e-16 2.456353081790917e-16 7.262492785424619e-28
1.1884924949847024 8.07047998614916e-24 2.5460401119104143e-16 2.546040111900455e-16 9.960053319527245e-28
1.2064549276569216 8.235015585917844e-24 2.6372114953182083e-16 2.6372114953046147e-16 1.3593352046286744e-27
1.2246888378427687 8.395675857243263e-24 2.7292973623571267e-16 2.729297362338664e-16 1.846266301608206e-27
1.2431983285522175 8.552084836753988e-24 2.8221614228471723e-16 2.822161422822215e-16 2.4956698563413882e-27
1.2619875648066055 8.70418390299053e-24 2.9157653246500833e-16 2.9157653246165064e-16 3.357608258033678e-27
1.3004222497298317 8.992923608230874e-24 3.1042359832429133e-16 3.1042359831829815e-16 5.993121178733166e-27
1.3400274889804893 9.26076398272676e-24 3.2940482521254793e-16 3.294048252020438e-16 1.0504179447178975e-26
1.3808389325824078 9.506710675649324e-24 3.4845181692726996e-16 3.4845181690918335e-16 1.8086584054080845e-26
1.4228933163050095 9.731959145829768e-24 3.6757168532337363e-16 3.6757168529276474e-16 3.060896598051512e-26
1.466228494730424 9.9419280846157e-24 3.8693828793003253e-16 3.869382878790929e-16 5.093947418883189e-26
1.5108834753276823 1.013253481357322e-23 4.063670712434918e-16 4.06367071160092e-16 8.339982741706019e-26
1.5568984535646726 1.0300475504246632e-23 4.256836737182215e-16 4.2568367358375e-16 1.3447152479864142e-25
1.6043148490894465 1.0446055367405255e-23 4.44847710457454e-16 4.448477102435395e-16 2.139144615656548e-25
1.6531753430134553 1.0569715408252511e-23 4.638223225263664e-16 4.63822322191011e-16 3.353554055498401e-25
1.7035239163302658 1.0672923087879066e-23 4.826152578560809e-16 4.826152573378382e-16 5.182427007293276e-25
1.755405889504358 1.0764164582874181e-23 5.015651045104712e-16 5.015651037206227e-16 7.898483411124849e-25
1.8088679632656115 1.0841342868636247e-23 5.205463190273438e-16 5.205463178396788e-16 1.1876649745370623e-24
1.8639582606462262 1.0903037127029882e-23 5.394523719717112e-16 5.394523702090875e-16 1.7626235629167665e-24
1.9207263702978936 1.095027545039764e-23 5.582901632294237e-16 5.582901606465183e-16 2.5829052560545268e-24
1.979223391128241 1.098545266781538e-23 5.771413689139912e-16 5.77141365175362e-16 3.7386292830760395e-24
2.039501978296691 1.1011435186979672e-23 5.961252133221232e-16 5.961252079748618e-16 5.34726126602943e-24
2.1016163906111602 1.1036253901394586e-23 6.156651392607106e-16 6.156651317002147e-16 7.560495764202779e-24
2.1656225393682647 1.1064565162197574e-23 6.360431015858641e-16 6.360430910146546e-16 1.0571209742487753e-23
2.231578038680979 1.1096701560681701e-23 6.573178377143551e-16 6.573178230927025e-16 1.4621652451812442e-23
2.299542257339062 1.1135450905019626e-23 6.797021369297266e-16 6.79702116917022e-16 2.0012704266433383e-23
2.369576372248914 1.1186978729770596e-23 7.036439470806097e-16 7.036439199661241e-16 2.711448561217652e-23
2.4417434235010123 1.1258565672066002e-23 7.29713742311078e-16 7.297137059343994e-16 3.6376678454369615e-23
2.5161083711144245 1.1362681032730566e-23 7.588913300351569e-16 7.588912816935612e-16 4.834159563292602e-23
2.5927381535095444 1.1519730679609983e-23 7.928123695894226e-16 7.928123059329116e-16 6.365651091157189e-23
2.6717017477616296 1.1754077700088597e-23 8.335774641038915e-16 8.335773810209678e-16 8.30829238928412e-23
2.753070231689431 1.210240352490651e-23 8.844195883826701e-16 8.844194808731274e-16 1.0750954268996554e-22
2.836916847834745 1.2647813208836272e-23 9.524265263048844e-16 9.524263883354885e-16 1.3796939608795774e-22
2.9233170693905177 1.3573338828713987e-23 1.0532514020968797e-15 1.053251226471305e-15 1.7562557480859194e-22
2.967498994190263 1.4359347714458684e-23 1.1310836526089227e-15 1.1310834553415393e-15 1.9726738361243267e-22
3.0123486681368425 1.5277320392695283e-23 1.2215798435425206e-15 1.2215796222512253e-15 2.212912952926709e-22
3.0578761833420214 1.7331348304105622e-23 1.406765405133975e-15 1.406765157144838e-15 2.479891369848272e-22
3.1040917844459814 1.997819713525581e-23 1.646115414120579e-15 1.6461151367030433e-15 2.7741753586957194e-22
3.127460860933648 2.2778228883810843e-23 1.890955327191523e-15 1.89095503386544e-15 2.9332608311486154e-22
3.1510058709225794 2.6508888124106435e-23 2.217226995702471e-15 2.2172266856811397e-15 3.1002133182828806e-22
3.162844764501044 2.998156871305838e-23 2.517106913013192e-15 2.5171065943058827e-15 3.187073100274112e-22
3.1747281389236908 3.402001113668797e-23 2.866886013224963e-15 2.8668856856240942e-15 3.2760086875079847e-22
3.1986289994194426 4.528439213863131e-23 3.844871642653376e-15 3.844871296579939e-15 3.460734368980669e-22
3.2227097969389145 7.183731605596281e-23 6.145266626197347e-15 6.145266260403632e-15 3.6579371716410656e-22
3.2348180950136065 9.701780986358508e-23 8.330494140529561e-15 8.330493764159912e-15 3.7636964958045393e-22
3.240889293275058 1.1584350172804765e-22 9.96564255729897e-15 9.965642175338417e-15 3.819605543959335e-22
3.2469718861334385 1.376219239214828e-22 1.1861390016176514e-14 1.18613896284221e-14 3.8775441219177798e-22
3.2714166318528037 2.5379185619795407e-22 2.2038547728361496e-14 2.203854731652934e-14 4.118321586732407e-22
3.2744851364798273 2.610540037486175e-22 2.2690434630505014e-14 2.269043421581527e-14 4.1468974845678e-22
3.2775565192852394 2.685247405498872e-22 2.3361672329773128e-14 2.336167191220849e-14 4.175646325062062e-22
3.283707930232385 2.6134022095295024e-22 2.2779291322384395e-14 2.2779290899656675e-14 4.227277207220611e-22
3.2898708863219004 2.385559076666116e-22 2.0832359577884662e-14 2.0832359150437137e-14 4.274475232650751e-22
3.29141343181113 2.331827988752448e-22 2.0372690194020643e-14 2.0372689765386646e-14 4.286339968517053e-22
3.292184975758714 2.3054264366510087e-22 2.0146746906868158e-14 2.014674647763995e-14 4.292282147828568e-22
3.295272960557952 2.138777169414092e-22 1.87079571863126e-14 1.87079567547705e-14 4.315420979061154e-22
3.3076538914384823 1.5614531873033866e-22 1.3709400403233462e-14 1.3709399962375992e-14 4.408574706451143e-22
3.310756385682612 1.4439530731605413e-22 1.2689652748311188e-14 1.2689652305100393e-14 4.432107936148492e-22
3.313861789986515 1.3355409454861515e-22 1.1747921391141615e-14 1.1747920945567653e-14 4.455739618703882e-22
3.3200813396944477 1.183504941216801e-22 1.0430094235485008e-14 1.0430093784831216e-14 4.506537910452376e-22
3.345076488085796 9.122863053649577e-23 8.100403289656306e-15 8.100402816311447e-15 4.73344859151339e-22
3.3482140837626964 9.224564074524469e-23 8.198388674137956e-15 8.19838819770947e-15 4.764284867131704e-22
3.3513546224236106 9.327389510001418e-23 8.297551015273116e-15 8.29755053574394e-15 4.795291788076732e-22
3.3576445397418455 1.0078871598121778e-22 8.982889610667564e-15 8.982889124648251e-15 4.86019312434179e-22
3.3702598118196083 1.2850664238222642e-22 1.1496308019201694e-14 1.1496307519530273e-14 4.996714178390932e-22
3.382922481734668 1.3481959783262101e-22 1.210638571383988e-14 1.2106385200841679e-14 5.1299819786263065e-22
3.389271646505754 1.3809014724520165e-22 1.2423343808447212e-14 1.2423343288672167e-14 5.197750433671034e-22
3.395632727569191 1.4161431947615909e-22 1.276430912837817e-14 1.2764308601612714e-14 5.267654590765274e-22
3.421196662673239 1.585360566016418e-22 1.4397116674125876e-14 1.4397116118285085e-14 5.55840792695045e-22
3.4276182099114902 1.5512584590309755e-22 1.4113867539871787e-14 1.4113866977462618e-14 5.624091698385774e-22
3.4340518103208963 1.4018253902785464e-22 1.2778215203880432e-14 1.2778214635225913e-14 5.686545191269734e-22
3.4469541582030403 1.189005178524529e-22 1.087899273774785e-14 1.087899215703009e-14 5.807177570391206e-22
3.472904465399547 1.129359391147092e-22 1.041104772407346e-14 1.04110471155216e-14 6.085518609832967e-22
3.4990501388274233 1.038134394126248e-22 9.642134349397354e-15 9.642133712104777e-15 6.3729257618718145e-22
3.5253949054701885 7.134873609757329e-23 6.676725014209571e-15 6.6767243486969715e-15 6.655125984887275e-22
3.5519380250092896 4.083568260356811e-23 3.850123248219649e-15 3.850122554042843e-15 6.941768055091412e-22
3.578680990867387 2.873680323275426e-23 2.7298002786757426e-15 2.7297995528768775e-15 7.257988645124437e-22
3.605625307711299 2.3842747188486817e-23 2.281951029589612e-15 2.281950270195152e-15 7.59394459189788e-22
3.660119384959845 2.0271762061355582e-23 1.9695009038764376e-15 1.969500072818417e-15 8.31058019811596e-22
3.715437065384467 1.774250789650489e-23 1.7498239222058332e-15 1.7498230140453485e-15 9.081604848616801e-22
3.8285932144167436 1.6456790810349013e-23 1.672452557603166e-15 1.6724514780345175e-15 1.0795686479789441e-21
3.94519561050918 1.6207751055657952e-23 1.6973082875502657e-15 1.6973070120451484e-15 1.2755051170799113e-21
4.06534921144712 1.6384742757921306e-23 1.7681003803119397e-15 1.7680988817121109e-15 1.4985998287743755e-21
4.189162171576248 1.6808805592215147e-23 1.8691039722619096e-15 1.8691022197916397e-15 1.7524702692011672e-21
4.316745939156006 1.7413358504401284e-23 1.9953011988925025e-15 1.9952991586920967e-15 2.0402004064235115e-21
4.448215356677963 1.8176176177426576e-23 2.146138580014151e-15 2.146136217072495e-15 2.362941655766679e-21
4.58368876423945 1.9100168556705607e-23 2.3239231057347687e-15 2.32392037973332e-15 2.7260014485235546e-21
4.723288106065518 2.0206846349483943e-23 2.5334504183267997e-15 2.5334472812712362e-15 3.137055563811903e-21
4.867139040275056 2.153907257956881e-23 2.7827243334899688e-15 2.782720738003884e-15 3.595486084219814e-21
4.940699165968905 2.2343321545893e-23 2.9302561058169466e-15 2.930252259978188e-15 3.84583875979401e-21
5.015371051989984 2.3176633389500885e-23 3.0854808341851896e-15 3.0854767230892314e-15 4.111095959654374e-21
5.091171501069577 2.4193667920909915e-23 3.2695567153445192e-15 3.2695523189839598e-15 4.3963605587023314e-21
5.129500256944802 2.4715839046131204e-23 3.3652694834338453e-15 3.365264938118066e-15 4.5453157792996126e-21
5.168117569889187 2.526032511028959e-23 3.4652993231150814e-15 3.4652946236638387e-15 4.699451242752554e-21
5.20702561229733 2.5928463135664758e-23 3.5837352825236325e-15 3.583730417350484e-15 4.865173147453616e-21
5.246226572918644 2.6613779735211935e-23 3.706150353808493e-15 3.706145317748667e-15 5.0360598261482844e-21
5.265937586045735 2.696305238019096e-23 3.768896366704925e-15 3.7688912432152316e-15 5.1234896934323285e-21
5.285722656980489 2.731682951314682e-23 3.832693561283213e-15 3.832688349012038e-15 5.2122711742658126e-21
5.305582063971359 2.7675184256178e-23 3.897561623258667e-15 3.89755632083348e-15 5.302425187748791e-21
5.3255160863122235 2.806016864817656e-23 3.9666274303053215e-15 3.9666220359107685e-15 5.394394554025578e-21
5.365609099470188 2.9018793985325823e-23 4.13302300079219e-15 4.133017414852143e-15 5.5859400464349624e-21
5.406003951863644 3.0014039750850517e-23 4.30695411827951e-15 4.3069483346412125e-15 5.783638297491879e-21
5.446702915881641 3.1047676772717057e-23 4.4888203992766605e-15 4.488814411586425e-15 5.9876902343884714e-21
5.487708281020852 3.216461250670136e-23 4.685314775625657e-15 4.6853085767165746e-15 6.198909082613055e-21
5.529022354014368 3.371650641017867e-23 4.948349282757247e-15 4.948342860415754e-15 6.422341492265522e-21
5.570647458961463 3.535999969394165e-23 5.228623378721628e-15 5.228616725450113e-15 6.6532715147480734e-21
5.612585937458331 3.710168441065932e-23 5.527465795513019e-15 5.527458903551147e-15 6.891961871520377e-21
5.654840148729818 3.9016220960151874e-23 5.85645712206723e-15 5.856449982484599e-15 7.139582632566726e-21
5.67608639626678 4.0319751079461556e-23 6.074859984056428e-15 6.07485271359887e-15 7.270457557788936e-21
5.686739436050992 4.099166702507805e-23 6.187687082543134e-15 6.187679745785455e-15 7.336757681690961e-21
5.6974124697621304 4.1677445460997204e-23 6.303012765162379e-15 6.303005361522266e-15 7.403640113788715e-21
5.718818669136295 4.309192493357542e-23 6.541414268861545e-15 6.541406729687699e-15 7.539173846989793e-21
5.740305295436557 4.465105639451666e-23 6.8035591060630136e-15 6.803551427962169e-15 7.678100845324181e-21
5.7835210386641895 4.8695209944328094e-23 7.475633394278743e-15 7.475625422837935e-15 7.971440808597733e-21
5.827062130521658 5.335399716670568e-23 8.252509694408206e-15 8.252501416156345e-15 8.278251857408822e-21
5.8489554468988025 5.662171729522428e-23 8.790848252785291e-15 8.790839806468833e-15 8.446316458551113e-21
5.870931020387893 6.012839185567054e-23 9.370354026138571e-15 9.370345408186552e-15 8.61795202055593e-21
5.892989160043636 6.389325365147196e-23 9.994477155506384e-15 9.994468362260076e-15 8.793246309134554e-21
5.915130176081913 6.81749125911237e-23 1.070430141429074e-14 1.0704292437699195e-14 8.97659154512174e-21
5.95966208400165 8.014541616434374e-23 1.26785549464323e-14 1.26785455520612e-14 9.394371099259872e-21
6.004529249263818 9.739822503630149e-23 1.552385009007773e-14 1.5523840212156605e-14 9.877921119280235e-21
6.027089341400364 1.093906399915495e-22 1.750077274864521e-14 1.750076258626949e-14 1.0162375722591882e-20
6.049734195844842 1.2356248276513682e-22 1.9842315592785258e-14 1.9842305123745766e-14 1.0469039494589384e-20
6.095279466722835 1.6449804340617547e-22 2.6614835877588326e-14 2.661482464170057e-14 1.1235887755409221e-20
6.141167624020661 2.2749595776432413e-22 3.708464013898926e-14 3.708462787994879e-14 1.2259040466957218e-20
6.164241091010745 2.6772636190419586e-22 4.3806664402229686e-14 4.380665149696101e-14 1.2905268672780488e-20
6.187401249150058 3.1355528744920208e-22 5.14981754298801e-14 5.1498161836390776e-14 1.359348931854252e-20
6.1990139391386085 3.3593297128201524e-22 5.527702701855403e-14 5.5277013072273966e-14 1.3946280049879924e-20
6.204828454712694 3.4772074425372985e-22 5.727034674788279e-14 5.72703326207082e-14 1.4127174602561906e-20
6.210648424152782 3.563261376668278e-22 5.87427208883073e-14 5.874270660641678e-14 1.4281890525733525e-20
6.233982942956859 3.8556371254933713e-22 6.380154507262921e-14 6.380153023677151e-14 1.483585769527701e-20
6.239830258556775 3.8930204283209304e-22 6.448057349725759e-14 6.448055857727617e-14 1.491998142179383e-20
6.245683058788269 3.8962767817759947e-22 6.459504058666049e-14 6.459502558204997e-14 1.5004610507448124e-20
6.257405133728602 3.8882785624918924e-22 6.458342577938745e-14 6.45834106222978e-14 1.5157089655574818e-20
6.269149208991335 3.830819250202191e-22 6.374846040795416e-14 6.374844517660483e-14 1.5231349307141374e-20
6.280915325867298 3.68667751976409e-22 6.146494855335413e-14 6.146493334510937e-14 1.5208244749177826e-20
6.304513850009849 3.3312006192357723e-22 5.574704155911916e-14 5.574702648674295e-14 1.5072376205880344e-20
6.32820103803542 2.890564618449075e-22 4.855482387624246e-14 4.8554809043827235e-14 1.4832415232602983e-20
6.3519772230701035 2.486472866832796e-22 4.192393988891596e-14 4.192392527279116e-14 1.4616124804966856e-20
6.375842739491607 2.1465262861934043e-22 3.6328146549170386e-14 3.6328132115351946e-14 1.4433818447851305e-20
6.399797922933955 1.8740829132007018e-22 3.183643977331533e-14 3.1836425420350055e-14 1.4352965279559206e-20
6.42384311029221 1.6475832158496541e-22 2.809387965761054e-14 2.809386535961684e-14 1.4297993698309282e-20
6.447978639727206 1.4825459965308342e-22 2.537471654511275e-14 2.5374702214977533e-14 1.4330135226098317e-20
6.472204850670314 1.3450755511793053e-22 2.310831965409166e-14 2.3108305271590343e-14 1.438250131289915e-20
6.496522083828205 1.255756213844602e-22 2.1654875340881758e-14 2.1654860831874095e-14 1.450900766949147e-20
