Dust emission spectrum from A.P. Jones, M. Kohler, N. Ysard, M. Bocchio, and L. Verstraete (2017), A&A, 602A, 46J 
inside the DustPedia framework.

lambda    nu*dP/dnu     j_nu    j_nu(carb.) j_nu(sil)
 (um)   (erg s-1 H-1) (Jy cm2 sr-1 H-1)
0.9927057738263894 3.1257103390475047e-21 8.236424280193138e-14 8.23642242644103e-14 1.8537521066388688e-20
1.0001793341362166 3.1781785253304357e-21 8.437729504752443e-14 8.43772727431057e-14 2.230441871688638e-20
1.0077091589558085 3.2308701290274486e-21 8.642196563638301e-14 8.642193883554055e-14 2.68008424629915e-20
1.0114953028030835 3.257297612318378e-21 8.745622842017667e-14 8.74561990566094e-14 2.936356726941849e-20
1.0152956718711033 3.28377847600988e-21 8.849848167088478e-14 8.849844951033248e-14 3.2160552305026696e-20
1.0229392996569957 3.336871407198558e-21 9.060637751603519e-14 9.060633897516897e-14 3.854086620974596e-20
1.0267826658714554 3.3634233595674135e-21 9.167047832856185e-14 9.167043615718544e-14 4.217137638988044e-20
1.0306404723013447 3.390024401041272e-21 9.274263909630434e-14 9.274259296788993e-14 4.6128414406758085e-20
1.03451277320114 3.416673859054903e-21 9.382289194026879e-14 9.382284150042068e-14 5.043984810620654e-20
1.0383996230291617 3.443371089186076e-21 9.49112697649475e-14 9.491121462916147e-14 5.513578608085069e-20
1.0403485208654093 3.456737425291463e-21 9.545851605028882e-14 9.545845841228184e-14 5.763800697580203e-20
1.0423010764483396 3.4701154758964464e-21 9.60078062922839e-14 9.6007746043538e-14 6.024874590228946e-20
1.0462171883269815 3.496906433272707e-21 9.711253609625866e-14 9.711247028242467e-14 6.581383400828354e-20
1.0471985131304309 3.503611383502335e-21 9.739000288233543e-14 9.73899356022084e-14 6.728012704359282e-20
1.048180758391296 3.510319201145654e-21 9.766798452298579e-14 9.766791574533393e-14 6.87776518741355e-20
1.0501480137395462 3.5237434057678306e-21 9.82254946381006e-14 9.82254227691626e-14 7.186893797757293e-20
1.0521189612883777 3.537178982562186e-21 9.878507101876888e-14 9.878499592587236e-14 7.509289652107787e-20
1.0531058218030118 3.5438921828816085e-21 9.906538858900524e-14 9.906531183258416e-14 7.67564210840543e-20
1.0540936079674168 3.55057926542718e-21 9.934541433306313e-14 9.934533587752621e-14 7.845553692541968e-20
1.058054026499678 3.5773544828946005e-21 1.0047065976885871e-13 1.0047057415015286e-13 8.56187058580859e-20
1.0590464539527713 3.5840549737899256e-21 1.0075325969618811e-13 1.0075317219129883e-13 8.750488925898793e-20
1.06003981227728 3.590758125636254e-21 1.0103637624634175e-13 1.0103628681557727e-13 8.943076448900927e-20
1.0620293250338977 3.604172385915646e-21 1.0160416163878016e-13 1.0160406823400231e-13 9.340477781010946e-20
1.0660195594769086 3.631032556434255e-21 1.0274595879179624e-13 1.027458569267772e-13 1.0186501902652473e-19
1.070024785945596 3.657934610760485e-21 1.0389609115644376e-13 1.0389598010178471e-13 1.110546590171954e-19
1.0740450607676866 3.6848782003060104e-21 1.0505459977992477e-13 1.0505447874674914e-13 1.2103317559603448e-19
1.07808044048254 3.711863012318733e-21 1.0622152686785331e-13 1.0622139500325458e-13 1.3186459874426495e-19
1.0861967418109137 3.765914229097044e-21 1.0857962896579228e-13 1.0857947259876573e-13 1.5636702652161473e-19
1.0902777775684922 3.7928869663854716e-21 1.0976818760030279e-13 1.0976801740838605e-13 1.7019191673323082e-19
1.0943741465085532 3.819898450307291e-21 1.1096527029881812e-13 1.1096508512065374e-13 1.8517816438866557e-19
1.1026131145906286 3.8740372392182544e-21 1.1338520192662926e-13 1.1338498291669882e-13 2.1900993042518568e-19
1.1109141095355224 3.928330167360536e-21 1.1583982636634063e-13 1.1583956768239068e-13 2.586839499329942e-19
1.1192775983109025 3.982735334881995e-21 1.1832831819059468e-13 1.183280130435687e-13 3.0514702594305326e-19
1.1277040513999907 4.03705998640926e-21 1.2084530338386207e-13 1.2084494389518514e-13 3.594886769815015e-19
1.1361939428280308 4.0915353689953964e-21 1.233980260415376e-13 1.2339760308059686e-13 4.2296094075716044e-19
1.1447477501889525 4.146163933803904e-21 1.2598699030940165e-13 1.2598649330876745e-13 4.970006341777027e-19
1.1533659546722406 4.200967816782362e-21 1.2861330993058586e-13 1.2861272667536613e-13 5.832552197132945e-19
1.1707974979042381 4.3112731086914275e-21 1.3398517687772863e-13 1.3398437665032786e-13 8.002274007746505e-19
1.1884924949847024 4.4223292397721014e-21 1.3951372968965765e-13 1.395126372915534e-13 1.0923981042525516e-18
1.2064549276569216 4.534896150801943e-21 1.452271721187789e-13 1.4522568825889425e-13 1.483859884648636e-18
1.2246888378427687 4.64828886501031e-21 1.5110829377484207e-13 1.5110628807558627e-13 2.0056992558249682e-18
1.2431983285522175 4.762446159305975e-21 1.5715924345625895e-13 1.571565455718031e-13 2.6978844558233833e-18
1.2619875648066055 4.877570019160379e-21 1.633909587495551e-13 1.6338734720758848e-13 3.611541966668374e-18
1.3004222497298317 5.110197013416395e-21 1.7639711112400223e-13 1.7639073057374207e-13 6.380550260143745e-18
1.3400274889804893 5.347249000840815e-21 1.9020132958526244e-13 1.9019026411599055e-13 1.1065469271903859e-17
1.3808389325824078 5.590083221035884e-21 2.0489470244781132e-13 2.0487585585705928e-13 1.8846590752075185e-17
1.4228933163050095 5.841312652063399e-21 2.20623730930862e-13 2.2059219083874725e-13 3.154009211471307e-17
1.466228494730424 6.1059200799286434e-21 2.3764145564693274e-13 2.3758956630866094e-13 5.1889338271779404e-17
1.5108834753276823 6.38452571694364e-21 2.5605251446041764e-13 2.559685549068846e-13 8.395955353298488e-17
1.5568984535646726 6.6783241943142676e-21 2.7599246036213967e-13 2.758587087564747e-13 1.3375160566497058e-16
1.6043148490894465 6.990652994724991e-21 2.976985924284267e-13 2.9748841777529005e-13 2.101746531366649e-16
1.6531753430134553 7.325380124054985e-21 3.2145376590507486e-13 3.2112838257507775e-13 3.253833299969686e-16
1.7035239163302658 7.687180973425443e-21 3.476040066183334e-13 3.471075918035829e-13 4.964148147505005e-16
1.755405889504358 8.084997581651335e-21 3.767271139145921e-13 3.7598041587814536e-13 7.466980364468017e-16
1.8088679632656115 8.522901986126489e-21 4.0922654232658407e-13 4.0811877462521184e-13 1.1077677013722958e-15
1.8639582606462262 9.00560220927344e-21 4.4557249656450936e-13 4.439509584777965e-13 1.6215380867129038e-15
1.9207263702978936 9.539880853959882e-21 4.863824351517213e-13 4.840395975942252e-13 2.3428375574961966e-15
1.979223391128241 1.013403236158939e-20 5.324104055285602e-13 5.290679962844722e-13 3.342409244087814e-15
2.039501978296691 1.0797123773505943e-20 5.845230529402088e-13 5.798129317457466e-13 4.7101211944623005e-15
2.1016163906111602 1.15422523204136e-20 6.438926148058025e-13 6.373336317449514e-13 6.558983060851152e-15
2.1656225393682647 1.2381363783781472e-20 7.117388625270801e-13 7.027102765787759e-13 9.028585948304223e-15
2.231578038680979 1.3324071502454655e-20 7.892570437847223e-13 7.769681074718103e-13 1.2288936312912089e-14
2.299542257339062 1.438255593334179e-20 8.779037405658162e-13 8.613593717800664e-13 1.6544368785749875e-14
2.369576372248914 1.5570937691437656e-20 9.793882979139357e-13 9.573506744501003e-13 2.203762346383557e-14
2.4417434235010123 1.6904281412171477e-20 1.0956356972683236e-12 1.066583071992241e-12 2.905262527608244e-14
2.5161083711144245 1.840051003733662e-20 1.2289342185471833e-12 1.1910159289545746e-12 3.791828959260851e-14
2.5927381535095444 2.0080495654671866e-20 1.3819824252218976e-12 1.3329721418725962e-12 4.901028334930137e-14
2.6717017477616296 2.1963758726825838e-20 1.5576291708161162e-12 1.4948798925773256e-12 6.274927823879092e-14
2.753070231689431 2.4071773270311614e-20 1.7591173326485505e-12 1.679516956664445e-12 7.960037598410505e-14
2.836916847834745 2.6440679734612967e-20 1.991079749279002e-12 1.8910054918816495e-12 1.0007425739735313e-13
2.9233170693905177 2.913171446686281e-20 2.2605358559826274e-12 2.135838959032792e-12 1.2469689694983525e-13
2.967498994190263 3.0630007464695004e-20 2.412721065854615e-12 2.274264799259435e-12 1.3845626659518033e-13
3.0123486681368425 3.2222890551427934e-20 2.5765535176654472e-12 2.42301774599645e-12 1.5353577166899702e-13
3.0578761833420214 3.423103977855097e-20 2.778493726931968e-12 2.6084031764065224e-12 1.7009055052544525e-13
3.1040917844459814 3.644502888494835e-20 3.0029097925814937e-12 2.814855838898893e-12 1.880539536826e-13
3.127460860933648 3.80141052557423e-20 3.155775420838559e-12 2.9581238800524133e-12 1.9765154078614507e-13
3.1510058709225794 3.985390622829475e-20 3.3334161870490977e-12 3.125775397346659e-12 2.0764078970243905e-13
3.162844764501044 4.126960306230848e-20 3.464795460158911e-12 3.2519909141198304e-12 2.1280454603908066e-13
3.1747281389236908 4.283041886423061e-20 3.6093441677333795e-12 3.391274872330904e-12 2.180692954024751e-13
3.1986289994194426 4.683199757944678e-20 3.976271093819495e-12 3.747337098530027e-12 2.289339952894676e-13
3.2227097969389145 5.524071089069015e-20 4.725523108067137e-12 4.485091579096295e-12 2.404315289708426e-13
3.2348180950136065 6.283556630286842e-20 5.395414693847626e-12 5.148851185392467e-12 2.465635084551598e-13
3.240889293275058 6.842594358956424e-20 5.886463075506278e-12 5.636665080829866e-12 2.4979799467641246e-13
3.2469718861334385 7.487677655763416e-20 6.4534968310057344e-12 6.200352109293649e-12 2.5314472171208396e-13
3.2714166318528037 1.0842966728675249e-19 9.415717405075333e-12 9.148754645997007e-12 2.6696275907832734e-13
3.2744851364798273 1.105684825684891e-19 9.610451821801344e-12 9.341864126984277e-12 2.685876948170657e-13
3.2775565192852394 1.127618300510488e-19 9.810287571877419e-12 9.540067137449599e-12 2.702204344278166e-13
3.283707930232385 1.109102737331508e-19 9.667311930786515e-12 9.394178701970179e-12 2.7313322881633287e-13
3.2898708863219004 1.0464776010811754e-19 9.138569607922736e-12 8.862792071188603e-12 2.7577753673413113e-13
3.29141343181113 1.0316966489390885e-19 9.013716408083089e-12 8.737275036164302e-12 2.764413719187897e-13
3.292184975758714 1.024432019526498e-19 8.952344907900641e-12 8.675571204312694e-12 2.7677370358794716e-13
3.295272960557952 9.787539632191013e-20 8.56119445339544e-12 8.283129270360044e-12 2.7806518303539447e-13
3.3076538914384823 8.196226382480267e-20 7.196203522887646e-12 6.9129543614277365e-12 2.832491614599049e-13
3.310756385682612 7.870106307798909e-20 6.916354692861824e-12 6.631799528543515e-12 2.84555164318309e-13
3.313861789986515 7.568368425289554e-20 6.657422044603415e-12 6.371556870532614e-12 2.8586517407080043e-13
3.3200813396944477 7.153014993845525e-20 6.303870635042764e-12 6.015184722097079e-12 2.88685912945686e-13
3.345076488085796 6.474459175884157e-20 5.748823598321661e-12 5.447559124683977e-12 3.0126447363768385e-13
3.3482140837626964 6.515482649588884e-20 5.790675714254337e-12 5.487706920575586e-12 3.0296879367875e-13
3.3513546224236106 6.556810897740758e-20 5.832872409066402e-12 5.52819196610903e-12 3.046804429573737e-13
3.3576445397418455 6.795707593183408e-20 6.056738647937317e-12 5.748478380942173e-12 3.082602669951436e-13
3.3702598118196083 7.62678006916491e-20 6.8229790495214965e-12 6.5072105144841094e-12 3.157685350373866e-13
3.382922481734668 7.85719591085407e-20 7.055520551552115e-12 6.732464884094028e-12 3.230556674580871e-13
3.389271646505754 7.975445064970123e-20 7.1751459495203304e-12 6.848398787471878e-12 3.267471620484524e-13
3.395632727569191 8.104320383697704e-20 7.304773347468518e-12 6.974221868843148e-12 3.3055147862537034e-13
3.421196662673239 8.714678416698572e-20 7.914050887361138e-12 7.567762902333963e-12 3.462879850271743e-13
3.4276182099114902 8.639945156498845e-20 7.860910654872798e-12 7.511122600891349e-12 3.4978805398144955e-13
3.4340518103208963 8.231282821857139e-20 7.503152962637876e-12 7.150060189701487e-12 3.5309277293638753e-13
3.4469541582030403 7.654352911092094e-20 7.003472418451885e-12 6.644048278814783e-12 3.594241396371022e-13
3.472904465399547 7.563365167732211e-20 6.97232044405953e-12 6.598293837144447e-12 3.740266069150825e-13
3.4990501388274233 7.386597384520297e-20 6.860630451069556e-12 6.4716868700607956e-12 3.889435810087618e-13
3.5253949054701885 6.555856907342484e-20 6.134888464313097e-12 5.7314948799106064e-12 4.0339358440248897e-13
3.5519380250092896 5.768247170464233e-20 5.438494257113516e-12 5.020610716615914e-12 4.178835404976021e-13
3.578680990867387 5.516083100476946e-20 5.2399026652058534e-12 4.806141958574383e-12 4.3376070663146907e-13
3.605625307711299 5.475040793611417e-20 5.240073586008447e-12 4.789611499999932e-12 4.5046208600851583e-13
3.660119384959845 5.575275549652723e-20 5.416653076909176e-12 4.931195745798493e-12 4.854573311106823e-13
3.715437065384467 5.706329513385148e-20 5.6277680408852856e-12 5.105554388756003e-12 5.22213652129282e-13
3.8285932144167436 6.087995211492195e-20 6.187040522951153e-12 5.586303317869651e-12 6.007372050814996e-13
3.94519561050918 6.509291407408056e-20 6.8166608765974314e-12 6.131008737815914e-12 6.856521387815165e-13
4.06534921144712 6.949782302169554e-20 7.499606745800453e-12 6.722917432483451e-12 7.766893133170031e-13
4.189162171576248 7.401370372582694e-20 8.230168816981848e-12 7.356321464871049e-12 8.738473521108005e-13
4.316745939156006 7.858336888878681e-20 9.004437031327246e-12 8.027871871214526e-12 9.765651601127202e-13
4.448215356677963 8.315233552135562e-20 9.818150613124652e-12 8.734962209957932e-12 1.08318840316672e-12
4.58368876423945 8.768705418417148e-20 1.066890957990375e-11 9.475243389437302e-12 1.1936661904664449e-12
4.723288106065518 9.216242416080444e-20 1.1554941726479009e-11 1.0246420243355738e-11 1.3085214831232686e-12
4.867139040275056 9.652797463001982e-20 1.2470859312682437e-11 1.1046523186368984e-11 1.424336126313454e-12
4.940699165968905 9.867872416242767e-20 1.294140324648062e-11 1.145847956153951e-11 1.4829236849411055e-12
5.015371051989984 1.0077810209580592e-19 1.3416482769366697e-11 1.1874733521810666e-11 1.541749247556028e-12
5.091171501069577 1.0288349097083448e-19 1.3903778868976385e-11 1.2301629071414303e-11 1.6021497975620817e-12
5.129500256944802 1.0391319359198244e-19 1.4148655793904364e-11 1.2516299305766776e-11 1.6323564881375865e-12
5.168117569889187 1.0493375910830277e-19 1.4395178321034439e-11 1.2732284979987459e-11 1.6628933410469792e-12
5.20702561229733 1.059975875404992e-19 1.4650590447405447e-11 1.2954151562950098e-11 1.6964388844553452e-12
5.246226572918644 1.0704593610023792e-19 1.4906876734489467e-11 1.3176807291648265e-11 1.730069442841205e-12
5.265937586045735 1.0756414983653776e-19 1.503532047448999e-11 1.328840936753361e-11 1.7469111069563813e-12
5.285722656980489 1.0807830891318231e-19 1.516395006552917e-11 1.3400182661877717e-11 1.7637674036514503e-12
5.305582063971359 1.085883539085992e-19 1.529275458509397e-11 1.3512118485563177e-11 1.7806360995307947e-12
5.3255160863122235 1.0910264891220652e-19 1.5422913715176556e-11 1.3625247899742334e-11 1.7976658154342237e-12
5.365609099470188 1.1018340876759708e-19 1.5692952745467224e-11 1.3860036785605744e-11 1.8329159598614775e-12
5.406003951863644 1.1124968992619982e-19 1.5964105937168525e-11 1.4095864431929642e-11 1.868241505238882e-12
5.446702915881641 1.1230121163970843e-19 1.623631852914622e-11 1.4332694011775552e-11 1.903624517370667e-12
5.487708281020852 1.1335297178090813e-19 1.6511759730838218e-11 1.457254328884006e-11 1.9392164419981563e-12
5.529022354014368 1.145241664749805e-19 1.6807956617467306e-11 1.4831640089889112e-11 1.9763165275781958e-12
5.570647458961463 1.1568796971582e-19 1.710658451155513e-11 1.50930991894064e-11 2.013485322148726e-12
5.612585937458331 1.1684487857868697e-19 1.7407729055530682e-11 1.535702446976712e-11 2.0507045857635596e-12
5.654840148729818 1.1801793926282366e-19 1.7714862790872687e-11 1.5626700149574938e-11 2.0881626412977487e-12
5.67608639626678 1.187012769394811e-19 1.7884377210437967e-11 1.5776580478611923e-11 2.107796731826046e-12
5.686739436050992 1.1904408178661182e-19 1.796968946575365e-11 1.5852068170556474e-11 2.1176212951971817e-12
5.6974124697621304 1.1938770146731587e-19 1.8055382186417775e-11 1.59279317022693e-11 2.127450484148478e-12
5.718818669136295 1.200775658665902e-19 1.8227941869402646e-11 1.608082029451672e-11 2.147121574885925e-12
5.740305295436557 1.2079885154984073e-19 1.8406331066442613e-11 1.62393606435938e-11 2.166970422848813e-12
5.7835210386641895 1.2248046327958447e-19 1.880306178957633e-11 1.659509060949017e-11 2.207971180086159e-12
5.827062130521658 1.2426690324176523e-19 1.9220937102285232e-11 1.6971478672941143e-11 2.2494584293440907e-12
5.8489554468988025 1.254184294452765e-19 1.9471934692610896e-11 1.719995981952015e-11 2.2719748730907493e-12
5.870931020387893 1.266058519121524e-19 1.9730141079531642e-11 1.7435599494145238e-11 2.294541585386398e-12
5.892989160043636 1.2783231620854241e-19 1.999611995111337e-11 1.767896374465219e-11 2.317156206461186e-12
5.915130176081913 1.2917801195769536e-19 2.0282539772175062e-11 1.794190459738923e-11 2.340635174785829e-12
5.95966208400165 1.3275571979476533e-19 2.1001209656453525e-11 1.860642624459362e-11 2.394783411859911e-12
6.004529249263818 1.376065329810535e-19 2.1932465284834807e-11 1.9476382458302855e-11 2.456082826531952e-12
6.027089341400364 1.4087167475383585e-19 2.253724054250339e-11 2.0045415923114856e-11 2.4918246193885303e-12
6.049734195844842 1.446165516789299e-19 2.3223289093405164e-11 2.0693534077880583e-11 2.529755015524579e-12
6.095279466722835 1.551717207091771e-19 2.5105890586919163e-11 2.2481808342977875e-11 2.6240822439412945e-12
6.141167624020661 1.7085368447011704e-19 2.7851252687129408e-11 2.5103392304759726e-11 2.747860382369678e-12
6.164241091010745 1.807842149784713e-19 2.958077560407144e-11 2.6754578879728157e-11 2.8261967243432723e-12
6.187401249150058 1.9175031584141587e-19 3.1492983212843856e-11 2.858647438544484e-11 2.906508827399008e-12
6.1990139391386085 1.9706233962176785e-19 3.242617189387836e-11 2.947882125293322e-11 2.947350640945151e-12
6.204828454712694 1.9983131488007543e-19 3.291264292795931e-11 2.994467709681443e-11 2.96796583114489e-12
6.210648424152782 2.0183749098538452e-19 3.327424554197799e-11 3.0288859088367375e-11 2.9853864536106155e-12
6.233982942956859 2.085042740280179e-19 3.450245550670738e-11 3.1456939938430334e-11 3.0455155682770597e-12
6.239830258556775 2.0927362423690942e-19 3.466224633828994e-11 3.1608845697002075e-11 3.053400641287859e-12
6.245683058788269 2.0924516121068174e-19 3.469003984569436e-11 3.162874629679629e-11 3.0612935488980696e-12
6.257405133728602 2.088356234613812e-19 3.468712380335877e-11 3.1612282854146475e-11 3.0748409492123035e-12
6.269149208991335 2.072367443117997e-19 3.4486156947072874e-11 3.1407635184151694e-11 3.0785217629211794e-12
6.280915325867298 2.0358393840873742e-19 3.394187919474709e-11 3.0871859688883484e-11 3.0700195058636148e-12
6.304513850009849 1.9471565028063416e-19 3.258531289206978e-11 2.954329355306864e-11 3.0420193390011357e-12
6.32820103803542 1.8404006324651564e-19 3.091448916268026e-11 2.791216603874219e-11 3.002323123938067e-12
6.3519772230701035 1.7435782813353266e-19 2.9398137431288986e-11 2.6431759774094497e-11 2.9663776571944878e-12
6.375842739491607 1.6613043201777784e-19 2.8116174115535813e-11 2.518188000854574e-11 2.934294106990079e-12
6.399797922933955 1.5976041555883833e-19 2.7139689563746045e-11 2.422365154326872e-11 2.9160380204773256e-12
6.42384311029221 1.5440663850440758e-19 2.6328755226132642e-11 2.3428203089316242e-11 2.900552136816402e-12
6.447978639727206 1.5060782765155117e-19 2.5777486466362206e-11 2.2881675130754398e-11 2.895811335607803e-12
6.472204850670314 1.474226583485105e-19 2.5327126869464567e-11 2.243393392761396e-11 2.893192941850612e-12
6.496522083828205 1.4542470100850635e-19 2.5077747871004438e-11 2.2178500802899616e-11 2.89924706810482e-12
