Dust emission spectrum from A.P. Jones, M. Kohler, N. Ysard, M. Bocchio, and L. Verstraete (2017), A&A, 602A, 46J 
inside the DustPedia framework.

lambda    nu*dP/dnu     j_nu    j_nu(carb.) j_nu(sil)
 (um)   (erg s-1 H-1) (Jy cm2 sr-1 H-1)
0.9927057738263894 8.984509926948234e-22 2.367469396748476e-14 2.3674689047174608e-14 4.920310147099851e-21
1.0001793341362166 9.135459512886486e-22 2.4253683566545208e-14 2.425367764591465e-14 5.920630555011261e-21
1.0077091589558085 9.287034543260123e-22 2.484172214013216e-14 2.4841715025326132e-14 7.114806034811193e-21
1.0114953028030835 9.363050220855496e-22 2.5139153871847263e-14 2.5139146076370252e-14 7.795477011964684e-21
1.0152956718711033 9.439214733925359e-22 2.5438871051158123e-14 2.5438862512749273e-14 8.538408854275537e-21
1.0229392996569957 9.591906545187098e-22 2.604499243383749e-14 2.604498220055571e-14 1.0233281780336249e-20
1.0267826658714554 9.668260809434933e-22 2.63509525342709e-14 2.6350941336498446e-14 1.1197772455847302e-20
1.0306404723013447 9.744750991027757e-22 2.6659215903184833e-14 2.665920365411625e-14 1.2249068569931312e-20
1.03451277320114 9.821375008592972e-22 2.6969791210653195e-14 2.696977781606844e-14 1.33945847585768e-20
1.0383996230291617 9.898130859961737e-22 2.7282687339999726e-14 2.7282672697667294e-14 1.4642332434208803e-20
1.0403485208654093 9.936557619822223e-22 2.7440008549577405e-14 2.74399932423566e-14 1.530722080364726e-20
1.0423010764483396 9.975016624283142e-22 2.759791339736575e-14 2.75978973964011e-14 1.6000964644792595e-20
1.0462171883269815 1.005203046413905e-21 2.7915478721453908e-14 2.7915461241629874e-14 1.7479824045357104e-20
1.0471985131304309 1.007130372869807e-21 2.7995236680224895e-14 2.7995218810735876e-14 1.786948901234767e-20
1.048180758391296 1.0090584861533433e-21 2.8075141592892123e-14 2.8075123325432493e-14 1.826745963453835e-20
1.0501480137395462 1.0129170627659107e-21 2.8235392893448647e-14 2.8235373804454468e-14 1.9088994177951635e-20
1.0521189612883777 1.0167787557246056e-21 2.8396233860316047e-14 2.8396213914503177e-14 1.9945812871153352e-20
1.0531058218030118 1.0187082179751007e-21 2.8476804672555636e-14 2.8476784284624694e-14 2.038793093944687e-20
1.0540936079674168 1.0206301089844814e-21 2.8557289804840794e-14 2.855726896532617e-14 2.0839514625995296e-20
1.058054026499678 1.02832500585523e-21 2.8880697255222074e-14 2.888067451183949e-14 2.27433825789763e-20
1.0590464539527713 1.0302505518858708e-21 2.896191664619887e-14 2.8961893401477104e-14 2.3244721754999017e-20
1.06003981227728 1.032176822212397e-21 2.9043283371621206e-14 2.9043259615002666e-14 2.3756618538427594e-20
1.0620293250338977 1.0360315271920134e-21 2.920645948097369e-14 2.920643466804021e-14 2.4812933478068793e-20
1.0660195594769086 1.0437495366395741e-21 2.953458698421557e-14 2.9534559922399937e-14 2.7061815634360755e-20
1.070024785945596 1.0514789075402145e-21 2.9865090563815206e-14 2.986506105908159e-14 2.950473360947693e-20
1.0740450607676866 1.0592195231435946e-21 3.019798132640915e-14 3.019794916888488e-14 3.2157524280201367e-20
1.07808044048254 1.066971276816283e-21 3.053327069760855e-14 3.053323566037061e-14 3.503723793452247e-20
1.0861967418109137 1.0824960091906725e-21 3.121075199396032e-14 3.1210710441729106e-14 4.1552231211822915e-20
1.0902777775684922 1.0902419665032249e-21 3.155218854910811e-14 3.155214332061144e-14 4.522849666789043e-20
1.0943741465085532 1.0979982788510057e-21 3.189605100380026e-14 3.189600178996223e-14 4.9213838021420635e-20
1.1026131145906286 1.1135417773842108e-21 3.2591106250678254e-14 3.25910480389782e-14 5.821170005667827e-20
1.1109141095355224 1.129126237934482e-21 3.329602700780456e-14 3.329595824308629e-14 6.876471826698428e-20
1.1192775983109025 1.1447394440759419e-21 3.401056856517329e-14 3.401048743998844e-14 8.112518486038076e-20
1.1277040513999907 1.16032571922069e-21 3.473317563657014e-14 3.4733080053100936e-14 9.558346920019893e-20
1.1361939428280308 1.175951519563682e-21 3.5465927371497755e-14 3.546581489819116e-14 1.12473306598227e-19
1.1447477501889525 1.1916173933399825e-21 3.6208961195005963e-14 3.620882901725573e-14 1.3217775024243882e-19
1.1533659546722406 1.2073295937661709e-21 3.696259100369616e-14 3.696243586761185e-14 1.5513608430673073e-19
1.1707974979042381 1.2389420532466646e-21 3.85036776748981e-14 3.850346477532307e-14 2.1289957502788413e-19
1.1884924949847024 1.2707519690215478e-21 4.008913337212511e-14 4.0088842667780326e-14 2.9070434478464834e-19
1.2064549276569216 1.3029772863251305e-21 4.172702093619862e-14 4.172662595666283e-14 3.949795357956646e-19
1.2246888378427687 1.335418722645094e-21 4.3412285792490574e-14 4.341175176894566e-14 5.340235449198766e-19
1.2431983285522175 1.3680574101763178e-21 4.514546944912257e-14 4.5144750939606084e-14 7.18509516499234e-19
1.2619875648066055 1.4009495137087054e-21 4.692961521934061e-14 4.692865312421046e-14 9.620951301559838e-19
1.3004222497298317 1.4673371548022008e-21 5.065050025908472e-14 5.064879958798443e-14 1.7006711002764361e-18
1.3400274889804893 1.5348778846464184e-21 5.459551525744529e-14 5.4592564221805627e-14 2.951035639660175e-18
1.3808389325824078 1.6039465590642844e-21 5.878984980491361e-14 5.878482076550429e-14 5.029039409321576e-18
1.4228933163050095 1.6752789767444145e-21 6.32745275274435e-14 6.326610644850958e-14 8.421078933913073e-18
1.466228494730424 1.750292609788282e-21 6.812111494309258e-14 6.810725248746155e-14 1.386245563101712e-17
1.5108834753276823 1.8291439079290832e-21 7.335813460540108e-14 7.3335690930501e-14 2.2443674900077434e-17
1.5568984535646726 1.9121530808474164e-21 7.90227934459106e-14 7.898701771290631e-14 3.577573300432042e-17
1.6043148490894465 2.000255299595105e-21 8.518133965972795e-14 8.51250876571149e-14 5.625200261303789e-17
1.6531753430134553 2.0945347290132062e-21 9.191278337206009e-14 9.182564190744691e-14 8.714146461318244e-17
1.7035239163302658 2.196305496951485e-21 9.931398690071577e-14 9.918095672853756e-14 1.3303017217818908e-16
1.755405889504358 2.308106355333532e-21 1.0754811452585879e-13 1.0734788401799717e-13 2.0023050786165963e-16
1.8088679632656115 2.431066143439304e-21 1.1672747072139392e-13 1.1643022354008177e-13 2.9724718131217655e-16
1.8639582606462262 2.5664932850458745e-21 1.2698304831367855e-13 1.265476527444753e-13 4.353955692032523e-16
1.9207263702978936 2.7162870080418425e-21 1.3848750416982203e-13 1.3785801115674532e-13 6.294930130767484e-16
1.979223391128241 2.8827752118509737e-21 1.5145200496957376e-13 1.5055332640421578e-13 8.98678565357992e-16
2.039501978296691 3.0685044404747913e-21 1.6611938708233473e-13 1.6485209385115196e-13 1.2672932311828048e-15
2.1016163906111602 3.2771750560012527e-21 1.8281950155022996e-13 1.8105351992144553e-13 1.765981628784351e-15
2.1656225393682647 3.5121522198797814e-21 2.018949826249055e-13 1.9946233865726683e-13 2.4326439676386365e-15
2.231578038680979 3.776131241231879e-21 2.2368074051904834e-13 2.203672411639373e-13 3.313499355111052e-15
2.299542257339062 4.072543749285514e-21 2.485859542410947e-13 2.4412177762179564e-13 4.464176619299034e-15
2.369576372248914 4.4053883026131795e-21 2.770922237855235e-13 2.7114136753201964e-13 5.9508562535039234e-15
2.4417434235010123 4.778944609799013e-21 3.0974296878386134e-13 3.01891900148507e-13 7.85106863535428e-15
2.5161083711144245 5.198331679051919e-21 3.471864457442738e-13 3.36931669772465e-13 1.0254775971808906e-14
2.5927381535095444 5.669550192694833e-21 3.901905042565403e-13 3.7692559477115095e-13 1.3264909485389308e-14
2.6717017477616296 6.1982557190839294e-21 4.395688386628991e-13 4.225718792270653e-13 1.6996959435833885e-14
2.753070231689431 6.790727959331843e-21 4.962528983809729e-13 4.746740097518425e-13 2.1578888629130402e-14
2.836916847834745 7.457588453681429e-21 5.615836467753107e-13 5.344321346331021e-13 2.7151512142208642e-14
2.9233170693905177 8.216975828424672e-21 6.376132962934687e-13 6.037528519809814e-13 3.386044431248708e-14
2.967498994190263 8.641393280870568e-21 6.806812447278181e-13 6.430674329608149e-13 3.761381176700326e-14
3.0123486681368425 9.09306489675837e-21 7.270846266479575e-13 6.853555063492752e-13 4.172912029868237e-14
3.0578761833420214 9.666260216685127e-21 7.845991108859203e-13 7.383502550915077e-13 4.624885579441281e-14
3.1040917844459814 1.0299923671296237e-20 8.486683260155477e-13 7.975123362750006e-13 5.1155989740547235e-14
3.127460860933648 1.0752877362587945e-20 8.926598654856006e-13 8.388809512468447e-13 5.377891423875586e-14
3.1510058709225794 1.1285790477233864e-20 9.439535599084386e-13 8.874438752457819e-13 5.650968466265663e-14
3.162844764501044 1.169839734445891e-20 9.821406314235832e-13 9.242190161865577e-13 5.792161523702538e-14
3.1747281389236908 1.2154046107812761e-20 1.0242284945345842e-12 9.648671170080682e-13 5.93613775265163e-14
3.1986289994194426 1.3325662263530365e-20 1.1314154510404927e-12 1.0690822194947148e-12 6.233323154577779e-14
3.2227097969389145 1.57992101026012e-20 1.3515309854861462e-12 1.2860519806118797e-12 6.547900487426626e-14
3.2348180950136065 1.8037994708337773e-20 1.5488435518797673e-12 1.4816866105443942e-12 6.715694133537286e-14
3.240889293275058 1.9687131213293528e-20 1.6936203561155367e-12 1.625578342415468e-12 6.804201370006898e-14
3.2469718861334385 2.1590493127308288e-20 1.8608463849894346e-12 1.7918885855233903e-12 6.895779946604393e-14
3.2714166318528037 3.1500057807593504e-20 2.7353735373499038e-12 2.6626339499937883e-12 7.273958735611533e-14
3.2744851364798273 3.21313664284203e-20 2.7928116752231023e-12 2.7196271720710494e-12 7.31845031520532e-14
3.2775565192852394 3.277885142399437e-20 2.8517625033191585e-12 2.7781309300381997e-12 7.363157328095939e-14
3.283707930232385 3.2229519676784155e-20 2.809233172073273e-12 2.7348036291755856e-12 7.442954289768694e-14
3.2898708863219004 3.037613194341995e-20 2.6526549244588704e-12 2.5775005966072168e-12 7.515432785165359e-14
3.29141343181113 2.993868177573941e-20 2.6156795937629622e-12 2.5403433045323063e-12 7.533628923065618e-14
3.292184975758714 2.972367982481446e-20 2.597504067148731e-12 2.5220766823526087e-12 7.542738479612265e-14
3.295272960557952 2.837173237780909e-20 2.481685152693936e-12 2.4059036901421924e-12 7.578146255174397e-14
3.3076538914384823 2.36622101773618e-20 2.0775180222158634e-12 2.0003151169715305e-12 7.7202905244333e-14
3.310756385682612 2.2697128184524645e-20 1.994653984253836e-12 1.9170929373830936e-12 7.756104687074182e-14
3.313861789986515 2.1804225023904948e-20 1.9179817918825036e-12 1.8400614897979944e-12 7.792030208450912e-14
3.3200813396944477 2.057411481383031e-20 1.8131733028449479e-12 1.7344796200310149e-12 7.869368281393263e-14
3.345076488085796 1.8556516779303463e-20 1.6476764879584486e-12 1.5655345444210926e-12 8.214194353735644e-14
3.3482140837626964 1.8676268956192115e-20 1.6598650152852119e-12 1.5772558754563245e-12 8.260913982888772e-14
3.3513546224236106 1.8796925823108357e-20 1.6721554383496789e-12 1.5890770736989447e-12 8.307836465073466e-14
3.3576445397418455 1.9500080837204083e-20 1.7379631425440621e-12 1.65390348698354e-12 8.405965556052266e-14
3.3702598118196083 2.1951691241844828e-20 1.9638160283422387e-12 1.8776982016832735e-12 8.611782665896495e-14
3.382922481734668 2.2626935393655415e-20 2.0318292874439026e-12 1.9437132433699142e-12 8.811604407398816e-14
3.389271646505754 2.2973595419770782e-20 2.066830111414035e-12 1.9777016888597627e-12 8.912842255427267e-14
3.395632727569191 2.3351358499519027e-20 2.104758611685602e-12 2.0145868712976454e-12 9.017174038795578e-14
3.421196662673239 2.514181111154542e-20 2.2832004007850744e-12 2.188712286594897e-12 9.448811419017838e-14
3.4276182099114902 2.4918420799787296e-20 2.2671611453495466e-12 2.1717122656532593e-12 9.544887969628666e-14
3.4340518103208963 2.3708103310797686e-20 2.1610911621525594e-12 2.064734784093056e-12 9.635637805950373e-14
3.4469541582030403 2.1998606016564926e-20 2.012797584210427e-12 1.9147018487574347e-12 9.80957354529925e-14
3.472904465399547 2.1720185945870992e-20 2.0022846069268715e-12 1.900178408026911e-12 1.0210619889996064e-13
3.4990501388274233 2.1187697202546707e-20 1.9679014984688146e-12 1.861696882139371e-12 1.0620461632944308e-13
3.5253949054701885 1.8719917505855973e-20 1.7517863428493074e-12 1.641609044578877e-12 1.1017729827042999e-13
3.5519380250092896 1.6380166222422082e-20 1.5443762602155931e-12 1.430213242612101e-12 1.141630176034921e-13
3.578680990867387 1.562289323150425e-20 1.4840682852458726e-12 1.3655377502711882e-12 1.1853053497468485e-13
3.605625307711299 1.5489660376713853e-20 1.4824905102254231e-12 1.359364531700773e-12 1.2312597852464966e-13
3.660119384959845 1.5762474185772315e-20 1.5314015161705019e-12 1.3986409467653459e-12 1.3276056940515575e-13
3.715437065384467 1.6126789310151716e-20 1.59047649226836e-12 1.4475884992597358e-12 1.4288799300862417e-13
3.8285932144167436 1.721015904119369e-20 1.7490150319648615e-12 1.5844637175916808e-12 1.645513143731808e-13
3.94519561050918 1.8412942924905665e-20 1.928240415176079e-12 1.7402210359481912e-12 1.8801937922788769e-13
4.06534921144712 1.9675472397916077e-20 2.123207592792624e-12 1.90998044169082e-12 2.1322715110180378e-13
4.189162171576248 2.097453248720934e-20 2.3323240769907077e-12 2.0921408298409805e-12 2.401832471497272e-13
4.316745939156006 2.2294037548324444e-20 2.5545514288402743e-12 2.2858090182078077e-12 2.6874241063246635e-13
4.448215356677963 2.3618835390558813e-20 2.788776547491552e-12 2.4903199273371534e-12 2.984566201543983e-13
4.58368876423945 2.4939629092927208e-20 3.034411980472342e-12 2.7050915878504433e-12 3.2932039262189844e-13
4.723288106065518 2.6249499333226387e-20 3.291053136964632e-12 2.9295656505795542e-12 3.614874863850773e-13
4.867139040275056 2.753455392793702e-20 3.5573060513172775e-12 3.1632855276455144e-12 3.9402052367176283e-13
4.940699165968905 2.817058202143527e-20 3.694482926505664e-12 3.283967600774459e-12 4.105153257312031e-13
5.015371051989984 2.879346910079401e-20 3.833244266634907e-12 3.406141022054117e-12 4.2710324458079006e-13
5.091171501069577 2.9420110076756637e-20 3.975863386324306e-12 3.5317064333392634e-12 4.4415695298504245e-13
5.129500256944802 2.9727442320683144e-20 4.047641444646579e-12 3.5949449638585396e-12 4.526964807880383e-13
5.168117569889187 3.003257562311275e-20 4.1199732594012535e-12 3.65863879274435e-12 4.613344666569033e-13
5.20702561229733 3.03506909452759e-20 4.1949590849425845e-12 3.724148534489218e-12 4.708105504533655e-13
5.246226572918644 3.0664788410820066e-20 4.270280942765094e-12 3.789962740965311e-12 4.803182017997835e-13
5.265937586045735 3.082028554614825e-20 4.308060548108603e-12 3.822978174860105e-12 4.850823732484975e-13
5.285722656980489 3.097472487169676e-20 4.3459153457445046e-12 3.8560627076907905e-12 4.89852638053715e-13
5.305582063971359 3.1128089175432286e-20 4.383842385745093e-12 3.889213997150655e-12 4.946283885944374e-13
5.3255160863122235 3.1282847823669766e-20 4.422190181080728e-12 3.922739417737181e-12 4.994507633435463e-13
5.365609099470188 3.160820165635854e-20 4.501821286076471e-12 3.992389873934431e-12 5.094314121420409e-13
5.406003951863644 3.1929873062366e-20 4.5818723312046756e-12 4.062430737105414e-12 5.194415940992615e-13
5.446702915881641 3.22477823651637e-20 4.66232962845655e-12 4.1328531956001556e-12 5.294764328563932e-13
5.487708281020852 3.256638513515264e-20 4.743839691233843e-12 4.204261625820856e-12 5.395780654129886e-13
5.529022354014368 3.292110476071631e-20 4.831613428403347e-12 4.2815059939252e-12 5.50107434478145e-13
5.570647458961463 3.327432608713532e-20 4.920218348310989e-12 4.359553152998721e-12 5.606651953122685e-13
5.612585937458331 3.362620428505088e-20 5.009683440818449e-12 4.438437057355766e-12 5.712463834626826e-13
5.654840148729818 3.398361039248591e-20 5.1010464934545864e-12 4.519142990410103e-12 5.819035030444844e-13
5.67608639626678 3.419143426004968e-20 5.151524258533336e-12 4.56403671309986e-12 5.874875454334735e-13
5.686739436050992 3.4295763723079774e-20 5.176941304812623e-12 4.5866587037529675e-12 5.902826010596546e-13
5.6974124697621304 3.440038908345106e-20 5.20248036128932e-12 4.609400786734241e-12 5.930795745550777e-13
5.718818669136295 3.4610582567275716e-20 5.253934675885991e-12 4.655255717381835e-12 5.986789585041552e-13
5.740305295436557 3.48303717745782e-20 5.307164313442597e-12 4.7028337393056806e-12 6.043305741369172e-13
5.7835210386641895 3.5342064645591757e-20 5.425673674872774e-12 4.809667643328257e-12 6.160060315445169e-13
5.827062130521658 3.5886124854036806e-20 5.550673032563116e-12 4.922844916230491e-12 6.278281163326245e-13
5.8489554468988025 3.623575535396353e-20 5.625810057665151e-12 4.991571342071739e-12 6.342387155934116e-13
5.870931020387893 3.659648948663622e-20 5.7031637138537496e-12 5.0624974025646165e-12 6.406663112891338e-13
5.892989160043636 3.6969283268784635e-20 5.782905642915248e-12 5.1357953749461256e-12 6.471102679691235e-13
5.915130176081913 3.737809219951687e-20 5.86882109544313e-12 5.2150225043901076e-12 6.537985910530214e-13
5.95966208400165 3.8462067356759907e-20 6.084483151676622e-12 5.415289606319477e-12 6.691935453571447e-13
6.004529249263818 3.992970217667128e-20 6.364209517176161e-12 5.6776049617958795e-12 6.866045553802799e-13
6.027089341400364 4.091624865481009e-20 6.545952830061223e-12 5.849211009615169e-12 6.967418204460527e-13
6.049734195844842 4.2047728797572554e-20 6.752246200387002e-12 6.044749643518137e-12 7.074965568688667e-13
6.095279466722835 4.5233880464143936e-20 7.318581301827472e-12 6.584387305211071e-12 7.341939966163992e-13
6.141167624020661 4.996638478717193e-20 8.145135487629857e-12 7.375967230912906e-12 7.691682567169509e-13
6.164241091010745 5.2962752331256423e-20 8.666018171284898e-12 7.874743137012638e-12 7.912750342722606e-13
6.187401249150058 5.627416589806862e-20 9.242442987214531e-12 8.42849809772023e-12 8.139448894942986e-13
6.1990139391386085 5.787908621103682e-20 9.523875551979751e-12 8.698401217696973e-12 8.25474334282777e-13
6.204828454712694 5.871588261733714e-20 9.670630851546651e-12 8.839336357777372e-12 8.312944937692784e-13
6.210648424152782 5.932308980442791e-20 9.779803775921306e-12 8.943585132028571e-12 8.362186438927324e-13
6.233982942956859 6.134454862581642e-20 1.0151051192633426e-11 9.2978112522267e-12 8.532399404067263e-13
6.239830258556775 6.158028557524227e-20 1.0199618016721038e-11 9.344126754979748e-12 8.554912617412933e-13
6.245683058788269 6.157529378449967e-20 1.020835742406447e-11 9.350612389519838e-12 8.577450345446291e-13
6.257405133728602 6.145919343390582e-20 1.0208232753406154e-11 9.3466074939158e-12 8.616252594903524e-13
6.269149208991335 6.098513983878132e-20 1.0148504846008866e-11 9.285766657398024e-12 8.627381886108432e-13
6.280915325867298 5.98922011948756e-20 9.985335157347116e-12 9.124901773820166e-12 8.604333835269515e-13
6.304513850009849 5.723486567905236e-20 9.578151544570504e-12 8.725413705671757e-12 8.527378388987535e-13
6.32820103803542 5.4030398679642833e-20 9.075861771465327e-12 8.234102152968929e-12 8.417596184963984e-13
6.3519772230701035 5.11234680184668e-20 8.619829432722488e-12 7.787996918828133e-12 8.318325138943542e-13
6.375842739491607 4.8655013583323396e-20 8.234450587331825e-12 7.411463607422019e-12 8.229869799098081e-13
6.399797922933955 4.674366629999332e-20 7.940694120102228e-12 7.122670257640578e-12 8.180238624616501e-13
6.42384311029221 4.513891048988564e-20 7.696892678798814e-12 6.883055023994461e-12 8.138376548043535e-13
6.447978639727206 4.40018703507184e-20 7.53119964046295e-12 6.7185295511552625e-12 8.12670089307687e-13
6.472204850670314 4.304998648143156e-20 7.395962612249067e-12 6.583863620286475e-12 8.120989919625954e-13
6.496522083828205 4.2455603464450466e-20 7.321252249509897e-12 6.507286474018851e-12 8.139657754910471e-13
