Dust emission spectrum from A.P. Jones, M. Kohler, N. Ysard, M. Bocchio, and L. Verstraete (2017), A&A, 602A, 46J 
inside the DustPedia framework.

lambda    nu*dP/dnu     j_nu    j_nu(carb.) j_nu(sil)
 (um)   (erg s-1 H-1) (Jy cm2 sr-1 H-1)
0.9927057738263894 1.2079570891229395e-25 3.1830355404318847e-18 3.183035432340965e-18 1.0809092050765282e-25
1.0001793341362166 1.2280752860960115e-25 3.2604106386604747e-18 3.2604105085130967e-18 1.3014737790656412e-25
1.0077091589558085 1.2481990381106846e-25 3.338785221040107e-18 3.338785064540769e-18 1.5649933767997077e-25
1.0114953028030835 1.2582609899969345e-25 3.378345292650332e-18 3.3783451211214888e-18 1.7152884318807473e-25
1.0152956718711033 1.2683219318453314e-25 3.4181527791297185e-18 3.418152591189801e-18 1.8793991693845892e-25
1.0229392996569957 1.2884278028905865e-25 3.4984799132211135e-18 3.498479687818123e-18 2.2540299084544328e-25
1.0267826658714554 1.2984488719452428e-25 3.5389368643652074e-18 3.538936617630036e-18 2.4673517079797258e-25
1.0306404723013447 1.3084652935240736e-25 3.579635723272945e-18 3.5796354532755916e-18 2.699973529999436e-25
1.03451277320114 1.3184763022800058e-25 3.620575587183497e-18 3.620575291828045e-18 2.9535545215412457e-25
1.0383996230291617 1.3284811393617874e-25 3.661755545070088e-18 3.6617552220812464e-18 3.2298884076434636e-25
1.0403485208654093 1.333481008211794e-25 3.682435272456597e-18 3.682434934737845e-18 3.377187522453364e-25
1.0423010764483396 1.338479052624021e-25 3.70317467828386e-18 3.703174325192491e-18 3.5309137031204884e-25
1.0462171883269815 1.348469296834683e-25 3.744832061205519e-18 3.744831675333054e-18 3.858724641134402e-25
1.0471985131304309 1.3509655729410324e-25 3.7552835243713715e-18 3.7552831298589906e-18 3.9451238150522804e-25
1.048180758391296 1.3534613121015406e-25 3.765749805306902e-18 3.765749401969441e-18 4.0333746139104623e-25
1.0501480137395462 1.3584511338801013e-25 3.786726761904673e-18 3.786726340346386e-18 4.2155828643931435e-25
1.0521189612883777 1.3634386710516115e-25 3.8077628136308595e-18 3.807762373064829e-18 4.405660306659559e-25
1.0531058218030118 1.3659278947989204e-25 3.818292732957487e-18 3.818292282581799e-18 4.503756888716185e-25
1.0540936079674168 1.3684045229423187e-25 3.828803813244439e-18 3.828803352847962e-18 4.6039647696145655e-25
1.058054026499678 1.3783042647568273e-25 3.8709929224095334e-18 3.870992419753277e-18 5.026562566708548e-25
1.0590464539527713 1.3807774520059346e-25 3.8815763212885656e-18 3.8815758075009875e-18 5.137875772298642e-25
1.06003981227728 1.3832499178768856e-25 3.892174138589918e-18 3.892173613435284e-18 5.251546340549308e-25
1.0620293250338977 1.3881926415447844e-25 3.9134129679385035e-18 3.913412419323471e-18 5.48615032883904e-25
1.0660195594769086 1.3980689508043524e-25 3.956062981393286e-18 3.956062382813636e-18 5.985796499169593e-25
1.070024785945596 1.4079324982943647e-25 3.998941991871734e-18 3.998941338990835e-18 6.52880899123963e-25
1.0740450607676866 1.4177825982216037e-25 4.042049026715276e-18 4.042048314840014e-18 7.118752610844601e-25
1.07808044048254 1.4276185734254628e-25 4.085383112224018e-18 4.085382336277253e-18 7.75946764502493e-25
1.0861967418109137 1.447228865846014e-25 4.172680622092183e-18 4.1726797010849905e-18 9.210071921219126e-25
1.0902777775684922 1.4569640799258964e-25 4.216532363594694e-18 4.216531360673978e-18 1.002920715122248e-24
1.0943741465085532 1.4666818881878268e-25 4.260604156952149e-18 4.260603065187442e-18 1.0917647066863452e-24
1.1026131145906286 1.486062788677872e-25 4.3494039671103286e-18 4.349402674607615e-18 1.292502714947979e-24
1.1109141095355224 1.5053666692682735e-25 4.4390722306032914e-18 4.4390707024315085e-18 1.52817178234452e-24
1.1192775983109025 1.5245718111005977e-25 4.529550753431317e-18 4.529548948946388e-18 1.804484929969696e-24
1.1277040513999907 1.5435956104571705e-25 4.620597179028004e-18 4.620595051001985e-18 2.128026017676192e-24
1.1361939428280308 1.5625262214302229e-25 4.712476710423104e-18 4.712474204051451e-18 2.5063716527300622e-24
1.1447477501889525 1.581359462723984e-25 4.80518190999512e-18 4.805178961765497e-18 2.9482296219825194e-24
1.1533659546722406 1.6001003990958669e-25 4.898733280622805e-18 4.898729817023635e-18 3.4635991704181324e-24
1.1707974979042381 1.637364674969794e-25 5.0885803348180896e-18 5.088575572400712e-18 4.762417378029786e-24
1.1884924949847024 1.6742092268948778e-25 5.281722840178668e-18 5.281716324499058e-18 6.515679607092748e-24
1.2064549276569216 1.710908814048662e-25 5.479076930426332e-18 5.4790680597838944e-18 8.870642436118212e-24
1.2246888378427687 1.7471213470374805e-25 5.67960669905251e-18 5.679594681145565e-18 1.2017906943608661e-23
1.2431983285522175 1.7827832274866885e-25 5.883129255557734e-18 5.883113052239907e-18 1.6203317827780166e-23
1.2619875648066055 1.8179064450011635e-25 6.089701958125164e-18 6.08968021576914e-18 2.1742356023802803e-23
1.3004222497298317 1.8861000059193058e-25 6.5105629286238116e-18 6.510524328936293e-18 3.859968751902721e-23
1.3400274889804893 1.9516414317078658e-25 6.941976989030288e-18 6.941909712502709e-18 6.727652757561914e-23
1.3808389325824078 2.0145212039653785e-25 7.383874377898877e-18 7.38375920563817e-18 1.1517226070344291e-22
1.4228933163050095 2.0751927401775823e-25 7.837908908657539e-18 7.837715154729236e-18 1.937539283028216e-22
1.466228494730424 2.134997116039139e-25 8.309375422802351e-18 8.309054952489293e-18 3.2047031305816404e-22
1.5108834753276823 2.1933897851487343e-25 8.796627887153146e-18 8.796106511700494e-18 5.2137545264953935e-22
1.5568984535646726 2.250003747194545e-25 9.298501419576848e-18 9.297666214202496e-18 8.352053743543572e-22
1.6043148490894465 2.3052418308308393e-25 9.816926240843512e-18 9.815606408193739e-18 1.319832649771002e-21
1.6531753430134553 2.3595846560950793e-25 1.0354375620493066e-17 1.0352320575321122e-17 2.0550451719428355e-21
1.7035239163302658 2.4137526541227005e-25 1.0914665551119601e-17 1.091151197231303e-17 3.1535788065724006e-21
1.755405889504358 2.4699765561048065e-25 1.1509058970281278e-17 1.1504287164365135e-17 4.771805916138962e-21
1.8088679632656115 2.52837526217253e-25 1.2139976124648341e-17 1.2132853958299506e-17 7.12216634883251e-21
1.8639582606462262 2.589231741824286e-25 1.2810808478756897e-17 1.280031876059072e-17 1.0489718166175034e-20
1.9207263702978936 2.653415486331241e-25 1.352820549300023e-17 1.3512954393910524e-17 1.5251099089702824e-20
1.979223391128241 2.722159280019082e-25 1.430137456124117e-17 1.4279477230703606e-17 2.1897330537563047e-20
2.039501978296691 2.796848492848908e-25 1.5141277009927437e-17 1.5110217950253145e-17 3.1059059674293817e-20
2.1016163906111602 2.880085756857378e-25 1.606675973950112e-17 1.6023221454258114e-17 4.3538285243001603e-20
2.1656225393682647 2.973846577781991e-25 1.7095064950544237e-17 1.70347271932922e-17 6.033775725203273e-20
2.231578038680979 3.0792094899335005e-25 1.8239828409589758e-17 1.815713393970206e-17 8.269446988769879e-20
2.299542257339062 3.1979186565066487e-25 1.9519929305917754e-17 1.9407813835138608e-17 1.1211547077914472e-19
2.369576372248914 3.33246596786196e-25 2.0960704080879925e-17 2.0810287298716233e-17 1.5041678216369088e-19
2.4417434235010123 3.485655879686298e-25 2.259196304805806e-17 2.2392207478662433e-17 1.9975556939563233e-19
2.5161083711144245 3.6614449241482284e-25 2.4454077346124257e-17 2.4191405843418557e-17 2.626715027056912e-19
2.5927381535095444 3.865389544747393e-25 2.6602433074078723e-17 2.6260316427584924e-17 3.4211664649379405e-19
2.6717017477616296 4.103562733237159e-25 2.9101708396374494e-17 2.8660246160582165e-17 4.414622357923332e-19
2.753070231689431 4.3842058319575405e-25 3.203890458044154e-17 3.147438846474302e-17 5.645161156985186e-19
2.836916847834745 4.724272940321559e-25 3.5575500614786716e-17 3.485994742032957e-17 7.155531944571596e-19
2.9233170693905177 5.158710057258165e-25 4.003008153988025e-17 3.913093617850701e-17 8.991453613732584e-19
2.967498994190263 5.443159145051939e-25 4.287568244703587e-17 4.187277382514829e-17 1.002908621887574e-18
3.0123486681368425 5.7584081350904715e-25 4.604443140487655e-17 4.4927272019703907e-17 1.1171593851726482e-18
3.0578761833420214 6.29055799239724e-25 5.105972834552721e-17 4.98165994261619e-17 1.2431289193653125e-18
3.1040917844459814 6.935010962074312e-25 5.714143455727562e-17 5.57608103904138e-17 1.38062416686181e-18
3.127460860933648 7.530541069095475e-25 6.251546959105921e-17 6.106106349607123e-17 1.4544060949879706e-18
3.1510058709225794 8.295643017001422e-25 6.93854965093005e-17 6.78540633081359e-17 1.531433201164609e-18
3.162844764501044 8.975024330491107e-25 7.534994583822856e-17 7.377860479074319e-17 1.5713410474853588e-18
3.1747281389236908 9.754792596193846e-25 8.220420135541785e-17 8.05921086574544e-17 1.6120926979634365e-18
3.1986289994194426 1.1888663289681051e-24 1.0094070427535705e-16 9.924432006896425e-17 1.696384206392818e-18
3.2227097969389145 1.680357340282738e-24 1.4374484530130393e-16 1.4195901757910485e-16 1.7858277221990438e-18
3.2348180950136065 2.142088713596198e-24 1.8393176986986898e-16 1.8209817787909985e-16 1.833591990769097e-18
3.240889293275058 2.4863463166386446e-24 2.1389234869165248e-16 2.1203356166062154e-16 1.858787031030939e-18
3.2469718861334385 2.8845210159792813e-24 2.486117604336667e-16 2.467269031919761e-16 1.8848572416906526e-18
3.2714166318528037 4.997516090466335e-24 4.339697834791468e-16 4.3197708784436436e-16 1.992695634782293e-18
3.2744851364798273 5.1301935340794186e-24 4.459089665560627e-16 4.4390353321539757e-16 2.0054333406651097e-18
3.2775565192852394 5.266595432681964e-24 4.581941929814014e-16 4.561759555346701e-16 2.018237446731312e-18
3.283707930232385 5.138796955428294e-24 4.479148003603982e-16 4.458736059520848e-16 2.041194408313324e-18
3.2898708863219004 4.7283102864901276e-24 4.1290891115399345e-16 4.108467701150787e-16 2.0621410389147658e-18
3.29141343181113 4.631476319283329e-24 4.046423348927361e-16 4.0257493260428825e-16 2.06740228844779e-18
3.292184975758714 4.583890974213875e-24 4.005787815998056e-16 3.9850874499185054e-16 2.0700366079551073e-18
3.295272960557952 4.283846330056263e-24 3.7470950635493025e-16 3.72629212468538e-16 2.080293886392199e-18
3.3076538914384823 3.2427955087309928e-24 2.8471415228129087e-16 2.825926321620558e-16 2.1215201192350852e-18
3.310756385682612 3.03050350654434e-24 2.6632470171910817e-16 2.6419278438234203e-16 2.131917336766117e-18
3.313861789986515 2.834474507450595e-24 2.493310580350883e-16 2.471887071170801e-16 2.1423509180082118e-18
3.3200813396944477 2.5605180506925128e-24 2.256555391558019e-16 2.2349077177219138e-16 2.1647673836105687e-18
3.345076488085796 2.07950650170979e-24 1.846442417062583e-16 1.8237964158449552e-16 2.2646001217626728e-18
3.3482140837626964 2.0994373759124554e-24 1.8658880209068175e-16 1.8431068053766066e-16 2.2781215530210287e-18
3.3513546224236106 2.1195714953918607e-24 1.885549284145851e-16 1.8626322142923058e-16 2.2917069853544864e-18
3.3576445397418455 2.259096588515657e-24 2.0134411949700334e-16 1.9902401817884012e-16 2.320101318163211e-18
3.3702598118196083 2.7675163751104898e-24 2.475842501730103e-16 2.4520458424201746e-16 2.3796659309929022e-18
3.382922481734668 2.8885764580516577e-24 2.593852921035e-16 2.5694761965688293e-16 2.4376724466170292e-18
3.389271646505754 2.9511649797528218e-24 2.655029190012863e-16 2.630358232042141e-16 2.46709579707215e-18
3.395632727569191 3.0188519756528405e-24 2.7210214314898564e-16 2.6960472401252085e-16 2.4974191364648114e-18
3.421196662673239 3.343169618138338e-24 3.0360287801703814e-16 3.009798101552624e-16 2.6230678617756926e-18
3.4276182099114902 3.2841540973031792e-24 2.988033079853054e-16 2.9615207849854927e-16 2.6512294867560327e-18
3.4340518103208963 3.0147327511284265e-24 2.7480529417755046e-16 2.721273699399642e-16 2.677924237586188e-18
3.4469541582030403 2.631499481586915e-24 2.4077324696850075e-16 2.3804396575805623e-16 2.729281210444566e-18
3.472904465399547 2.5329231367742614e-24 2.334985998706953e-16 2.3065118580920957e-16 2.847414061485644e-18
3.4990501388274233 2.3775026955300806e-24 2.2082112427890111e-16 2.1785254719717884e-16 2.9685770817222464e-18
3.5253949054701885 1.799016182818375e-24 1.6834967240856007e-16 1.652629473463949e-16 3.0867250621651676e-18
3.5519380250092896 1.2537386443280047e-24 1.1820662699775373e-16 1.150007957611304e-16 3.2058312366233065e-18
3.578680990867387 1.044851049901833e-24 9.925372227714198e-17 9.591728799292021e-17 3.3364342842217583e-18
3.605625307711299 9.679465919505907e-25 9.264061329123996e-17 8.91664088401605e-17 3.474204451079464e-18
3.660119384959845 9.28236963142339e-25 9.018276420111584e-17 8.64181368846548e-17 3.76462731646104e-18
3.715437065384467 9.07823650887394e-25 8.953252554448205e-17 8.546030495675306e-17 4.072220587728997e-18
3.8285932144167436 9.384901680922967e-25 9.537584210673327e-17 9.06375035120057e-17 4.7383385947275724e-18
3.94519561050918 9.910625454138013e-25 1.0378606297906399e-16 9.831371603635094e-17 5.472346942713048e-18
4.06534921144712 1.0543345095792761e-24 1.1377470338750825e-16 1.0749938014243924e-16 6.275323245068995e-18
4.189162171576248 1.1249626755787756e-24 1.2509349305250515e-16 1.1794279437585768e-16 7.150698676647467e-18
4.316745939156006 1.2015603923514141e-24 1.3768021205068242e-16 1.295827196187367e-16 8.097492431945682e-18
4.448215356677963 1.283454737733217e-24 1.515429703950628e-16 1.4243771986794483e-16 9.105250527118e-18
4.58368876423945 1.370534665254635e-24 1.6675335436647388e-16 1.5657602200741893e-16 1.0177332359055029e-17
4.723288106065518 1.4630459172580961e-24 1.8343061688116913e-16 1.721081223081562e-16 1.1322494573012961e-17
4.867139040275056 1.561334112063542e-24 2.017153900334808e-16 1.892004510054268e-16 1.2514939028053971e-17
4.940699165968905 1.6136337058153387e-24 2.1162296793274048e-16 1.9848998747441192e-16 1.3132980458328542e-17
5.015371051989984 1.666723309199379e-24 2.2188912168555244e-16 2.0812497329042668e-16 1.3764148395125814e-17
5.091171501069577 1.723692603655111e-24 2.329415591672009e-16 2.1852020081626673e-16 1.4421358350934164e-17
5.129500256944802 1.7524801047917266e-24 2.3861491434593634e-16 2.2386035966023e-16 1.4754554685706305e-17
5.168117569889187 1.7817449851476998e-24 2.444259788438341e-16 2.2933231268489963e-16 1.50936661589344e-17
5.20702561229733 1.813644905907188e-24 2.506752214838592e-16 2.3521343551583004e-16 1.5461785968029187e-17
5.246226572918644 1.8458704417527076e-24 2.5705004921699293e-16 2.412159958182544e-16 1.5834053398738534e-17
5.265937586045735 1.8621063295437973e-24 2.6028528524433167e-16 2.442635701677627e-16 1.6021715076568968e-17
5.285722656980489 1.8784248852515356e-24 2.6355280211390697e-16 2.4734242170922985e-16 1.6210380404677083e-17
5.305582063971359 1.8948265805520035e-24 2.6685290673146356e-16 2.5045286882474283e-16 1.6400037906720744e-17
5.3255160863122235 1.91175815166253e-24 2.7024899313950403e-16 2.536569858096341e-16 1.659200732986994e-17
5.365609099470188 1.949386286780458e-24 2.7764277057022747e-16 2.606535546976708e-16 1.6989215872556745e-17
5.406003951863644 1.9876467014851423e-24 2.852232894241946e-16 2.6783243176427633e-16 1.7390857659918188e-17
5.446702915881641 2.026562329590417e-24 2.929969411902959e-16 2.7520009594718154e-16 1.779684524311441e-17
5.487708281020852 2.067024020043203e-24 3.0109668445916476e-16 2.828880452682924e-16 1.8208639190872345e-17
5.529022354014368 2.1160224806922073e-24 3.1055466415317753e-16 2.9191639762171337e-16 1.8638266531464077e-17
5.570647458961463 2.1665612477737034e-24 3.203657491400594e-16 3.012930517885953e-16 1.9072697351464147e-17
5.612585937458331 2.2187423048533e-24 3.3055162842177797e-16 3.1103978208615525e-16 1.951184633562277e-17
5.654840148729818 2.274020125724303e-24 3.4133755226124995e-16 3.2137998419053835e-16 1.995756807071152e-17
5.67608639626678 2.3083704504805294e-24 3.477954824266179e-16 3.2760487387762004e-16 2.019060854899791e-17
5.686739436050992 2.3258845074836217e-24 3.510919795879221e-16 3.3078434736378983e-16 2.0307632224132274e-17
5.6974124697621304 2.3436314398433584e-24 3.54434844045145e-16 3.3400985417860214e-16 2.0424989866542788e-17
5.718818669136295 2.3798455803807695e-24 3.612638762642108e-16 3.406031742490761e-16 2.0660702015134748e-17
5.740305295436557 2.4187513958114742e-24 3.6854935611997434e-16 3.4765000378553166e-16 2.0899352334442678e-17
5.7835210386641895 2.514149749142958e-24 3.8596941761619413e-16 3.645761630901786e-16 2.139325452601563e-17
5.827062130521658 2.6204171100030257e-24 4.053120431844176e-16 3.834150807503501e-16 2.1896962434067484e-17
5.8489554468988025 2.691530937695205e-24 4.178757051395739e-16 3.957074387399183e-16 2.216826639965563e-17
5.870931020387893 2.766715845740898e-24 4.311624868755688e-16 4.0872103221371244e-16 2.2441454661856407e-17
5.892989160043636 2.8462923004085813e-24 4.452301573105429e-16 4.225136360763012e-16 2.271652123424177e-17
5.915130176081913 2.9353372738152868e-24 4.608841249268025e-16 4.378826490998998e-16 2.3001475826902693e-17
5.95966208400165 3.1774291695814014e-24 5.026514583482471e-16 4.790047639129434e-16 2.3646694435303806e-17
6.004529249263818 3.516934214634009e-24 5.605477872342629e-16 5.361771110979922e-16 2.437067613627067e-17
6.027089341400364 3.749252764988513e-24 5.998211604060683e-16 5.750342233358054e-16 2.478693707026294e-17
6.049734195844842 4.020815592259327e-24 6.45683787963768e-16 6.204562882598622e-16 2.522749970390581e-17
6.095279466722835 4.7964894890451165e-24 7.760443704749915e-16 7.49741085013159e-16 2.6303285461832547e-17
6.141167624020661 5.9750769761396644e-24 9.740110621765444e-16 9.463203185124295e-16 2.7690743664114857e-17
6.164241091010745 6.725663214820675e-24 1.1004850969420096e-15 1.07192781029949e-15 2.855728664251965e-17
6.187401249150058 7.573529468790738e-24 1.2438729781277827e-15 1.2144246297961109e-15 2.9448348331671997e-17
6.1990139391386085 7.987262498839704e-24 1.3142863686994178e-15 1.2843843600173281e-15 2.990200868208978e-17
6.204828454712694 8.204573443993296e-24 1.351310710738325e-15 1.3211794304202574e-15 3.0131280318067755e-17
6.210648424152782 8.363668544713666e-24 1.3788060851820247e-15 1.3484784595499953e-15 3.032762563202936e-17
6.233982942956859 8.90328998201976e-24 1.4732809094679374e-15 1.442264427676458e-15 3.1016481791480185e-17
6.239830258556775 8.972083877782015e-24 1.4860572261481877e-15 1.4549419314437097e-15 3.1115294704478034e-17
6.245683058788269 8.978435137362958e-24 1.4885040632003082e-15 1.4572897485861275e-15 3.121431461418073e-17
6.257405133728602 8.964448200119395e-24 1.4889745312242703e-15 1.4575849984478002e-15 3.1389532776470104e-17
6.269149208991335 8.859735599832209e-24 1.4743439124177824e-15 1.442880843462937e-15 3.146306895484523e-17
6.280915325867298 8.596215853653038e-24 1.4331765183305786e-15 1.4017658084439416e-15 3.141070988663709e-17
6.304513850009849 7.946215021840585e-24 1.3297847523871734e-15 1.2985928633007042e-15 3.1191889086469237e-17
6.32820103803542 7.143427488903758e-24 1.1999311877778788e-15 1.1690795299619615e-15 3.085165781591726e-17
6.3519772230701035 6.409233444046615e-24 1.0806485010411698e-15 1.050098577758816e-15 3.0549923282354054e-17
6.375842739491607 5.790608442380506e-24 9.80011628353795e-16 9.497241188711036e-16 3.028750948269161e-17
6.399797922933955 5.30041841633627e-24 9.004214834703499e-16 8.702516954602294e-16 3.016978801012051e-17
6.42384311029221 4.892594073063294e-24 8.34264077103354e-16 8.041832434522161e-16 3.008083365113787e-17
6.447978639727206 4.599401193353449e-24 7.872167327806057e-16 7.571115892338141e-16 3.010514354679161e-17
6.472204850670314 4.355794633194919e-24 7.483229818815381e-16 7.181708595913327e-16 3.015212229020529e-17
6.496522083828205 4.201587888883478e-24 7.245423989499726e-16 6.942511287365863e-16 3.0291270213386124e-17
