Dust emission spectrum from A.P. Jones, M. Kohler, N. Ysard, M. Bocchio, and L. Verstraete (2017), A&A, 602A, 46J 
inside the DustPedia framework.

lambda    nu*dP/dnu     j_nu    j_nu(carb.) j_nu(sil)
 (um)   (erg s-1 H-1) (Jy cm2 sr-1 H-1)
0.9927057738263894 3.125709187678578e-21 8.236421246270618e-14 8.236419392518512e-14 1.8537521066388688e-20
1.0001793341362166 3.178177354973517e-21 8.437726397577992e-14 8.437724167136124e-14 2.230441871688638e-20
1.0077091589558085 3.2308689397105515e-21 8.642193382355862e-14 8.642190702271614e-14 2.680084246299151e-20
1.0114953028030835 3.2572964135343308e-21 8.745619623363927e-14 8.745616687007201e-14 2.936356726941849e-20
1.0152956718711033 3.2837772677684844e-21 8.849844910853938e-14 8.849841694798707e-14 3.2160552305026696e-20
1.0229392996569957 3.3368701800848504e-21 9.060634419610336e-14 9.060630565523715e-14 3.854086620974596e-20
1.0267826658714554 3.3634221230616683e-21 9.167044462746001e-14 9.167040245608362e-14 4.217137638988044e-20
1.0306404723013447 3.390023155157442e-21 9.274260501202037e-14 9.274255888360591e-14 4.612841440675809e-20
1.03451277320114 3.416672603807845e-21 9.382285747080695e-14 9.382280703095888e-14 5.0439848106206516e-20
1.0383996230291617 3.443369824591548e-21 9.4911234908329e-14 9.491117977254296e-14 5.513578608085069e-20
1.0403485208654093 3.4567361560293875e-21 9.545848099935515e-14 9.545842336134817e-14 5.763800697580203e-20
1.0423010764483396 3.4701142019711e-21 9.60077710465468e-14 9.60077107978009e-14 6.024874590228946e-20
1.0462171883269815 3.496905150034084e-21 9.711250045945812e-14 9.71124346456241e-14 6.581383400828354e-20
1.0471985131304309 3.503610097938238e-21 9.738996714746719e-14 9.738989986734018e-14 6.728012704359281e-20
1.048180758391296 3.510317913257249e-21 9.766794868992969e-14 9.766787991227781e-14 6.87776518741355e-20
1.0501480137395462 3.523742113234356e-21 9.822545860830921e-14 9.822538673937124e-14 7.186893797757295e-20
1.0521189612883777 3.537177685388471e-21 9.878503479176477e-14 9.878495969886829e-14 7.509289652107787e-20
1.0531058218030118 3.5438908833931885e-21 9.906535226331623e-14 9.906527550689516e-14 7.67564210840543e-20
1.0540936079674168 3.5505779636369974e-21 9.934537790889813e-14 9.93452994533612e-14 7.845553692541968e-20
1.058054026499678 3.577353171910597e-21 1.004706229496314e-13 1.0047053733092554e-13 8.56187058580859e-20
1.0590464539527713 3.58405366051084e-21 1.007532227779071e-13 1.0075313527301781e-13 8.750488925898793e-20
1.06003981227728 3.590756810063464e-21 1.0103633922889231e-13 1.0103624979812783e-13 8.943076448900927e-20
1.0620293250338977 3.6041710657596306e-21 1.0160412442265094e-13 1.0160403101787314e-13 9.340477781010946e-20
1.0660195594769086 3.6310312271288914e-21 1.0274592117694375e-13 1.0274581931192471e-13 1.0186501902652473e-19
1.070024785945596 3.657933272329287e-21 1.0389605314106495e-13 1.0389594208640594e-13 1.110546590171954e-19
1.0740450607676866 3.684876852773329e-21 1.0505456136223527e-13 1.0505444032905967e-13 1.2103317559603448e-19
1.07808044048254 3.711861655709756e-21 1.0622148804608742e-13 1.062213561814887e-13 1.3186459874426495e-19
1.0861967418109137 3.7659128544304126e-21 1.0857958933111564e-13 1.0857943296408908e-13 1.5636702652161473e-19
1.0902777775684922 3.792885582775664e-21 1.0976814755789122e-13 1.0976797736597447e-13 1.7019191673323082e-19
1.0943741465085532 3.819897057783398e-21 1.1096522984701235e-13 1.1096504466884798e-13 1.8517816438866557e-19
1.1026131145906286 3.874035828956631e-21 1.1338516065113575e-13 1.133849416412053e-13 2.1900993042518568e-19
1.1109141095355224 3.928328739486975e-21 1.158397842607593e-13 1.1583952557680936e-13 2.586839499329942e-19
1.1192775983109025 3.982733889544808e-21 1.1832827524917274e-13 1.183279701021468e-13 3.0514702594305326e-19
1.1277040513999907 4.037058523838036e-21 1.2084525960327327e-13 1.208449001145963e-13 3.594886769815015e-19
1.1361939428280308 4.091533889336267e-21 1.233979814159877e-13 1.2339755845504696e-13 4.2296094075716054e-19
1.1447477501889525 4.1461624372086944e-21 1.2598694483326294e-13 1.2598644783262872e-13 4.970006341777027e-19
1.1533659546722406 4.200966303399205e-21 1.2861326359811544e-13 1.286126803428957e-13 5.832552197132945e-19
1.1707974979042381 4.3112715621223224e-21 1.3398512881365803e-13 1.339843285862573e-13 8.002274007746505e-19
1.1884924949847024 4.422327660681041e-21 1.3951367987317603e-13 1.3951258747507175e-13 1.0923981042525516e-18
1.2064549276569216 4.534894539597806e-21 1.4522712052098862e-13 1.45225636661104e-13 1.483859884648636e-18
1.2246888378427687 4.648287222453514e-21 1.5110824037799823e-13 1.511062346787424e-13 2.0056992558249686e-18
1.2431983285522175 4.762444486230307e-21 1.5715918824528172e-13 1.571564903608259e-13 2.6978844558233833e-18
1.2619875648066055 4.877568316410943e-21 1.6339090171011507e-13 1.633872901681484e-13 3.611541966668374e-18
1.3004222497298317 5.110195254348696e-21 1.7639705040335687e-13 1.7639066985309677e-13 6.380550260143742e-18
1.3400274889804893 5.347247189548963e-21 1.9020126515771877e-13 1.9019019968844685e-13 1.1065469271903859e-17
1.3808389325824078 5.590081361806944e-21 2.0489463430103324e-13 2.048757877102812e-13 1.8846590752075182e-17
1.4228933163050095 5.841310748949002e-21 2.2062365905109398e-13 2.205921189589792e-13 3.154009211471307e-17
1.466228494730424 6.105918135919189e-21 2.3764137998638844e-13 2.3758949064811664e-13 5.188933827177942e-17
1.5108834753276823 6.384523735826775e-21 2.560524350073811e-13 2.559684754538482e-13 8.395955353298488e-17
1.5568984535646726 6.678322180522277e-21 2.7599237713895525e-13 2.7585862553329033e-13 1.3375160566497058e-16
1.6043148490894465 6.990650952629013e-21 2.9769850546529204e-13 2.974883308121553e-13 2.101746531366649e-16
1.6531753430134553 7.32537805793856e-21 3.2145367523934904e-13 3.2112829190935203e-13 3.253833299969687e-16
1.7035239163302658 7.687178887283897e-21 3.476039122858125e-13 3.471074974710621e-13 4.964148147505005e-16
1.755405889504358 8.084995477819739e-21 3.76727015884828e-13 3.759803178483812e-13 7.466980364468017e-16
1.8088679632656115 8.522899867349055e-21 4.092264405936339e-13 4.081186728922617e-13 1.1077677013722958e-15
1.8639582606462262 9.005600078571156e-21 4.455723911432045e-13 4.4395085305649166e-13 1.6215380867129038e-15
1.9207263702978936 9.539878714151954e-21 4.86382326055496e-13 4.84039488498e-13 2.3428375574961966e-15
1.979223391128241 1.0134030215026164e-20 5.324102927548332e-13 5.290678835107454e-13 3.342409244087814e-15
2.039501978296691 1.0797121621976896e-20 5.845229364630477e-13 5.798128152685853e-13 4.7101211944623005e-15
2.1016163906111602 1.154225016413833e-20 6.438924945164792e-13 6.373335114556279e-13 6.558983060851152e-15
2.1656225393682647 1.2381361622069348e-20 7.117387382617283e-13 7.02710152313424e-13 9.028585948304221e-15
2.231578038680979 1.33240693345498e-20 7.892569153679559e-13 7.769679790550438e-13 1.2288936312912089e-14
2.299542257339062 1.438255375794336e-20 8.779036077806268e-13 8.61359238994877e-13 1.654436878574987e-14
2.369576372248914 1.5570935506039845e-20 9.793881604557377e-13 9.57350536991902e-13 2.2037623463835567e-14
2.4417434235010123 1.6904279212845504e-20 1.095635554721001e-12 1.066582929444919e-12 2.905262527608243e-14
2.5161083711144245 1.8400507817716735e-20 1.2289340703030952e-12 1.1910157807104867e-12 3.791828959260849e-14
2.5927381535095444 2.0080493404404013e-20 1.3819822703536773e-12 1.3329719870043757e-12 4.901028334930133e-14
2.6717017477616296 2.196375643079321e-20 1.557629007985726e-12 1.4948797297469351e-12 6.274927823879087e-14
2.753070231689431 2.4071770906226456e-20 1.7591171598859076e-12 1.679516783901802e-12 7.960037598410499e-14
2.836916847834745 2.6440677263942327e-20 1.9910795632284805e-12 1.8910053058311275e-12 1.0007425739735298e-13
2.9233170693905177 2.9131711815296644e-20 2.2605356502288474e-12 2.1358387532790122e-12 1.2469689694983502e-13
2.967498994190263 3.0630004659496525e-20 2.412720844889555e-12 2.274264578294375e-12 1.3845626659518003e-13
3.0123486681368425 3.2222887566795745e-20 2.5765532790132205e-12 2.4230175073442237e-12 1.5353577166899666e-13
3.0578761833420214 3.4231036392449285e-20 2.7784934520860285e-12 2.6084029015605834e-12 1.7009055052544485e-13
3.1040917844459814 3.6445024981476603e-20 3.002909470952622e-12 2.814855517270022e-12 1.880539536825995e-13
3.127460860933648 3.8014100804994954e-20 3.155775051355731e-12 2.9581235105695874e-12 1.976515407861445e-13
3.1510058709225794 3.985390104836219e-20 3.3334157537949287e-12 3.12577496409249e-12 2.076407897024384e-13
3.162844764501044 4.1269597203654416e-20 3.464794968294766e-12 3.2519904222556866e-12 2.1280454603908e-13
3.1747281389236908 4.2830412216256304e-20 3.6093436075047404e-12 3.3912743121022655e-12 2.1806929540247434e-13
3.1986289994194426 4.68319887297792e-20 3.976270342438405e-12 3.747336347148938e-12 2.289339952894667e-13
3.2227097969389145 5.524069685119355e-20 4.7255219070694564e-12 4.485090378098616e-12 2.4043152897084164e-13
3.2348180950136065 6.283554734179531e-20 5.395413065743378e-12 5.1488495572882185e-12 2.465635084551586e-13
3.240889293275058 6.842592094899829e-20 5.886461127811461e-12 5.63666313313505e-12 2.497979946764114e-13
3.2469718861334385 7.487674966048328e-20 6.453494512787911e-12 6.200349791075828e-12 2.531447217120828e-13
3.2714166318528037 1.0842961768420324e-19 9.41571309773401e-12 9.148750338655684e-12 2.669627590783259e-13
3.2744851364798273 1.1056843154661176e-19 9.610447387053909e-12 9.341859692236845e-12 2.685876948170642e-13
3.2775565192852394 1.1276177756907693e-19 9.810283005941974e-12 9.540062571514162e-12 2.702204344278152e-13
3.283707930232385 1.1091022265554426e-19 9.66730747869079e-12 9.394174249874463e-12 2.731332288163313e-13
3.2898708863219004 1.0464771348383952e-19 9.138565536366787e-12 8.862787999632657e-12 2.757775367341296e-13
3.29141343181113 1.0316961931983216e-19 9.013712426371961e-12 8.737271054453172e-12 2.7644137191878813e-13
3.292184975758714 1.0244315689460418e-19 8.95234097035127e-12 8.675567266763324e-12 2.7677370358794564e-13
3.295272960557952 9.787535452109644e-20 8.561190797063943e-12 8.28312561402855e-12 2.7806518303539296e-13
3.3076538914384823 8.196223330788514e-20 7.196200843533279e-12 6.912951682073371e-12 2.832491614599035e-13
3.310756385682612 7.870103485759719e-20 6.91635221281604e-12 6.63179704849773e-12 2.845551643183075e-13
3.313861789986515 7.56836581513933e-20 6.657419748616926e-12 6.371554574546127e-12 2.85865174070799e-13
3.3200813396944477 7.153012680847149e-20 6.3038685966236425e-12 6.0151826836779584e-12 2.8868591294568437e-13
3.345076488085796 6.47445739298457e-20 5.748822015243453e-12 5.44755754160577e-12 3.012644736376822e-13
3.3482140837626964 6.515480846814449e-20 5.790674112027348e-12 5.4877053183486e-12 3.029687936787483e-13
3.3513546224236106 6.556809074871745e-20 5.832870787460636e-12 5.528190344503263e-12 3.046804429573719e-13
3.3576445397418455 6.795705623447837e-20 6.0567368923918655e-12 5.748476625396723e-12 3.0826026699514193e-13
3.3702598118196083 7.626777557714668e-20 6.822976802757824e-12 6.507208267720438e-12 3.1576853503738476e-13
3.382922481734668 7.857193276039592e-20 7.055518185569656e-12 6.732462518111569e-12 3.230556674580851e-13
3.389271646505754 7.975442366244616e-20 7.175143521599478e-12 6.848396359551026e-12 3.2674716204845034e-13
3.395632727569191 8.104317616106761e-20 7.30477085291949e-12 6.97421937429412e-12 3.3055147862536827e-13
3.421196662673239 8.714675318448956e-20 7.91404807375128e-12 7.567760088724107e-12 3.462879850271718e-13
3.4276182099114902 8.63994212490454e-20 7.860907896627053e-12 7.511119842645605e-12 3.4978805398144703e-13
3.4340518103208963 8.231280082308628e-20 7.503150465426692e-12 7.150057692490307e-12 3.5309277293638506e-13
3.4469541582030403 7.654350587466308e-20 7.00347029241337e-12 6.644046152776274e-12 3.5942413963709943e-13
3.472904465399547 7.563362960680442e-20 6.9723184094794416e-12 6.59829180256436e-12 3.740266069150797e-13
3.4990501388274233 7.38659535575532e-20 6.860628566763961e-12 6.471684985755201e-12 3.889435810087587e-13
3.5253949054701885 6.555855513030261e-20 6.13488715953325e-12 5.7314935751307635e-12 4.033935844024857e-13
3.5519380250092896 5.768246372435728e-20 5.4384935047058416e-12 5.020609964208244e-12 4.178835404975987e-13
3.578680990867387 5.516082538869773e-20 5.239902131717348e-12 4.8061414250858826e-12 4.3376070663146533e-13
3.605625307711299 5.475040327627329e-20 5.2400731400225665e-12 4.7896110540140535e-12 4.504620860085118e-13
3.660119384959845 5.575275153416602e-20 5.416652691946393e-12 4.931195360835713e-12 4.854573311106774e-13
3.715437065384467 5.706329166526795e-20 5.627767698802279e-12 5.105554046673002e-12 5.22213652129276e-13
3.8285932144167436 6.087994889642305e-20 6.187040195865101e-12 5.58630299078361e-12 6.007372050814911e-13
3.94519561050918 6.509291090264971e-20 6.816660544478813e-12 6.1310084056973095e-12 6.856521387815044e-13
4.06534921144712 6.949781981351571e-20 7.499606399601306e-12 6.72291708628432e-12 7.766893133169863e-13
4.189162171576248 7.401370043189089e-20 8.23016845070306e-12 7.356321098592286e-12 8.738473521107771e-13
4.316745939156006 7.858336547290076e-20 9.004436639919607e-12 8.02787147980692e-12 9.76565160112688e-13
4.448215356677963 8.315233195143102e-20 9.818150191608438e-12 8.734961788441767e-12 1.0831884031666754e-12
4.58368876423945 8.768705042726787e-20 1.0668909122800183e-11 9.475242932333798e-12 1.1936661904663843e-12
4.723288106065518 9.216242017944502e-20 1.1554941227312711e-11 1.0246419744189526e-11 1.3085214831231877e-12
4.867139040275056 9.652797037796296e-20 1.2470858763341137e-11 1.1046522637027793e-11 1.4243361263133453e-12
4.940699165968905 9.867871974707913e-20 1.2941402667421591e-11 1.1458478982480611e-11 1.4829236849409797e-12
5.015371051989984 1.0077809751076746e-19 1.3416482158965346e-11 1.1874732911409464e-11 1.5417492475558832e-12
5.091171501069577 1.0288348617942473e-19 1.3903778221460432e-11 1.2301628423898515e-11 1.6021497975619155e-12
5.129500256944802 1.0391318869440196e-19 1.4148655127057564e-11 1.2516298638920155e-11 1.632356488137408e-12
5.168117569889187 1.0493375409996768e-19 1.43951776339736e-11 1.2732284292926814e-11 1.6628933410467882e-12
5.20702561229733 1.0599758239701409e-19 1.465058973649215e-11 1.295415085203701e-11 1.6964388844551404e-12
5.246226572918644 1.0704593081800231e-19 1.490687599890213e-11 1.317680655606115e-11 1.730069442840985e-12
5.265937586045735 1.0756414448353993e-19 1.5035319726247775e-11 1.3288408619291625e-11 1.7469111069561537e-12
5.285722656980489 1.0807830348847738e-19 1.5163949304414793e-11 1.3400181900763578e-11 1.7637674036512146e-12
5.305582063971359 1.085883484112267e-19 1.529275381088601e-11 1.3512117711355455e-11 1.7806360995305513e-12
5.3255160863122235 1.0910264333689468e-19 1.5422912927042135e-11 1.3625247111608163e-11 1.7976658154339716e-12
5.365609099470188 1.1018340299932695e-19 1.569295192391712e-11 1.3860035964055911e-11 1.8329159598612073e-12
5.406003951863644 1.1124968395752792e-19 1.5964105080676156e-11 1.4095863575437562e-11 1.8682415052385924e-12
5.446702915881641 1.1230120546283406e-19 1.6236317636104208e-11 1.4332693118733849e-11 1.9036245173703576e-12
5.487708281020852 1.1335296537923975e-19 1.6511758798327955e-11 1.457254235633013e-11 1.939216441997825e-12
5.529022354014368 1.1452415976316563e-19 1.68079556324185e-11 1.4831639104840662e-11 1.9763165275778407e-12
5.570647458961463 1.156879626756203e-19 1.7106583470532697e-11 1.509309814838435e-11 2.0134853221483448e-12
5.612585937458331 1.168448711905634e-19 1.740772795483671e-11 1.535702336907356e-11 2.0507045857631517e-12
5.654840148729818 1.1801793149262567e-19 1.7714861624541597e-11 1.5626698983244286e-11 2.0881626412973113e-12
5.67608639626678 1.1870126891040092e-19 1.7884376000719737e-11 1.5776579268894143e-11 2.1077967318255924e-12
5.686739436050992 1.1904407362411639e-19 1.7969688233625972e-11 1.585206693842925e-11 2.11762129519672e-12
5.6974124697621304 1.1938769316867168e-19 1.8055380931387397e-11 1.5927930447239384e-11 2.1274504841480078e-12
5.718818669136295 1.200775572871863e-19 1.822794056703717e-11 1.6080818992151735e-11 2.1471215748854374e-12
5.740305295436557 1.2079884266129369e-19 1.8406329712079246e-11 1.6239359289230938e-11 2.1669704228483076e-12
5.7835210386641895 1.2248045359138705e-19 1.8803060302255258e-11 1.659508912216964e-11 2.207971180085615e-12
5.827062130521658 1.2426689263334229e-19 1.922093546143135e-11 1.6971477032087845e-11 2.2494584293435023e-12
5.8489554468988025 1.2541841819304715e-19 1.9471932945637383e-11 1.7199958072547243e-11 2.2719748730901357e-12
5.870931020387893 1.2660583996930768e-19 1.9730139218369554e-11 1.7435597632983796e-11 2.2945415853857556e-12
5.892989160043636 1.278323035245146e-19 1.9996117967019298e-11 1.767896176055878e-11 2.3171562064605177e-12
5.915130176081913 1.2917799843131505e-19 2.0282537648366664e-11 1.7941902473581533e-11 2.34063517478513e-12
5.95966208400165 1.3275570391694341e-19 2.1001207144671234e-11 1.860642373281209e-11 2.39478341185914e-12
6.004529249263818 1.3760651371827954e-19 2.1932462214630862e-11 1.9476379388099773e-11 2.4560828265310893e-12
6.027089341400364 1.408716531400357e-19 2.2537237084637122e-11 2.0045412465249512e-11 2.4918246193876082e-12
6.049734195844842 1.4461652728786175e-19 2.3223285176558724e-11 2.069353016103513e-11 2.5297550155235906e-12
6.095279466722835 1.551716883003328e-19 2.5105885343354847e-11 2.248180309941472e-11 2.624082243940127e-12
6.141167624020661 1.7085363972819457e-19 2.7851245393645554e-11 2.5103385011277304e-11 2.7478603823682484e-12
6.164241091010745 1.8078416236133152e-19 2.9580766994604036e-11 2.6754570270262372e-11 2.826196724341671e-12
6.187401249150058 1.9175025425486112e-19 3.1492973097896576e-11 2.8586464270499365e-11 2.9065088273972175e-12
6.1990139391386085 1.9706227365516844e-19 3.242616103922042e-11 2.9478810398277154e-11 2.947350640943262e-12
6.204828454712694 1.9983124660639602e-19 3.2912631683138986e-11 2.994466585199604e-11 2.9679658311429497e-12
6.210648424152782 2.0183742102679795e-19 3.3274234008842225e-11 3.02888475552336e-11 2.9853864536086332e-12
6.233982942956859 2.0850419834348317e-19 3.450244298273248e-11 3.145692741445756e-11 3.045515568274927e-12
6.239830258556775 2.0927354781925586e-19 3.46622336811405e-11 3.16088330398548e-11 3.0534006412857046e-12
6.245683058788269 2.092450847272963e-19 3.469002716577539e-11 3.16287336168795e-11 3.061293548895895e-12
6.257405133728602 2.0883554713029013e-19 3.468711112493753e-11 3.161227017572744e-11 3.074840949210092e-12
6.269149208991335 2.0723666910023687e-19 3.4486144431156507e-11 3.140762266823755e-11 3.078521762918957e-12
6.280915325867298 2.0358386601197005e-19 3.394186712462825e-11 3.087184761876685e-11 3.0700195058614107e-12
6.304513850009849 1.9471558482788978e-19 3.258530193867105e-11 2.9543282599672046e-11 3.0420193389989995e-12
6.32820103803542 1.8404000640310121e-19 3.0914479614296674e-11 2.791215649036064e-11 3.0023231239360344e-12
6.3519772230701035 1.7435777918493788e-19 2.9398129178160735e-11 2.643175152096818e-11 2.9663776571925527e-12
6.375842739491607 1.6613038971055437e-19 2.811616695539515e-11 2.5181872848406925e-11 2.934294106988231e-12
6.399797922933955 1.5976037857164401e-19 2.713968328045635e-11 2.4223645259980817e-11 2.916038020475536e-12
6.42384311029221 1.5440660593943808e-19 2.6328749673294254e-11 2.342819753647959e-11 2.900552136814662e-12
6.447978639727206 1.5060779830605234e-19 2.5777481443693658e-11 2.288167010808757e-11 2.8958113356060867e-12
6.472204850670314 1.4742263168363992e-19 2.532712228845533e-11 2.2433929346606416e-11 2.8931929418489124e-12
6.496522083828205 1.4542467608189273e-19 2.5077743572537072e-11 2.2178496504433962e-11 2.8992470681031148e-12
6.520930681187647 1.4374022375340296e-19 2.488039856897416e-11 2.1973815197290917e-11 2.9065833716832443e-12
6.57002334288761 1.4209541945175098e-19 2.4780862844214566e-11 2.1847714648885692e-11 2.933148195328875e-12
