Dust emission spectrum from A.P. Jones, M. Kohler, N. Ysard, M. Bocchio, and L. Verstraete (2017), A&A, 602A, 46J 
inside the DustPedia framework.

lambda    nu*dP/dnu     j_nu    j_nu(carb.) j_nu(sil)
 (um)   (erg s-1 H-1) (Jy cm2 sr-1 H-1)
0.9927057738263894 1.413449128178593e-25 3.724518735058339e-18 3.724518735057094e-18 1.2447582074217545e-30
1.0001793341362166 1.4368007606041108e-25 3.814554806652842e-18 3.814554806651343e-18 1.4997616396025797e-30
1.0077091589558085 1.4601190927533137e-25 3.905646374493487e-18 3.905646374491682e-18 1.8047058332090073e-30
1.0114953028030835 1.4717628993968804e-25 3.95158341759206e-18 3.951583417590081e-18 1.9787476009477744e-30
1.0152956718711033 1.4833949438639055e-25 3.997778815145263e-18 3.997778815143095e-18 2.168878982846891e-30
1.0229392996569957 1.5066077890149828e-25 4.090906044674193e-18 4.0909060446715904e-18 2.603231135502687e-30
1.0267826658714554 1.518160437985643e-25 4.1377631850526906e-18 4.13776318504984e-18 2.8507383943997925e-30
1.0306404723013447 1.5296962169431457e-25 4.1848685257653126e-18 4.184868525762192e-18 3.1207748241448063e-30
1.03451277320114 1.5412140126469704e-25 4.2322200400304916e-18 4.2322200400270765e-18 3.415291952795126e-30
1.0383996230291617 1.5527127180306203e-25 4.279815675727925e-18 4.279815675724188e-18 3.7364010884401765e-30
1.0403485208654093 1.5584545676346424e-25 4.303704391017021e-18 4.3037043910131126e-18 3.90763413295795e-30
1.0423010764483396 1.5641912324138958e-25 4.3276533558839866e-18 4.3276533558799005e-18 4.086385583248492e-30
1.0462171883269815 1.5756484617105e-25 4.3757309791577834e-18 4.375730979153315e-18 4.467713970790992e-30
1.0471985131304309 1.5785093156709237e-25 4.387787627556729e-18 4.387787627552161e-18 4.56825159286826e-30
1.048180758391296 1.5813687544023792e-25 4.399859106251583e-18 4.399859106246913e-18 4.6709576184981705e-30
1.0501480137395462 1.587083318630924e-25 4.424046420327576e-18 4.424046420322693e-18 4.88305403350209e-30
1.0521189612883777 1.5927920195794648e-25 4.448292652081524e-18 4.448292652076418e-18 5.1043702914674535e-30
1.0531058218030118 1.5956397462974325e-25 4.460425525318461e-18 4.4604255253132434e-18 5.218611820950177e-30
1.0540936079674168 1.5984715966848181e-25 4.472532823547048e-18 4.472532823541713e-18 5.335327359850692e-30
1.058054026499678 1.6097829088470541e-25 4.521104959261073e-18 4.521104959255245e-18 5.827711606557018e-30
1.0590464539527713 1.612606631813747e-25 4.533283555947178e-18 4.533283555941223e-18 5.9574508426204466e-30
1.06003981227728 1.6154286797655262e-25 4.545476308265683e-18 4.545476308259592e-18 6.0899559725401e-30
1.0620293250338977 1.6210676848972525e-25 4.569904140194433e-18 4.5699041401880695e-18 6.363489573962915e-30
1.0660195594769086 1.6323248737115812e-25 4.6189281313933845e-18 4.618928131386438e-18 6.946291227238436e-30
1.070024785945596 1.6435534321095908e-25 4.668174677060268e-18 4.668174677052687e-18 7.580032732646023e-30
1.0740450607676866 1.6547523250257564e-25 4.717641501041862e-18 4.717641501033592e-18 8.268937541697334e-30
1.07808044048254 1.6659205256763165e-25 4.7673263073168645e-18 4.767326307307847e-18 9.017558910131674e-30
1.0861967418109137 1.6881410487434256e-25 4.867283681031526e-18 4.867283681020812e-18 1.0713960719957841e-29
1.0902777775684922 1.6991464788909417e-25 4.917421244246474e-18 4.917421244234802e-18 1.1672725087127855e-29
1.0943741465085532 1.7101164108732254e-25 4.967763730989411e-18 4.967763730976698e-18 1.2713223619556358e-29
1.1026131145906286 1.7319458803280316e-25 5.069053838176698e-18 5.0690538381616304e-18 1.5066311014478796e-29
1.1109141095355224 1.7536217513170824e-25 5.171134566860993e-18 5.17113456684316e-18 1.7832216707690596e-29
1.1192775983109025 1.775116346374908e-25 5.273926439940038e-18 5.27392643991896e-18 2.1079128352360342e-29
1.1277040513999907 1.7963298251024466e-25 5.377131462568726e-18 5.37713146254384e-18 2.488575515661644e-29
1.1361939428280308 1.8173646546166578e-25 5.481052728438695e-18 5.481052728409352e-18 2.934281631908574e-29
1.1447477501889525 1.8382138188752438e-25 5.585669797015722e-18 5.585669796981165e-18 3.455474792425916e-29
1.1533659546722406 1.8588818272585871e-25 5.69099681312622e-18 5.6909968130855776e-18 4.064167330247888e-29
1.1707974979042381 1.8997411209905324e-25 5.903990392180675e-18 5.903990392124661e-18 5.601289044597799e-29
1.1884924949847024 1.9397877578597616e-25 6.11955850033681e-18 6.119558500259989e-18 7.681816587032386e-29
1.2064549276569216 1.9793348688594973e-25 6.338694340987856e-18 6.338694340883017e-18 1.0484043997817932e-28
1.2246888378427687 2.01795052200955e-25 6.560028198725958e-18 6.560028198583562e-18 1.423956142078769e-28
1.2431983285522175 2.0555443523106552e-25 6.783232492165448e-18 6.783232491972964e-18 1.9248168140439213e-28
1.2619875648066055 2.092102269782401e-25 7.008215039847022e-18 7.008215039588063e-18 2.589597663975585e-28
1.3004222497298317 2.1615025813713533e-25 7.461215488169127e-18 7.461215487706901e-18 4.622270202974449e-28
1.3400274889804893 2.225879616942472e-25 7.917440586227081e-18 7.917440585416936e-18 8.101480717207058e-28
1.3808389325824078 2.2849943788837503e-25 8.37524639337211e-18 8.375246391977159e-18 1.394950578396988e-27
1.4228933163050095 2.3391342035069425e-25 8.834803850867232e-18 8.834803848506478e-18 2.3607550586103865e-27
1.466228494730424 2.3896015063732716e-25 9.300291732565288e-18 9.300291728636516e-18 3.928771114019e-27
1.5108834753276823 2.4354149927298393e-25 9.767274192163456e-18 9.76727418573114e-18 6.43231674625634e-27
1.5568984535646726 2.4757805694311213e-25 1.0231560355452849e-17 1.023156034508156e-17 1.0371285740574442e-26
1.6043148490894465 2.5107715978773193e-25 1.069217955978309e-17 1.0692179543284668e-17 1.649842231104789e-26
1.6531753430134553 2.5404940791687226e-25 1.1148245895480866e-17 1.114824586961616e-17 2.5864708092004586e-26
1.7035239163302658 2.5653007301191417e-25 1.1599945611440448e-17 1.1599945571470329e-17 3.9970121111359386e-26
1.755405889504358 2.5872312588399797e-25 1.205541690432178e-17 1.2055416843403739e-17 6.09180482608691e-26
1.8088679632656115 2.605781639968726e-25 1.2511642305851947e-17 1.2511642214251788e-17 9.160015723358849e-26
1.8639582606462262 2.620610381028163e-25 1.29660613789402e-17 1.2966061242995638e-17 1.3594456262359476e-25
1.9207263702978936 2.6319646038256557e-25 1.3418840055119638e-17 1.3418839855909818e-17 1.9920982149555975e-25
1.979223391128241 2.640419939985111e-25 1.3871941600872191e-17 1.3871941312525697e-17 2.883464929167839e-25
2.039501978296691 2.6466653783975316e-25 1.432823184715367e-17 1.4328231434739408e-17 4.124142609562897e-25
2.1016163906111602 2.6526312403972843e-25 1.4797888818235112e-17 1.479788823512235e-17 5.831127595850833e-25
2.1656225393682647 2.6594367849319843e-25 1.5287689993808303e-17 1.5287689178490436e-17 8.153178676828132e-25
2.231578038680979 2.6671620768730583e-25 1.5799048028973257e-17 1.57990469012599e-17 1.1277133638827438e-24
2.299542257339062 2.6764773846672837e-25 1.6337078878255197e-17 1.6337077334750173e-17 1.5435050260610332e-24
2.369576372248914 2.688864958143208e-25 1.6912551619318434e-17 1.6912549528079574e-17 2.0912388582911234e-24
2.4417434235010123 2.7060752658472784e-25 1.7539181870353677e-17 1.7539179064756528e-17 2.8055971486022513e-24
2.5161083711144245 2.7311062101764164e-25 1.8240526318901582e-17 1.8240522590495122e-17 3.728406457910907e-24
2.5927381535095444 2.768863764442023e-25 1.905590940631166e-17 1.905590449672307e-17 4.9095885905993466e-24
2.6717017477616296 2.825205745874648e-25 2.0035836935127476e-17 2.0035830527252307e-17 6.407875162755361e-24
2.753070231689431 2.908951792503859e-25 2.125804136059963e-17 2.1258033068790732e-17 8.29180890709573e-24
2.836916847834745 3.0400812370193444e-25 2.289292199726755e-17 2.2892911356204082e-17 1.0641063469945574e-23
2.9233170693905177 3.262593592955712e-25 2.5316772237229107e-17 2.5316758691885405e-17 1.354534368833856e-23
2.967498994190263 3.4515541649035495e-25 2.7187840072189643e-17 2.718782485769419e-17 1.5214495453990137e-23
3.0123486681368425 3.6722418750078302e-25 2.936337354859213e-17 2.936335648122223e-17 1.7067369904660395e-23
3.0578761833420214 4.165998038335894e-25 3.381492204388177e-17 3.381490291740719e-17 1.9126474575783836e-23
3.1040917844459814 4.8022551893004565e-25 3.9568466744668537e-17 3.956844534849164e-17 2.1396176910001536e-23
3.127460860933648 5.475300934908739e-25 4.545370723797132e-17 4.5453684614827674e-17 2.2623143655901e-23
3.1510058709225794 6.372032885963494e-25 5.329625017133165e-17 5.329622626054591e-17 2.391078574351903e-23
3.162844764501044 7.20673720905542e-25 6.05042658801303e-17 6.050424129942754e-17 2.458070275363996e-23
3.1747281389236908 8.177427001670412e-25 6.891165026684769e-17 6.891162500021803e-17 2.5266629673178833e-23
3.1986289994194426 1.088494448326232e-24 9.241862902218147e-17 9.241860233083175e-17 2.669134976097759e-23
3.2227097969389145 1.7267161977915894e-24 1.4771057725676633e-16 1.4771054904446512e-16 2.821230121764893e-23
3.2348180950136065 2.3319479602438043e-24 2.0023415129805338e-16 2.002341222700701e-16 2.902798332750221e-23
3.240889293275058 2.784436629587009e-24 2.3953609619861814e-16 2.3953606673942924e-16 2.945918890412163e-23
3.2469718861334385 3.3078960388032863e-24 2.8510170422843776e-16 2.851016743223903e-16 2.99060474850066e-23
3.2714166318528037 6.100118409420977e-24 5.297165666727355e-16 5.297165349096613e-16 3.176307401253567e-23
3.2744851364798273 6.274669527552289e-24 5.453851567051517e-16 5.453851247216826e-16 3.198346922422685e-23
3.2775565192852394 6.454234226043096e-24 5.615188560266499e-16 5.615188238214515e-16 3.2205198277959723e-23
3.283707930232385 6.28155196789606e-24 5.475211649842527e-16 5.475211323808448e-16 3.260340796042303e-23
3.2898708863219004 5.7339192022994846e-24 5.007256696395739e-16 5.007256366721453e-16 3.2967428676972397e-23
3.29141343181113 5.604773780338522e-24 4.896772848819626e-16 4.896772518230256e-16 3.3058936946912904e-23
3.292184975758714 5.541316302090113e-24 4.842466248078852e-16 4.842465917031185e-16 3.3104766753374705e-23
3.295272960557952 5.1407657448792824e-24 4.496645411939301e-16 4.496645079107023e-16 3.328322790399781e-23
3.3076538914384823 3.753136738436111e-24 3.2952159394650563e-16 3.295215599448178e-16 3.400168776083949e-23
3.310756385682612 3.4707191225057575e-24 3.0501143887675835e-16 3.0501140469356767e-16 3.418319075930347e-23
3.313861789986515 3.210145029463928e-24 2.8237645268583237e-16 2.823764183203792e-16 3.436545308783697e-23
3.3200813396944477 2.8447194460941724e-24 2.507018844025569e-16 2.5070184964531564e-16 3.4757241311883366e-23
3.345076488085796 2.1928387092147176e-24 1.9470727324688486e-16 1.9470723673956626e-16 3.6507318522947987e-23
3.3482140837626964 2.217284482946073e-24 1.970625369986821e-16 1.970625002535349e-16 3.6745147183024185e-23
3.3513546224236106 2.242000532152616e-24 1.994460912333335e-16 1.9944605424904148e-16 3.6984291966678435e-23
3.3576445397418455 2.422626589649796e-24 2.159188854707464e-16 2.1591884798589476e-16 3.748485169808473e-23
3.3702598118196083 3.088849627987221e-24 2.7633098250841115e-16 2.7633094397062366e-16 3.8537787524660826e-23
3.382922481734668 3.240591361648892e-24 2.9099514904179993e-16 2.9099510947616785e-16 3.9565632221393857e-23
3.389271646505754 3.3192041199684735e-24 2.986137300553547e-16 2.9861368996704973e-16 4.0088304967552253e-23
3.395632727569191 3.4039129930710385e-24 3.068093526867976e-16 3.068093120593479e-16 4.0627449584796666e-23
3.421196662673239 3.810651347148993e-24 3.4605624250622908e-16 3.460561996363077e-16 4.2869921315608957e-23
3.4276182099114902 3.728688239948724e-24 3.3924850891055244e-16 3.3924846553403677e-16 4.337651567682736e-23
3.4340518103208963 3.3695198595274815e-24 3.071455988554729e-16 3.0714555499727684e-16 4.385819610780812e-23
3.4469541582030403 2.8579999805576313e-24 2.6149727179113828e-16 2.614972270025497e-16 4.4788588527547184e-23
3.472904465399547 2.7146527042968366e-24 2.502514175758818e-16 2.502513706405529e-16 4.693532885617931e-23
3.4990501388274233 2.495404099773001e-24 2.3177174094399726e-16 2.317716917920045e-16 4.9151992720252425e-23
3.5253949054701885 1.7151120225334877e-24 1.6049802658537066e-16 1.6049797525687317e-16 5.132849748832859e-23
3.5519380250092896 9.817300475980273e-25 9.256075664087664e-17 9.256070310161611e-17 5.353926056237607e-23
3.578680990867387 6.909465048793896e-25 6.563520466396052e-17 6.563514868580884e-17 5.597815169653731e-23
3.605625307711299 5.733374791922517e-25 5.4873209056078783e-17 5.487315048682452e-17 5.856925425557353e-23
3.660119384959845 4.8755816735406715e-25 4.7368662299302995e-17 4.7368598202906343e-17 6.409639664135881e-23
3.715437065384467 4.2682648298463275e-25 4.2095018072649027e-17 4.209494802962765e-17 7.004302138242934e-23
3.8285932144167436 3.9607753682161946e-25 4.0252130388016464e-17 4.0252047124924584e-17 8.326309188150422e-23
3.94519561050918 3.903008942870046e-25 4.087309462223972e-17 4.087299624730084e-17 9.837493887727723e-23
4.06534921144712 3.9483574004880714e-25 4.260727388005751e-17 4.260715829865797e-17 1.1558139954364534e-22
4.189162171576248 4.0540093311203937e-25 4.5079734564205825e-17 4.507959940272877e-17 1.3516147705592426e-22
4.316745939156006 4.204208712319754e-25 4.817372066374013e-17 4.817356331071379e-17 1.5735302633578917e-22
4.448215356677963 4.393911186031257e-25 5.188078186218664e-17 5.188059961733491e-17 1.822448517406112e-22
4.58368876423945 4.624171230864966e-25 5.62624268805646e-17 5.6262216634269e-17 2.1024629559449494e-22
4.723288106065518 4.900577083178922e-25 6.144139885410393e-17 6.14411569047419e-17 2.4194936203088864e-22
4.867139040275056 5.233921342854888e-25 6.761925438772239e-17 6.761897708132902e-17 2.7730639339102332e-22
4.940699165968905 5.4349965633489855e-25 7.127826465790126e-17 7.127796804274242e-17 2.9661515885780367e-22
5.015371051989984 5.643954344864111e-25 7.513737076232654e-17 7.513705368887201e-17 3.1707345453501843e-22
5.091171501069577 5.898069261206997e-25 7.970710362557196e-17 7.970676455072585e-17 3.3907484607740574e-22
5.129500256944802 6.028803888359899e-25 8.208723850821754e-17 8.208688794501244e-17 3.5056320510120637e-22
5.168117569889187 6.165182757596767e-25 8.457612300515608e-17 8.45757605540592e-17 3.6245109688067467e-22
5.20702561229733 6.3315914461971805e-25 8.751289091658655e-17 8.751251568397901e-17 3.7523260753655967e-22
5.246226572918644 6.502433942575359e-25 9.055082779169213e-17 9.055043937923423e-17 3.8841245789264092e-22
5.265937586045735 6.5895631946270055e-25 9.210893645204693e-17 9.210854129645037e-17 3.9515559654018067e-22
5.285722656980489 6.677856048877547e-25 9.369380099323522e-17 9.369339899025514e-17 4.0200298008531546e-22
5.305582063971359 6.767331694127365e-25 9.530593205356845e-17 9.530552309734654e-17 4.0895622193998796e-22
5.3255160863122235 6.863296828926137e-25 9.702059102098471e-17 9.702017497150953e-17 4.1604947516563875e-22
5.365609099470188 7.100869463358069e-25 1.0113465374378576e-16 1.011342229211232e-16 4.308226625528677e-22
5.406003951863644 7.347606413155598e-25 1.05436668850086e-16 1.054362227796968e-16 4.46070389201267e-22
5.446702915881641 7.603947516038728e-25 1.0993658229210137e-16 1.0993612048394951e-16 4.618081518736331e-22
5.487708281020852 7.880713225163501e-25 1.1479579338515018e-16 1.147953152864786e-16 4.780986716101528e-22
5.529022354014368 8.262540844424631e-25 1.2126386276164733e-16 1.2126336743046973e-16 4.953311776569218e-22
5.570647458961463 8.666820133911364e-25 1.2815480419562432e-16 1.2815429105367778e-16 5.1314194653776965e-22
5.612585937458331 9.095152083103675e-25 1.3550096941124607e-16 1.355004378600051e-16 5.315512409762175e-22
5.654840148729818 9.56552193635302e-25 1.4358148403880406e-16 1.4358093338949997e-16 5.506493040937119e-22
5.67608639626678 9.88421764318167e-25 1.4892264120364388e-16 1.489220804604463e-16 5.607431975614059e-22
5.686739436050992 1.004845749573916e-24 1.5168134198550693e-16 1.5168077612882879e-16 5.658566781339883e-22
5.6974124697621304 1.0216062094470274e-24 1.5450075953286836e-16 1.545001885177984e-16 5.710150699596859e-22
5.718818669136295 1.0561687662290234e-24 1.603278908609012e-16 1.603273093926213e-16 5.81468279861336e-22
5.740305295436557 1.0942250740602625e-24 1.6672897727049984e-16 1.6672838508730025e-16 5.921831996108057e-22
5.7835210386641895 1.192661888337319e-24 1.830961002269282e-16 1.8309548541951436e-16 6.148074137914301e-22
5.827062130521658 1.3059403714608289e-24 2.0199584188839105e-16 2.019952034177887e-16 6.384706024133329e-22
5.8489554468988025 1.3851905377353978e-24 2.150588219522794e-16 2.1505817051948297e-16 6.514327964832852e-22
5.870931020387893 1.4702024034699536e-24 2.291150084915181e-16 2.2911434382111275e-16 6.646704054080113e-22
5.892989160043636 1.5614386213632594e-24 2.442474242439985e-16 2.442467460538003e-16 6.781901982285502e-22
5.915130176081913 1.665127781668165e-24 2.614455815320842e-16 2.614448892011536e-16 6.92330930509556e-22
5.95966208400165 1.9545749605456285e-24 3.0920278688656324e-16 3.092020623338583e-16 7.245527048891092e-22
6.004529249263818 2.3712372985954854e-24 3.7794048441516657e-16 3.779397225680572e-16 7.618471092992714e-22
6.027089341400364 2.6606298848969057e-24 4.256587125501034e-16 4.256579287640745e-16 7.837860289001642e-22
6.049734195844842 3.0024888053394007e-24 4.821554982234352e-16 4.821546907855766e-16 8.07437858612298e-22
6.095279466722835 3.989410244073103e-24 6.454635975955272e-16 6.454627310135305e-16 8.665819967079602e-22
6.141167624020661 5.507511087833224e-24 8.977920696304257e-16 8.977911241364873e-16 9.454939384264571e-22
6.164241091010745 6.4768912895843196e-24 1.0597798478809355e-15 1.0597788525458329e-15 9.953351028383862e-22
6.187401249150058 7.580961115677407e-24 1.2450935483762261e-15 1.2450924999612395e-15 1.048414987077438e-21
6.1990139391386085 8.120116520578584e-24 1.3361472039760435e-15 1.3361461283516272e-15 1.0756244166336608e-21
6.204828454712694 8.404103403616257e-24 1.384173719813963e-15 1.3841726302378265e-15 1.0895761368776866e-21
6.210648424152782 8.611507813177259e-24 1.419664028042596e-15 1.4196629265337988e-15 1.1015087973441486e-21
6.233982942956859 9.31635474420902e-24 1.5416332185285584e-15 1.5416320742943452e-15 1.1442342131140363e-21
6.239830258556775 9.406604617007245e-24 1.558027427634594e-15 1.5580262769122322e-15 1.1507223614902397e-21
6.245683058788269 9.414705518310611e-24 1.5608318380028626e-15 1.5608306807533766e-15 1.1572494863265087e-21
6.257405133728602 9.395979307398883e-24 1.5606508702276689e-15 1.5606497012180364e-15 1.1690096327000204e-21
6.269149208991335 9.258195054756722e-24 1.5406513394390125e-15 1.5406501647020102e-15 1.1747370018701523e-21
6.280915325867298 8.911737341926479e-24 1.4857808265192855e-15 1.4857796535642516e-15 1.1729550337329684e-21
6.304513850009849 8.057021788933784e-24 1.3483280650129777e-15 1.348326902536977e-15 1.162476001180881e-21
6.32820103803542 6.997313577754982e-24 1.1753874181059722e-15 1.175386274137263e-15 1.143968708843916e-21
6.3519772230701035 6.025548372303349e-24 1.015956100417758e-15 1.0159549731307207e-15 1.1272870371567376e-21
6.375842739491607 5.2080658412151e-24 8.814212075311311e-16 8.814200943047015e-16 1.1132264297173567e-21
6.399797922933955 4.553227364671912e-24 7.734905843734381e-16 7.734894773829107e-16 1.1069905272640767e-21
6.42384311029221 4.008897654301316e-24 6.835799683813707e-16 6.8357886563059565e-16 1.102750774813825e-21
6.447978639727206 3.61261707084218e-24 6.183223614859985e-16 6.183212562562676e-16 1.105229730632448e-21
6.472204850670314 3.2826620405679375e-24 5.639594272848736e-16 5.639583180163429e-16 1.1092685310412365e-21
6.496522083828205 3.0687065344398286e-24 5.291827882546887e-16 5.291816692291956e-16 1.1190254931503716e-21
