Dust emission spectrum from A.P. Jones, M. Kohler, N. Ysard, M. Bocchio, and L. Verstraete (2017), A&A, 602A, 46J 
inside the DustPedia framework.

lambda    nu*dP/dnu     j_nu    j_nu(carb.) j_nu(sil)
 (um)   (erg s-1 H-1) (Jy cm2 sr-1 H-1)
0.9927057738263894 6.950426094061907e-25 1.8314767534174062e-17 1.8314767534174043e-17 1.835683521673355e-32
1.0001793341362166 7.065301691765193e-25 1.875763242040858e-17 1.8757632420408557e-17 2.2123729702737676e-32
1.0077091589558085 7.180014840505408e-25 1.92056929258764e-17 1.9205692925876375e-17 2.6630233167366396e-32
1.0114953028030835 7.237296370934187e-25 1.9431649173452005e-17 1.943164917345198e-17 2.9203067262934693e-32
1.0152956718711033 7.294520382975765e-25 1.9658877208888007e-17 1.9658877208887967e-17 3.201437581101095e-32
1.0229392996569957 7.408717375094873e-25 2.0116958716159223e-17 2.0116958716159186e-17 3.8438981767690506e-32
1.0267826658714554 7.465551913142736e-25 2.0347444900677763e-17 2.0347444900677723e-17 4.2101157245175703e-32
1.0306404723013447 7.522303807263164e-25 2.0579152968795117e-17 2.0579152968795068e-17 4.6097626897354965e-32
1.03451277320114 7.578967581302528e-25 2.0812072961392965e-17 2.081207296139292e-17 5.045745414773116e-32
1.0383996230291617 7.635537789408008e-25 2.1046194794597478e-17 2.104619479459742e-17 5.521209288939744e-32
1.0403485208654093 7.66378611294942e-25 2.1163703216690758e-17 2.11637032166907e-17 5.774799469956034e-32
1.0423010764483396 7.692009017072082e-25 2.1281508262164682e-17 2.1281508262164626e-17 6.03955720168951e-32
1.0462171883269815 7.74837588215404e-25 2.1518003037869196e-17 2.1518003037869134e-17 6.604469319276536e-32
1.0471985131304309 7.762450664214289e-25 2.1577310089856673e-17 2.1577310089856605e-17 6.753432375798468e-32
1.048180758391296 7.776518505904231e-25 2.1636690157108367e-17 2.16366901571083e-17 6.905618008335407e-32
1.0501480137395462 7.804633035878337e-25 2.175566867789466e-17 2.1755668677894586e-17 7.219924271865638e-32
1.0521189612883777 7.83271880885276e-25 2.1874937276769922e-17 2.1874937276769845e-17 7.547935795858649e-32
1.0531058218030118 7.846729151539336e-25 2.1934619690316024e-17 2.1934619690315944e-17 7.717268767076721e-32
1.0540936079674168 7.860661441837304e-25 2.199417642848499e-17 2.199417642848491e-17 7.890279563243681e-32
1.058054026499678 7.916311669595237e-25 2.2233107179710896e-17 2.2233107179710807e-17 8.620275696491831e-32
1.0590464539527713 7.930204086191444e-25 2.2293014967204313e-17 2.2293014967204227e-17 8.812655093888254e-32
1.06003981227728 7.944088284374204e-25 2.2352992453145698e-17 2.235299245314561e-17 9.009148833722623e-32
1.0620293250338977 7.971831702143544e-25 2.2473155834247642e-17 2.2473155834247546e-17 9.41481635644559e-32
1.0660195594769086 8.027216368291256e-25 2.2714311407860805e-17 2.2714311407860703e-17 1.027932293631947e-31
1.070024785945596 8.082460535854771e-25 2.2956562813651423e-17 2.2956562813651315e-17 1.1219646441627077e-31
1.0740450607676866 8.137559112502086e-25 2.319989886445615e-17 2.3199898864456022e-17 1.224209933888313e-31
1.07808044048254 8.192507046573922e-25 2.344430827524313e-17 2.344430827524299e-17 1.3353489589033929e-31
1.0861967418109137 8.301833930002804e-25 2.3936021720586593e-17 2.3936021720586436e-17 1.587301435088839e-31
1.0902777775684922 8.355982272551045e-25 2.4182661856445373e-17 2.4182661856445197e-17 1.7297587877743547e-31
1.0943741465085532 8.409956327090882e-25 2.4430311150334983e-17 2.443031115033479e-17 1.8844051863937507e-31
1.1026131145906286 8.517362382854467e-25 2.4928589841255832e-17 2.4928589841255613e-17 2.234293517785105e-31
1.1109141095355224 8.624014181647777e-25 2.543076225321899e-17 2.5430762253218726e-17 2.6458095243412554e-31
1.1192775983109025 8.729775590841822e-25 2.5936437573405165e-17 2.5936437573404838e-17 3.129182638199828e-31
1.1277040513999907 8.834155591450477e-25 2.644415035156847e-17 2.6444150351568108e-17 3.6962304269177903e-31
1.1361939428280308 8.937658067582752e-25 2.6955391155392376e-17 2.695539115539193e-17 4.360584551531577e-31
1.1447477501889525 9.040248492408838e-25 2.7470059490936737e-17 2.7470059490936226e-17 5.137951013976394e-31
1.1533659546722406 9.141949014214296e-25 2.798822493325637e-17 2.798822493325577e-17 6.046410264403578e-31
1.1707974979042381 9.343008461340788e-25 2.903607843212742e-17 2.903607843212659e-17 8.342854719664142e-31
1.1884924949847024 9.540075091611103e-25 3.0096616180903276e-17 3.0096616180902136e-17 1.1455338093543437e-30
1.2064549276569216 9.734688646810492e-25 3.1174722785726126e-17 3.117472278572456e-17 1.5653307582320291e-30
1.2246888378427687 9.924724749880234e-25 3.226366232159761e-17 3.226366232159548e-17 2.1287397893079694e-30
1.2431983285522175 1.0109738714829362e-24 3.33618236262554e-17 3.336182362625253e-17 2.881237915738024e-30
1.2619875648066055 1.0289661055294422e-24 3.4468753465930194e-17 3.446875346592631e-17 3.881507436747572e-30
1.3004222497298317 1.0631240607588953e-24 3.669760922953415e-17 3.6697609229527204e-17 6.947425659663325e-30
1.3400274889804893 1.0948124354465045e-24 3.894241334855756e-17 3.8942413348545346e-17 1.2212138096763523e-29
1.3808389325824078 1.1239134674228538e-24 4.1195078208875064e-17 4.119507820885398e-17 2.1091392463178042e-29
1.4228933163050095 1.1505682611850297e-24 4.3456441658469996e-17 4.345644165843419e-17 3.580809917110156e-29
1.466228494730424 1.1754172222872699e-24 4.574705466830897e-17 4.5747054668249185e-17 5.979197931437356e-29
1.5108834753276823 1.197977514988673e-24 4.8045096625710735e-17 4.804509662561249e-17 9.82408301708361e-29
1.5568984535646726 1.2178583367010204e-24 5.0329949391318906e-17 5.032994939115992e-17 1.589973255958643e-28
1.6043148490894465 1.2350955609873604e-24 5.259683327122432e-17 5.259683327097037e-17 2.5394434163431637e-28
1.6531753430134553 1.2497411281550719e-24 5.484138505423028e-17 5.484138505383044e-17 3.998384254190726e-28
1.7035239163302658 1.261968347508418e-24 5.706451498096735e-17 5.70645149803465e-17 6.208307423326278e-28
1.755405889504358 1.2727803978915503e-24 5.93062497672158e-17 5.930624976626462e-17 9.512036745789598e-28
1.8088679632656115 1.2819292174628176e-24 6.155174165133792e-17 6.15517416498991e-17 1.438820053523224e-27
1.8639582606462262 1.2892466665019117e-24 6.378838888633016e-17 6.378838888418021e-17 2.149956562187741e-27
1.9207263702978936 1.2948541806402114e-24 6.601700159439134e-17 6.601700159121581e-17 3.175524607080375e-27
1.979223391128241 1.2990348074823265e-24 6.824723110899056e-17 6.82472311043511e-17 4.6394482837532784e-27
2.039501978296691 1.3021273801623196e-24 7.049316906389136e-17 7.049316905718167e-17 6.709713515624727e-27
2.1016163906111602 1.3050814587208434e-24 7.280488154847607e-17 7.280488153886193e-17 9.614124770649348e-27
2.1656225393682647 1.3084476162235628e-24 7.521570598443412e-17 7.521570597077339e-17 1.3660732658140997e-26
2.231578038680979 1.3122651775579992e-24 7.773258605751654e-17 7.773258603824976e-17 1.9266791937321767e-26
2.299542257339062 1.316863843759714e-24 8.038068474133279e-17 8.038068471433277e-17 2.699998966083701e-26
2.369576372248914 1.3229727963869854e-24 8.321297669519208e-17 8.321297665755428e-17 3.7637800267401566e-26
2.4417434235010123 1.331453175770124e-24 8.629693230051543e-17 8.629693224826489e-17 5.225053889091645e-26
2.5161083711144245 1.3437798458056851e-24 8.974843802447654e-17 8.97484379521527e-17 7.232384141867417e-26
2.5927381535095444 1.3623663681275175e-24 9.376095141494064e-17 9.376095131500877e-17 9.993185911800192e-26
2.6717017477616296 1.3900944752157445e-24 9.858293071403096e-17 9.858293057605649e-17 1.3797446640690756e-25
2.753070231689431 1.4313029865284155e-24 1.0459677663128708e-16 1.0459677644077291e-16 1.905141511340494e-25
2.836916847834745 1.4958207603949324e-24 1.1264076621580335e-16 1.1264076595253083e-16 2.6327252064961987e-25
2.9233170693905177 1.6052933980301649e-24 1.2456607350546257e-16 1.2456607314120105e-16 3.6426152304967917e-25
2.967498994190263 1.6982562414658353e-24 1.3377138786944476e-16 1.3377138744107142e-16 4.283733323055435e-25
3.0123486681368425 1.806826667680822e-24 1.4447448775567592e-16 1.4447448725150678e-16 5.041691744609485e-25
3.0578761833420214 2.0497344466980963e-24 1.6637456352101818e-16 1.6637456292677616e-16 5.942419904476008e-25
3.1040917844459814 2.3627413337318114e-24 1.946794749648439e-16 1.9467947426406719e-16 7.007766659626996e-25
3.127460860933648 2.6938478726173082e-24 2.2363222405714195e-16 2.236322232952358e-16 7.619061933829911e-25
3.1510058709225794 3.1349938236795603e-24 2.622136735679155e-16 2.622136727391193e-16 8.287962407481864e-25
3.162844764501044 3.545629604544711e-24 2.9767384335351956e-16 2.976738424879814e-16 8.655382057043598e-25
3.1747281389236908 4.02315983067772e-24 3.3903400563852243e-16 3.3903400473456214e-16 9.039602856143031e-25
3.1986289994194426 5.35511106266032e-24 4.546757435773843e-16 4.546757425900042e-16 9.873801230894873e-25
3.2227097969389145 8.494823032525475e-24 7.266829461802853e-16 7.266829450918464e-16 1.088438550186708e-24
3.2348180950136065 1.1472239902579996e-23 9.850709619354472e-16 9.850709607848047e-16 1.150642992089429e-24
3.240889293275058 1.3698245595338149e-23 1.17841585612379e-15 1.1784158549361846e-15 1.1876055696986427e-24
3.2469718861334385 1.6273393209955782e-23 1.4025749549905322e-15 1.402574953761762e-15 1.228770464835724e-24
3.2714166318528037 3.0009659723033377e-23 2.6059516961099803e-15 2.6059516946953026e-15 1.4146786494366006e-24
3.2744851364798273 3.0868369075405905e-23 2.6830337807431912e-15 2.6830337793084355e-15 1.4347561226711546e-24
3.2775565192852394 3.1751742927513137e-23 2.762403988000296e-15 2.7624039865451483e-15 1.4551479092073456e-24
3.283707930232385 3.0902263441053255e-23 2.69354506121563e-15 2.6935450597344634e-15 1.481167120065041e-24
3.2898708863219004 2.820822326321064e-23 2.4633380737470714e-15 2.463338072251606e-15 1.4954647959213888e-24
3.29141343181113 2.757290089020541e-23 2.4089862987154745e-15 2.4089862972164183e-15 1.4990559924931141e-24
3.292184975758714 2.7260725912370995e-23 2.382270528015031e-15 2.3822705265141773e-15 1.5008541157731838e-24
3.295272960557952 2.52902421697057e-23 2.212146148314942e-15 2.21214614680941e-15 1.505531955666229e-24
3.3076538914384823 1.846386213667084e-23 1.621108343688949e-15 1.6211083421659223e-15 1.5230267016669898e-24
3.310756385682612 1.707451539062271e-23 1.500531251188434e-15 1.5005312496609946e-15 1.5274395079319612e-24
3.313861789986515 1.579262528218256e-23 1.389178826765968e-15 1.3891788252340994e-15 1.5318681866602642e-24
3.3200813396944477 1.3994922523885765e-23 1.2333565806017277e-15 1.2333565790537655e-15 1.5479624288175727e-24
3.345076488085796 1.0788028414049608e-23 9.578942524969074e-16 9.578942508398222e-16 1.6570848832502374e-24
3.3482140837626964 1.0908294392920596e-23 9.694814463055586e-16 9.694814446295642e-16 1.675994269888813e-24
3.3513546224236106 1.1029890057672182e-23 9.812078218482672e-16 9.81207820153142e-16 1.6951250445647862e-24
3.3576445397418455 1.191849491603728e-23 1.062247128696598e-15 1.0622471269558806e-15 1.740717279398546e-24
3.3702598118196083 1.5196016975782208e-23 1.359447952106578e-15 1.359447950258553e-15 1.848025479478903e-24
3.382922481734668 1.5942548672597168e-23 1.4315918946127232e-15 1.4315918926736033e-15 1.9391196122131687e-24
3.389271646505754 1.632930424562625e-23 1.4690733904130931e-15 1.469073388426696e-15 1.986397811633093e-24
3.395632727569191 1.6746054092843115e-23 1.5093940493607875e-15 1.5093940473237968e-15 2.0369908911567922e-24
3.421196662673239 1.8747131618169057e-23 1.7024811074377323e-15 1.7024811051807334e-15 2.2569989205003643e-24
3.4276182099114902 1.8343925004181183e-23 1.6689915607750147e-15 1.668991558476801e-15 2.2982133643646312e-24
3.4340518103208963 1.6576976777036217e-23 1.511059638066671e-15 1.5110596357355012e-15 2.331169648561473e-24
3.4469541582030403 1.4060521996680106e-23 1.2864899115127875e-15 1.2864899091275868e-15 2.385200896841114e-24
3.472904465399547 1.335534035465057e-23 1.2311677477820859e-15 1.2311677452073032e-15 2.5747826714261755e-24
3.4990501388274233 1.2276752331096508e-23 1.1402579089997294e-15 1.1402579062265916e-15 2.7731380961861772e-24
3.5253949054701885 8.438038817969172e-24 7.896210630803638e-16 7.896210601461935e-16 2.9341704623788908e-24
3.5519380250092896 4.8300594918253726e-24 4.553939876625439e-16 4.553939845731872e-16 3.089356592459775e-24
3.578680990867387 3.399501127922529e-24 3.229294174163433e-16 3.229294141068737e-16 3.309469619086789e-24
3.605625307711299 2.820904481376286e-24 2.699842360765769e-16 2.699842325052901e-16 3.571286851360374e-24
3.660119384959845 2.3989031285688933e-24 2.330651803098616e-16 2.330651761279119e-16 4.181949771271402e-24
3.715437065384467 2.1001183169264335e-24 2.0712050922318794e-16 2.0712050432932077e-16 4.893867170288134e-24
3.8285932144167436 1.948844047493035e-24 1.980549700826092e-16 1.9805496337002976e-16 6.712579355071015e-24
3.94519561050918 1.9204252038682914e-24 2.0111078970503962e-16 2.0111078052537358e-16 9.179666010814342e-24
4.06534921144712 1.9427351815902167e-24 2.0964325556801298e-16 2.0964324306341772e-16 1.2504595279259303e-23
4.189162171576248 1.9947121014211956e-24 2.2180780733236624e-16 2.218077903731711e-16 1.695919513890435e-23
4.316745939156006 2.068604516781136e-24 2.3703004054758373e-16 2.3703001765637183e-16 2.2891211779567906e-23
4.448215356677963 2.1619308533142964e-24 2.552683890345983e-16 2.552683582952903e-16 3.073930800633729e-23
4.58368876423945 2.2752100873775682e-24 2.7682547809774543e-16 2.768254370315572e-16 4.1066188166014485e-23
4.723288106065518 2.4111918896613468e-24 3.02305218532269e-16 3.023051639463466e-16 5.458592237885953e-23
4.867139040275056 2.575186680873472e-24 3.326993125480864e-16 3.3269924036189507e-16 7.21861912881469e-23
4.940699165968905 2.6741108787131297e-24 3.5070120232061026e-16 3.5070111944555903e-16 8.287505127590918e-23
5.015371051989984 2.7769125445649406e-24 3.696874472866685e-16 3.6968735227299717e-16 9.501367138026175e-23
5.091171501069577 2.9019332160047256e-24 3.9217018539257223e-16 3.92170076530364e-16 1.0886220822424211e-22
5.129500256944802 2.9662524068571917e-24 4.0388022782990387e-16 4.038801113673746e-16 1.1646252910645574e-22
5.168117569889187 3.0333485682507873e-24 4.1612531487371054e-16 4.1612519031513716e-16 1.245585733888215e-22
5.20702561229733 3.1152211118598537e-24 4.3057422080980693e-16 4.30574087548694e-16 1.332611130344375e-22
5.246226572918644 3.1992749518197463e-24 4.455208584645251e-16 4.455207159453262e-16 1.4251919880372785e-22
5.265937586045735 3.2421421565990076e-24 4.531867394703451e-16 4.531865921039124e-16 1.4736643267141092e-22
5.285722656980489 3.2855818173502005e-24 4.609842540609198e-16 4.609841016963373e-16 1.5236458263750418e-22
5.305582063971359 3.32960337427917e-24 4.689159144212778e-16 4.689157569034113e-16 1.5751786653549774e-22
5.3255160863122235 3.3768181105556946e-24 4.773520612946291e-16 4.77351898442939e-16 1.6285169028316397e-22
5.365609099470188 3.493706559719043e-24 4.975937172523137e-16 4.97593543063628e-16 1.7418868562945724e-22
5.406003951863644 3.615103932587706e-24 5.187601169224766e-16 5.187599306765649e-16 1.862459118411022e-22
5.446702915881641 3.741226635194619e-24 5.40900195570708e-16 5.408999965064172e-16 1.9906429070168383e-22
5.487708281020852 3.8773991073761416e-24 5.648081513496294e-16 5.648079386070609e-16 2.127425685304969e-22
5.529022354014368 4.0652690962390814e-24 5.966327344791847e-16 5.966325066929077e-16 2.2778627705351025e-22
5.570647458961463 4.264186110758738e-24 6.305379915982639e-16 6.305377477970218e-16 2.4380124182542056e-22
5.612585937458331 4.4749378979703486e-24 6.666831051198751e-16 6.666828442763376e-16 2.608435375155164e-22
5.654840148729818 4.706374468384472e-24 7.064415670250582e-16 7.064412879423915e-16 2.7908266684308278e-22
5.67608639626678 4.863185823829928e-24 7.327221067905823e-16 7.327218176654367e-16 2.891251454742624e-22
5.686739436050992 4.943998603290148e-24 7.462959794968595e-16 7.462956852266823e-16 2.942701772466191e-22
5.6974124697621304 5.0264670015415005e-24 7.60168607359399e-16 7.601683078600354e-16 2.9949936364132687e-22
5.718818669136295 5.1965291585219e-24 7.888403694777765e-16 7.888400592626021e-16 3.102151743485305e-22
5.740305295436557 5.3837827974884036e-24 8.203363466539576e-16 8.203360252044351e-16 3.214495226478089e-22
5.7835210386641895 5.8681403732091955e-24 9.008702536949972e-16 9.00869907282959e-16 3.46412037848169e-22
5.827062130521658 6.4255278624855056e-24 9.938661354868793e-16 9.938657619612394e-16 3.7352563984923137e-22
5.8489554468988025 6.81548318211075e-24 1.0581430815839847e-15 1.0581426921292486e-15 3.89454736008686e-22
5.870931020387893 7.233789532775956e-24 1.1273071968295754e-15 1.1273067908108048e-15 4.0601877045183038e-22
5.892989160043636 7.68272342823099e-24 1.2017670005408994e-15 1.2017665772999045e-15 4.2324099542000373e-22
5.915130176081913 8.192934047558234e-24 1.2863916091604462e-15 1.286391167407755e-15 4.417526914884436e-22
5.95966208400165 9.617191027100215e-24 1.5213856350486166e-15 1.5213851482159494e-15 4.868326672344085e-22
6.004529249263818 1.1667433933454288e-23 1.859618029500264e-15 1.8596174855957956e-15 5.439044683932502e-22
6.027089341400364 1.3091434028736909e-23 2.0944224470073897e-15 2.094421866725902e-15 5.80281487695676e-22
6.049734195844842 1.477360449149224e-23 2.3724233780602622e-15 2.372422757027184e-15 6.21033078241274e-22
6.095279466722835 1.9629921050591533e-23 3.1760081532489304e-15 3.176007421659144e-15 7.315897866762972e-22
6.141167624020661 2.7100019183163926e-23 4.417636555144731e-15 4.41763566282089e-15 8.923238411790788e-22
6.164241091010745 3.187004757607236e-23 5.214729206037947e-15 5.214728207948129e-15 9.980898164455887e-22
6.187401249150058 3.7302849895744597e-23 6.126602818894445e-15 6.126601703963591e-15 1.114930853380988e-21
6.1990139391386085 3.9955879673849475e-23 6.574651579607288e-15 6.574650404496184e-15 1.1751111029787903e-21
6.204828454712694 4.13532985993927e-23 6.810976305249731e-15 6.810975098833372e-15 1.2064163608465767e-21
6.210648424152782 4.237387967072895e-23 6.985614366521048e-15 6.985613134075632e-15 1.2324454163959587e-21
6.233982942956859 4.5842250202079377e-23 7.585792690810994e-15 7.58579136586239e-15 1.32494860589775e-21
6.239830258556775 4.6286351414392965e-23 7.666464996133893e-15 7.666463658379007e-15 1.3377548888858164e-21
6.245683058788269 4.6326222295372074e-23 7.680266000076626e-15 7.680264649401144e-15 1.3506754798935552e-21
6.257405133728602 4.6234093685455446e-23 7.679378187601454e-15 7.679376814319205e-15 1.3732822507197486e-21
6.269149208991335 4.5556115110689066e-23 7.580969006357279e-15 7.58096762576454e-15 1.380592738737601e-21
6.280915325867298 4.385131415752073e-23 7.310969712537955e-15 7.310968343657872e-15 1.3688800830441448e-21
6.304513850009849 3.964553438474937e-23 6.634608675976849e-15 6.634607348244039e-15 1.3277328097798243e-21
6.32820103803542 3.4431033098099234e-23 5.783620048778843e-15 5.783618784365943e-15 1.2644128980904117e-21
6.3519772230701035 2.9649263201229825e-23 4.99910513715891e-15 4.9991039326686916e-15 1.2044902198256303e-21
6.375842739491607 2.5626666523930115e-23 4.337097118428536e-15 4.3370959665785195e-15 1.151850017289528e-21
6.399797922933955 2.2404388363700798e-23 3.8060000215291445e-15 3.8059989052009214e-15 1.116328223502287e-21
6.42384311029221 1.9725888017663322e-23 3.3635734983009507e-15 3.3635724120154283e-15 1.086285522971687e-21
6.447978639727206 1.7775893391248235e-23 3.0424570785294058e-15 3.0424560062790075e-15 1.072250397109565e-21
6.472204850670314 1.615226585211959e-23 2.774949868960129e-15 2.7749488067426853e-15 1.0622174439926684e-21
6.496522083828205 1.5099439383866808e-23 2.603821298831327e-15 2.6038202326824428e-15 1.0661488843626808e-21
