Dust emission spectrum from A.P. Jones, M. Kohler, N. Ysard, M. Bocchio, and L. Verstraete (2017), A&A, 602A, 46J 
inside the DustPedia framework.

lambda    nu*dP/dnu     j_nu    j_nu(carb.) j_nu(sil)
 (um)   (erg s-1 H-1) (Jy cm2 sr-1 H-1)
0.9927057738263894 2.98195898574893e-26 7.857631299337528e-19 7.857631285771808e-19 1.3565717440482211e-27
1.0001793341362166 3.03106176873012e-26 8.047149998939152e-19 8.04714998260064e-19 1.63385112345508e-27
1.0077091589558085 3.0800957992252956e-26 8.238893012934063e-19 8.238892993281497e-19 1.9652563631072597e-27
1.0114953028030835 3.104581079321165e-26 8.33558932396171e-19 8.335589302418477e-19 2.1543233869313788e-27
1.0152956718711033 3.129042047787094e-26 8.432830421922797e-19 8.432830398314687e-19 2.3608109946780326e-27
1.0229392996569957 3.177857555156672e-26 8.628865970488286e-19 8.628865942165054e-19 2.832323355880458e-27
1.0267826658714554 3.202152784216354e-26 8.727503083287238e-19 8.727503052278324e-19 3.100891388254929e-27
1.0306404723013447 3.226413106513758e-26 8.826664085989528e-19 8.826664052051341e-19 3.393818565725956e-27
1.03451277320114 3.250636218743979e-26 8.926344839150166e-19 8.926344802018108e-19 3.7132054578340086e-27
1.0383996230291617 3.27481983107437e-26 9.026541153081717e-19 9.02654111246848e-19 4.061323664269573e-27
1.0403485208654093 3.286896112999137e-26 9.076831322584601e-19 9.076831280115433e-19 4.2469168412799695e-27
1.0423010764483396 3.2989616675943624e-26 9.127248788925347e-19 9.12724874451906e-19 4.440628852916734e-27
1.0462171883269815 3.3230594667557216e-26 9.228463459724558e-19 9.22846341118681e-19 4.853774718379109e-27
1.0471985131304309 3.3290767720860445e-26 9.253845844765896e-19 9.253845795139097e-19 4.962679824029648e-27
1.048180758391296 3.33509114962647e-26 9.279259580671658e-19 9.27925952993241e-19 5.073924987537498e-27
1.0501480137395462 3.3471109818031836e-26 9.330180831501158e-19 9.33018077846488e-19 5.303627920265501e-27
1.0521189612883777 3.3591186848219387e-26 9.381226663295514e-19 9.381226607862734e-19 5.543277746435695e-27
1.0531058218030118 3.365108671703757e-26 9.406770324922741e-19 9.406770268253058e-19 5.666968192307805e-27
1.0540936079674168 3.3710652841035616e-26 9.432260269586766e-19 9.432260211653491e-19 5.793327531523416e-27
1.058054026499678 3.3948584371499314e-26 9.53452246997742e-19 9.534522406714552e-19 6.326286820785e-27
1.0590464539527713 3.400798230527861e-26 9.560163273176237e-19 9.560163208509345e-19 6.466688996502442e-27
1.06003981227728 3.406734557882907e-26 9.585834036111296e-19 9.585833970010569e-19 6.610072663557862e-27
1.0620293250338977 3.418596678913902e-26 9.637265156891822e-19 9.637265087831556e-19 6.906026544164849e-27
1.0660195594769086 3.4422778407334545e-26 9.740483779116365e-19 9.740483703751961e-19 7.536440539789244e-27
1.070024785945596 3.4658997711700276e-26 9.844173745077286e-19 9.844173662860007e-19 8.22172778953265e-27
1.0740450607676866 3.489460336374978e-26 9.948330423929669e-19 9.948330334265522e-19 8.966414731038084e-27
1.07808044048254 3.512957420446353e-26 1.0052949146646063e-18 1.0052949048892276e-18 9.775379073901163e-27
1.0861967418109137 3.559711204432548e-26 1.026343401069264e-18 1.026343389461701e-18 1.1607562830881639e-26
1.0902777775684922 3.5828692416662796e-26 1.0369016175595917e-18 1.0369016049170566e-18 1.2642535177901806e-26
1.0943741465085532 3.6059538749662453e-26 1.0475033606940813e-18 1.0475033469287376e-18 1.376534356752489e-26
1.1026131145906286 3.6518949133012657e-26 1.068835472121197e-18 1.0688354558179942e-18 1.630320279652979e-26
1.1109141095355224 3.6975184904273606e-26 1.0903357957949586e-18 1.090335776510811e-18 1.928414753617057e-26
1.1192775983109025 3.7427667239770717e-26 1.1119877536151939e-18 1.1119877308342587e-18 2.2780935039624935e-26
1.1277040513999907 3.787429771810946e-26 1.1337287564722511e-18 1.1337287295947836e-18 2.6877467635053347e-26
1.1361939428280308 3.8317238761677944e-26 1.1556228164084753e-18 1.1556227847381158e-18 3.16703593306564e-26
1.1447477501889525 3.875634697278489e-26 1.1776658107216544e-18 1.1776657734509323e-18 3.7270722129714417e-26
1.1533659546722406 3.9191720951240407e-26 1.1998608828371448e-18 1.1998608390309134e-18 4.380623149081786e-26
1.1707974979042381 4.005268296107587e-26 1.244751996840253e-18 1.244751936549973e-18 6.029027998427695e-26
1.1884924949847024 4.089691153271419e-26 1.2901980724101323e-18 1.2901979898441293e-18 8.256600277789526e-26
1.2064549276569216 4.173102920684559e-26 1.3364097345965971e-18 1.3364096220770612e-18 1.1251953585972391e-25
1.2246888378427687 4.2545991665770015e-26 1.383100834366691e-18 1.3831006817710634e-18 1.5259562794753652e-25
1.2431983285522175 4.33399322066604e-26 1.4302042961125876e-18 1.4302040901604246e-18 2.0595216278142223e-25
1.2619875648066055 4.41126082300117e-26 1.47770330786268e-18 1.4777030312153525e-18 2.7664732763854106e-25
1.3004222497298317 4.5581566273200044e-26 1.5734142127965309e-18 1.5734137205953895e-18 4.922011412639397e-25
1.3400274889804893 4.694755817937898e-26 1.6699218579675734e-18 1.6699209981787076e-18 8.5978886590739e-25
1.3808389325824078 4.820601861632848e-26 1.7669071192746864e-18 1.766905643993291e-18 1.4752813952772912e-24
1.4228933163050095 4.9363497096599145e-26 1.864436908269137e-18 1.864434420530177e-18 2.4877389599241928e-24
1.466228494730424 5.04479465469736e-26 1.9634261986543335e-18 1.963422073903918e-18 4.1247504153371084e-24
1.5108834753276823 5.1439369138320975e-26 2.062984847123447e-18 2.0629781197703166e-18 6.727353129813164e-24
1.5568984535646726 5.23217631145675e-26 2.162280792652846e-18 2.16226998835026e-18 1.0804302586444997e-23
1.6043148490894465 5.309744483620902e-26 2.2611671043052977e-18 2.2611499863114985e-18 1.7117993799202213e-23
1.6531753430134553 5.37695156009376e-26 2.359524418951958e-18 2.359497694246685e-18 2.672470527299936e-23
1.7035239163302658 5.434632510867985e-26 2.4574678829685123e-18 2.45742676030464e-18 4.112266387251343e-23
1.755405889504358 5.48718409171561e-26 2.556798571073748e-18 2.556736172370942e-18 6.239870280529369e-23
1.8088679632656115 5.533662845761297e-26 2.6569843422559025e-18 2.656890941503876e-18 9.340075202652715e-23
1.8639582606462262 5.573473057796913e-26 2.7576015986364076e-18 2.757463630526383e-18 1.3796811002428322e-22
1.9207263702978936 5.607272178230883e-26 2.8588184049220868e-18 2.8586172062374644e-18 2.0119868462137497e-22
1.979223391128241 5.636423977212283e-26 2.961201097810429e-18 2.9609113247790327e-18 2.897730313958952e-22
2.039501978296691 5.662540470740453e-26 3.0655251461287467e-18 3.065112827335588e-18 4.123187931576293e-22
2.1016163906111602 5.689872847479971e-26 3.1741353454878663e-18 3.173555474986172e-18 5.798705016954509e-22
2.1656225393682647 5.720979548940847e-26 3.2886873754873545e-18 3.2878810649607292e-18 8.063105266249342e-22
2.231578038680979 5.756232386925004e-26 3.40972874260344e-18 3.4086198652283367e-18 1.1088773751037333e-21
2.299542257339062 5.797275723015996e-26 3.538626976953884e-18 3.5371182562006195e-18 1.508720753265297e-21
2.369576372248914 5.847473106323175e-26 3.6779716457593795e-18 3.675940128985604e-18 2.031516773774376e-21
2.4417434235010123 5.910771672839526e-26 3.831013152977019e-18 3.828305140611087e-18 2.7080123659316253e-21
2.5161083711144245 5.993763260897693e-26 4.003117714803467e-18 3.999542998242532e-18 3.5747165609360245e-21
2.5927381535095444 6.10705545302428e-26 4.203005469126218e-18 4.198331005679063e-18 4.674463447155195e-21
2.6717017477616296 6.263208657594875e-26 4.441751810022596e-18 4.435695129843872e-18 6.056680178722705e-21
2.753070231689431 6.480952151847495e-26 4.7361509824628135e-18 4.728373151107711e-18 7.777831355104123e-21
2.836916847834745 6.802341026945348e-26 5.1224112248182596e-18 5.112509160662669e-18 9.902064155590836e-21
2.9233170693905177 7.319483645556738e-26 5.679705273398993e-18 5.667206020594775e-18 1.2499252804216785e-20
2.967498994190263 7.741913930418928e-26 6.0982939202626954e-18 6.084318080649493e-18 1.3975839613203553e-20
3.0123486681368425 8.231923960522563e-26 6.58227498361378e-18 6.56666893232959e-18 1.560605128418873e-20
3.0578761833420214 9.293139720623725e-26 7.54313353736763e-18 7.525725471943249e-18 1.7408065424380498e-20
3.1040917844459814 1.065247595860717e-25 8.777170810406874e-18 8.757789383962588e-18 1.938142644428599e-20
3.127460860933648 1.2072851641530305e-25 1.002238727268653e-17 1.000194433965842e-17 2.044293302811249e-20
3.1510058709225794 1.3959607680522357e-25 1.1675940104980566e-17 1.1654387080981855e-17 2.1553023998709998e-20
3.162844764501044 1.5709120101306163e-25 1.3188614372646236e-17 1.3166485476289786e-17 2.2128896356450764e-20
3.1747281389236908 1.774158322643487e-25 1.4950934789518863e-17 1.4928217330019124e-17 2.271745949974429e-20
3.1986289994194426 2.34024196966857e-25 1.9869826139169906e-17 1.984588970123095e-17 2.393643793895789e-20
3.2227097969389145 3.6722603082267993e-25 3.141406159616981e-17 3.1388829661770856e-17 2.5231934398948456e-20
3.2348180950136065 4.934535871928205e-25 4.237069691135142e-17 4.2344772629079373e-17 2.592428227204079e-20
3.240889293275058 5.878055334923638e-25 5.056701284582319e-17 5.054072333905566e-17 2.6289506767534905e-20
3.2469718861334385 6.969557211474014e-25 6.006937991399807e-17 6.004271247854538e-17 2.6667435452673498e-20
3.2714166318528037 1.2789382016528668e-24 1.1105927913134804e-16 1.110310467571571e-16 2.8232374190936423e-20
3.2744851364798273 1.3153311268293494e-24 1.1432667004613188e-16 1.1429825237650155e-16 2.841766963027425e-20
3.2775565192852394 1.3527674113364314e-24 1.1769086504774358e-16 1.176622610735122e-16 2.860397423137406e-20
3.283707930232385 1.3168323696434406e-24 1.1477953168277932e-16 1.147505927862787e-16 2.8938896500630606e-20
3.2898708863219004 1.2027679168596986e-24 1.0503405251142076e-16 1.0500480719978682e-16 2.924531163393011e-20
3.29141343181113 1.1758679290603504e-24 1.0273310528641378e-16 1.0270378298842788e-16 2.932229798587598e-20
3.292184975758714 1.1626501171787832e-24 1.0160210397373602e-16 1.0157274312507218e-16 2.9360848663850794e-20
3.295272960557952 1.0792271359233872e-24 9.440036737764734e-17 9.437085626983455e-17 2.951110781278224e-20
3.3076538914384823 7.901876243376875e-25 6.937767090176849e-17 6.934755542914519e-17 3.011547262331104e-20
3.310756385682612 7.313509458848099e-25 6.427209937033273e-17 6.424183138502699e-17 3.026798530573778e-20
3.313861789986515 6.770611541223348e-25 5.95568502973111e-17 5.952642922860291e-17 3.0421068708172675e-20
3.3200813396944477 6.009457354061937e-25 5.296066313213007e-17 5.2929913532696956e-17 3.0749599433115815e-20
3.345076488085796 4.653273127476145e-25 4.1317499482136696e-17 4.128528760862717e-17 3.2211873509529794e-20
3.3482140837626964 4.704521281372992e-25 4.181172538761687e-17 4.1779315487422095e-17 3.240990019477442e-20
3.3513546224236106 4.756332461915012e-25 4.231185071237944e-17 4.2279241799142434e-17 3.2608913236992685e-20
3.3576445397418455 5.133399940815271e-25 4.575191235132336e-17 4.5718887625533633e-17 3.302472578972357e-20
3.3702598118196083 6.522864077610673e-25 5.835406887416259e-17 5.832017174413336e-17 3.3897130029226834e-20
3.382922481734668 6.840425114059275e-25 6.142491611661026e-17 6.139016781448051e-17 3.47483021297685e-20
3.389271646505754 7.004916128973978e-25 6.3020051144601e-17 6.29848707673768e-17 3.518037722416694e-20
3.395632727569191 7.182220299170723e-25 6.473644788595098e-17 6.47008221953839e-17 3.562569056706973e-20
3.421196662673239 8.033449506670323e-25 7.29540726081324e-17 7.291659983673215e-17 3.74727714002269e-20
3.4276182099114902 7.863257505684094e-25 7.154254290832645e-17 7.150465442418924e-17 3.788848413720413e-20
3.4340518103208963 7.115164384198794e-25 6.48576508478076e-17 6.481936747062593e-17 3.8283377181671406e-20
3.4469541582030403 6.0498279951782945e-25 5.53538672605626e-17 5.531482245402136e-17 3.904480654122422e-20
3.472904465399547 5.753143532615645e-25 5.303559907592334e-17 5.2994805025102876e-17 4.079405082047674e-20
3.4990501388274233 5.2984039712043e-25 4.9211280559421974e-17 4.9168688263459123e-17 4.259229596282714e-20
3.5253949054701885 3.674674124601304e-25 3.438713842560789e-17 3.434278619897587e-17 4.435222663201912e-20
3.5519380250092896 2.1482008783833098e-25 2.0253948547897593e-17 2.020781681061477e-17 4.613173728282015e-20
3.578680990867387 1.5445362571066064e-25 1.4672040835317006e-17 1.4623956681382534e-17 4.8084153934473154e-20
3.605625307711299 1.3020221822753722e-25 1.2461445134252432e-17 1.2411297940381129e-17 5.014719387130043e-20
3.660119384959845 1.1287033199904387e-25 1.0965905194631382e-17 1.091139387062167e-17 5.451132400970804e-20
3.715437065384467 1.0077054824247131e-25 9.938319712018213e-18 9.879163727456761e-18 5.915598456144934e-20
3.8285932144167436 9.5554229043622e-26 9.710879635980199e-18 9.64158519753289e-18 6.929443844731005e-20
3.94519561050918 9.563213757618692e-26 1.0014789782173144e-17 9.934199778205047e-18 8.05900039680986e-20
4.06534921144712 9.795165129460763e-26 1.0570098930753686e-17 1.0477004561621693e-17 9.309436913199207e-20
4.189162171576248 1.0162412258725243e-25 1.1300389558520247e-17 1.1193491289861001e-17 1.0689826865924856e-19
4.316745939156006 1.0632342049535116e-25 1.2183017327249365e-17 1.2060986286313764e-17 1.2203104093560044e-19
4.448215356677963 1.1194560532101006e-25 1.3217894682426677e-17 1.307951535332393e-17 1.3837932910274432e-19
4.58368876423945 1.1851564740627916e-25 1.4419833551776345e-17 1.42637885001357e-17 1.56045051640649e-19
4.723288106065518 1.2615369181006903e-25 1.5816625601146903e-17 1.5641404170955605e-17 1.75221430191296e-19
4.867139040275056 1.3508419419127307e-25 1.745210119225408e-17 1.7256531919393173e-17 1.955692728609053e-19
4.940699165968905 1.4030925971890697e-25 1.8401116599852915e-17 1.819485018241421e-17 2.0626641743870808e-19
5.015371051989984 1.4572396770854643e-25 1.940007860027787e-17 1.9182778672666736e-17 2.1729992761112957e-19
5.091171501069577 1.5211381869602294e-25 2.0556815074097935e-17 2.032792861879382e-17 2.288864553041047e-19
5.129500256944802 1.553945472550429e-25 2.115827533887714e-17 2.0923467779651848e-17 2.3480755922529043e-19
5.168117569889187 1.588000379117908e-25 2.178474194151293e-17 2.1543882749302558e-17 2.4085919221037946e-19
5.20702561229733 1.6284631613270845e-25 2.2508009275375905e-17 2.2260610820351054e-17 2.473984550248486e-19
5.246226572918644 1.6699098408817137e-25 2.3254633536414378e-17 2.3000587935371024e-17 2.540456010433561e-19
5.265937586045735 1.6910114464131345e-25 2.3636963673761048e-17 2.3379554050706336e-17 2.5740962305471277e-19
5.285722656980489 1.7123703465000644e-25 2.4025448481876405e-17 2.376464787856004e-17 2.608006033163693e-19
5.305582063971359 1.733990479156963e-25 2.4420197835356443e-17 2.4155979301731003e-17 2.642185336254383e-19
5.3255160863122235 1.7569924060343941e-25 2.4837107574073913e-17 2.4569423298602422e-17 2.6768427547148914e-19
5.365609099470188 1.8126609618350862e-25 2.5816956596097453e-17 2.5542096842771275e-17 2.7485975332618177e-19
5.406003951863644 1.8702939842957406e-25 2.6838341139425153e-17 2.6556186933785193e-17 2.821542056399635e-19
5.446702915881641 1.9299820124219033e-25 2.790335228949986e-17 2.7613784507293462e-17 2.8956778220638476e-19
5.487708281020852 1.9940081527999674e-25 2.904606999100401e-17 2.8748944493815466e-17 2.9712549718855184e-19
5.529022354014368 2.08022657823551e-25 3.053011356264565e-17 3.02250908629786e-17 3.0502269966704905e-19
5.570647458961463 2.171164287617754e-25 3.210463928603679e-17 3.179158671210981e-17 3.1305257392697376e-19
5.612585937458331 2.267151538964137e-25 3.377637102985177e-17 3.3455155515055306e-17 3.2121551479645914e-19
5.654840148729818 2.3719765561033103e-25 3.5604111965521475e-17 3.5274568322048223e-17 3.295436434732479e-19
5.67608639626678 2.441989342531742e-25 3.6792745345084745e-17 3.64588487730557e-17 3.3389657202904343e-19
5.686739436050992 2.478016130774699e-25 3.7405622936358064e-17 3.7069535836718867e-17 3.360870996391927e-19
5.6974124697621304 2.5147445402984533e-25 3.803128229981565e-17 3.769299528169614e-17 3.3828701811951542e-19
5.718818669136295 2.590372751813976e-25 3.932221943323652e-17 3.897950435994901e-17 3.427150732875087e-19
5.740305295436557 2.6733396754756866e-25 4.073414149931679e-17 4.038693329267701e-17 3.4720820663977394e-19
5.7835210386641895 2.8862184783221604e-25 4.430889868715451e-17 4.3952375127637604e-17 3.565235595168918e-19
5.827062130521658 3.130092054347769e-25 4.841458258916422e-17 4.804851149553848e-17 3.660710936257392e-19
5.8489554468988025 3.2996068279247843e-25 5.1228299500176985e-17 5.085710034620426e-17 3.711991539727368e-19
5.870931020387893 3.4810944753860257e-25 5.42490604290558e-17 5.387268274825275e-17 3.7637768080305773e-19
5.892989160043636 3.6755119182511007e-25 5.749405109674796e-17 5.711244417500601e-17 3.8160692174195495e-19
5.915130176081913 3.8959968320916935e-25 6.117195140380888e-17 6.078492975702468e-17 3.870216467841965e-19
5.95966208400165 4.509207800033213e-25 7.1333136183822e-17 7.093395466791603e-17 3.991815159059492e-19
6.004529249263818 5.388852908522681e-25 8.589042015725226e-17 8.547764195883156e-17 4.1277819842071616e-19
6.027089341400364 5.9986007395374e-25 9.596812703592275e-17 9.55475829144193e-17 4.205441215034483e-19
6.049734195844842 6.71791686011344e-25 1.0787985437119613e-16 1.0745109888341589e-16 4.2875548778023305e-19
6.095279466722835 8.79167562499006e-25 1.4224424741049537e-16 1.4179562745027253e-16 4.4861996022282075e-19
6.141167624020661 1.1976724509575924e-24 1.9523534521064264e-16 1.9476133658390282e-16 4.740086267397898e-19
6.164241091010745 1.4010067504185443e-24 2.2923940737223935e-16 2.287496571961256e-16 4.897501761137236e-19
6.187401249150058 1.6323669136108636e-24 2.6809918712240833e-16 2.6759321572726304e-16 5.059713951453709e-19
6.1990139391386085 1.745354090971065e-24 2.871941532721962e-16 2.866799155924208e-16 5.142376797755202e-19
6.204828454712694 1.804846979166947e-24 2.972621393227423e-16 2.9674372041834796e-16 5.184189043943635e-19
6.210648424152782 1.848324242407561e-24 3.0470847800775087e-16 3.041864495985555e-16 5.220284091952725e-19
6.233982942956859 1.996085478926123e-24 3.3030426232403657e-16 3.297694470004845e-16 5.348153235522085e-19
6.239830258556775 2.0150224293251096e-24 3.337506294791249e-16 3.332138889547631e-16 5.367405243619002e-19
6.245683058788269 2.016770436053839e-24 3.343534750410973e-16 3.3381480394197593e-16 5.386710991214108e-19
6.257405133728602 2.012955698917533e-24 3.34347379923623e-16 3.338052404291439e-16 5.4213949447899e-19
6.269149208991335 1.9842269413495602e-24 3.301941552171697e-16 3.296503129523822e-16 5.438422647875759e-19
6.280915325867298 1.911829902830412e-24 3.187437089093563e-16 3.1820035432787484e-16 5.433545814814532e-19
6.304513850009849 1.7331690667265093e-24 2.9004271743305675e-16 2.895023272167891e-16 5.403902162676478e-19
6.32820103803542 1.5116863188698964e-24 2.539284626276078e-16 2.5339315298141685e-16 5.353096461909967e-19
6.3519772230701035 1.308634038975283e-24 2.2064626370313964e-16 2.2011536369179186e-16 5.309000113477978e-19
6.375842739491607 1.1377866397625376e-24 1.9256079022578242e-16 1.920336183023693e-16 5.271719234130879e-19
6.399797922933955 1.0011163273846979e-24 1.7006707354495948e-16 1.6954108473384163e-16 5.259888111178651e-19
6.42384311029221 8.87502508439819e-25 1.5133310674737403e-16 1.5080779402616552e-16 5.253127212085543e-19
6.447978639727206 8.0493621330162435e-25 1.377699464112399e-16 1.3724330611808834e-16 5.266402931515518e-19
6.472204850670314 7.362154967056908e-25 1.2648139368271877e-16 1.259530172462226e-16 5.283764364962093e-19
6.496522083828205 6.918142028091935e-25 1.1929983029921498e-16 1.1876807656732835e-16 5.317537318866478e-19
6.520930681187647 6.544969561138984e-25 1.1328871421705064e-16 1.1275331349500195e-16 5.354007220487145e-19
6.57002334288761 6.169834981334812e-25 1.0759941103929166e-16 1.0705437637253488e-16 5.450346667567555e-19
