Dust emission spectrum from A.P. Jones, M. Kohler, N. Ysard, M. Bocchio, and L. Verstraete (2017), A&A, 602A, 46J 
inside the DustPedia framework.

lambda    nu*dP/dnu     j_nu    j_nu(carb.) j_nu(sil)
 (um)   (erg s-1 H-1) (Jy cm2 sr-1 H-1)
0.9927057738263894 5.3583591682879086e-24 1.4119580757163463e-16 1.411958020542459e-16 5.5173887604571095e-24
1.0001793341362166 5.448473353407582e-24 1.4465123341403496e-16 1.4465122677202365e-16 6.6420113783593e-24
1.0077091589558085 5.538816528071638e-24 1.481568099425053e-16 1.4815680195717444e-16 7.985330842413323e-24
1.0114953028030835 5.584067812047484e-24 1.499284278591265e-16 1.4992841910778995e-16 8.75133652884748e-24
1.0152956718711033 5.6293689917197144e-24 1.5171261160640341e-16 1.517126020187519e-16 9.587651510765395e-24
1.0229392996569957 5.7200674645207654e-24 1.5531752017458523e-16 1.553175086781693e-16 1.1496415986441917e-23
1.0267826658714554 5.7653601707215856e-24 1.5713553367675408e-16 1.5713552109365634e-16 1.2583097739647413e-23
1.0306404723013447 5.810691093510531e-24 1.589660613711306e-16 1.5896604760319015e-16 1.376794046564624e-23
1.03451277320114 5.856057975205029e-24 1.608091135615709e-16 1.6080909850220467e-16 1.5059366269936907e-23
1.0383996230291617 5.901458594369681e-24 1.6266470100069447e-16 1.6266468453421563e-16 1.6466478785501822e-23
1.0403485208654093 5.924170871474423e-24 1.6359719893147858e-16 1.6359718171501723e-16 1.7216461417490345e-23
1.0423010764483396 5.946890766865486e-24 1.6453283493083136e-16 1.645328169317166e-16 1.799911473841866e-23
1.0462171883269815 5.9923523468924165e-24 1.6641352712559353e-16 1.6641350745769444e-16 1.966789912019115e-23
1.0471985131304309 6.003722089099264e-24 1.668856638368462e-16 1.6688564372915288e-16 2.0107693313493985e-23
1.048180758391296 6.015093504905853e-24 1.673585864071057e-16 1.6735856585020848e-16 2.0556897262167613e-23
1.0501480137395462 6.0378412280249626e-24 1.6830678993206592e-16 1.6830676844776173e-16 2.1484304196299687e-23
1.0521189612883777 6.060595259267538e-24 1.6925813934048847e-16 1.6925811688879174e-16 2.2451696691813698e-23
1.0531058218030118 6.071958880191598e-24 1.6973455594056284e-16 1.6973453298963287e-16 2.29509300185105e-23
1.0540936079674168 6.08327260915993e-24 1.7021032138125127e-16 1.7021029792036024e-16 2.346089106727612e-23
1.058054026499678 6.12853960808893e-24 1.7212116405809908e-16 1.721211384467851e-16 2.56113139460442e-23
1.0590464539527713 6.1398592250639906e-24 1.7260082100436208e-16 1.726007948266713e-16 2.617769078685548e-23
1.06003981227728 6.151179928125723e-24 1.7308125689110081e-16 1.7308123013505905e-16 2.675604175194215e-23
1.0620293250338977 6.173824472269413e-24 1.7404446636937285e-16 1.7404443841973984e-16 2.7949633024352487e-23
1.0660195594769086 6.219125280754259e-24 1.7598024250294695e-16 1.7598021201154513e-16 3.049140181258314e-23
1.070024785945596 6.264440157624284e-24 1.7792850745500546e-16 1.7792847420162086e-16 3.3253384553016336e-23
1.0740450607676866 6.309767272968314e-24 1.7988927707599814e-16 1.7988924082235423e-16 3.625364402791495e-23
1.07808044048254 6.355104843854258e-24 1.8186256811718894e-16 1.8186252860555375e-16 3.951163522709266e-23
1.0861967418109137 6.4457323813520905e-24 1.8584470803197564e-16 1.8584466114577035e-16 4.6886205267318995e-23
1.0902777775684922 6.4908551150671465e-24 1.8784883606380195e-16 1.8784878501420022e-16 5.1049601777672294e-23
1.0943741465085532 6.535978791538554e-24 1.8986542776080195e-16 1.8986537219622817e-16 5.556457379003338e-23
1.1026131145906286 6.62622295117104e-24 1.9393608810043398e-16 1.9393602233688233e-16 6.576355167438367e-23
1.1109141095355224 6.716453353483728e-24 1.9805687330704822e-16 1.9805679557342686e-16 7.773362127235821e-23
1.1192775983109025 6.806585483265904e-24 2.0222579336400573e-16 2.0222570160027652e-16 9.176372920923207e-23
1.1277040513999907 6.896269998894895e-24 2.0643286030900085e-16 2.064327521222683e-16 1.0818673258056873e-22
1.1361939428280308 6.985900646644152e-24 2.1069018648856253e-16 2.1069005910303171e-16 1.2738553086037077e-22
1.1447477501889525 7.075469722148121e-24 2.1499804386675765e-16 2.1499789406674733e-16 1.4980001038437374e-22
1.1533659546722406 7.165006660686081e-24 2.1935783907322215e-16 2.1935766313813013e-16 1.7593509205558322e-22
1.1707974979042381 7.34425857209924e-24 2.282438989621711e-16 2.2824365719557416e-16 2.417665969285373e-22
1.1884924949847024 7.523303810844894e-24 2.373419339292512e-16 2.3734160335670845e-16 3.30572542731404e-22
1.2064549276569216 7.70339588583152e-24 2.4669636591632003e-16 2.4669591614179243e-16 4.497745275156135e-22
1.2246888378427687 7.883178990559595e-24 2.562692985265881e-16 2.5626868955618262e-16 6.089704054482364e-22
1.2431983285522175 8.062444945157397e-24 2.6605817800433185e-16 2.66057357475382e-16 8.205289498879324e-22
1.2619875648066055 8.241381883960005e-24 2.760733894442867e-16 2.760722891357655e-16 1.1003085212645825e-21
1.3004222497298317 8.596774337367445e-24 2.9674905959892996e-16 2.967471087932525e-16 1.950805677476029e-21
1.3400274889804893 8.949964983659751e-24 3.1834972326255115e-16 3.183463277984399e-16 3.395464111286715e-21
1.3808389325824078 9.301844342109568e-24 3.4094280055086893e-16 3.4093699594665954e-16 5.80460420946086e-21
1.4228933163050095 9.655315785166369e-24 3.646769003344779e-16 3.646671493449285e-16 9.750989549420705e-21
1.466228494730424 1.001717896661788e-23 3.898670405019009e-16 3.8985093612038576e-16 1.6104381515100752e-20
1.5108834753276823 1.0386114317917097e-23 4.1653692137512524e-16 4.165107606561385e-16 2.6160718986582626e-20
1.5568984535646726 1.0761463706744306e-23 4.447347506805488e-16 4.446929078122203e-16 4.18428683286072e-20
1.6043148490894465 1.1145850817255465e-23 4.746486633248651e-16 4.745826448189202e-16 6.60185059450329e-20
1.6531753430134553 1.1542203401767212e-23 5.064972312026036e-16 5.063946015729992e-16 1.0262962960435306e-19
1.7035239163302658 1.195425898435152e-23 5.405555474079279e-16 5.403983139930251e-16 1.57233414902662e-19
1.755405889504358 1.2392329565597909e-23 5.774307913859188e-16 5.77193272254824e-16 2.375191310947346e-19
1.8088679632656115 1.2857225002293927e-23 6.173387585787455e-16 6.169848532614197e-16 3.539053173258092e-19
1.8639582606462262 1.334998594912139e-23 6.60520688147411e-16 6.600003543213367e-16 5.203338260742247e-19
1.9207263702978936 1.3874018888771252e-23 7.07354651044777e-16 7.065994785073756e-16 7.551725374012701e-19
1.979223391128241 1.443401073802035e-23 7.583178379773542e-16 7.572355420035663e-16 1.0822959737881124e-18
2.039501978296691 1.50347793281301e-23 8.139366832790629e-16 8.124044131996929e-16 1.5322700793702242e-18
2.1016163906111602 1.5686444546992288e-23 8.750792753426094e-16 8.729354366503008e-16 2.1438386923088576e-18
2.1656225393682647 1.63957307354789e-23 9.42503503471569e-16 9.395382314863837e-16 2.9652719851850367e-18
2.231578038680979 1.7164406408420182e-23 1.016740915697841e-15 1.0126850231933884e-15 4.055892504452504e-18
2.299542257339062 1.7997078277500387e-23 1.0985323062395574e-15 1.0930446203003585e-15 5.487685939198957e-18
2.369576372248914 1.8900871999878683e-23 1.188836101195728e-15 1.1814890697987825e-15 7.347031396945913e-18
2.4417434235010123 1.9883812126394727e-23 1.2887512833150555e-15 1.279015216925257e-15 9.736066389798435e-18
2.5161083711144245 2.0958363653640065e-23 1.3997682785124558e-15 1.386993815773031e-15 1.2774462739424643e-17
2.5927381535095444 2.2142916209543746e-23 1.5239225948902797e-15 1.5073219966331052e-15 1.6600598257174604e-17
2.6717017477616296 2.345569169844739e-23 1.6634342994556778e-15 1.6420627217948181e-15 2.1371577660859742e-17
2.753070231689431 2.4921841751431164e-23 1.821238647197484e-15 1.7939749228321567e-15 2.7263724365326907e-17
2.836916847834745 2.6598866505307685e-23 2.002991790833735e-15 1.9685181143460803e-15 3.447367648765497e-17
2.9233170693905177 2.8608172516116805e-23 2.219910531540476e-15 2.176701051178834e-15 4.3209480361641226e-17
2.967498994190263 2.9849308597540966e-23 2.3512255338981674e-15 2.3030952146296416e-15 4.8130319268526343e-17
3.0123486681368425 3.119513056211894e-23 2.494373472037835e-15 2.4408328073422725e-15 5.354066469556285e-17
3.0578761833420214 3.33282020788928e-23 2.7052114398274506e-15 2.6457135688867267e-15 5.949787094072444e-17
3.1040917844459814 3.584147654564116e-23 2.9531797392520656e-15 2.887191274689377e-15 6.59884645626886e-17
3.127460860933648 3.8086143389680785e-23 3.161755731855133e-15 3.0922889418739965e-15 6.94667899811372e-17
3.1510058709225794 4.092663127987467e-23 3.423139865092253e-15 3.350045145391185e-15 7.30947197010673e-17
3.162844764501044 4.3430826166885785e-23 3.646241256713444e-15 3.571268204298372e-15 7.497305241507286e-17
3.1747281389236908 4.6276255761959267e-23 3.8997268359300754e-15 3.822836649346512e-15 7.689018658356458e-17
3.1986289994194426 5.398037761627733e-23 4.583204352642519e-15 4.502351527996138e-15 8.08528246463817e-17
3.2227097969389145 7.162386466115598e-23 6.12700709473323e-15 6.0419529552604824e-15 8.505413947274683e-17
3.2348180950136065 8.813618789135788e-23 7.567868186572543e-15 7.480571387004581e-15 8.729679956795896e-17
3.240889293275058 1.0044591919916347e-22 8.641038229560324e-15 8.552558474739868e-15 8.847975482045509e-17
3.2469718861334385 1.1469535349658032e-22 9.885389493917753e-15 9.795685713987803e-15 8.970377992995098e-17
3.2714166318528037 1.8982657537028478e-22 1.648398850964847e-14 1.6389224485931086e-14 9.476402371738582e-17
3.2744851364798273 1.945448074376214e-22 1.6909551941284533e-14 1.681419101012672e-14 9.536093115781536e-17
3.2775565192852394 1.9939184422385916e-22 1.7347105225566973e-14 1.7251144350818285e-14 9.596087474868378e-17
3.283707930232385 1.9485575605138255e-22 1.6984282085446822e-14 1.6887247156573534e-14 9.703492887329118e-17
3.2898708863219004 1.802666020908465e-22 1.5742132363740134e-14 1.5644118915113846e-14 9.801344862628753e-17
3.29141343181113 1.7682183116870085e-22 1.5448551108037144e-14 1.535029192016877e-14 9.825918786837649e-17
3.292184975758714 1.7512855370886618e-22 1.530419965541714e-14 1.520581743130232e-14 9.838222411482096e-17
3.295272960557952 1.6450413895467398e-22 1.438923340189916e-14 1.4290372388162606e-14 9.886101373655736e-17
3.3076538914384823 1.2752373769637522e-22 1.119645465654834e-14 1.1095670050203313e-14 1.007846063450229e-16
3.310756385682612 1.199497505780863e-22 1.0541344524104364e-14 1.0440074948806487e-14 1.0126957529787619e-16
3.313861789986515 1.129431363580546e-22 9.93490384617468e-15 9.833147670018245e-15 1.0175617615643147e-16
3.3200813396944477 1.0316652544757888e-22 9.091948372091297e-15 8.989146063998765e-15 1.0280230809253251e-16
3.345076488085796 8.614140810073656e-23 7.648696921693764e-15 7.541233938543307e-15 1.074629831504575e-16
3.3482140837626964 8.686718554547434e-23 7.720375124251818e-15 7.612280834202762e-15 1.0809429004905278e-16
3.3513546224236106 8.759983772216079e-23 7.79279263131325e-15 7.684064130660141e-15 1.0872850065310881e-16
3.3576445397418455 9.260843214480064e-23 8.253814079036057e-15 8.143759786798339e-15 1.1005429223771839e-16
3.3702598118196083 1.1073496923867164e-22 9.906439786031374e-15 9.793604480416856e-15 1.1283530561451762e-16
3.382922481734668 1.1512833906246366e-22 1.0338171168662855e-14 1.0222630383438575e-14 1.1554078522428078e-16
3.389271646505754 1.1739554296707863e-22 1.056154418656421e-14 1.0444631624836184e-14 1.169125617280266e-16
3.395632727569191 1.1986784203588738e-22 1.080420536537092e-14 1.0685879091233047e-14 1.183262741378748e-16
3.421196662673239 1.3176690486103002e-22 1.1966132775962132e-14 1.1841951758589878e-14 1.241810173722532e-16
3.4276182099114902 1.2969259985870368e-22 1.1799865874386746e-14 1.1674375667686285e-14 1.254902067004632e-16
3.4340518103208963 1.200837497978067e-22 1.0946127870464715e-14 1.0819398133402906e-14 1.2672973706181142e-16
3.4469541582030403 1.0637075393388466e-22 9.732561980861227e-15 9.603450549695301e-15 1.291114311659281e-16
3.472904465399547 1.0284865833774721e-22 9.48114744256598e-15 9.346553407046342e-15 1.3459403551963577e-16
3.4990501388274233 9.732591154074163e-23 9.039576379156843e-15 8.899366092246027e-15 1.402102869108141e-16
3.5253949054701885 7.682197488826701e-23 7.188903818506709e-15 7.043228051136094e-15 1.456757673706121e-16
3.5519380250092896 5.738405642102535e-23 5.410358676958494e-15 5.259182078382328e-15 1.5117659857616638e-16
3.578680990867387 4.9977492884654107e-23 4.7475209019958845e-15 4.59031410156876e-15 1.5720680042712435e-16
3.605625307711299 4.7303002496719814e-23 4.527294375800508e-15 4.363732114609467e-15 1.6356226119104108e-16
3.660119384959845 4.602923525680336e-23 4.47196549410137e-15 4.295030856526167e-15 1.769346375752038e-16
3.715437065384467 4.540947753478449e-23 4.4784305887718875e-15 4.28736979184286e-15 1.910607969290274e-16
3.8285932144167436 4.670319249899111e-23 4.7463004569548965e-15 4.524777946606105e-15 2.2152251034879094e-16
3.94519561050918 4.871938811531761e-23 5.101992307787804e-15 4.847100509127898e-15 2.54891798659905e-16
4.06534921144712 5.105260670037579e-23 5.509157797378942e-15 5.217991730833556e-15 2.9116606654538317e-16
4.189162171576248 5.357902861374142e-23 5.9578757492596506e-15 5.627428270799661e-15 3.304474784599894e-16
4.316745939156006 5.624287047106135e-23 6.444561906406516e-15 6.0719320853075876e-15 3.7262982109892814e-16
4.448215356677963 5.901347597043735e-23 6.96797259690873e-15 6.550798153544949e-15 4.171744433637811e-16
4.58368876423945 6.188099653002559e-23 7.529078982474869e-15 7.064909508309301e-15 4.641694741655676e-16
4.723288106065518 6.484851553538937e-23 8.130437376003504e-15 7.616497801814204e-15 5.139395741892997e-16
4.867139040275056 6.791917235550877e-23 8.774766551622673e-15 8.209523131082577e-15 5.652434205400959e-16
4.940699165968905 6.952678503076299e-23 9.118218432105233e-15 8.52658651874475e-15 5.916319133604825e-16
5.015371051989984 7.113277856605247e-23 9.46983201828264e-15 8.851394715534809e-15 6.184373027478313e-16
5.091171501069577 7.28487404778325e-23 9.84485235609241e-15 9.198628460983177e-15 6.46223895109235e-16
5.129500256944802 7.370498561684332e-23 1.0035554059497686e-14 9.375303066352833e-15 6.602509931448493e-16
5.168117569889187 7.4570153420256e-23 1.0229793205097765e-14 9.555297330066735e-15 6.744958750310308e-16
5.20702561229733 7.552344937417199e-23 1.0438568948879133e-14 9.748561271289453e-15 6.900076775896791e-16
5.246226572918644 7.647873224358037e-23 1.0650185106490409e-14 9.944533999791942e-15 7.056511066984654e-16
5.265937586045735 7.695711086931728e-23 1.0757067540341432e-14 1.0043547026422686e-14 7.135205139187476e-16
5.285722656980489 7.743597836430967e-23 1.0864671375780264e-14 1.0143250565436891e-14 7.214208103433768e-16
5.305582063971359 7.79153338377058e-23 1.0973000657129804e-14 1.0243649350725989e-14 7.293513064038162e-16
5.3255160863122235 7.841135636290992e-23 1.1084346672904827e-14 1.034697532510054e-14 7.373713478042903e-16
5.365609099470188 7.953105012344125e-23 1.1327268100926511e-14 1.057330390933067e-14 7.539641915958395e-16
5.406003951863644 8.066108902317872e-23 1.1574703453354535e-14 1.0804009013051817e-14 7.706944403027178e-16
5.446702915881641 8.180200921566747e-23 1.1826795620076e-14 1.1039238967080957e-14 7.875566529950452e-16
5.487708281020852 8.298546458046693e-23 1.2088223456135648e-14 1.1283609072171102e-14 8.046143839645451e-16
5.529022354014368 8.445924373592005e-23 1.239552618763282e-14 1.1573125089120755e-14 8.224010985120628e-16
5.570647458961463 8.596965300883017e-23 1.2712187258858218e-14 1.1871853662896415e-14 8.403335959618077e-16
5.612585937458331 8.751952409519412e-23 1.3038792808468237e-14 1.2180386426400823e-14 8.584063820674106e-16
5.654840148729818 8.91593520797881e-23 1.3383098353371184e-14 1.2506398706946427e-14 8.766996464247535e-16
5.67608639626678 9.020730129097425e-23 1.359127252056387e-14 1.2705003714155212e-14 8.86268806408656e-16
5.686739436050992 9.0740508665639e-23 1.369726859340136e-14 1.280619998119766e-14 8.910686122036999e-16
5.6974124697621304 9.128007248056142e-23 1.380457596875372e-14 1.2908697513503194e-14 8.958784552505313e-16
5.718818669136295 9.23788970007221e-23 1.4023245327603785e-14 1.3117717417432533e-14 9.055279101712512e-16
5.740305295436557 9.356457447231047e-23 1.425659691075467e-14 1.3341310271757389e-14 9.152866389972877e-16
5.7835210386641895 9.652275376249375e-23 1.4818063669087623e-14 1.3882596235256562e-14 9.354674338310634e-16
5.827062130521658 9.981389695861541e-23 1.5438677438054363e-14 1.4482681523731248e-14 9.559959143231133e-16
5.8489554468988025 1.0206474505693951e-22 1.5846140467209915e-14 1.487906566356548e-14 9.670748036444292e-16
5.870931020387893 1.044372531628222e-22 1.6275406766276488e-14 1.5297193019868587e-14 9.782137464079007e-16
5.892989160043636 1.0694100752876684e-22 1.6728205180524147e-14 1.573879302788579e-14 9.89412152638366e-16
5.915130176081913 1.097502801905696e-22 1.7232146471657917e-14 1.6231127737046432e-14 1.0010187346114853e-15
5.95966208400165 1.1748708354879983e-22 1.858579711177844e-14 1.7558361282578226e-14 1.027435829200203e-15
6.004529249263818 1.2839993797009917e-22 2.0465068925847325e-14 1.940792028100365e-14 1.0571486448436725e-15
6.027089341400364 1.3590902303128522e-22 2.174329473476573e-14 2.0668992971028105e-14 1.074301763737617e-15
6.049734195844842 1.44675041994007e-22 2.3232681776887315e-14 2.2140212629060576e-14 1.0924691478267394e-15
6.095279466722835 1.697985481049953e-22 2.7472427005764504e-14 2.6335352577694638e-14 1.1370744280698624e-15
6.141167624020661 2.0796228257998577e-22 3.390041074906078e-14 3.27055059552619e-14 1.1949047937988799e-15
6.164241091010745 2.322734438857963e-22 3.800568884395594e-14 3.677451765354642e-14 1.2311711904095251e-15
6.187401249150058 2.5962501831039674e-22 4.2640692962642845e-14 4.1372267563341804e-14 1.2684253993010217e-15
6.1990139391386085 2.729425700779805e-22 4.491209589560713e-14 4.3624711543475773e-14 1.2873843521313636e-15
6.204828454712694 2.79928338588645e-22 4.6104793229800176e-14 4.480783141155538e-14 1.2969618182448e-15
6.210648424152782 2.850155762760235e-22 4.6986703124364045e-14 4.568157433724544e-14 1.3051287871186122e-15
6.233982942956859 3.02160705985786e-22 5.0000348255446145e-14 4.8666715553561135e-14 1.3336327018850102e-15
6.239830258556775 3.042799311410936e-22 5.039825715002986e-14 4.90606465284526e-14 1.3376106215772583e-15
6.245683058788269 3.043665841466197e-22 5.045989532399817e-14 4.911829988978815e-14 1.3415954342100325e-15
6.257405133728602 3.0367031147384457e-22 5.0438950572269877e-14 4.90903670330367e-14 1.3485835392331715e-15
6.269149208991335 3.00022902051866e-22 4.992665235229621e-14 4.8575436573087765e-14 1.3512157792084547e-15
6.280915325867298 2.912184614468581e-22 4.855246398595633e-14 4.7204003965288096e-14 1.3484600206682348e-15
6.304513850009849 2.696507586045774e-22 4.512556811971896e-14 4.3787496998996315e-14 1.3380711207226465e-15
6.32820103803542 2.4321030009039895e-22 4.0853725290920866e-14 3.953123263828355e-14 1.3224926526373255e-15
6.3519772230701035 2.1906635006322963e-22 3.693635516495121e-14 3.562779180810952e-14 1.3085633568416927e-15
6.375842739491607 1.9869406442417978e-22 3.362729418819489e-14 3.233097097167667e-14 1.2963232165182257e-15
6.399797922933955 1.8256580907321982e-22 3.1013811311579346e-14 2.97235650576108e-14 1.2902462539685408e-15
6.42384311029221 1.6911033997644006e-22 2.883596709684647e-14 2.755057108686805e-14 1.2853960099784168e-15
6.447978639727206 1.5940092205648717e-22 2.72824804335091e-14 2.5997122824615105e-14 1.2853576088939857e-15
6.472204850670314 1.5129849523092324e-22 2.5992993389210502e-14 2.470671737709547e-14 1.2862760121150359e-15
6.496522083828205 1.4610018496312498e-22 2.5194231633304518e-14 2.3903133179296092e-14 1.2910984540084317e-15
6.520930681187647 1.4172453043721093e-22 2.4531496558179236e-14 2.3234979493152708e-14 1.2965170650265303e-15
6.57002334288761 1.3732575092475987e-22 2.394905206498064e-14 2.2636274870398998e-14 1.3127771945816352e-15
