Dust emission spectrum from A.P. Jones, M. Kohler, N. Ysard, M. Bocchio, and L. Verstraete (2017), A&A, 602A, 46J 
inside the DustPedia framework.

lambda    nu*dP/dnu     j_nu    j_nu(carb.) j_nu(sil)
 (um)   (erg s-1 H-1) (Jy cm2 sr-1 H-1)
0.9927057738263894 1.188455611890856e-25 3.1316480402635515e-18 3.131648040244115e-18 1.943752626786622e-29
1.0001793341362166 1.2079932101244178e-25 3.2070948404472264e-18 3.207094840423808e-18 2.3417275627021258e-29
1.0077091589558085 1.227500183966731e-25 3.283418227316973e-18 3.2834182272887975e-18 2.817578229240735e-29
1.0114953028030835 1.2372397802908065e-25 3.3219047724235326e-18 3.321904772392641e-18 3.0891337225309606e-29
1.0152956718711033 1.2469688406824055e-25 3.3606057746437415e-18 3.360605774609884e-18 3.385772296965549e-29
1.0229392996569957 1.2663819562299475e-25 3.4386186221661057e-18 3.4386186221254724e-18 4.0633627737246315e-29
1.0267826658714554 1.2760423614789996e-25 3.477867670495465e-18 3.4778676704509695e-18 4.4494325717632966e-29
1.0306404723013447 1.2856879542499494e-25 3.517322586080619e-18 3.517322586031913e-18 4.87061190762338e-29
1.03451277320114 1.29531780273306e-25 3.556981650796111e-18 3.556981650742811e-18 5.329938508614273e-29
1.0383996230291617 1.3049309804353251e-25 3.596843125554909e-18 3.5968431254966025e-18 5.830698454767712e-29
1.0403485208654093 1.3097310297120749e-25 3.616849217605519e-18 3.6168492175445415e-18 6.097715396683331e-29
1.0423010764483396 1.3145265663577442e-25 3.636905250720295e-18 3.636905250656531e-18 6.376445207323705e-29
1.0462171883269815 1.3241036451686508e-25 3.6771662465182236e-18 3.677166246448513e-18 6.971019989131025e-29
1.0471985131304309 1.3264949164231326e-25 3.687262358552788e-18 3.687262358481511e-18 7.127772357328869e-29
1.048180758391296 1.328884959957562e-25 3.6973707593202546e-18 3.6973707592473766e-18 7.287902296741084e-29
1.0501480137395462 1.333661307373066e-25 3.717624313449982e-18 3.7176243133737936e-18 7.618573604734858e-29
1.0521189612883777 1.3384325746674049e-25 3.737926680955811e-18 3.737926680876175e-18 7.963604966819338e-29
1.0531058218030118 1.340812583862697e-25 3.7480857991955344e-18 3.7480857991141184e-18 8.141701685656749e-29
1.0540936079674168 1.3431792102385592e-25 3.758223241599756e-18 3.75822324151652e-18 8.323651637329598e-29
1.058054026499678 1.3526318190078236e-25 3.798891385516394e-18 3.798891385425481e-18 9.091197723232269e-29
1.0590464539527713 1.354991427860057e-25 3.80908786878711e-18 3.809087868694176e-18 9.293429337610208e-29
1.06003981227728 1.3573495918038964e-25 3.8192960722191895e-18 3.81929607212419e-18 9.499967932455002e-29
1.0620293250338977 1.3620615300301108e-25 3.8397475215099924e-18 3.8397475214107284e-18 9.926317012961203e-29
1.0660195594769086 1.3714674647607159e-25 3.8807897596206874e-18 3.880789759512341e-18 1.0834654823680773e-28
1.070024785945596 1.380848751448115e-25 3.922016192735839e-18 3.922016192617616e-18 1.1822300866114078e-28
1.0740450607676866 1.3902045252768682e-25 3.963424897004009e-18 3.963424896875053e-18 1.2895821918508993e-28
1.07808044048254 1.399533928506525e-25 4.0050139322480695e-18 4.005013932107447e-18 1.4062296718654577e-28
1.0861967418109137 1.4180936465558707e-25 4.088677346714368e-18 4.0886773465473145e-18 1.6705210559707511e-28
1.0902777775684922 1.4272845776977253e-25 4.130638288782067e-18 4.13063828860008e-18 1.8198720609134381e-28
1.0943741465085532 1.4364451253782917e-25 4.17276856127417e-18 4.172768561075975e-18 1.9819403567016118e-28
1.1026131145906286 1.4546718160060277e-25 4.257528965521842e-18 4.257528965287001e-18 2.3484063058082994e-28
1.1109141095355224 1.4727672899894857e-25 4.342942163261151e-18 4.3429421629832434e-18 2.779083146424323e-28
1.1192775983109025 1.4907083456933557e-25 4.428941333702877e-18 4.428941333374421e-18 3.2845606816068253e-28
1.1277040513999907 1.5084111802520763e-25 4.515276149446159e-18 4.515276149058454e-18 3.8770596354024955e-28
1.1361939428280308 1.5259619154389603e-25 4.602201159169385e-18 4.602201158712319e-18 4.570661977470145e-28
1.1447477501889525 1.5433547091797458e-25 4.689699150679902e-18 4.689699150141746e-18 5.381574672543523e-28
1.1533659546722406 1.5605934078544451e-25 4.777781987240852e-18 4.777781986608009e-18 6.328434260531978e-28
1.1707974979042381 1.594664834638125e-25 4.955878334382169e-18 4.955878333510292e-18 8.718766812674776e-28
1.1884924949847024 1.628046546345444e-25 5.136090812648857e-18 5.1360908114535806e-18 1.195277376956925e-27
1.2064549276569216 1.6610019077314318e-25 5.3192532292294156e-18 5.319253227598743e-18 1.6306726703465386e-27
1.2246888378427687 1.6931686449317807e-25 5.5042152593960046e-18 5.5042152571820765e-18 2.2139279977616166e-27
1.2431983285522175 1.7244714786330067e-25 5.690702296219858e-18 5.690702293228413e-18 2.991445279691988e-27
1.2619875648066055 1.7548990166917369e-25 5.878636938466189e-18 5.8786369344432376e-18 4.022951216674205e-27
1.3004222497298317 1.8126205168096874e-25 6.256921639026273e-18 6.256921631851669e-18 7.174603044869072e-27
1.3400274889804893 1.8661096654044845e-25 6.6377410039448505e-18 6.637740991381017e-18 1.2563833752915406e-26
1.3808389325824078 1.915170761510662e-25 7.0197227447315e-18 7.019722723118388e-18 2.1613113466419792e-26
1.4228933163050095 1.960049649444035e-25 7.403018674532296e-18 7.403018637990002e-18 3.6542294129751056e-26
1.466228494730424 2.0018426369004444e-25 7.791140270127403e-18 7.791140209373592e-18 6.075381388885704e-26
1.5108834753276823 2.03973127101883e-25 8.180377743359403e-18 8.180377643992548e-18 9.936685517230982e-26
1.5568984535646726 2.0730549182998843e-25 8.567231998927658e-18 8.567231838879747e-18 1.6004791000944595e-25
1.6043148490894465 2.1018799387076667e-25 8.950904867956987e-18 8.950904613630869e-18 2.543261194343241e-25
1.6531753430134553 2.1262998537883887e-25 9.330670680135709e-18 9.330670281870639e-18 3.982650715591798e-25
1.7035239163302658 2.1466146426824163e-25 9.706703316098626e-18 9.706702701346337e-18 6.147522888504879e-25
1.755405889504358 2.164536317451399e-25 1.0085835049442696e-17 1.0085834113619309e-17 9.358233892757337e-25
1.8088679632656115 2.179646316995997e-25 1.0465556535216356e-17 1.0465555129785192e-17 1.4054311612771162e-24
1.8639582606462262 2.1916627308602725e-25 1.0843746058550237e-17 1.0843743975393943e-17 2.0831562920896924e-24
1.9207263702978936 2.2007959593495064e-25 1.1220564641917522e-17 1.122056159333926e-17 3.0485782575450087e-24
1.979223391128241 2.2075312357925295e-25 1.1597679566526778e-17 1.1597675159898435e-17 4.406628344588634e-24
2.039501978296691 2.2124482691375047e-25 1.1977514047971413e-17 1.1977507754250688e-17 6.293720728070833e-24
2.1016163906111602 2.217164202102704e-25 1.2368605501898909e-17 1.236859661636739e-17 8.885531519315232e-24
2.1656225393682647 2.222617510711504e-25 1.2776647924510222e-17 1.2776635519767248e-17 1.2404742980339504e-23
2.231578038680979 2.2288776441133456e-25 1.3202851545990809e-17 1.3202834415889869e-17 1.7130100940318542e-23
2.299542257339062 2.236507375209099e-25 1.3651524802677398e-17 1.3651501396133846e-17 2.3406543547774602e-23
2.369576372248914 2.246748023016139e-25 1.413170334188212e-17 1.413167168520194e-17 3.1656680176379036e-23
2.4417434235010123 2.2610650462982836e-25 1.46548884165306e-17 1.465484602488065e-17 4.2391649948912354e-23
2.5161083711144245 2.2819661663866143e-25 1.524080746538571e-17 1.5240751240556946e-17 5.622482875579914e-23
2.5927381535095444 2.313554317340242e-25 1.592237294011509e-17 1.5922299055906177e-17 7.38842089053402e-23
2.6717017477616296 2.360729259039734e-25 1.6741855544917553e-17 1.6741759324196553e-17 9.62207209989944e-23
2.753070231689431 2.430866431280865e-25 1.7764288590627543e-17 1.7764164370440726e-17 1.2422018682008488e-22
2.836916847834745 2.5406732913513866e-25 1.9132197775239327e-17 1.913203875603134e-17 1.5901920798615977e-22
2.9233170693905177 2.7269446341554893e-25 2.116029295083144e-17 2.1160091067950157e-17 2.0188288128028893e-22
2.967498994190263 2.8850770951234487e-25 2.2725708741802608e-17 2.2725482310857438e-17 2.264309451750776e-22
3.0123486681368425 3.0697565779521326e-25 2.454588019245441e-17 2.4545626563378848e-17 2.5362907556286916e-22
3.0578761833420214 3.4828009451493655e-25 2.826949061685755e-17 2.8269206820842963e-17 2.8379601456769217e-22
3.1040917844459814 4.0151029112059935e-25 3.308267881566264e-17 3.3082361843964776e-17 3.1697169786146616e-22
3.127460860933648 4.578068777155075e-25 3.800525311501852e-17 3.8004918241514075e-17 3.3487350445071664e-22
3.1510058709225794 5.328173286728714e-25 4.456531557946619e-17 4.4564961943295575e-17 3.5363617061375467e-22
3.162844764501044 6.026285683356623e-25 5.059376811982044e-17 5.0593404734154365e-17 3.63385666034634e-22
3.1747281389236908 6.838196728730711e-25 5.762587930530396e-17 5.762550594396508e-17 3.733613388827887e-22
3.1986289994194426 9.10299073834232e-25 7.728894945976531e-17 7.728855540269389e-17 3.940570714299897e-22
3.2227097969389145 1.444136985403897e-24 1.2353756107962478e-16 1.2353714498233615e-16 4.1609728855412264e-22
3.2348180950136065 1.9503810326580722e-24 1.674706714901477e-16 1.674702436014143e-16 4.2788873336264255e-22
3.240889293275058 2.32885714184107e-24 2.0034406329571298e-16 2.0034362918592866e-16 4.341097843644564e-22
3.2469718861334385 2.7666898069221443e-24 2.384560970998092e-16 2.384556565518877e-16 4.40547921585881e-22
3.2714166318528037 5.102176280063398e-24 4.430581703889897e-16 4.4305770314436507e-16 4.672446246644746e-22
3.2744851364798273 5.24815816892766e-24 4.561622811856017e-16 4.561618107704095e-16 4.704151921863505e-22
3.2775565192852394 5.39833287235194e-24 4.696553599965185e-16 4.696548863925196e-16 4.736039988587587e-22
3.283707930232385 5.253850558491248e-24 4.579432587901966e-16 4.579427794351858e-16 4.793550107572343e-22
3.2898708863219004 4.795752835046518e-24 4.1879846315091625e-16 4.18797978517305e-16 4.846336115345456e-22
3.29141343181113 4.687723223964427e-24 4.095565085323349e-16 4.095560225719707e-16 4.8596036402078e-22
3.292184975758714 4.6346414844761685e-24 4.0501378620196563e-16 4.050132995771571e-16 4.866248083280495e-22
3.295272960557952 4.2995865778972024e-24 3.760863112269914e-16 3.7608582200921805e-16 4.892177732256384e-22
3.3076538914384823 3.1388969028111043e-24 2.755919602010184e-16 2.7559146054421733e-16 4.996568010239777e-22
3.310756385682612 2.902676714939208e-24 2.550911122933144e-16 2.5509061000012396e-16 5.022931906064827e-22
3.313861789986515 2.684730322389473e-24 2.3615899527786404e-16 2.3615849033757794e-16 5.049402860385238e-22
3.3200813396944477 2.3790811077133742e-24 2.096657080434359e-16 2.0966519742954976e-16 5.106138861071619e-22
3.345076488085796 1.833807471689889e-24 1.628280506779125e-16 1.6282751482512298e-16 5.35852789580678e-22
3.3482140837626964 1.8542451114330238e-24 1.6479718713896883e-16 1.6479664786831196e-16 5.39270656833045e-22
3.3513546224236106 1.8749086721623954e-24 1.6678997204484806e-16 1.6678942933818968e-16 5.427066583825983e-22
3.3576445397418455 2.025955090586357e-24 1.8056516305157288e-16 1.8056461316830312e-16 5.498832696713957e-22
3.3702598118196083 2.5831037943670727e-24 2.310865517541507e-16 2.3108598680987974e-16 5.649442710032938e-22
3.382922481734668 2.709951528017246e-24 2.4334532212978e-16 2.433447424567209e-16 5.796730591528823e-22
3.389271646505754 2.7756667645219826e-24 2.4971414109731214e-16 2.497135539401812e-16 5.871571308148557e-22
3.395632727569191 2.8464732234565593e-24 2.565649030708885e-16 2.565643081995569e-16 5.948713314897629e-22
3.421196662673239 3.1864396268867818e-24 2.893697753478248e-16 2.893691484360014e-16 6.269118234628502e-22
3.4276182099114902 3.117868653692351e-24 2.836741029758571e-16 2.836734688154081e-16 6.341604489714725e-22
3.4340518103208963 2.8175023087134418e-24 2.5682692786022725e-16 2.568262867962908e-16 6.410639365595688e-22
3.4469541582030403 2.3897348847399713e-24 2.1865260913741683e-16 2.1865195472516528e-16 6.544122514978514e-22
3.472904465399547 2.2698141789400323e-24 2.0924378835439713e-16 2.0924310331767011e-16 6.850367271130328e-22
3.4990501388274233 2.0864281195893096e-24 1.9378628001601587e-16 1.937855634022422e-16 7.166137735852681e-22
3.5253949054701885 1.4339264453672604e-24 1.3418503382074394e-16 1.3418428615956187e-16 7.476611820793667e-22
3.5519380250092896 8.207274819243285e-25 7.7380902121458e-17 7.738012294696123e-17 7.791744967387059e-22
3.578680990867387 5.776051044592725e-25 5.4868544783724417e-17 5.4867731000403985e-17 8.137833204563448e-22
3.605625307711299 4.792682648402855e-25 4.586999567440895e-17 4.586914523714597e-17 8.504372629815727e-22
3.660119384959845 4.0752680362493897e-25 3.959322360157581e-17 3.9592295269455607e-17 9.283321202176908e-22
3.715437065384467 3.567360133996042e-25 3.518246765339948e-17 3.51814558852217e-17 1.011768177780445e-21
3.8285932144167436 3.3095134704178194e-25 3.3633557914229966e-17 3.363236210091296e-17 1.1958133169936822e-21
3.94519561050918 3.2599626139607573e-25 3.413898413653172e-17 3.413758025725777e-17 1.4038792739576685e-21
4.06534921144712 3.2959761328543907e-25 3.556733688224386e-17 3.556569902205058e-17 1.6378601932920577e-21
4.189162171576248 3.3815649300097504e-25 3.760229368153365e-17 3.7600393189456863e-17 1.9004920767767257e-21
4.316745939156006 3.503314319731675e-25 4.014255642006738e-17 4.01403628184078e-17 2.1936016595676235e-21
4.448215356677963 3.656715194351809e-25 4.3176394628418887e-17 4.3173878082528677e-17 2.516545890224432e-21
4.58368876423945 3.8422995367337835e-25 4.6749371064763766e-17 4.674649826452977e-17 2.872800233995561e-21
4.723288106065518 4.064325173129966e-25 5.0956819941104877e-17 5.095355209939478e-17 3.26784171010544e-21
4.867139040275056 4.331324798338496e-25 5.595822600095603e-17 5.595452854509108e-17 3.697455864984765e-21
4.940699165968905 4.492409429233306e-25 5.891653187195985e-17 5.891260434377552e-17 3.9275281843303524e-21
5.015371051989984 4.659229224560643e-25 6.202782877417288e-17 6.202366084792064e-17 4.167926252248292e-21
5.091171501069577 4.862794089026675e-25 6.571629039916505e-17 6.571186717129925e-17 4.4232278658379545e-21
5.129500256944802 4.967272634598362e-25 6.763359715164725e-17 6.762904210861063e-17 4.555043036586926e-21
5.168117569889187 5.076196674191703e-25 6.963703286586036e-17 6.963234233476361e-17 4.6905310967742864e-21
5.20702561229733 5.209889729584391e-25 7.20091489583399e-17 7.200431259913308e-17 4.8363592068154876e-21
5.246226572918644 5.34699505036598e-25 7.446055312281379e-17 7.445556752606593e-17 4.985596747854483e-21
5.265937586045735 5.416861400263519e-25 7.571690683431714e-17 7.571184532314619e-17 5.061511170967104e-21
5.285722656980489 5.487622318870304e-25 7.699420138843699e-17 7.698906308983029e-17 5.1382986066982925e-21
5.305582063971359 5.559292271666565e-25 7.829282728511255e-17 7.82876113190493e-17 5.215966063248739e-21
5.3255160863122235 5.636293912527014e-25 7.967549418184055e-17 7.967019926427025e-17 5.294917570282517e-21
5.365609099470188 5.82810611826166e-25 8.300722852236298e-17 8.300176989204215e-17 5.458630320845037e-21
5.406003951863644 6.027223055209619e-25 8.648943419450449e-17 8.64838079699707e-17 5.626224533801063e-21
5.446702915881641 6.233998179606959e-25 9.013008735733626e-17 9.012428958936122e-17 5.797767975079045e-21
5.487708281020852 6.457436663966708e-25 9.406338536814812e-17 9.405741154789106e-17 5.973820257024465e-21
5.529022354014368 6.768066688283647e-25 9.933045118966146e-17 9.932429286880383e-17 6.158320857633435e-21
5.570647458961463 7.097019346692913e-25 1.0494242532959084e-16 1.0493607804465973e-16 6.34728493105947e-21
5.612585937458331 7.4456148867827645e-25 1.109259114969732e-16 1.1091937069985573e-16 6.540797117463423e-21
5.654840148729818 7.828825613070668e-25 1.1751312759356382e-16 1.1750638800637738e-16 6.739587186390604e-21
5.67608639626678 8.089857655130093e-25 1.2188753955600726e-16 1.2188069598935116e-16 6.843566656118107e-21
5.686739436050992 8.224409589146841e-25 1.2414736132876484e-16 1.2414046529023245e-16 6.896038532354262e-21
5.6974124697621304 8.361738041931008e-25 1.2645722652689185e-16 1.264502776928761e-16 6.948834015706013e-21
5.718818669136295 8.644992148606976e-25 1.3123218580340547e-16 1.312251304010046e-16 7.05540240084558e-21
5.740305295436557 8.957242849284908e-25 1.3648306685965438e-16 1.3647590299051738e-16 7.163869137019725e-21
5.7835210386641895 9.767393678971496e-25 1.4994791981606673e-16 1.4994053038414085e-16 7.389431925840135e-21
5.827062130521658 1.0700743843030867e-24 1.655133579328105e-16 1.6550573574867057e-16 7.622184139882754e-21
5.8489554468988025 1.135558303223227e-24 1.763019774511097e-16 1.7629423047362645e-16 7.746977483206609e-21
5.870931020387893 1.2058322666032513e-24 1.879158062523169e-16 1.879079327689268e-16 7.87348339013503e-21
5.892989160043636 1.2812819422716921e-24 2.004240255418932e-16 2.0041602381925283e-16 8.001722640326216e-21
5.915130176081913 1.3670940211147609e-24 2.1465060837632013e-16 2.1464247382763375e-16 8.134548686442474e-21
5.95966208400165 1.6070432738421054e-24 2.542252248952237e-16 2.542167943576087e-16 8.430537615089229e-21
6.004529249263818 1.9529171843897913e-24 3.1126638701582463e-16 3.1125762622186674e-16 8.76079395792959e-21
6.027089341400364 2.1933537302876516e-24 3.5090191623454024e-16 3.50892967955967e-16 8.948278573445581e-21
6.049734195844842 2.477492388956866e-24 3.978488029723849e-16 3.9783965650002807e-16 9.146472356890155e-21
6.095279466722835 3.2982743795440685e-24 5.336417958119273e-16 5.336321743560733e-16 9.62145585388469e-21
6.141167624020661 4.561457640122168e-24 7.43573717773114e-16 7.435634946597256e-16 1.0223113388275082e-20
6.164241091010745 5.368125228332076e-24 8.783582560720569e-16 8.783476628479539e-16 1.0593224102523846e-20
6.187401249150058 6.287041647702612e-24 1.0325808132347458e-15 1.032569837216858e-15 1.0976017887825904e-20
6.1990139391386085 6.735725565293516e-24 1.1083487358843486e-15 1.1083375644989002e-15 1.1171385448651005e-20
6.204828454712694 6.972075938323228e-24 1.148315748021578e-15 1.148304477668021e-15 1.1270353557239667e-20
6.210648424152782 7.14460580708779e-24 1.1778355287962616e-15 1.1778241721846194e-15 1.1356611641465665e-20
6.233982942956859 7.730754736814842e-24 1.279254454536406e-15 1.2792427886497196e-15 1.1665886687036516e-20
6.239830258556775 7.805676846173051e-24 1.292863802907359e-15 1.2928520878309018e-15 1.1715076456829154e-20
6.245683058788269 7.81216223038357e-24 1.2951516655631034e-15 1.295139901112424e-15 1.1764450679669513e-20
6.257405133728602 7.796033310886777e-24 1.2949034659302098e-15 1.2948916113246258e-15 1.1854605584112777e-20
6.269149208991335 7.680718716900685e-24 1.2781443368885984e-15 1.2781324313492118e-15 1.1905539386922084e-20
6.280915325867298 7.39158051415706e-24 1.2323375548716575e-15 1.2323256472030418e-15 1.1907668615464543e-20
6.304513850009849 6.678573018134114e-24 1.1176471493420526e-15 1.1176352818078722e-15 1.1867534180566027e-20
6.32820103803542 5.794815762116078e-24 9.733954983361912e-16 9.733837182537595e-16 1.1780082431428824e-20
6.3519772230701035 4.984359000551965e-24 8.404031667157932e-16 8.403914590634682e-16 1.1707652325260026e-20
6.375842739491607 4.3025471996149076e-24 7.281698165435364e-16 7.281581660482418e-16 1.1650495294614007e-20
6.399797922933955 3.756104680259828e-24 6.380774275943336e-16 6.380657766961465e-16 1.1650898187310794e-20
6.42384311029221 3.3017992761748718e-24 5.630085972355951e-16 5.629969342629081e-16 1.1662972686907684e-20
6.447978639727206 2.970742770602467e-24 5.084614973759615e-16 5.084497765237988e-16 1.1720852162691189e-20
6.472204850670314 2.6949673763035458e-24 4.6299382614136395e-16 4.629820376969436e-16 1.1788444420128668e-20
6.496522083828205 2.5157433904797124e-24 4.338271147685276e-16 4.3381522080565505e-16 1.1893962872487378e-20
6.520930681187647 2.3647741224609717e-24 4.093253868406627e-16 4.093133805652701e-16 1.2006275392737991e-20
6.57002334288761 2.2103873811275163e-24 3.854825633060098e-16 3.8547027664973626e-16 1.2286656273521814e-20
