Dust emission spectrum from A.P. Jones, M. Kohler, N. Ysard, M. Bocchio, and L. Verstraete (2017), A&A, 602A, 46J 
inside the DustPedia framework.

lambda    nu*dP/dnu     j_nu    j_nu(carb.) j_nu(sil)
 (um)   (erg s-1 H-1) (Jy cm2 sr-1 H-1)
0.9927057738263894 4.8349877739729394e-24 1.2740467406241784e-16 1.2740467406241764e-16 1.8133567736595642e-31
1.0001793341362166 4.9148919768941926e-24 1.3048520942290203e-16 1.3048520942290185e-16 2.1852608275136874e-31
1.0077091589558085 4.9946829588508036e-24 1.3360187868782164e-16 1.3360187868782134e-16 2.6301235423236138e-31
1.0114953028030835 5.034526166235215e-24 1.3517360793699164e-16 1.3517360793699132e-16 2.88407533000908e-31
1.0152956718711033 5.074329308510847e-24 1.3675418198335538e-16 1.3675418198335511e-16 3.161544977550939e-31
1.0229392996569957 5.153760807666428e-24 1.3994054321643937e-16 1.3994054321643902e-16 3.7955648440105415e-31
1.0267826658714554 5.193292860493843e-24 1.4154377541190817e-16 1.4154377541190775e-16 4.156929716811577e-31
1.0306404723013447 5.232767371219471e-24 1.4315550520369729e-16 1.4315550520369682e-16 4.5512493897571875e-31
1.03451277320114 5.272180530717395e-24 1.4477566329960273e-16 1.4477566329960223e-16 4.981385371800265e-31
1.0383996230291617 5.311528550949659e-24 1.464041795398142e-16 1.4640417953981364e-16 5.450434162125212e-31
1.0403485208654093 5.331176956024649e-24 1.4722154980594142e-16 1.4722154980594085e-16 5.7005872007215456e-31
1.0423010764483396 5.350807665692744e-24 1.4804098291351125e-16 1.4804098291351069e-16 5.961745354580521e-31
1.0462171883269815 5.390014131248078e-24 1.4968600157548253e-16 1.4968600157548184e-16 6.51894103733865e-31
1.0471985131304309 5.399803959687713e-24 1.5009853138230685e-16 1.500985313823062e-16 6.665861485724202e-31
1.048180758391296 5.409588957004919e-24 1.505115689638814e-16 1.5051156896388072e-16 6.81595705933163e-31
1.0501480137395462 5.4291442271364115e-24 1.5133916286275662e-16 1.513391628627559e-16 7.125936572635702e-31
1.0521189612883777 5.4486794803219806e-24 1.5216877406419247e-16 1.5216877406419173e-16 7.449418471652665e-31
1.0531058218030118 5.458424463587653e-24 1.525839141441815e-16 1.525839141441808e-16 7.616407605893599e-31
1.0540936079674168 5.46811514770368e-24 1.5299817983479463e-16 1.529981798347939e-16 7.78702005153749e-31
1.058054026499678 5.506822944374319e-24 1.5466013700825582e-16 1.5466013700825493e-16 8.506856099054444e-31
1.0590464539527713 5.5164858755080464e-24 1.55076843990952e-16 1.5507684399095118e-16 8.696547426871284e-31
1.06003981227728 5.52614308655429e-24 1.554940356739528e-16 1.554940356739519e-16 8.89029123123779e-31
1.0620293250338977 5.545440123469019e-24 1.5632986836726467e-16 1.563298683672637e-16 9.290267765244056e-31
1.0660195594769086 5.5839630880846515e-24 1.580072974907916e-16 1.5800729749079056e-16 1.0142587589617334e-30
1.070024785945596 5.622388268461717e-24 1.5969234724389309e-16 1.5969234724389198e-16 1.1069569947997651e-30
1.0740450607676866 5.660712122571524e-24 1.613849397944101e-16 1.613849397944089e-16 1.207742225685261e-30
1.07808044048254 5.6989311366872685e-24 1.6308499662963634e-16 1.6308499662963509e-16 1.317283831221863e-30
1.0861967418109137 5.774973218211179e-24 1.6650523914643274e-16 1.665052391464312e-16 1.5655787019105514e-30
1.0902777775684922 5.8126358699127434e-24 1.6822080654538202e-16 1.682208065453803e-16 1.705947758127915e-30
1.0943741465085532 5.8501772349980186e-24 1.6994339159077005e-16 1.699433915907682e-16 1.8583121286913317e-30
1.1026131145906286 5.92488275830369e-24 1.734092850582484e-16 1.734092850582462e-16 2.2029848793250485e-30
1.1109141095355224 5.999063416207523e-24 1.7690225487362043e-16 1.769022548736179e-16 2.6082841271514283e-30
1.1192775983109025 6.0726245147278026e-24 1.8041958237528913e-16 1.8041958237528608e-16 3.0842561503544543e-30
1.1277040513999907 6.145224492931194e-24 1.8395107348175196e-16 1.839510734817483e-16 3.642503622454081e-30
1.1361939428280308 6.2172138692969954e-24 1.875070969110771e-16 1.8750709691107283e-16 4.2964066027911806e-30
1.1447477501889525 6.2885686297729656e-24 1.910869535475259e-16 1.910869535475208e-16 5.061376695135231e-30
1.1533659546722406 6.359304185655166e-24 1.9469112734098145e-16 1.9469112734097549e-16 5.955150223840352e-30
1.1707974979042381 6.4991459463893135e-24 2.0197960027761966e-16 2.019796002776114e-16 8.213681203420627e-30
1.1884924949847024 6.636209583787459e-24 2.0935626902445442e-16 2.0935626902444315e-16 1.127335097247649e-29
1.2064549276569216 6.77156620660079e-24 2.1685511162715687e-16 2.1685511162714146e-16 1.539810443733337e-29
1.2246888378427687 6.903738081566738e-24 2.2442927117259476e-16 2.244292711725738e-16 2.093119356911049e-29
1.2431983285522175 7.032415920395142e-24 2.3206754024073046e-16 2.3206754024070216e-16 2.831751271797401e-29
1.2619875648066055 7.157551416999738e-24 2.3976676577246506e-16 2.3976676577242695e-16 3.8130748595923324e-29
1.3004222497298317 7.395115495917662e-24 2.5526941651827183e-16 2.5526941651820365e-16 6.818352602839545e-29
1.3400274889804893 7.615499189963126e-24 2.7088285418515446e-16 2.7088285418503466e-16 1.197302705048172e-28
1.3808389325824078 7.817883679284915e-24 2.8655082346732036e-16 2.8655082346711373e-16 2.065608077405492e-28
1.4228933163050095 8.003250840143322e-24 3.0227915626194967e-16 3.022791562615993e-16 3.5028709442067863e-28
1.466228494730424 8.176055632755661e-24 3.1821080796738263e-16 3.182108079667984e-16 5.841841881680635e-28
1.5108834753276823 8.332939739820975e-24 3.3419399777274534e-16 3.3419399777178677e-16 9.58557174207167e-28
1.5568984535646726 8.471185096745678e-24 3.5008531317249045e-16 3.5008531317094143e-16 1.5490987287408657e-27
1.6043148490894465 8.591041569142965e-24 3.6585151409429617e-16 3.65851514091826e-16 2.4701414211915358e-27
1.6531753430134553 8.692870759861559e-24 3.814622579253652e-16 3.814622579214831e-16 3.882101460751336e-27
1.7035239163302658 8.777878476926776e-24 3.9692388389666614e-16 3.9692388389065133e-16 6.0149051516453125e-27
1.755405889504358 8.853042897442096e-24 4.1251481728139707e-16 4.125148172722046e-16 9.192545863798745e-27
1.8088679632656115 8.916638730451264e-24 4.2813178454680867e-16 4.2813178453294557e-16 1.3862956020504814e-26
1.8639582606462262 8.967496650779028e-24 4.436871380469128e-16 4.436871380262742e-16 2.0638499317894216e-26
1.9207263702978936 9.006461498786001e-24 4.591865184627995e-16 4.591865184324545e-16 3.034505252417329e-26
1.979223391128241 9.035502209237761e-24 4.746970627020968e-16 4.74697062658013e-16 4.4083751454206773e-26
2.039501978296691 9.056975673898606e-24 4.903167901346931e-16 4.903167900713883e-16 6.33048867306414e-26
2.1016163906111602 9.077486640408232e-24 5.063939382454733e-16 5.063939381555686e-16 8.990465687292399e-26
2.1656225393682647 9.100864503936272e-24 5.231603774157393e-16 5.231603772894082e-16 1.2633104189682373e-25
2.231578038680979 9.12738244194216e-24 5.406643819265533e-16 5.406643817508371e-16 1.7571625442550893e-25
2.299542257339062 9.159333048635262e-24 5.590809298258481e-16 5.590809295838083e-16 2.420398922298748e-25
2.369576372248914 9.201787045508767e-24 5.787784095509572e-16 5.787784092206227e-16 3.3033444342977813e-25
2.4417434235010123 9.260732231539647e-24 6.002259763856357e-16 6.002259759387109e-16 4.469247732197402e-25
2.5161083711144245 9.346423974293328e-24 6.242294490615865e-16 6.24229448461831e-16 5.997553449413936e-25
2.5927381535095444 9.47564502326169e-24 6.521340466385506e-16 6.521340458397644e-16 7.987861501619007e-25
2.6717017477616296 9.668431963475143e-24 6.856673235973139e-16 6.856673225408624e-16 1.0564514334975367e-24
2.753070231689431 9.954952286857771e-24 7.274881213300053e-16 7.274881199417022e-16 1.3883031200402279e-24
2.836916847834745 1.0403554390606975e-23 7.834256409279643e-16 7.834256391140381e-16 1.8139261775923638e-24
2.9233170693905177 1.1164771559584621e-23 8.663536251189282e-16 8.663536227611905e-16 2.3577377956498283e-24
2.967498994190263 1.1811230936236761e-23 9.303688785051338e-16 9.303688758251605e-16 2.67997327794862e-24
3.0123486681368425 1.2566217653816956e-23 1.0047991271303542e-15 1.0047991240855363e-15 3.0448182003114233e-24
3.0578761833420214 1.4255565259425164e-23 1.157107669046061e-15 1.1571076655869104e-15 3.4591507951202134e-24
3.1040917844459814 1.6432455235260025e-23 1.3539619051447294e-15 1.3539619012177757e-15 3.9269535349953866e-24
3.127460860933648 1.8735355321990634e-23 1.5553325121833227e-15 1.555332507998164e-15 4.18515831661848e-24
3.1510058709225794 2.1803640862407244e-23 1.8236759270475978e-15 1.8236759225873648e-15 4.460232962752015e-24
3.162844764501044 2.4659782743005227e-23 2.070315606560871e-15 2.0703156019547225e-15 4.6061481704776225e-24
3.1747281389236908 2.7981221416788206e-23 2.3579937111258288e-15 2.3579937063690827e-15 4.756745727353355e-24
3.1986289994194426 3.7245627055315054e-23 3.1623402350069053e-15 3.1623402299320988e-15 5.0748074076108874e-24
3.2227097969389145 5.908419491004343e-23 5.054310921549125e-15 5.05431091611787e-15 5.4312545883663936e-24
3.2348180950136065 7.979400461686012e-23 6.8515614694332636e-15 6.851561463799713e-15 5.633549442316514e-24
3.240889293275058 9.527729961640728e-23 8.196398569086967e-15 8.196398563340852e-15 5.746117966754631e-24
3.2469718861334385 1.1318910212142116e-22 9.75556835413076e-15 9.755568348264041e-15 5.866719486545231e-24
3.2714166318528037 2.087337516770101e-22 1.8125832789786845e-14 1.8125832783398198e-14 6.3886455948012144e-24
3.2744851364798273 2.147065953256223e-22 1.866198524449992e-14 1.8661985238051992e-14 6.447927680951016e-24
3.2775565192852394 2.2085099614521105e-22 1.9214053033187353e-14 1.9214053026679516e-14 6.507841919942201e-24
3.283707930232385 2.149421705398024e-22 1.8735081428867645e-14 1.873508142226666e-14 6.600983738098326e-24
3.2898708863219004 1.962031903580362e-22 1.713382599427796e-14 1.7133825987604765e-14 6.673195346819268e-24
3.29141343181113 1.9178406804810998e-22 1.6755770242656228e-14 1.6755770235964876e-14 6.691348136253292e-24
3.292184975758714 1.8961266741383631e-22 1.656994280967814e-14 1.65699428029777e-14 6.700439561887599e-24
3.295272960557952 1.7590656373248384e-22 1.5386607404268252e-14 1.5386607397535592e-14 6.732665583230348e-24
3.3076538914384823 1.2842430167352783e-22 1.1275523259128962e-14 1.1275523252268319e-14 6.860640354498249e-24
3.310756385682612 1.1876042345463654e-22 1.0436824865666358e-14 1.0436824858773381e-14 6.892978032572704e-24
3.313861789986515 1.0984398199207555e-22 9.662290550464141e-15 9.662290543538686e-15 6.925454353439203e-24
3.3200813396944477 9.733966984843904e-23 8.578434225432073e-15 8.57843421842781e-15 7.004263453352008e-24
3.345076488085796 7.503315886862382e-23 6.6623695144646115e-15 6.662369507057134e-15 7.407476624572032e-24
3.3482140837626964 7.586962768801463e-23 6.742960332036586e-15 6.742960324568695e-15 7.46789160819002e-24
3.3513546224236106 7.671534462365519e-23 6.8245191753436326e-15 6.824519167814823e-15 7.528810785598962e-24
3.3576445397418455 8.289604356860124e-23 7.388188263819142e-15 7.388188256155195e-15 7.66394531649394e-24
3.3702598118196083 1.0569308112778638e-22 9.455388403421252e-15 9.45538839545731e-15 7.963942668076466e-24
3.382922481734668 1.1088539872771794e-22 9.957168161095573e-15 9.957168152857307e-15 8.238262004601992e-24
3.389271646505754 1.135753814632868e-22 1.021786159434328e-14 1.0217861585964146e-14 8.379133691104674e-24
3.395632727569191 1.1647398091484388e-22 1.0498302031244628e-14 1.049830202271766e-14 8.526966547218927e-24
3.421196662673239 1.3039201602476095e-22 1.1841275154206991e-14 1.1841275145051593e-14 9.155397107345938e-24
3.4276182099114902 1.2758729490994352e-22 1.1608318198982622e-14 1.1608318189696642e-14 9.285977392894693e-24
3.4340518103208963 1.1529691388322364e-22 1.0509788081740727e-14 1.0509788072339027e-14 9.4016987372329e-24
3.4469541582030403 9.779311075952093e-23 8.94773682209536e-15 8.947736812483092e-15 9.612265134616703e-24
3.472904465399547 9.288748810447868e-23 8.56287271532575e-15 8.562872705138558e-15 1.01871916021992e-23
3.4990501388274233 8.5384545846579e-23 7.93046899392943e-15 7.930468983144216e-15 1.0785212969277181e-23
3.5253949054701885 5.868320821756373e-23 5.491500840105321e-15 5.491500828778174e-15 1.1327147320469783e-23
3.5519380250092896 3.358681050838689e-23 3.1666756064116662e-15 3.1666755945445875e-15 1.1867078447588465e-23
3.578680990867387 2.3635612421527727e-23 2.2452219494413933e-15 2.245221936911023e-15 1.2530370162870031e-23
3.605625307711299 1.9610232074180185e-23 1.876863807614224e-15 1.876863794339946e-15 1.3274278650291782e-23
3.660119384959845 1.6672918857702108e-23 1.619855672196409e-15 1.6198556572604303e-15 1.4935978296136316e-23
3.715437065384467 1.4592312161367396e-23 1.4391413575352409e-15 1.4391413407312858e-15 1.680395511484166e-23
3.8285932144167436 1.3534024621922827e-23 1.3754209040176167e-15 1.375420882719444e-15 2.1298172742958842e-23
3.94519561050918 1.332809003763716e-23 1.3957443941737146e-15 1.3957443671775987e-15 2.6996115864910674e-23
4.06534921144712 1.3472174314002582e-23 1.4538010684788266e-15 1.4538010342527437e-15 3.4226083087905724e-23
4.189162171576248 1.3818976358326747e-23 1.5366412242821388e-15 1.536641180866637e-15 4.341550131292164e-23
4.316745939156006 1.4313601255354375e-23 1.640117024987408e-15 1.6401169698946968e-15 5.509271188832617e-23
4.448215356677963 1.4937608886040167e-23 1.7637471385927045e-15 1.7637470687018304e-15 6.989087456028687e-23
4.58368876423945 1.5693201986281665e-23 1.9093964846754757e-15 1.9093963960101814e-15 8.866529328341855e-23
4.723288106065518 1.6597849149348198e-23 2.0809693478871442e-15 2.0809692353752297e-15 1.125119151153069e-22
4.867139040275056 1.768654353058218e-23 2.2849997313517525e-15 2.2849995886808154e-15 1.4267093726210816e-22
4.940699165968905 1.8343865887640464e-23 2.4057401184125226e-15 2.4057399577520355e-15 1.6066048678098993e-22
5.015371051989984 1.9024605806024464e-23 2.5327257676262923e-15 2.5327255867589567e-15 1.8086733645419029e-22
5.091171501069577 1.985593223549461e-23 2.683350734258797e-15 2.6833505305420894e-15 2.0371670729283619e-22
5.129500256944802 2.028261127730529e-23 2.7616482146719164e-15 2.7616479985045704e-15 2.161673457545838e-22
5.168117569889187 2.072749348707306e-23 2.8434697034587414e-15 2.843469474082537e-15 2.293762038489497e-22
5.20702561229733 2.1273924082855357e-23 2.9404022881938266e-15 2.9404020446214413e-15 2.4357238586948174e-22
5.246226572918644 2.183431931332804e-23 3.0405778906028023e-15 3.0405776319918815e-15 2.586109216399295e-22
5.265937586045735 2.2119893337847352e-23 3.091919433207841e-15 3.0919191667473534e-15 2.6646048698702748e-22
5.285722656980489 2.2409128562592537e-23 3.1441175380357e-15 3.144117263497479e-15 2.7453822135290076e-22
5.305582063971359 2.2702084255670182e-23 3.1971881937202524e-15 3.197187910869968e-15 2.828502848014685e-22
5.3255160863122235 2.3016897235432714e-23 3.2537030364754805e-15 3.2537027450384032e-15 2.914370776177858e-22
5.365609099470188 2.3801551647823016e-23 3.389953437235901e-15 3.389953127598688e-15 3.0963721379831152e-22
5.406003951863644 2.4616132051022016e-23 3.5323652595035023e-15 3.5323649305816417e-15 3.2892186078298263e-22
5.446702915881641 2.5462087333802694e-23 3.6812653606524645e-15 3.681265011301752e-15 3.493507131465298e-22
5.487708281020852 2.6376344368918926e-23 3.842156530657373e-15 3.8421561595868025e-15 3.710705688032126e-22
5.529022354014368 2.764812061584303e-23 4.057732321213755e-15 4.057731926373744e-15 3.9484001065837594e-22
5.570647458961463 2.8995008603970713e-23 4.28744290625463e-15 4.2874424861945094e-15 4.200601203602072e-22
5.612585937458331 3.042242180328922e-23 4.532379017434542e-15 4.532378570622137e-15 4.468124052857193e-22
5.654840148729818 3.199175473576514e-23 4.802062712866348e-15 4.802062237520645e-15 4.753457025297925e-22
5.67608639626678 3.3061104599943645e-23 4.981220766147241e-15 4.981220275168332e-15 4.909789087910688e-22
5.686739436050992 3.361232906357562e-23 5.0737769272383e-15 5.073776428259361e-15 4.989789394586801e-22
5.6974124697621304 3.4174938860096554e-23 5.168384806247637e-15 5.168384299144029e-15 5.071036089511289e-22
5.718818669136295 3.5335412042439707e-23 5.36396480052391e-15 5.363964276789848e-15 5.23734062215516e-22
5.740305295436557 3.661478440679843e-23 5.57905836910948e-15 5.579057827982579e-15 5.41126901772614e-22
5.7835210386641895 3.993479431838757e-23 6.130744324575277e-15 6.130743745017603e-15 5.795576758702996e-22
5.827062130521658 4.376002918748287e-23 6.76856626072326e-15 6.768565639578347e-15 6.211449147538343e-22
5.8489554468988025 4.6444209082598466e-23 7.210731390165587e-15 7.21073074476856e-15 6.453970292664445e-22
5.870931020387893 4.932485342217557e-23 7.686740399819786e-15 7.686739729244615e-15 6.705751695239168e-22
5.892989160043636 5.24177809239664e-23 8.199430832629877e-15 8.199430135917257e-15 6.967126199896756e-22
5.915130176081913 5.5935657742187e-23 8.782587575432138e-15 8.782586850698853e-15 7.24733286582421e-22
5.95966208400165 6.577323906789404e-23 1.0404957206998994e-14 1.0404956414472743e-14 7.925262502442021e-22
6.004529249263818 7.995471612937912e-23 1.2743610335040384e-14 1.2743609457360001e-14 8.776803866217949e-22
6.027089341400364 8.981350856734733e-23 1.4368741268147515e-14 1.4368740336550863e-14 9.315966547484677e-22
6.049734195844842 1.0146466644038239e-22 1.6293731624457177e-14 1.629373063263643e-14 9.91820738462945e-22
6.095279466722835 1.3512218804782676e-22 2.1861991692106215e-14 2.1861990537900225e-14 1.1542059960433267e-21
6.141167624020661 1.8692355587654783e-22 3.0470839443939794e-14 3.047083805504118e-14 1.3888986025026997e-21
6.164241091010745 2.200043309313953e-22 3.599815805810518e-14 3.5998156515195997e-14 1.5429091826887987e-21
6.187401249150058 2.576898490536029e-22 4.2322861658684914e-14 4.2322859945995105e-14 1.712689813313791e-21
6.1990139391386085 2.7609095223554943e-22 4.5430155212394373e-14 4.543015341227799e-14 1.8001163951761414e-21
6.204828454712694 2.8578412028679874e-22 4.706925294028686e-14 4.7069251094728504e-14 1.8455583622189483e-21
6.210648424152782 2.928599430465837e-22 4.8279898876900676e-14 4.8279896993487546e-14 1.8834131180278336e-21
6.233982942956859 3.1689978391103497e-22 5.2439312073796744e-14 5.243931005575407e-14 2.0180426880992958e-21
6.239830258556775 3.1997286375917805e-22 5.299749677309122e-14 5.299749473627323e-14 2.0368180001461184e-21
6.245683058788269 3.2023929888312376e-22 5.309137842966606e-14 5.309137637390837e-14 2.0557576817739527e-21
6.257405133728602 3.1957875959544764e-22 5.308130775428294e-14 5.308130566530537e-14 2.0889775768711807e-21
6.269149208991335 3.148504552521772e-22 5.239409763332059e-14 5.239409553315125e-14 2.100169335774393e-21
6.280915325867298 3.0299334242003986e-22 5.051559325169367e-14 5.051559116773077e-14 2.0839629253111024e-21
6.304513850009849 2.7375329723310184e-22 4.581212056000611e-14 4.5812118533965476e-14 2.0260406295476643e-21
6.32820103803542 2.375095927068882e-22 3.98961378313301e-14 3.98961358950153e-14 1.936314779288268e-21
6.3519772230701035 2.042714219990056e-22 3.4441810852406856e-14 3.44418090008344e-14 1.851572465846852e-21
6.375842739491607 1.7630928423803224e-22 2.9838858983353135e-14 2.983885720607718e-14 1.777275942067007e-21
6.399797922933955 1.538978502759996e-22 2.6143772012662557e-14 2.6143770284822385e-14 1.72784017390373e-21
6.42384311029221 1.3526533238808025e-22 2.3064862116829108e-14 2.3064860430557007e-14 1.6862720991573808e-21
6.447978639727206 1.2168703448019357e-22 2.0827508990450765e-14 2.0827507322603047e-14 1.6678477161982376e-21
6.472204850670314 1.1037603330433033e-22 1.8962538256760892e-14 1.8962536601567463e-14 1.6551934301942504e-21
6.496522083828205 1.0302455450987511e-22 1.77660588923616e-14 1.776605722965401e-14 1.6627075939198756e-21
