Dust emission spectrum from A.P. Jones, M. Kohler, N. Ysard, M. Bocchio, and L. Verstraete (2017), A&A, 602A, 46J 
inside the DustPedia framework.

lambda    nu*dP/dnu     j_nu    j_nu(carb.) j_nu(sil)
 (um)   (erg s-1 H-1) (Jy cm2 sr-1 H-1)
0.9927057738263894 1.1812017157709135e-24 3.112533611974429e-17 3.112533611965251e-17 9.177426489125743e-29
1.0001793341362166 1.200705509827904e-24 3.187746763137034e-17 3.1877467631259786e-17 1.1055396541528083e-28
1.0077091589558085 1.2201812086413887e-24 3.263840831482413e-17 3.2638408314691116e-17 1.3300544810222925e-28
1.0114953028030835 1.229906123762329e-24 3.302214402772197e-17 3.302214402757615e-17 1.458166061827812e-28
1.0152956718711033 1.2396211444131236e-24 3.3408035873658596e-17 3.3408035873498784e-17 1.5981011497147482e-28
1.0229392996569957 1.2590081699531168e-24 3.418596512183689e-17 3.4185965121645125e-17 1.9177098463288374e-28
1.0267826658714554 1.2686566514274185e-24 3.4577378354778594e-17 3.457737835456861e-17 2.099793309903788e-28
1.0306404723013447 1.2782909726624542e-24 3.497086283546621e-17 3.497086283523637e-17 2.2984207053685666e-28
1.03451277320114 1.2879102039983998e-24 3.536640161842548e-17 3.5366401618173984e-17 2.5150218089597084e-28
1.0383996230291617 1.2975134209497853e-24 3.576397754693181e-17 3.5763977546656703e-17 2.7511431255199264e-28
1.0403485208654093 1.3023087365881224e-24 3.5963524022524384e-17 3.596352402223668e-17 2.8770412487522515e-28
1.0423010764483396 1.3070997043827537e-24 3.616357325707216e-17 3.616357325677132e-17 3.0084568166017805e-28
1.0462171883269815 1.3166681406884077e-24 3.6565171181812166e-17 3.65651711814833e-17 3.288770261510117e-28
1.0471985131304309 1.3190573546274422e-24 3.666588143138071e-17 3.666588143104444e-17 3.362667832471562e-28
1.048180758391296 1.3214453822182144e-24 3.6766715430419456e-17 3.676671543007563e-17 3.43815617553412e-28
1.0501480137395462 1.3262178219522186e-24 3.696875355506635e-17 3.696875355470695e-17 3.594036292261616e-28
1.0521189612883777 1.3309853473180023e-24 3.717128330455867e-17 3.717128330418299e-17 3.756679239392998e-28
1.0531058218030118 1.3333635693685265e-24 3.7272629446224e-17 3.727262944583993e-17 3.8406290118372274e-28
1.0540936079674168 1.335728520741933e-24 3.7373761690581926e-17 3.737376169018927e-17 3.926393418481937e-28
1.058054026499678 1.3451748452274781e-24 3.777948337261803e-17 3.777948337218922e-17 4.288167255957399e-28
1.0590464539527713 1.347532987022958e-24 3.788121052371505e-17 3.78812105232767e-17 4.383481903777332e-28
1.06003981227728 1.3498897255468307e-24 3.7983055786374836e-17 3.798305578592677e-17 4.480824480175982e-28
1.0620293250338977 1.3545989379012985e-24 3.818709947950439e-17 3.8187099479036205e-17 4.681758459304038e-28
1.0660195594769086 1.363999921134843e-24 3.8596591330637785e-17 3.85965913301268e-17 5.109821821750221e-28
1.070024785945596 1.3733769239512596e-24 3.900794007176947e-17 3.9007940071211946e-17 5.575220797083555e-28
1.0740450607676866 1.3827290821686086e-24 3.942112667909148e-17 3.942112667848338e-17 6.081042812281509e-28
1.07808044048254 1.3920555385391404e-24 3.9836131963315626e-17 3.9836131962652576e-17 6.63061561715015e-28
1.0861967418109137 1.4106114601739329e-24 4.067104549996728e-17 4.0671045499179724e-17 7.8756331321956915e-28
1.0902777775684922 1.4198017438919297e-24 4.1089825655228195e-17 4.108982565437029e-17 8.579100640235696e-28
1.0943741465085532 1.4289623134701497e-24 4.151031537193977e-17 4.1510315371005524e-17 9.342400707566929e-28
1.1026131145906286 1.4471910545938258e-24 4.2356342961908226e-17 4.235634296080142e-17 1.1068125053728791e-27
1.1109141095355224 1.465291251192703e-24 4.320896586661636e-17 4.3208965865306764e-17 1.3095854732524923e-27
1.1192775983109025 1.4832397831566015e-24 4.4067519997409815e-17 4.406751999586229e-17 1.5475322822021696e-27
1.1277040513999907 1.5009532335759914e-24 4.492951541148878e-17 4.492951540966237e-17 1.826390756362675e-27
1.1361939428280308 1.5185172299522452e-24 4.579748475501486e-17 4.5797484752862084e-17 2.152771028085925e-27
1.1447477501889525 1.5359259171186285e-24 4.6671257269475723e-17 4.6671257266941434e-17 2.5342787958484624e-27
1.1533659546722406 1.5531830709360498e-24 4.75509512077717e-17 4.755095120479203e-17 2.9796577218640536e-27
1.1707974979042381 1.5872985814983827e-24 4.932985590058809e-17 4.932985589648444e-17 4.103664740995135e-27
1.1884924949847024 1.6207344883260975e-24 5.113023048340138e-17 5.1130230477777613e-17 5.6237736878810046e-27
1.2064549276569216 1.6537524885544891e-24 5.2960374242459895e-17 5.296037423479043e-17 7.669447294340398e-27
1.2246888378427687 1.6859917433887185e-24 5.480884322394098e-17 5.4808843213532315e-17 1.0408662715966185e-26
1.2431983285522175 1.71737682640835e-24 5.667290164325544e-17 5.667290162919682e-17 1.4058624417247087e-26
1.2619875648066055 1.7478960325628417e-24 5.855178038103237e-17 5.855178036213361e-17 1.8898754171536255e-26
1.3004222497298317 1.8058293370056254e-24 6.233479401957621e-17 6.233479398589957e-17 3.367665036144657e-26
1.3400274889804893 1.8595651863183083e-24 6.614462330678694e-17 6.61446232478643e-17 5.892262572396752e-26
1.3808389325824078 1.908904589645128e-24 6.996755190061761e-17 6.996755179934479e-17 1.0127279890009811e-25
1.4228933163050095 1.9540883036295585e-24 7.380502941626023e-17 7.380502924519029e-17 1.7106993714230186e-25
1.466228494730424 1.996205048090207e-24 7.769198862548098e-17 7.769198834133557e-17 2.841454314245735e-25
1.5108834753276823 2.0344357199446438e-24 8.159139843660754e-17 8.159139797232253e-17 4.6428498108769425e-25
1.5568984535646726 2.0681177122650527e-24 8.546828202986932e-17 8.546828128280764e-17 7.470616601949842e-25
1.6043148490894465 2.0973130862688098e-24 8.93145682005786e-17 8.931456701467314e-17 1.1859054247622317e-24
1.6531753430134553 2.122111173380491e-24 9.312289830698697e-17 9.312289645187296e-17 1.8551140370169384e-24
1.7035239163302658 2.1428073758095667e-24 9.689487366274592e-17 9.689487080236598e-17 2.8603799670160672e-24
1.755405889504358 2.1611062227443635e-24 1.0069852240958401e-16 1.0069851806019761e-16 4.349386415736197e-24
1.8088679632656115 2.1765873907347658e-24 1.0450869122183175e-16 1.0450868469745688e-16 6.524374879364961e-24
1.8639582606462262 2.1889663604420617e-24 1.0830405157286937e-16 1.0830404191390661e-16 9.658962754834458e-24
1.9207263702978936 2.1984502327772503e-24 1.1208605161292136e-16 1.1208603749507091e-16 1.4117850466628158e-23
1.979223391128241 2.2055204871433666e-24 1.1587115721203233e-16 1.1587113683116107e-16 2.0380871259698623e-23
2.039501978296691 2.2107532064479315e-24 1.1968337500225744e-16 1.196833459318949e-16 2.9070362509582436e-23
2.1016163906111602 2.215761187099503e-24 1.236077868461971e-16 1.2360774586037572e-16 4.0985821328616637e-23
2.1656225393682647 2.2214797265964456e-24 1.2770107407762677e-16 1.277010169396603e-16 5.71379664537521e-23
2.231578038680979 2.2279760485321385e-24 1.319751090620978e-16 1.3197503027372575e-16 7.878837200791082e-23
2.299542257339062 2.2358102366032126e-24 1.3647269504852467e-16 1.364725875550974e-16 1.0749342723738565e-22
2.369576372248914 2.246220317573257e-24 1.4128384154908628e-16 1.412836963953115e-16 1.4515377481865329e-22
2.4417434235010123 2.2606681074402002e-24 1.4652315693254497e-16 1.4652296287248155e-16 1.9406006341062603e-22
2.5161083711144245 2.281656882607612e-24 1.5238741819278689e-16 1.5238716124201073e-16 2.5695077613560447e-22
2.5927381535095444 2.313282988282593e-24 1.5920505595824532e-16 1.5920471889546289e-16 3.3706278248042867e-22
2.6717017477616296 2.3604368921353164e-24 1.6739782132872898e-16 1.6739738316644125e-16 4.381622877144185e-22
2.753070231689431 2.4304814040745677e-24 1.7761474888352546e-16 1.776141842926856e-16 5.645908398695243e-22
2.836916847834745 2.540097861127123e-24 1.9127864575495011e-16 1.9127792442706569e-16 7.213278844003161e-22
2.9233170693905177 2.7260255560686502e-24 2.1153161173633385e-16 2.1153069786206695e-16 9.138742669730529e-22
2.967498994190263 2.8838777876309083e-24 2.2716261814781696e-16 2.271615942887532e-16 1.0238590638610627e-21
3.0123486681368425 3.0682217405075413e-24 2.4533607578951297e-16 2.4533493022853e-16 1.1455609829729128e-21
3.0578761833420214 3.480606761011911e-24 2.8251680679148693e-16 2.825155264111751e-16 1.2803803119344172e-21
3.1040917844459814 4.0119959789189034e-24 3.3057079062622956e-16 3.305693622063254e-16 1.428419904153941e-21
3.127460860933648 4.57408894264389e-24 3.797221415791325e-16 3.797206333661048e-16 1.5082130276892029e-21
3.1510058709225794 5.322991580013028e-24 4.452197532332251e-16 4.452181614566106e-16 1.5917766144952537e-21
3.162844764501044 6.020083487176077e-24 5.054169749259165e-16 5.054153397535261e-16 1.6351723905465087e-21
3.1747281389236908 6.8307446272368e-24 5.756308001503862e-16 5.756291205936222e-16 1.679556764044175e-21
3.1986289994194426 9.091907537448513e-24 7.719484753454579e-16 7.719467037638481e-16 1.771581609613707e-21
3.2227097969389145 1.4421955718157947e-23 1.233714843831998e-15 1.2337129743180551e-15 1.8695139433800334e-21
3.2348180950136065 1.9476493011410722e-23 1.6723610967693148e-15 1.6723591748805753e-15 1.9218887399248453e-21
3.240889293275058 2.3255407434266038e-23 2.000587642441205e-15 2.0005856929206345e-15 1.9495205706906747e-21
3.2469718861334385 2.7627025383478824e-23 2.3811244147931697e-15 2.3811224366770775e-15 1.97811609270767e-21
3.2714166318528037 5.094591395777154e-23 4.423995210656398e-15 4.423993114021841e-15 2.096634557074025e-21
3.2744851364798273 5.2403635774511196e-23 4.554847866219088e-15 4.5548457555247466e-15 2.11069434130031e-21
3.2775565192852394 5.390322647807513e-23 4.689584698674689e-15 4.689582573841203e-15 2.1248334843317906e-21
3.283707930232385 5.246103512405706e-23 4.5726800023632e-15 4.572677852061558e-15 2.150301641183493e-21
3.2898708863219004 4.7887489353020565e-23 4.181868339552648e-15 4.181866165904216e-15 2.1736484319706826e-21
3.29141343181113 4.680893390999397e-23 4.089598004057295e-15 4.089595824541577e-15 2.1795157175944925e-21
3.292184975758714 4.627897008094273e-23 4.044243973733947e-15 4.044241791279988e-15 2.182453959457991e-21
3.295272960557952 4.293379659689142e-23 3.755433899645246e-15 3.755431705730447e-15 2.1939147979023655e-21
3.3076538914384823 3.1345112632236353e-23 2.752069054992971e-15 2.752066814953862e-15 2.2400391095260943e-21
3.310756385682612 2.898652366279103e-23 2.5473744715014538e-15 2.54737221981694e-15 2.2516845134713425e-21
3.313861789986515 2.681035934918829e-23 2.358340230354162e-15 2.3583379669783077e-15 2.2633758546990856e-21
3.3200813396944477 2.375853047215578e-23 2.0938122274880547e-15 2.0938099390408824e-15 2.288447172648872e-21
3.345076488085796 1.831435542889799e-23 1.626174415769966e-15 1.626172015764151e-15 2.4000058150585426e-21
3.3482140837626964 1.8518497676705775e-23 1.6458429947279779e-15 1.6458405796138996e-15 2.415114078431289e-21
3.3513546224236106 1.8724896778249092e-23 1.6657478076437858e-15 1.6657453773430436e-15 2.4303007423071234e-21
3.3576445397418455 2.0233334421738975e-23 1.8033150615796285e-15 1.803312599554117e-15 2.4620255118872606e-21
3.3702598118196083 2.579709970799444e-23 2.307829375566819e-15 2.307826846966971e-15 2.528599848239707e-21
3.382922481734668 2.706426139133999e-23 2.430287530382087e-15 2.4302849367344314e-15 2.593647655929291e-21
3.389271646505754 2.7720737503037935e-23 2.493908939154407e-15 2.493906312465974e-15 2.62668843340738e-21
3.395632727569191 2.842812071833856e-23 2.5623490769153062e-15 2.562346416171145e-15 2.6607441603403024e-21
3.421196662673239 3.1824695423571217e-23 2.8900924051805237e-15 2.890089603055657e-15 2.802124866539978e-21
3.4276182099114902 3.1140158970977867e-23 2.833235663136879e-15 2.833232829088478e-15 2.834048401252568e-21
3.4340518103208963 2.814063032133157e-23 2.5651342364926553e-15 2.5651313720704633e-15 2.864422191116901e-21
3.4469541582030403 2.3868750401125716e-23 2.1839094308671744e-15 2.18390650777627e-15 2.923090904709748e-21
3.472904465399547 2.2671480944330054e-23 2.089980142168051e-15 2.0899770843990696e-15 3.057768981056194e-21
3.4990501388274233 2.0840343429477175e-23 1.9356394737670377e-15 1.9356362772819438e-15 3.1964850941987647e-21
3.5253949054701885 1.4323869057286092e-23 1.3404096563708763e-15 1.340406323731851e-15 3.332639025140913e-21
3.5519380250092896 8.199188346778947e-24 7.730466018390234e-16 7.73043131196597e-16 3.47064242630352e-21
3.578680990867387 5.77069398766788e-24 5.481765639726097e-16 5.481729418154341e-16 3.6221571756251585e-21
3.605625307711299 4.788377764067723e-24 4.582879431802514e-16 4.582841606837489e-16 3.782496502422765e-21
3.660119384959845 4.0716578606761485e-24 3.955814897889067e-16 3.9557736710682067e-16 4.1226820859215566e-21
3.715437065384467 3.5640397033096486e-24 3.5149720484391746e-16 3.514927186157732e-16 4.486228144440801e-21
3.8285932144167436 3.306040229294756e-24 3.3598260443013483e-16 3.3597731928636815e-16 5.2851437667401045e-21
3.94519561050918 3.256063153679818e-24 3.4098148204210924e-16 3.409752984123902e-16 6.183629719069883e-21
4.06534921144712 3.2915162904279337e-24 3.5519210102306856e-16 3.55184912642405e-16 7.18838066333556e-21
4.189162171576248 3.3764515357175044e-24 3.7545433808112284e-16 3.7544602856486795e-16 8.309516254884849e-21
4.316745939156006 3.497471351726439e-24 4.007560505590064e-16 4.007464976935931e-16 9.552865413381329e-21
4.448215356677963 3.650074673930745e-24 4.3097987173914147e-16 4.30968958416218e-16 1.0913322923475201e-20
4.58368876423945 3.8347978790310916e-24 4.665809817565371e-16 4.665685784643162e-16 1.2403292220783666e-20
4.723288106065518 4.055902515233112e-24 5.085122015673895e-16 5.084981582925578e-16 1.4043274831531705e-20
4.867139040275056 4.321925650409066e-24 5.583679441396142e-16 5.583521324107411e-16 1.5811728873177302e-20
4.940699165968905 4.482506762568507e-24 5.87866615239062e-16 5.878498624252434e-16 1.6752813818589094e-20
5.015371051989984 4.648804456054592e-24 6.188904492715906e-16 6.188727174649548e-16 1.7731806635767568e-20
5.091171501069577 4.85184693968872e-24 6.556834951748975e-16 6.556647276650353e-16 1.8767509861947594e-20
5.129500256944802 4.9560568333114245e-24 6.748088457841538e-16 6.747895453832605e-16 1.9300400893355904e-20
5.168117569889187 5.064708800507776e-24 6.94794382160404e-16 6.947745350772078e-16 1.984708319598886e-20
5.20702561229733 5.1981388396364675e-24 7.18467325486704e-16 7.184468892990418e-16 2.0436187662338035e-20
5.246226572918644 5.3349764541583804e-24 7.429318597305061e-16 7.429108220383792e-16 2.1037692126795958e-20
5.265937586045735 5.4047071726508634e-24 7.554701499995238e-16 7.554488068605664e-16 2.134313895750316e-20
5.285722656980489 5.475331263814006e-24 7.682175147966199e-16 7.681958630571585e-16 2.1651739461553075e-20
5.305582063971359 5.546863185168095e-24 7.811778552170392e-16 7.811558917053395e-16 2.1963511699611397e-20
5.3255160863122235 5.623728335921345e-24 7.949786531058681e-16 7.949563729350533e-16 2.2280170815043958e-20
5.365609099470188 5.815285443343138e-24 8.282462912022819e-16 8.282233547558789e-16 2.2936446402844965e-20
5.406003951863644 6.014143877153707e-24 8.63017506295488e-16 8.629938995836774e-16 2.3606711810366547e-20
5.446702915881641 6.220657076838121e-24 8.993720395837537e-16 8.993477484349368e-16 2.4291148817169798e-20
5.487708281020852 6.443835279639355e-24 9.386525841435804e-16 9.386275921252284e-16 2.4992018351692946e-20
5.529022354014368 6.754247764656983e-24 9.912763996128392e-16 9.912506737534266e-16 2.572585941278213e-20
5.570647458961463 7.082984564302158e-24 1.047348953749564e-15 1.0473224780906562e-15 2.6475658908041355e-20
5.612585937458331 7.431366238374768e-24 1.1071363294962817e-15 1.1071090878454685e-15 2.7241650812965584e-20
5.654840148729818 7.814372940218205e-24 1.1729618844165016e-15 1.172933857638586e-15 2.8026777915375676e-20
5.67608639626678 8.075338013710342e-24 1.2166877632884878e-15 1.2166593258670907e-15 2.843742139719175e-20
5.686739436050992 8.209857867243087e-24 1.2392770326607241e-15 1.2392483882006135e-15 2.864446011070554e-20
5.6974124697621304 8.347155208177548e-24 1.2623668568931504e-15 1.2623380042434491e-15 2.885264970127319e-20
5.718818669136295 8.630350098341151e-24 1.3100991743947905e-15 1.3100699018944515e-15 2.927250033893142e-20
5.740305295436557 8.942554605672994e-24 1.3625925953761713e-15 1.3625628959379667e-15 2.9699438204637295e-20
5.7835210386641895 9.752705465559017e-24 1.497224280298845e-15 1.497193693631493e-15 3.0586667352295624e-20
5.827062130521658 1.0686114112037457e-23 1.6528707311206416e-15 1.6528392308264738e-15 3.150029416761128e-20
5.8489554468988025 1.1341075335615658e-23 1.7607673709185115e-15 1.7607353801935606e-15 3.199072495054814e-20
5.870931020387893 1.2043964245667826e-23 1.8769204593224013e-15 1.8768879720120016e-15 3.248731040072257e-20
5.892989160043636 1.2798639659173044e-23 2.0020221914652193e-15 2.00198920134989e-15 3.299011532948887e-20
5.915130176081913 1.3656992804179474e-23 2.1443161689916184e-15 2.1442826580123227e-15 3.351097929546414e-20
5.95966208400165 1.6057305511682485e-23 2.540175595370977e-15 2.540140919860889e-15 3.4675510089105345e-20
6.004529249263818 1.9517438321017644e-23 3.1107937185188935e-15 3.1107577412133526e-15 3.597730553991228e-20
6.027089341400364 2.1922861011460744e-23 3.5073111245290027e-15 3.507274405751086e-15 3.671877791637734e-20
6.049734195844842 2.4765566019375273e-23 3.976985293541327e-15 3.976947790354406e-15 3.7503186919582976e-20
6.095279466722835 3.297743593783155e-23 5.335559177332562e-15 5.3355197851637656e-15 3.9392168797260324e-20
6.141167624020661 4.561595444307482e-23 7.435961815508105e-15 7.435920018251077e-15 4.179725702986553e-20
6.164241091010745 5.368701155011357e-23 8.784524919425183e-15 8.784481636993455e-15 4.328243172812505e-20
6.187401249150058 6.288142352775678e-23 1.0327615925270052e-14 1.03275711069299e-14 4.481834014859325e-20
6.1990139391386085 6.737087072780386e-23 1.1085727689283527e-14 1.1085682087359116e-14 4.560192441119899e-20
6.204828454712694 6.973577142481381e-23 1.148562999541936e-14 1.1485583996558298e-14 4.5998861062534275e-20
6.210648424152782 7.14621046734747e-23 1.1781000676548813e-14 1.1780954333191788e-14 4.6343357024188335e-20
6.233982942956859 7.732722721189533e-23 1.2795801087401019e-14 1.2795753514214877e-14 4.7573186141495495e-20
6.239830258556775 7.807696893145962e-23 1.2931983857581374e-14 1.2931936092860018e-14 4.7764721357646236e-20
6.245683058788269 7.814195357416866e-23 1.2954887307424762e-14 1.2954839350498016e-14 4.795692674705128e-20
6.257405133728602 7.798075840600611e-23 1.2952427254869915e-14 1.2952378949117937e-14 4.83057519741471e-20
6.269149208991335 7.682712490173464e-23 1.2784761196437766e-14 1.2784712703482713e-14 4.849295505482217e-20
6.280915325867298 7.393423050316277e-23 1.2326447458034023e-14 1.2326398978765106e-14 4.847926891660455e-20
6.304513850009849 6.68002800366661e-23 1.1178906385467548e-14 1.1178858116321654e-14 4.8269145891278335e-20
6.32820103803542 5.795765041699511e-23 9.735549554287216e-15 9.73550169076598e-15 4.786352123645885e-20
6.3519772230701035 4.984832645954992e-23 8.404830271545297e-15 8.404782752608356e-15 4.751893694414104e-20
6.375842739491607 4.3026204818540656e-23 7.28182218944293e-15 7.281774952085728e-15 4.7237357203307353e-20
6.399797922933955 3.755839259828086e-23 6.380323386522688e-15 6.380276196516431e-15 4.7190006258905806e-20
6.42384311029221 3.3012518606385574e-23 5.629152542951476e-15 5.629105352649309e-15 4.719030216804438e-20
6.447978639727206 2.969978587401664e-23 5.083307025665304e-15 5.083259648811321e-15 4.7376853984428966e-20
6.472204850670314 2.694020496741991e-23 4.628311527839964e-15 4.628263925387352e-15 4.760245261258188e-20
6.496522083828205 2.5146672357844926e-23 4.3364153738085025e-15 4.3363673919779894e-15 4.7981830514524037e-20
