Dust emission spectrum from A.P. Jones, M. Kohler, N. Ysard, M. Bocchio, and L. Verstraete (2017), A&A, 602A, 46J 
inside the DustPedia framework.

lambda    nu*dP/dnu     j_nu    j_nu(carb.) j_nu(sil)
 (um)   (erg s-1 H-1) (Jy cm2 sr-1 H-1)
0.9927057738263894 7.40248339385814e-26 1.9505964195479166e-18 1.950596418991354e-18 5.565622886370743e-28
1.0001793341362166 7.524668462399285e-26 1.997720285145575e-18 1.997720284475189e-18 6.703865024225636e-28
1.0077091589558085 7.646677057220766e-26 2.0453959319948797e-18 2.045395931188432e-18 8.064473851461525e-28
1.0114953028030835 7.707600161371453e-26 2.069438290609615e-18 2.0694382897255377e-18 8.840779604569067e-28
1.0152956718711033 7.768461176318338e-26 2.093615705340654e-18 2.0936157043717866e-18 9.688672032188452e-28
1.0229392996569957 7.889913413418622e-26 2.1423554763388556e-18 2.142355475176353e-18 1.1625030912019072e-27
1.0267826658714554 7.950357232477428e-26 2.166878719894135e-18 2.1668787186213276e-18 1.2728072774086827e-27
1.0306404723013447 8.010712257501058e-26 2.1915317057115104e-18 2.1915317043183855e-18 1.3931247426128656e-27
1.03451277320114 8.070972669431497e-26 2.216313373341396e-18 2.216313371817077e-18 1.5243199028553435e-27
1.0383996230291617 8.131132681730334e-26 2.2412226491473135e-18 2.2412226474799862e-18 1.6673276495438036e-27
1.0403485208654093 8.161173238890662e-26 2.2537248010619253e-18 2.2537247993183516e-18 1.743573983582929e-27
1.0423010764483396 8.191186541489878e-26 2.2662584465612502e-18 2.2662584447380914e-18 1.82315873075859e-27
1.0462171883269815 8.25112853051984e-26 2.2914196663393797e-18 2.2914196643464747e-18 1.9929055132530305e-27
1.0471985131304309 8.266095881267213e-26 2.2977294385244664e-18 2.2977294364868136e-18 2.037652815078626e-27
1.048180758391296 8.281055796331676e-26 2.3040469626982637e-18 2.3040469606149006e-18 2.083362483698602e-27
1.0501480137395462 8.310952966409388e-26 2.3167051968180068e-18 2.316705194640259e-18 2.1777481497287313e-27
1.0521189612883777 8.340819336212387e-26 2.3293942278420614e-18 2.329394225565837e-18 2.2762248294773457e-27
1.0531058218030118 8.355717800249234e-26 2.3357438322197725e-18 2.335743829892719e-18 2.327053051228546e-27
1.0540936079674168 8.3705331057728e-26 2.342080030937069e-18 2.3420800285580904e-18 2.3789789714230723e-27
1.058054026499678 8.429709845356307e-26 2.3674995415542263e-18 2.3674995389562223e-18 2.598003285709454e-27
1.0590464539527713 8.444482477346212e-26 2.3738730077019235e-18 2.3738730050462182e-18 2.655705599195444e-27
1.06003981227728 8.459246315817141e-26 2.38025387291698e-18 2.380253870202346e-18 2.7146344050966324e-27
1.0620293250338977 8.488747268770479e-26 2.3930377275441884e-18 2.3930377247079168e-18 2.8362711913941344e-27
1.0660195594769086 8.547639883790518e-26 2.4186934201699887e-18 2.418693417074602e-18 3.0953863743959803e-27
1.070024785945596 8.606382239972325e-26 2.4444654398714505e-18 2.4444654364943716e-18 3.377078377887714e-27
1.0740450607676866 8.664968929550792e-26 2.470352596522312e-18 2.4703525928391e-18 3.6832118213876366e-27
1.07808044048254 8.723394588313447e-26 2.4963536896869083e-18 2.496353685671112e-18 4.0157962427487396e-27
1.0861967418109137 8.839638236885587e-26 2.5486630378807125e-18 2.5486630331115672e-18 4.7691451091211036e-27
1.0902777775684922 8.897210724014063e-26 2.574900608766907e-18 2.574900603572154e-18 5.194752917764301e-27
1.0943741465085532 8.954597071296414e-26 2.6012452879564842e-18 2.6012452822999636e-18 5.6565202236586386e-27
1.1026131145906286 9.068790978136226e-26 2.6542509345983067e-18 2.6542509278979282e-18 6.700378222187869e-27
1.1109141095355224 9.182179716364155e-26 2.707669820744314e-18 2.7076698128176183e-18 7.926695669107537e-27
1.1192775983109025 9.294618479105818e-26 2.7614603542025244e-18 2.761460344837048e-18 9.365475734619497e-27
1.1277040513999907 9.405584637692697e-26 2.8154665347331816e-18 2.815466523681856e-18 1.1051325526773867e-26
1.1361939428280308 9.515614818164472e-26 2.869847084864396e-18 2.8698470718402924e-18 1.3024104207068537e-26
1.1447477501889525 9.624672403668171e-26 2.9245913287842942e-18 2.924591313454631e-18 1.5329663044328413e-26
1.1533659546722406 9.732781119864088e-26 2.9797066991443798e-18 2.9797066811236786e-18 1.8020700746368692e-26
1.1707974979042381 9.946501839642983e-26 3.0911607191215934e-18 3.091160694311519e-18 2.4810075103616425e-26
1.1884924949847024 1.0155967655722567e-25 3.2039607397716106e-18 3.203960705783199e-18 3.398841103807048e-26
1.2064549276569216 1.0362818898772336e-25 3.3186270066660962e-18 3.3186269603310063e-18 4.633508965881359e-26
1.2246888378427687 1.056479536331784e-25 3.434442754727079e-18 3.4344426918662518e-18 6.286082719965345e-26
1.2431983285522175 1.0761425114807773e-25 3.551236849679869e-18 3.551236764808028e-18 8.487184050138884e-26
1.2619875648066055 1.0952635699118053e-25 3.668961471969922e-18 3.6689613579223136e-18 1.14047609158576e-25
1.3004222497298317 1.13156231575524e-25 3.906000552071983e-18 3.906000349006353e-18 2.0306562820388468e-25
1.3400274889804893 1.1652346347293385e-25 4.1447326797287395e-18 4.144732324726196e-18 3.5500254426020603e-25
1.3808389325824078 1.1961567262624092e-25 4.3843028237255486e-18 4.384302214087972e-18 6.0963757585605445e-25
1.4228933163050095 1.2244804360158341e-25 4.624807099654797e-18 4.624806070762206e-18 1.0288925916843737e-24
1.466228494730424 1.2508890284646262e-25 4.868440557456252e-18 4.868438850028354e-18 1.7074278974803104e-24
1.5108834753276823 1.2748706802582221e-25 5.112891039434158e-18 5.11288825216106e-18 2.787273099898704e-24
1.5568984535646726 1.296011861725431e-25 5.35597691829105e-18 5.3559724377231264e-18 4.4805679240994416e-24
1.6043148490894465 1.3143533475714453e-25 5.597204464602421e-18 5.597197359034279e-18 7.105568141723208e-24
1.6531753430134553 1.3299533509410653e-25 5.836127353093928e-18 5.836116249094824e-18 1.1103999105107294e-23
1.7035239163302658 1.3429995534308373e-25 6.0728637360435274e-18 6.0728466327471914e-18 1.710329633724326e-23
1.755405889504358 1.3545629798315274e-25 6.311697645594765e-18 6.311671666850925e-18 2.5978743841121504e-23
1.8088679632656115 1.3643839561608695e-25 6.5510800158730334e-18 6.551041089015343e-18 3.8926857691032504e-23
1.8639582606462262 1.372288473084699e-25 6.789706970727716e-18 6.789649407265534e-18 5.756346217999962e-23
1.9207263702978936 1.3784112824038001e-25 7.027708694054376e-18 7.027624656004802e-18 8.403804957189347e-23
1.979223391128241 1.3830599081570706e-25 7.266164743692521e-18 7.266043570816006e-18 1.211728765175842e-22
2.039501978296691 1.3866020240803422e-25 7.506636631482611e-18 7.506464011170346e-18 1.726203122658213e-22
2.1016163906111602 1.3900560380220526e-25 7.7545247859955e-18 7.754281724307897e-18 2.430616876041675e-22
2.1656225393682647 1.394017099052327e-25 8.013464120345685e-18 8.013125720033426e-18 3.3840031225989933e-22
2.231578038680979 1.3985375888512238e-25 8.284296904254674e-18 8.283830919275724e-18 4.659849789501141e-22
2.299542257339062 1.403980341678363e-25 8.569823050595446e-18 8.56918819470031e-18 6.348558951360784e-22
2.369576372248914 1.411134535344262e-25 8.87582159845369e-18 8.87496557924746e-18 8.560192062308605e-22
2.4417434235010123 1.4209314651258353e-25 9.209638662562112e-18 9.208495967128418e-18 1.1426954336917774e-21
2.5161083711144245 1.4349572596352027e-25 9.583799986740194e-18 9.58228935265727e-18 1.5106340829228744e-21
2.5927381535095444 1.455798532001976e-25 1.0019115167719925e-17 1.0017136788448206e-17 1.9783792717175895e-21
2.6717017477616296 1.486541714696454e-25 1.054227906637014e-17 1.0539711651481367e-17 2.5674148887745802e-21
2.753070231689431 1.5318249028081432e-25 1.1194271842182415e-17 1.1190969451608496e-17 3.3023905739220522e-21
2.836916847834745 1.6021273104274955e-25 1.2064603768045735e-17 1.2060392330115278e-17 4.211437930453957e-21
2.9233170693905177 1.720493814070132e-25 1.3350528892234722e-17 1.3345203482687227e-17 5.325409547496476e-21
2.967498994190263 1.8204190529006107e-25 1.4339413409150943e-17 1.4333453237392823e-17 5.960171758121063e-21
3.0123486681368425 1.9370224736020583e-25 1.5488498960672055e-17 1.5481837234167e-17 6.6617265050584826e-21
3.0578761833420214 2.19653270179752e-25 1.7829000732748656e-17 1.7821562721319372e-17 7.438011429288005e-21
3.1040917844459814 2.530662992608767e-25 2.0851547974398655e-17 2.084325876522104e-17 8.289209177619694e-21
3.127460860933648 2.883380819111814e-25 2.393664734880456e-17 2.3927899827448073e-17 8.747521356485153e-21
3.1510058709225794 3.3531071929103457e-25 2.804568698920321e-17 2.8036459855766556e-17 9.22713343665052e-21
3.162844764501044 3.790030863193379e-25 3.1819258617119434e-17 3.1809782553953015e-17 9.47606316642263e-21
3.1747281389236908 4.298072940973686e-25 3.622010924332038e-17 3.6210378676697615e-17 9.730566622770534e-21
3.1986289994194426 5.71483978438261e-25 4.852185133017476e-17 4.8511593387649767e-17 1.0257942524973739e-20
3.2227097969389145 9.053396719281273e-25 7.744656923065235e-17 7.743575045769824e-17 1.0818772954137009e-20
3.2348180950136065 1.2219006634735015e-24 1.0491925484287616e-16 1.0490813625135255e-16 1.1118591523627557e-20
3.240889293275058 1.4585605188713673e-24 1.2547525379009917e-16 1.2546397703350296e-16 1.1276756596183646e-20
3.2469718861334385 1.7323369217743153e-24 1.4930705285235652e-16 1.4929561242414802e-16 1.1440428208508863e-20
3.2714166318528037 3.1926468753884434e-24 2.7724018255405163e-16 2.7722806410065313e-16 1.2118453398586559e-20
3.2744851364798273 3.283940058474321e-24 2.8543529751438647e-16 2.8542309870531586e-16 1.219880907062699e-20
3.2775565192852394 3.377854903109803e-24 2.9387362692305895e-16 2.938613473132013e-16 1.2279609857582165e-20
3.283707930232385 3.287568198879616e-24 2.8655548492081394e-16 2.865430599096784e-16 1.2425011135509718e-20
3.2898708863219004 3.0011970588793986e-24 2.6208538244226483e-16 2.6207282427207044e-16 1.255817019439518e-20
3.29141343181113 2.9336637871879568e-24 2.563080285427628e-16 2.5629543691262943e-16 1.2591630133412447e-20
3.292184975758714 2.900480358355069e-24 2.5346826408830524e-16 2.534556557026202e-16 1.2608385685083745e-20
3.295272960557952 2.6910208810551315e-24 2.353845185473154e-16 2.353718448287078e-16 1.2673718607578759e-20
3.3076538914384823 1.9653900295397572e-24 1.7255924854216044e-16 1.7254631196996513e-16 1.2936572195291864e-20
3.310756385682612 1.8177060794016555e-24 1.597424415989774e-16 1.5972943867924767e-16 1.300291972978229e-20
3.313861789986515 1.6814448327094866e-24 1.4790622320472417e-16 1.4789315368276e-16 1.306952196417848e-20
3.3200813396944477 1.4903620734325006e-24 1.3134391188018084e-16 1.3133069948159925e-16 1.3212398581565508e-20
3.345076488085796 1.1495561222463032e-24 1.0207177439283509e-16 1.0205792617459766e-16 1.3848218237441114e-20
3.3482140837626964 1.1623538342454848e-24 1.0330491970169613e-16 1.0329098537982438e-16 1.3934321871729623e-20
3.3513546224236106 1.1752929336433087e-24 1.0455286620483241e-16 1.0453884534196348e-16 1.4020862868939186e-20
3.3576445397418455 1.2697812167790488e-24 1.1317045156276155e-16 1.131562499033519e-16 1.4201659409617252e-20
3.3702598118196083 1.6182421994981833e-24 1.447692541819505e-16 1.4475467316991597e-16 1.4581012034484558e-20
3.382922481734668 1.697653513881965e-24 1.5244407028291715e-16 1.5242911888589402e-16 1.4951397023068617e-20
3.389271646505754 1.7387932437937628e-24 1.5643133641604328e-16 1.564161969464696e-16 1.5139469573704155e-20
3.395632727569191 1.783123008399693e-24 1.6072056397495222e-16 1.6070523066490058e-16 1.5333310051609123e-20
3.421196662673239 1.9959619128266693e-24 1.8125905962378672e-16 1.8124292196914037e-16 1.613765464638926e-20
3.4276182099114902 1.953126670756159e-24 1.7770198743582012e-16 1.7768566846271259e-16 1.6318973107511503e-20
3.4340518103208963 1.7653219116157037e-24 1.6091635554032007e-16 1.6089986419146928e-16 1.649134885075332e-20
3.4469541582030403 1.4978673048935759e-24 1.3704976081154206e-16 1.3703293680411184e-16 1.6824007430202143e-20
3.472904465399547 1.4230172770585197e-24 1.311814547235455e-16 1.3116386682222929e-16 1.7587901316200354e-20
3.4990501388274233 1.3084803898135942e-24 1.215309287845461e-16 1.2151255487411218e-16 1.837391043394048e-20
3.5253949054701885 9.00551452993931e-25 8.427247266951742e-17 8.425332840786026e-17 1.9144261657153064e-20
3.5519380250092896 5.171535911972585e-25 4.87589514224226e-17 4.8739027327919195e-17 1.99240945033902e-20
3.578680990867387 3.6522839032462887e-25 3.469420567114723e-17 3.46734257332195e-17 2.0779937927723998e-20
3.605625307711299 3.0387455385131696e-25 2.9083345368940475e-17 2.9061660470103927e-17 2.1684898836550492e-20
3.660119384959845 2.5933601947023466e-25 2.5195763604981346e-17 2.5172161689986523e-17 2.3601914994823336e-20
3.715437065384467 2.27922086400614e-25 2.2478418581480457e-17 2.2452772450583457e-17 2.5646130897006454e-20
3.8285932144167436 2.126248669049565e-25 2.1608405099346676e-17 2.1578282617655253e-17 3.012248169141713e-20
3.94519561050918 2.1052879634204247e-25 2.2046998968101126e-17 2.201186713708452e-17 3.5131831016599247e-20
4.06534921144712 2.139969900319884e-25 2.3092712839708436e-17 2.3052009095618993e-17 4.070374408944413e-20
4.189162171576248 2.2082705589736166e-25 2.4555506046891425e-17 2.4508620199203262e-17 4.688584768815841e-20
4.316745939156006 2.302383311772908e-25 2.6381746985393075e-17 2.6328047005641133e-17 5.369997975194035e-20
4.448215356677963 2.420180926738487e-25 2.8576107575027105e-17 2.851500195668016e-17 6.110561834695013e-20
4.58368876423945 2.562828316359334e-25 3.1182007230652686e-17 3.1112848663026495e-17 6.915856762619006e-20
4.723288106065518 2.7339669990536645e-25 3.427734203373632e-17 3.419938493213747e-17 7.795710159883906e-20
4.867139040275056 2.9400602790873947e-25 3.798388835136925e-17 3.7896524508640304e-17 8.736384272895032e-20
4.940699165968905 3.0633498334003995e-25 4.017486628000854e-17 4.008252897045008e-17 9.233730955845835e-20
5.015371051989984 3.192415984724916e-25 4.2500298339608403e-17 4.240281070066167e-17 9.748763894673651e-20
5.091171501069577 3.3469459529441503e-25 4.5230965606855955e-17 4.512805085528484e-17 1.0291475157111701e-19
5.129500256944802 3.4268521219910434e-25 4.6659475524389036e-17 4.6553778516989264e-17 1.0569700739979312e-19
5.168117569889187 3.510220534392126e-25 4.815442710536928e-17 4.8045881582714075e-17 1.085455226552115e-19
5.20702561229733 3.6098765833290208e-25 4.9894365159797555e-17 4.9782745977929384e-17 1.1161918186816585e-19
5.246226572918644 3.712399015005733e-25 5.169768841491554e-17 5.1582938365038047e-17 1.1475004987747356e-19
5.265937586045735 3.764765263809532e-25 5.262390149378245e-17 5.2507564455541e-17 1.1633703824144187e-19
5.285722656980489 3.8178847380363513e-25 5.356691282987661e-17 5.344897438061739e-17 1.1793844925922314e-19
5.305582063971359 3.8717701369236955e-25 5.452705412931106e-17 5.440749980705203e-17 1.1955432225903197e-19
5.3255160863122235 3.9292114110104866e-25 5.554392048672054e-17 5.5422726449898424e-17 1.2119403682214272e-19
5.365609099470188 4.068519849456098e-25 5.794619213150192e-17 5.782160185282456e-17 1.2459027867737646e-19
5.406003951863644 4.213263440228262e-25 6.045947988315499e-17 6.033142959550716e-17 1.2805028764783477e-19
5.446702915881641 4.363695500788577e-25 6.308956874153058e-17 6.295799422417785e-17 1.3157451735271808e-19
5.487708281020852 4.525527106226739e-25 6.59218854692588e-17 6.578671079200834e-17 1.3517467725046875e-19
5.529022354014368 4.743272041297125e-25 6.961387552415384e-17 6.947493584542175e-17 1.3893967873209118e-19
5.570647458961463 4.973519133652293e-25 7.354258665672214e-17 7.339981013150875e-17 1.427765252133952e-19
5.612585937458331 5.217132228851499e-25 7.772563538209664e-17 7.757894953536854e-17 1.4668584672808628e-19
5.654840148729818 5.483595522722224e-25 8.231048846678856e-17 8.215980571045321e-17 1.5068275633532644e-19
5.67608639626678 5.661040851026848e-25 8.529326102791752e-17 8.514048887417227e-17 1.5277215374527325e-19
5.686739436050992 5.752405483161399e-25 8.683248983246326e-17 8.667866531868901e-17 1.5382451377421373e-19
5.6974124697621304 5.845586130274071e-25 8.840466010195834e-17 8.824977810272462e-17 1.5488199923370538e-19
5.718818669136295 6.037565808658418e-25 9.16510905252611e-17 9.149407812500996e-17 1.5701240025114244e-19
5.740305295436557 6.248122350623169e-25 9.520372673556376e-17 9.504455058096692e-17 1.5917615459682806e-19
5.7835210386641895 6.787290593655754e-25 1.0419771529194719e-16 1.0403404904341952e-16 1.636662485276763e-19
5.827062130521658 7.405264984408478e-25 1.145406610915145e-16 1.143723832001875e-16 1.6827789132702735e-19
5.8489554468988025 7.833608294075496e-25 1.2162128786366964e-16 1.2145053462158499e-16 1.7075324208467855e-19
5.870931020387893 8.292384855336015e-25 1.2922777313253627e-16 1.2905451718692336e-16 1.7325594561293086e-19
5.892989160043636 8.784018538182394e-25 1.3740366563940983e-16 1.3722787943224488e-16 1.757862071649638e-19
5.915130176081913 9.341343742778763e-25 1.4667060834665684e-16 1.4649220203168352e-16 1.7840631497329488e-19
5.95966208400165 1.0888500087077853e-24 1.722499591931339e-16 1.720656841155619e-16 1.842750775719559e-19
6.004529249263818 1.3105586059551971e-24 2.0888384080435687e-16 2.0869300839086426e-16 1.9083241349253443e-19
6.027089341400364 1.4640998278226933e-24 2.3423282257087925e-16 2.340382522314941e-16 1.945703393851081e-19
6.049734195844842 1.6452246258030872e-24 2.6419885320900737e-16 2.640003308742004e-16 1.9852233480702701e-19
6.095279466722835 2.167060981759767e-24 3.506179840926691e-16 3.504099296755879e-16 2.0805441708119005e-19
6.141167624020661 2.968318483886184e-24 4.838724339307444e-16 4.836522305992042e-16 2.2020333154024717e-19
6.164241091010745 3.479795550925912e-24 5.693807468325902e-16 5.691530294263966e-16 2.277174061936807e-19
6.187401249150058 4.061902166017612e-24 6.671249336162875e-16 6.668894638913093e-16 2.354697249781969e-19
6.1990139391386085 4.346253593407095e-24 7.151664107140102e-16 7.149269886169326e-16 2.3942209707766153e-19
6.204828454712694 4.4959857943073724e-24 7.404984306189451e-16 7.402570083644058e-16 2.4142225453928157e-19
6.210648424152782 4.605496731095315e-24 7.592466014370902e-16 7.59003447439339e-16 2.431539977511852e-19
6.233982942956859 4.97795850168492e-24 8.237327149252606e-16 8.234834029425877e-16 2.493119826727098e-19
6.239830258556775 5.02587462923667e-24 8.324417618282834e-16 8.321915063065419e-16 2.502555217416207e-19
6.245683058788269 5.030603626300393e-24 8.340065750363769e-16 8.337553730559071e-16 2.51201980469792e-19
6.257405133728602 5.021701687277357e-24 8.34093270309972e-16 8.3384035893945e-16 2.5291137052207436e-19
6.269149208991335 4.950212219047199e-24 8.237621956197631e-16 8.235084035092104e-16 2.5379211055275563e-19
6.280915325867298 4.768992171420735e-24 7.950949246205868e-16 7.948412807083586e-16 2.53643912228188e-19
6.304513850009849 4.321394509779341e-24 7.231775772942953e-16 7.2292516474969e-16 2.5241254460562876e-19
6.32820103803542 3.76605496058366e-24 6.326104393317525e-16 6.32360253822563e-16 2.5018550918945535e-19
6.3519772230701035 3.2569198536260673e-24 5.491429807571599e-16 5.488947071939031e-16 2.4827356325673275e-19
6.375842739491607 2.8286571762432036e-24 4.787263640649718e-16 4.784796819337215e-16 2.4668213125036886e-19
6.399797922933955 2.48621116926712e-24 4.22351175588782e-16 4.2210488492649754e-16 2.4629066228431646e-19
6.42384311029221 2.2016963615323597e-24 3.754237845375905e-16 3.751776450667984e-16 2.4613947079203735e-19
6.447978639727206 1.995205767152679e-24 3.4149214195810947e-16 3.412452057678296e-16 2.469361902799135e-19
6.472204850670314 1.8235190325332383e-24 3.1327950807040405e-16 3.1303157975599634e-16 2.479283144076546e-19
6.496522083828205 1.7129873912697478e-24 2.9539593759907143e-16 2.951462382362887e-16 2.496993627828504e-19
