Dust emission spectrum from A.P. Jones, M. Kohler, N. Ysard, M. Bocchio, and L. Verstraete (2017), A&A, 602A, 46J 
inside the DustPedia framework.

lambda    nu*dP/dnu     j_nu    j_nu(carb.) j_nu(sil)
 (um)   (erg s-1 H-1) (Jy cm2 sr-1 H-1)
0.9927057738263894 4.029156690015176e-25 1.0617056729721254e-17 1.061705672972102e-17 2.338275839718911e-31
1.0001793341362166 4.09574353618131e-25 1.0873768041568104e-17 1.0873768041567825e-17 2.8178363302150163e-31
1.0077091589558085 4.162236031947931e-25 1.1133490513646805e-17 1.1133490513646461e-17 3.3914750940488714e-31
1.0114953028030835 4.195438710324709e-25 1.1264467968336988e-17 1.1264467968336615e-17 3.7189392413274984e-31
1.0152956718711033 4.228608001216033e-25 1.1396182489864394e-17 1.1396182489863987e-17 4.076729049999894e-31
1.0229392996569957 4.294800928821274e-25 1.166171262918684e-17 1.1661712629186356e-17 4.894280983066224e-31
1.0267826658714554 4.32774431215583e-25 1.1795315331046005e-17 1.179531533104547e-17 5.360251476941243e-31
1.0306404723013447 4.360639743849371e-25 1.1929626166366335e-17 1.1929626166365745e-17 5.868716318371109e-31
1.03451277320114 4.393484049631715e-25 1.2064639360805522e-17 1.2064639360804877e-17 6.42336534784771e-31
1.0383996230291617 4.426274072805984e-25 1.220034906772082e-17 1.2200349067720116e-17 7.028191419582511e-31
1.0403485208654093 4.442647746901775e-25 1.2268463266851818e-17 1.2268463266851085e-17 7.350757179877783e-31
1.0423010764483396 4.459006674854016e-25 1.233674936955212e-17 1.233674936955135e-17 7.687513746695936e-31
1.0462171883269815 4.491678736028437e-25 1.2473834279206806e-17 1.2473834279205966e-17 8.406002916568258e-31
1.0471985131304309 4.499836928049367e-25 1.2508211768472099e-17 1.2508211768471239e-17 8.595452968433839e-31
1.048180758391296 4.507991094142314e-25 1.2542631572329774e-17 1.2542631572328897e-17 8.788997260717102e-31
1.0501480137395462 4.524287155931322e-25 1.2611597741445756e-17 1.2611597741444837e-17 9.188707685767089e-31
1.0521189612883777 4.540566536961834e-25 1.2680732019229522e-17 1.2680732019228562e-17 9.605829081867906e-31
1.0531058218030118 4.548687358048438e-25 1.2715327031438022e-17 1.2715327031437039e-17 9.82115717602069e-31
1.0540936079674168 4.556762929849158e-25 1.2749849177890205e-17 1.2749849177889201e-17 1.0041157434877289e-30
1.058054026499678 4.589019433966105e-25 1.2888345631591505e-17 1.288834563159041e-17 1.0969367075096524e-30
1.0590464539527713 4.597071878319333e-25 1.2923071219205557e-17 1.292307121920443e-17 1.1213969050439288e-30
1.06003981227728 4.605119555940613e-25 1.2957837198543059e-17 1.295783719854191e-17 1.146379658764873e-30
1.0620293250338977 4.621200423557996e-25 1.302748993458869e-17 1.3027489934587493e-17 1.1979555802551544e-30
1.0660195594769086 4.65330290120703e-25 1.3167275718471522e-17 1.3167275718470214e-17 1.3078599786611827e-30
1.070024785945596 4.685323892115107e-25 1.3307696555337055e-17 1.3307696555335628e-17 1.427391914347065e-30
1.0740450607676866 4.717260444593141e-25 1.3448745959181171e-17 1.344874595917961e-17 1.5573518173309944e-30
1.07808044048254 4.749109630536964e-25 1.3590417387287617e-17 1.3590417387285917e-17 1.698602834996613e-30
1.0861967418109137 4.812478047219925e-25 1.3875437648999489e-17 1.387543764899747e-17 2.0187725366741312e-30
1.0902777775684922 4.843863598198211e-25 1.4018401625714622e-17 1.4018401625712422e-17 2.1997747407438906e-30
1.0943741465085532 4.875148077129367e-25 1.4161950406872865e-17 1.4161950406870467e-17 2.3962445869967173e-30
1.1026131145906286 4.937402696343095e-25 1.4450774919007073e-17 1.4450774919004232e-17 2.8406910286033513e-30
1.1109141095355224 4.9992199282729595e-25 1.4741855795878672e-17 1.474185579587531e-17 3.363313742905789e-30
1.1192775983109025 5.060520861275957e-25 1.5034966482424964e-17 1.503496648242099e-17 3.9770671412465336e-30
1.1277040513999907 5.1210208612337525e-25 1.5329257471879015e-17 1.5329257471874322e-17 4.696912565796051e-30
1.1361939428280308 5.181012026913844e-25 1.56255928242314e-17 1.562559282422586e-17 5.540103250967574e-30
1.1447477501889525 5.240474346619021e-25 1.5923914279926415e-17 1.592391427991989e-17 6.526512054253325e-30
1.1533659546722406 5.299420663109981e-25 1.6224262168215147e-17 1.6224262168207468e-17 7.679009499162561e-30
1.1707974979042381 5.415955505469403e-25 1.6831635066201604e-17 1.683163506619101e-17 1.0591325762305543e-29
1.1884924949847024 5.5301752476723115e-25 1.744635762759153e-17 1.7446357627576994e-17 1.453668941187758e-29
1.2064549276569216 5.642972480534238e-25 1.8071261357267406e-17 1.8071261357247555e-17 1.985545045866671e-29
1.2246888378427687 5.753115759714521e-25 1.870244151312415e-17 1.8702441513097165e-17 2.6990223286484584e-29
1.2431983285522175 5.860347345059531e-25 1.933896414431421e-17 1.9338964144277696e-17 3.6514687452124384e-29
1.2619875648066055 5.964626981649473e-25 1.9980566496981496e-17 1.9980566496932328e-17 4.91685968736906e-29
1.3004222497298317 6.162597169239684e-25 2.1272454561357173e-17 2.1272454561269255e-17 8.792086251029935e-29
1.3400274889804893 6.346250383251535e-25 2.257357494639995e-17 2.2573574946245554e-17 1.5438903301936954e-28
1.3808389325824078 6.5149042749934265e-25 2.38792397200375e-17 2.3879239719771135e-17 2.6635472577070826e-28
1.4228933163050095 6.669377076193744e-25 2.5189934885866087e-17 2.5189934885414402e-17 4.51685990174033e-28
1.466228494730424 6.813381255935233e-25 2.6517573409786552e-17 2.6517573409033258e-17 7.532901373746081e-28
1.5108834753276823 6.944118218124954e-25 2.7849506906089657e-17 2.784950690485363e-17 1.236034250951347e-27
1.5568984535646726 7.059322910908556e-25 2.917378435043955e-17 2.9173784348442034e-17 1.9975220449553265e-27
1.6043148490894465 7.1592035586648015e-25 3.0487635760655274e-17 3.048763575747008e-17 3.1851823589048743e-27
1.6531753430134553 7.244061501390665e-25 3.1788532617212214e-17 3.178853261220635e-17 5.00586767307409e-27
1.7035239163302658 7.314901585680352e-25 3.307700323423317e-17 3.3077003226477116e-17 7.756061906068957e-27
1.755405889504358 7.377538971273773e-25 3.437624979317223e-17 3.4376249781318686e-17 1.18535459822668e-26
1.8088679632656115 7.430535934232679e-25 3.5677666280208525e-17 3.5677666262332604e-17 1.7875916973808837e-26
1.8639582606462262 7.472918070639512e-25 3.697394892623757e-17 3.697394889962476e-17 2.6612801752021483e-26
1.9207263702978936 7.505389477607297e-25 3.826556816341654e-17 3.82655681242874e-17 3.912914667590766e-26
1.979223391128241 7.52959105235188e-25 3.9558119439616135e-17 3.955811938277129e-17 5.684483740147715e-26
2.039501978296691 7.547487089115568e-25 4.085977236069158e-17 4.085977227906161e-17 8.162998552109023e-26
2.1016163906111602 7.564581941982498e-25 4.219954919822208e-17 4.2199549082292386e-17 1.1592968912561254e-25
2.1656225393682647 7.584067481824911e-25 4.359677703609221e-17 4.359677687319166e-17 1.629005540248517e-25
2.231578038680979 7.6061725941574705e-25 4.5055486943875524e-17 4.5055486717294044e-17 2.265814859697352e-25
2.299542257339062 7.632809901102815e-25 4.659027501274601e-17 4.659027470064193e-17 3.1210407155957534e-25
2.369576372248914 7.66820858434996e-25 4.8231865686581736e-17 4.823186526062417e-17 4.259575717910298e-25
2.4417434235010123 7.717364380986587e-25 5.0019398627307885e-17 5.001939805101016e-17 5.762977338886123e-25
2.5161083711144245 7.788832985662197e-25 5.202009813427319e-17 5.202009736090447e-17 7.733687342665337e-25
2.5927381535095444 7.896615187569568e-25 5.434618545096759e-17 5.434618442095388e-17 1.0300137199456089e-24
2.6717017477616296 8.057431725801769e-25 5.714181645348027e-17 5.714181509121397e-17 1.3622663221415606e-24
2.753070231689431 8.296458187289723e-25 6.06288669844488e-17 6.062886519426847e-17 1.7901803389992407e-24
2.836916847834745 8.670705640607902e-25 6.529358014337873e-17 6.529357780436866e-17 2.3390100711059427e-24
2.9233170693905177 9.305698234025598e-25 7.22094971337759e-17 7.220949409353504e-17 3.0402408417589876e-24
2.967498994190263 9.844858574976922e-25 7.754780243388618e-17 7.754779897813119e-17 3.4557550163021665e-24
3.0123486681368425 1.0474563383825445e-24 8.375497253895237e-17 8.375496861273943e-17 3.926212942506835e-24
3.0578761833420214 1.1883030996530115e-24 9.645318194945783e-17 9.645317748897391e-17 4.460483920023432e-24
3.1040917844459814 1.3697938345990376e-24 1.128649762556234e-16 1.1286497119192016e-16 5.063703242494049e-24
3.127460860933648 1.5617507600479091e-24 1.2965015561666124e-16 1.2965015022000973e-16 5.396651513534357e-24
3.1510058709225794 1.8174950243443927e-24 1.520169014130292e-16 1.5201689566167614e-16 5.751353030917072e-24
3.162844764501044 2.0555361492528743e-24 1.7257283302122236e-16 1.7257282708171555e-16 5.939506851405356e-24
3.1747281389236908 2.3323535115812633e-24 1.9654877928706719e-16 1.9654877315336875e-16 6.13369843790301e-24
3.1986289994194426 3.104454064048623e-24 2.635836948023863e-16 2.635836882585557e-16 6.543830604550881e-24
3.2227097969389145 4.924411109301837e-24 4.2125487010251667e-16 4.2125486309905683e-16 7.003459863946138e-24
3.2348180950136065 6.650271841992426e-24 5.710296974395073e-16 5.710296901751935e-16 7.26431375456603e-24
3.240889293275058 7.940570097067801e-24 6.831016164750059e-16 6.831016090655381e-16 7.409467904499392e-24
3.2469718861334385 9.433245361437629e-24 8.130347197742776e-16 8.130347122092972e-16 7.564980390545164e-24
3.2714166318528037 1.7395408066197552e-23 1.5105667166175597e-15 1.5105667083795695e-15 8.237990372243669e-24
3.2744851364798273 1.7893158016883048e-23 1.5552472916919657e-15 1.5552472833775327e-15 8.314433062278942e-24
3.2775565192852394 1.8405204567195698e-23 1.6012541614629644e-15 1.6012541530712731e-15 8.391690896767575e-24
3.283707930232385 1.7912825275047703e-23 1.5613420079748945e-15 1.5613419994630996e-15 8.51179482017942e-24
3.2898708863219004 1.6351263851748098e-23 1.4279059841541675e-15 1.4279059755492581e-15 8.604909789319586e-24
3.29141343181113 1.5983008787712706e-23 1.3964018271115657e-15 1.396401818483248e-15 8.628317333589768e-24
3.292184975758714 1.5802061308705626e-23 1.3809164531650545e-15 1.3809164445250135e-15 8.640040487697167e-24
3.295272960557952 1.465989589614452e-23 1.2823061172660771e-15 1.2823061085844814e-15 8.681595094165449e-24
3.3076538914384823 1.0703081094578119e-23 9.397196500476313e-16 9.397196412010162e-16 8.846615193958271e-24
3.310756385682612 9.89776826270405e-24 8.698291140587872e-16 8.698291051704738e-16 8.88831377884375e-24
3.313861789986515 9.154741931192717e-24 8.052855955284168e-16 8.052855865982257e-16 8.930191139961074e-24
3.3200813396944477 8.112739212755102e-24 7.149664657078069e-16 7.149664566759936e-16 9.031813400374957e-24
3.345076488085796 6.253973952902204e-24 5.553049616506912e-16 5.55304952098945e-16 9.551746173790255e-24
3.3482140837626964 6.323695470474155e-24 5.620223666396441e-16 5.620223570099947e-16 9.629649705297658e-24
3.3513546224236106 6.3941878534950874e-24 5.688204599874925e-16 5.688204502792891e-16 9.708203381430243e-24
3.3576445397418455 6.909280305860059e-24 6.157961401975431e-16 6.157961303150875e-16 9.882455802847452e-24
3.3702598118196083 8.809107580821488e-24 7.880698790821051e-16 7.880698688128102e-16 1.026929449304597e-23
3.382922481734668 9.241873260909888e-24 8.298918274026061e-16 8.298918167795842e-16 1.0623022058565726e-23
3.389271646505754 9.466076093462132e-24 8.516199031722688e-16 8.516198923675965e-16 1.0804672391161291e-23
3.395632727569191 9.707665321923219e-24 8.749937262151332e-16 8.749937152198344e-16 1.0995298968782297e-23
3.421196662673239 1.0867672486913625e-23 9.86924691607744e-16 9.869246798021005e-16 1.1805643638419765e-23
3.4276182099114902 1.0633985374687297e-23 9.675155041089992e-16 9.675154921349755e-16 1.1974023480311577e-23
3.4340518103208963 9.609821039851203e-24 8.7597472673538e-16 8.759747146121369e-16 1.2123243108537162e-23
3.4469541582030403 8.151243703919085e-24 7.458110583554469e-16 7.458110459606838e-16 1.2394762936742589e-23
3.472904465399547 7.742619544872917e-24 7.137566856299078e-16 7.137566724937922e-16 1.3136115487046339e-23
3.4990501388274233 7.117566232643633e-24 6.610755817761485e-16 6.610755678689002e-16 1.3907248302488996e-23
3.5253949054701885 4.892649559804686e-24 4.578479940700795e-16 4.57847979464021e-16 1.4606058386921563e-23
3.5519380250092896 2.801490440006247e-24 2.641337865573156e-16 2.6413377125503015e-16 1.5302285366627235e-23
3.578680990867387 1.9724652931149846e-24 1.8737074765109313e-16 1.8737073149351053e-16 1.615758257843767e-23
3.605625307711299 1.637286123083729e-24 1.567020245094843e-16 1.5670200739265134e-16 1.7116832996428872e-23
3.660119384959845 1.393125540192948e-24 1.3534896484671374e-16 1.3534894558716277e-16 1.925955096080735e-23
3.715437065384467 1.2204656959694209e-24 1.2036630241317676e-16 1.2036628074491886e-16 2.1668257911243188e-23
3.8285932144167436 1.134122808356133e-24 1.1525737996733236e-16 1.1525735250389907e-16 2.7463433273815347e-23
3.94519561050918 1.1194746535892929e-24 1.1723363720941825e-16 1.1723360239863724e-16 3.481078098370061e-23
4.06534921144712 1.1348586383694592e-24 1.2246417412511735e-16 1.224641299914839e-16 4.413363345545737e-23
4.189162171576248 1.1682449322472884e-24 1.2990638933021835e-16 1.299063333470719e-16 5.598314642982001e-23
4.316745939156006 1.2153579366713413e-24 1.3926119694319269e-16 1.3926112590259053e-16 7.104060217178903e-23
4.448215356677963 1.2750211098774239e-24 1.5054717601377384e-16 1.5054708589133035e-16 9.012244351194885e-23
4.58368876423945 1.3478476606095008e-24 1.6399301986271227e-16 1.6399290553114986e-16 1.1433156239177656e-22
4.723288106065518 1.4357991776560084e-24 1.800145339036929e-16 1.8001438882253918e-16 1.450811537013168e-22
4.867139040275056 1.5423851082282517e-24 1.9926728768956303e-16 1.992671037191439e-16 1.8397041910113952e-22
4.940699165968905 1.6065455951186648e-24 2.1069338458476002e-16 2.1069317741729027e-16 2.0716746979653968e-22
5.015371051989984 1.673742688569535e-24 2.2282360428060883e-16 2.228233710569381e-16 2.332236706909296e-22
5.091171501069577 1.754696198018623e-24 2.37131416219154e-16 2.371311535318209e-16 2.626873330881308e-22
5.129500256944802 1.796569240742893e-24 2.446180212398798e-16 2.4461774249777603e-16 2.7874210373617387e-22
5.168117569889187 1.8402988056501514e-24 2.524585957506646e-16 2.5245829997608595e-16 2.9577457864732986e-22
5.20702561229733 1.8928649099455767e-24 2.6162471440476933e-16 2.616244003245875e-16 3.140801817790685e-22
5.246226572918644 1.9469635318499244e-24 2.7112795154274495e-16 2.711276180707671e-16 3.3347197790411954e-22
5.265937586045735 1.97460388965776e-24 2.760101979729876e-16 2.7600985437920177e-16 3.435937858516933e-22
5.285722656980489 2.0026472525852643e-24 2.809818477217878e-16 2.8098149371197612e-16 3.5400981174453e-22
5.305582063971359 2.0311005129796284e-24 2.860446867884253e-16 2.860443220604264e-16 3.647279988229461e-22
5.3255160863122235 2.0614827603644655e-24 2.9141428787865107e-16 2.9141391207820887e-16 3.758004421913553e-22
5.365609099470188 2.1355263530499752e-24 3.041539059278831e-16 3.041535066588442e-16 3.9926903884519113e-22
5.406003951863644 2.2125022349059482e-24 3.1748960457949565e-16 3.174891804434119e-16 4.241360836412143e-22
5.446702915881641 2.292548348736945e-24 3.3145274828361487e-16 3.314522978050636e-16 4.504785511626306e-22
5.487708281020852 2.378774210291234e-24 3.465083234885139e-16 3.4650784500278037e-16 4.78485733456774e-22
5.529022354014368 2.4954189423750457e-24 3.6623618068426594e-16 3.6623567154846276e-16 5.0913580321737965e-22
5.570647458961463 2.6188496164397938e-24 3.872448656219684e-16 3.872443239654973e-16 5.416564709907934e-22
5.612585937458331 2.7495373928266397e-24 4.096302939811247e-16 4.096297178282863e-16 5.761528383947434e-22
5.654840148729818 2.8926470824287745e-24 4.3419539849384343e-16 4.3419478554806914e-16 6.129457743147323e-22
5.67608639626678 2.9882699452094812e-24 4.502339678619364e-16 4.502333347575541e-16 6.331043823884835e-22
5.686739436050992 3.0375193333949848e-24 4.585131688039074e-16 4.58512525383696e-16 6.434202114072455e-22
5.6974124697621304 3.0877572090576914e-24 4.669713531897242e-16 4.669706992929653e-16 6.53896758910666e-22
5.718818669136295 3.1912913724208644e-24 4.844424785346089e-16 4.844418031933182e-16 6.753412907515866e-22
5.740305295436557 3.3049389452691992e-24 5.035792940126237e-16 5.035785962437242e-16 6.9776889965416015e-22
5.7835210386641895 3.5965181228604295e-24 5.521333825877832e-16 5.521326352634116e-16 7.473243715169655e-22
5.827062130521658 3.931029308001343e-24 6.080304981072315e-16 6.080296971572099e-16 8.0095002165625995e-22
5.8489554468988025 4.1632796590035895e-24 6.463731844335132e-16 6.463723522110281e-16 8.322224851067312e-22
5.870931020387893 4.412123372366129e-24 6.875813027780501e-16 6.875804380890156e-16 8.64689034386103e-22
5.892989160043636 4.6788832860825535e-24 7.318924838468516e-16 7.318915854542624e-16 8.983925889340554e-22
5.915130176081913 4.981435759687688e-24 7.8214680182173e-16 7.821458672972288e-16 9.345245011194373e-22
5.95966208400165 5.822144985438295e-24 9.210306544869525e-16 9.210296325452088e-16 1.0219417437359448e-21
6.004529249263818 7.027892147738516e-24 1.120143042751182e-15 1.1201419110054203e-15 1.1317457616965249e-21
6.027089341400364 7.863340613040046e-24 1.258010165445939e-15 1.2580089641765683e-15 1.2012693705967084e-21
6.049734195844842 8.849151016690437e-24 1.421043372324745e-15 1.4210420933980035e-15 1.278926741702218e-21
6.095279466722835 1.1690364806806553e-23 1.8914336866246916e-15 1.8914321983064336e-15 1.488318258055869e-21
6.141167624020661 1.605442677581995e-23 2.617069091995984e-15 2.6170673010477866e-15 1.7909481979640075e-21
6.164241091010745 1.8840416435627354e-23 3.0827588068787975e-15 3.0827568173380084e-15 1.9895407882039773e-21
6.187401249150058 2.201165806358379e-23 3.615184542676917e-15 3.615182334208473e-15 2.2084684434835726e-21
6.1990139391386085 2.356074438892095e-23 3.8768683502349414e-15 3.876866029032221e-15 2.32120272009555e-21
6.204828454712694 2.43765025462723e-23 4.01486185795971e-15 4.0148594781607685e-15 2.3797989407560123e-21
6.210648424152782 2.4973034596257885e-23 4.116969949573777e-15 4.116967520962125e-15 2.428611652193785e-21
6.233982942956859 2.700181650931433e-23 4.4681528810661496e-15 4.4681502788532106e-15 2.6022129399175126e-21
6.239830258556775 2.726270864769313e-23 4.515555777471455e-15 4.515553151048244e-15 2.6264232107147324e-21
6.245683058788269 2.7288227752838187e-23 4.524021977794796e-15 4.524019326949364e-15 2.6508454317611497e-21
6.257405133728602 2.723920858942916e-23 4.524370818476614e-15 4.524368124795002e-15 2.693681612281259e-21
6.269149208991335 2.6849087296612263e-23 4.467942407952173e-15 4.467939699839081e-15 2.708113090866981e-21
6.280915325867298 2.5860940759167838e-23 4.311582406603615e-15 4.311579719388264e-15 2.6872153510590533e-21
6.304513850009849 2.342057256334617e-23 3.9193905779435026e-15 3.919387965417428e-15 2.6125260749430408e-21
6.32820103803542 2.0392842020850958e-23 3.425527477706859e-15 3.4255249808799065e-15 2.4968269522401342e-21
6.3519772230701035 1.7616863122894235e-23 2.970345345196738e-15 2.9703429576427684e-15 2.3875539691183095e-21
6.375842739491607 1.5281835198127182e-23 2.5863216872239786e-15 2.586319395473421e-15 2.2917505568758783e-21
6.399797922933955 1.3414157384087595e-23 2.2787626452391794e-15 2.2787604172347446e-15 2.2280044347705993e-21
6.42384311029221 1.186236205152813e-23 2.022718905635223e-15 2.0227167312317267e-15 2.174403496281886e-21
6.447978639727206 1.0735628225566593e-23 1.8374709708495603e-15 1.837468820203821e-15 2.1506457393082535e-21
6.472204850670314 9.79864851863559e-24 1.6834021103736395e-15 1.683399976045269e-15 2.134328370513639e-21
6.496522083828205 9.194841131046815e-24 1.5856034497526354e-15 1.5856013057349487e-15 2.1440176868966817e-21
