Dust emission spectrum from A.P. Jones, M. Kohler, N. Ysard, M. Bocchio, and L. Verstraete (2017), A&A, 602A, 46J 
inside the DustPedia framework.

lambda    nu*dP/dnu     j_nu    j_nu(carb.) j_nu(sil)
 (um)   (erg s-1 H-1) (Jy cm2 sr-1 H-1)
0.9927057738263894 1.4237292319833222e-24 3.751607392482041e-17 3.7516072983647905e-17 9.411724966982883e-25
1.0001793341362166 1.4476659451010613e-24 3.843400728011198e-17 3.843400614709804e-17 1.1330139498002227e-24
1.0077091589558085 1.4716621065721615e-24 3.93652257513771e-17 3.936522438921573e-17 1.3621613578836047e-24
1.0114953028030835 1.4836808201434917e-24 3.983582225289811e-17 3.983582076006923e-17 1.49282887392911e-24
1.0152956718711033 1.4957124185674116e-24 4.0309746539402225e-17 4.030974490391227e-17 1.635489957592291e-24
1.0229392996569957 1.5198000054025927e-24 4.126726991675939e-17 4.126726795566674e-17 1.9610926484986757e-24
1.0267826658714554 1.5318281946441296e-24 4.175014808075341e-17 4.175014593429138e-17 2.1464620366612303e-24
1.0306404723013447 1.5438661324790315e-24 4.223633891647814e-17 4.2236336567902135e-17 2.348576013949779e-24
1.03451277320114 1.5559132104343419e-24 4.272584479321593e-17 4.272584222434469e-17 2.5688712480351407e-24
1.0383996230291617 1.5679688295441063e-24 4.321866819154434e-17 4.321866538264368e-17 2.8089006635624805e-24
1.0403485208654093 1.5739996575220224e-24 4.346632476953214e-17 4.34663218326972e-17 2.9368349195800893e-24
1.0423010764483396 1.5800324006231066e-24 4.37148117139726e-17 4.371480864363036e-17 3.070342238365849e-24
1.0462171883269815 1.5921033445385855e-24 4.4214278095733083e-17 4.421427474072467e-17 3.355008414927568e-24
1.0471985131304309 1.5951221656350202e-24 4.4339664222000386e-17 4.433966079197058e-17 3.4300298094522385e-24
1.048180758391296 1.5981414031461347e-24 4.4465258252604964e-17 4.446525474594861e-17 3.50665634788468e-24
1.0501480137395462 1.6041810924798625e-24 4.471707021572644e-17 4.471706655087027e-17 3.664856166231369e-24
1.0521189612883777 1.6102223430951365e-24 4.4969714369228986e-17 4.496971053935215e-17 3.8298768399267804e-24
1.0531058218030118 1.6132393624827794e-24 4.509623207596736e-17 4.5096228160929825e-17 3.9150375376629474e-24
1.0540936079674168 1.6162430848477288e-24 4.522257550778199e-17 4.5222571505753775e-17 4.00202820196514e-24
1.058054026499678 1.6282608899078028e-24 4.5730007095214094e-17 4.5730002726360394e-17 4.3688536981622935e-24
1.0590464539527713 1.6312660285358153e-24 4.58573797021987e-17 4.585737523673074e-17 4.4654679351649214e-24
1.06003981227728 1.6342714256508682e-24 4.5984958293855656e-17 4.59849537297309e-17 4.5641247537091695e-24
1.0620293250338977 1.6402829627875948e-24 4.624073363851264e-17 4.624072887078157e-17 4.767731083925179e-24
1.0660195594769086 1.6523087833716188e-24 4.6754758468577017e-17 4.67547532672635e-17 5.2013135230663035e-24
1.070024785945596 1.66433784333757e-24 4.727208512088996e-17 4.727207944842926e-17 5.672460709627022e-24
1.0740450607676866 1.6763696464095427e-24 4.7792717347385706e-17 4.779271116313187e-17 6.184253846440365e-24
1.07808044048254 1.6884037086085544e-24 4.8316659128461017e-17 4.83166523884494e-17 6.740011623221911e-24
1.0861967418109137 1.7124575754347856e-24 4.937393600834924e-17 4.9373928010361664e-17 7.997987596671569e-24
1.0902777775684922 1.7244329011452026e-24 4.9906015094730784e-17 4.990600638653869e-17 8.708192089869091e-24
1.0943741465085532 1.7364079150205635e-24 5.044138637344242e-17 5.044137689507306e-17 9.478369372255248e-24
1.1026131145906286 1.7603553619709103e-24 5.152202621056199e-17 5.1522014992420813e-17 1.1218141191123656e-23
1.1109141095355224 1.784296765786118e-24 5.2615900071751057e-17 5.2615886811719994e-17 1.3260031073874032e-23
1.1192775983109025 1.8082095643502072e-24 5.372247430346696e-17 5.3722458650138587e-17 1.5653328390628652e-23
1.1277040513999907 1.83200079463459e-24 5.483908898366565e-17 5.4839070528852766e-17 1.8454812889430712e-23
1.1361939428280308 1.8557750191394943e-24 5.596895871273794e-17 5.596893698293723e-17 2.172980069527659e-23
1.1447477501889525 1.8795300792626015e-24 5.711215033049529e-17 5.711212477716637e-17 2.55533289206197e-23
1.1533659546722406 1.903273704491598e-24 5.826903264067393e-17 5.826900262914547e-17 3.0011528466788347e-23
1.1707974979042381 1.950799283896066e-24 6.062668277238766e-17 6.062664153112634e-17 4.124126131554825e-23
1.1884924949847024 1.998256737296511e-24 6.304013907207178e-17 6.304008268202953e-17 5.639004226278977e-23
1.2064549276569216 2.0459783029991834e-24 6.552115710707186e-17 6.552108038320242e-17 7.672386945923542e-23
1.2246888378427687 2.09360200574138e-24 6.805958840306827e-17 6.805948452309501e-17 1.0387997326177227e-22
1.2431983285522175 2.1410712010858063e-24 7.065468435608836e-17 7.065454438783275e-17 1.3996825562012278e-22
1.2619875648066055 2.1884339828382922e-24 7.330911195768092e-17 7.330892426379834e-17 1.8769388256976797e-22
1.3004222497298317 2.282435248995879e-24 7.878658752166182e-17 7.878625474745835e-17 3.327742034786781e-22
1.3400274889804893 2.375748969511289e-24 8.450524983796545e-17 8.450467062965265e-17 5.792083128114459e-22
1.3808389325824078 2.4685877281174346e-24 9.04817563566096e-17 9.048076619005195e-17 9.901665576509388e-22
1.4228933163050095 2.5616923601381227e-24 9.675395919633168e-17 9.675229584368824e-17 1.6633526434246046e-21
1.466228494730424 2.6568302980290177e-24 1.0340342015054157e-16 1.0340067301750158e-16 2.747133039995225e-21
1.5108834753276823 2.7535989533467448e-24 1.1043356500998366e-16 1.104291024371484e-16 4.4625728352675756e-21
1.5568984535646726 2.851758112033774e-24 1.1785347862686495e-16 1.1784634094660286e-16 7.137680262102075e-21
1.6043148490894465 2.9519223594783598e-24 1.257083039363877e-16 1.2569704230434286e-16 1.1261632044837643e-20
1.6531753430134553 3.054766172149342e-24 1.3404984770309308e-16 1.3403234083726877e-16 1.750686582432855e-20
1.7035239163302658 3.1611545470148465e-24 1.4294316601635568e-16 1.4291634467530224e-16 2.6821341053398575e-20
1.755405889504358 3.273668557938849e-24 1.5253927973264201e-16 1.524987630166135e-16 4.051671602848573e-20
1.8088679632656115 3.392330204835795e-24 1.6288249734829023e-16 1.6282212713231234e-16 6.037021597787216e-20
1.8639582606462262 3.517185019067431e-24 1.7402066773628937e-16 1.739319076529482e-16 8.876008334113051e-20
1.9207263702978936 3.648862330115105e-24 1.8603403677920113e-16 1.8590521721376475e-16 1.2881956543634643e-19
1.979223391128241 3.7882814323037905e-24 1.9902447334526255e-16 1.988398520963268e-16 1.846212489357696e-19
2.039501978296691 3.936344695783553e-24 2.1310158772564278e-16 2.1284020856263024e-16 2.6137916301254846e-19
2.1016163906111602 4.0953015210602555e-24 2.2845925835029547e-16 2.280935560041002e-16 3.6570234619529125e-19
2.1656225393682647 4.266438960444136e-24 2.4525492229906055e-16 2.44749097431741e-16 5.058248673196026e-19
2.231578038680979 4.449674888610819e-24 2.6357838501100015e-16 2.6288651886914763e-16 6.918661418525313e-19
2.299542257339062 4.645617581634786e-24 2.835660831814253e-16 2.826299774798322e-16 9.361057015931509e-19
2.369576372248914 4.8554866989641076e-24 3.0540272833133085e-16 3.0414944998109334e-16 1.2532783502374434e-18
2.4417434235010123 5.080690066577626e-24 3.2930032741237667e-16 3.2763952040562254e-16 1.6608070067541966e-18
2.5161083711144245 5.3237599165982156e-24 3.555635533777001e-16 3.533844477331893e-16 2.1791056445107592e-18
2.5927381535095444 5.588770478718062e-24 3.8463107250992526e-16 3.817992933499902e-16 2.8317791599349708e-18
2.6717017477616296 5.879742643007606e-24 4.1698048005117837e-16 4.133348531106156e-16 3.645626940562853e-18
2.753070231689431 6.2025546291743424e-24 4.53270360781312e-16 4.486196340251801e-16 4.650726756131859e-18
2.836916847834745 6.571697499147719e-24 4.948728224944788e-16 4.889922007760859e-16 5.880621718392961e-18
2.9233170693905177 7.018828160771635e-24 5.446405408941082e-16 5.372697399076397e-16 7.370800986468549e-18
2.967498994190263 7.302074874673198e-24 5.751833359779156e-16 5.669731237332775e-16 8.21021224463804e-18
3.0123486681368425 7.610183763102774e-24 6.085129362807586e-16 5.993798113075898e-16 9.133124973168753e-18
3.0578761833420214 8.124858337964555e-24 6.594853112931361e-16 6.493359884552417e-16 1.0149322837894436e-17
3.1040917844459814 8.738097551293204e-24 7.199807355934797e-16 7.0872422809412885e-16 1.1256507499350996e-17
3.127460860933648 9.307245315420667e-24 7.726494101208018e-16 7.607995595814543e-16 1.1849850539347518e-17
3.1510058709225794 1.0034789321980148e-23 8.393187098876586e-16 8.268499963639642e-16 1.2468713523694504e-17
3.162844764501044 1.0687505490898073e-23 8.972710604795368e-16 8.844819354046887e-16 1.2789125074848262e-17
3.1747281389236908 1.1431327983641722e-23 9.63324620242324e-16 9.502084647494207e-16 1.3116155492903522e-17
3.1986289994194426 1.3456417658340495e-23 1.142517238784278e-15 1.128725124767638e-15 1.3792114016639859e-17
3.2227097969389145 1.8135178382121034e-23 1.551359552255065e-15 1.5368507655261767e-15 1.4508786728888382e-17
3.2348180950136065 2.2528423456132861e-23 1.9344169885979375e-15 1.9195256422752644e-15 1.4891346322673516e-17
3.240889293275058 2.5807536503742304e-23 2.220139069039134e-15 2.2050459307097734e-15 1.5093138329360005e-17
3.2469718861334385 2.9604587461902686e-23 2.5515669898204512e-15 2.536265053666673e-15 1.5301936153777896e-17
3.2714166318528037 4.964128379900433e-23 4.310704916583981e-15 4.294539789074255e-15 1.616512750972491e-17
3.2744851364798273 5.089742673075139e-23 4.423930365025666e-15 4.40766341527882e-15 1.626694974684493e-17
3.2775565192852394 5.218800547804685e-23 4.5403603445472075e-15 4.5239910546477154e-15 1.6369289899490668e-17
3.283707930232385 5.096737702079217e-23 4.442487745900554e-15 4.425935240671006e-15 1.6552505229546658e-17
3.2898708863219004 4.706111051937206e-23 4.109703197307763e-15 4.092983773283967e-15 1.6719424023795386e-17
3.29141343181113 4.613868888799883e-23 4.031040107621302e-15 4.014278764670613e-15 1.6761342950688252e-17
3.292184975758714 4.568526026427423e-23 3.9923606378686784e-15 3.97557830703109e-15 1.6782330837588345e-17
3.295272960557952 4.284196200727443e-23 3.747401096624219e-15 3.730537092436555e-15 1.686400418766397e-17
3.3076538914384823 3.2944400921582613e-23 2.892484942559315e-15 2.8752928062539596e-15 1.7192136305356116e-17
3.310756385682612 3.0916882699806947e-23 2.7170170056987756e-15 2.699742141954764e-15 1.7274863744011388e-17
3.313861789986515 2.904107681799633e-23 2.554562544300995e-15 2.5372046747430256e-15 1.7357869557968924e-17
3.3200813396944477 2.6420617777425522e-23 2.3284189493535733e-15 2.310882627515137e-15 1.7536321838436042e-17
3.345076488085796 2.1833406031171558e-23 1.938639142111772e-15 1.9203077885338514e-15 1.83313535779201e-17
3.3482140837626964 2.202210644621409e-23 1.9572284024555303e-15 1.9387893586791642e-15 1.8439043776365716e-17
3.3513546224236106 2.2212628802088327e-23 1.9760129076953797e-15 1.9574656783979e-15 1.8547229297480208e-17
3.3576445397418455 2.3539834124336667e-23 2.0980099739711632e-15 2.079236587222863e-15 1.8773386748299828e-17
3.3702598118196083 2.836058809771103e-23 2.5371611173780525e-15 2.5179133371403036e-15 1.9247780237748475e-17
3.382922481734668 2.951260605514789e-23 2.6501413597732627e-15 2.6304320708196115e-15 1.9709288953651258e-17
3.389271646505754 3.0107374629328035e-23 2.708623849359101e-15 2.6886805587110794e-15 1.9943290648021993e-17
3.395632727569191 3.075635817101407e-23 2.77220315579764e-15 2.7520187099043044e-15 2.0184445893335415e-17
3.421196662673239 3.388646079814939e-23 3.0773272670079586e-15 3.0561441016924802e-15 2.1183165315477857e-17
3.4276182099114902 3.3322578777742833e-23 3.0317995058656693e-15 3.0103930151614174e-15 2.140649070425309e-17
3.4340518103208963 3.0747747589899374e-23 2.8027837023287153e-15 2.7811657688683816e-15 2.1617933460333754e-17
3.4469541582030403 2.70684381659537e-23 2.476669972077099e-15 2.4546457621905205e-15 2.20242098865781e-17
3.472904465399547 2.6087821884465498e-23 2.4049169890944305e-15 2.381957540337075e-15 2.2959448757354872e-17
3.4990501388274233 2.457216933339856e-23 2.2822493822505753e-15 2.258331896715375e-15 2.391748553520073e-17
3.5253949054701885 1.9056137405417603e-23 1.7832493783067006e-15 1.7583995749454197e-15 2.4849803361281336e-17
3.5519380250092896 1.382583599926718e-23 1.303545556556939e-15 1.277757405134838e-15 2.5788151422100945e-17
3.578680990867387 1.1804470016152583e-23 1.1213441272056307e-15 1.0945273261115533e-15 2.681680109407738e-17
3.605625307711299 1.1044734869941512e-23 1.0570738308284206e-15 1.029172896434508e-15 2.7900934393912563e-17
3.660119384959845 1.0610446528069729e-23 1.0308568127584136e-15 1.000674778838093e-15 3.0182033920320716e-17
3.715437065384467 1.0347897976076839e-23 1.0205434050645955e-15 9.879516890883349e-16 3.259171597626082e-17
3.8285932144167436 1.0489564327161152e-23 1.0660218562218901e-15 1.0282338910451001e-15 3.7787965176790344e-17
3.94519561050918 1.081232894622883e-23 1.1322888329869423e-15 1.0888086358788418e-15 4.3480197108100486e-17
4.06534921144712 1.1208677960450136e-23 1.209544028702237e-15 1.1598760596474093e-15 4.966796905482757e-17
4.189162171576248 1.1646373740587593e-23 1.2950523641644624e-15 1.2386836556306398e-15 5.63687085338228e-17
4.316745939156006 1.211166598369392e-23 1.3878093448625592e-15 1.3242450474947287e-15 6.356429736783052e-17
4.448215356677963 1.2597974367675253e-23 1.4874965205319215e-15 1.416333669669748e-15 7.116285086217366e-17
4.58368876423945 1.3103801195873193e-23 1.5943433316641372e-15 1.5151639293529114e-15 7.917940231122582e-17
4.723288106065518 1.3631041944867288e-23 1.709003390246303e-15 1.6213340569461367e-15 8.766933330016617e-17
4.867139040275056 1.418283709648474e-23 1.8323410054223604e-15 1.7359201101184883e-15 9.642089530387221e-17
4.940699165968905 1.4477087817550184e-23 1.8986243779686474e-15 1.7977020554204428e-15 1.0092232254820403e-16
5.015371051989984 1.4770795787300092e-23 1.9664205124814827e-15 1.8609256472289096e-15 1.0549486525257338e-16
5.091171501069577 1.5093060760390977e-23 2.039691473221776e-15 1.92945668874667e-15 1.1023478447510584e-16
5.129500256944802 1.525385158082306e-23 2.076940262232701e-15 1.9643126938252596e-15 1.126275684074413e-16
5.168117569889187 1.5417005117176807e-23 2.114958424476195e-15 1.9999009219193836e-15 1.15057502556811e-16
5.20702561229733 1.56026356080484e-23 2.1565379882469855e-15 2.0388344364603255e-15 1.1770355178666057e-16
5.246226572918644 1.578894254598726e-23 2.198717941805595e-15 2.0783458875388004e-15 1.2037205426679493e-16
5.265937586045735 1.588235682423636e-23 2.220036369975395e-15 2.098321928910936e-15 1.2171444106445922e-16
5.285722656980489 1.5975949212618605e-23 2.2415089442617124e-15 2.1184468472266523e-15 1.2306209703506038e-16
5.305582063971359 1.6069723165639027e-23 2.2631371024315325e-15 2.1387221978815454e-15 1.2441490454998775e-16
5.3255160863122235 1.6167883685756317e-23 2.285516231994366e-15 2.159733245019157e-15 1.2578298697520905e-16
5.365609099470188 1.6397566796079427e-23 2.3354354684585843e-15 2.2068220250231573e-15 1.286134434354276e-16
5.406003951863644 1.6630262340690942e-23 2.386409076248318e-15 2.254941737410572e-15 1.3146733883774648e-16
5.446702915881641 1.6866144211800015e-23 2.438478497096399e-15 2.304134752043853e-15 1.3434374505254651e-16
5.487708281020852 1.7113494671057246e-23 2.4928672598866173e-15 2.355613756526986e-15 1.3725350335963173e-16
5.529022354014368 1.7436988404835852e-23 2.5591117898403487e-15 2.418824175988558e-15 1.402876138517901e-16
5.570647458961463 1.7770630784474737e-23 2.6277131328780664e-15 2.4843665404484146e-15 1.4334659242965182e-16
5.612585937458331 1.8115213205477822e-23 2.6988322218313273e-15 2.5524027199625036e-15 1.4642950186882303e-16
5.654840148729818 1.8483969065664093e-23 2.7745017229945847e-15 2.6249517018455695e-15 1.495500211490159e-16
5.67608639626678 1.8728189072274563e-23 2.8217219432923884e-15 2.6705395864536583e-15 1.5118235683872943e-16
5.686739436050992 1.885281169375821e-23 2.8458296003360394e-15 2.6938284783890266e-15 1.5200112194701075e-16
5.6974124697621304 1.8979164140576728e-23 2.870279416767905e-15 2.717457817527904e-15 1.5282159924000067e-16
5.718818669136295 1.923722914387298e-23 2.9202381979701637e-15 2.7657705660877464e-15 1.5446763188241732e-16
5.740305295436557 1.9518274494487353e-23 2.9740334248377275e-15 2.8179011200431224e-15 1.5613230479460504e-16
5.7835210386641895 2.023485953974811e-23 3.1064326835600837e-15 2.9468578789042993e-15 1.595748046557843e-16
5.827062130521658 2.1040343222281658e-23 3.2544072728614356e-15 3.091330659080812e-15 1.630766137806232e-16
5.8489554468988025 2.1601984668933287e-23 3.353832738654922e-15 3.188866255045508e-15 1.6496648360941349e-16
5.870931020387893 2.21963437916053e-23 3.459058075467386e-15 3.2921914779307765e-15 1.6686659753660964e-16
5.892989160043636 2.2826000703330625e-23 3.570548211951245e-15 3.4017713570285738e-15 1.6877685492267186e-16
5.915130176081913 2.353643984359916e-23 3.695511101220097e-15 3.524754361076366e-15 1.707567401437309e-16
5.95966208400165 2.5514697859359002e-23 4.0362819763536315e-15 3.861018929742429e-15 1.7526304661120248e-16
6.004529249263818 2.8331702268008644e-23 4.515658253950277e-15 4.335326706937584e-15 1.8033154701269156e-16
6.027089341400364 3.0281354268563914e-23 4.84453788382894e-15 4.6612803067896965e-15 1.8325757703924322e-16
6.049734195844842 3.2564503403647923e-23 5.22937981819045e-15 5.043023194735472e-15 1.8635662345497657e-16
6.095279466722835 3.9134652856571154e-23 6.33176140783771e-15 6.1377958829262066e-15 1.9396552491150323e-16
6.141167624020661 4.9155159038373077e-23 8.012895709563761e-15 7.809065308626268e-15 2.0383040093749145e-16
6.164241091010745 5.554531510662348e-23 9.088589411537582e-15 8.878572580615266e-15 2.1001683092231562e-16
6.187401249150058 6.274994578738157e-23 1.0306022081983121e-14 1.0089650317054369e-14 2.1637176492875184e-16
6.1990139391386085 6.625829968984028e-23 1.0902656587060743e-14 1.0683050747436868e-14 2.1960583962387432e-16
6.204828454712694 6.809996685022808e-23 1.1216209499960115e-14 1.0994969907607232e-14 2.2123959235288296e-16
6.210648424152782 6.943959221195493e-23 1.1447576118367046e-14 1.1224943380115207e-14 2.226327382518413e-16
6.233982942956859 7.3954824002164e-23 1.223774925735173e-14 1.2010254236327476e-14 2.274950210242598e-16
6.239830258556775 7.451237864340331e-23 1.2341576408433315e-14 1.2113402822007701e-14 2.2817358642561406e-16
6.245683058788269 7.45319234071631e-23 1.235639274911338e-14 1.2127539421467394e-14 2.288533276459837e-16
6.257405133728602 7.434143782328588e-23 1.234794435333912e-14 1.2117898973902412e-14 2.300453794367102e-16
6.269149208991335 7.337124606709059e-23 1.2209670228485247e-14 1.1979175833714452e-14 2.30494394770791e-16
6.280915325867298 7.103769732506347e-23 1.1843532253705687e-14 1.1613507944464732e-14 2.3002430924095365e-16
6.304513850009849 6.532451935023445e-23 1.0931940496224007e-14 1.0703688356569056e-14 2.2825213965495547e-16
6.32820103803542 5.831603273621341e-23 9.795749524490064e-15 9.570154806467517e-15 2.2559471802254903e-16
6.3519772230701035 5.191149835111814e-23 8.752697708654247e-15 8.529479091551699e-15 2.2321861710254635e-16
6.375842739491607 4.650966560903954e-23 7.871368541190383e-15 7.650237883817554e-15 2.211306573728275e-16
6.399797922933955 4.221844028313915e-23 7.171960332864562e-15 6.951866302000528e-15 2.2009403086403763e-16
6.42384311029221 3.8638450571241934e-23 6.588462240101255e-15 6.369195578425392e-15 2.1926666167586478e-16
6.447978639727206 3.6044014963984617e-23 6.169162137290152e-15 5.949902026288871e-15 2.1926011100128287e-16
6.472204850670314 3.387676794219759e-23 5.820009008188647e-15 5.600592233324015e-15 2.1941677486463225e-16
