Dust emission spectrum from A.P. Jones, M. Kohler, N. Ysard, M. Bocchio, and L. Verstraete (2017), A&A, 602A, 46J 
inside the DustPedia framework.

lambda    nu*dP/dnu     j_nu    j_nu(carb.) j_nu(sil)
 (um)   (erg s-1 H-1) (Jy cm2 sr-1 H-1)
0.9927057738263894 1.0423589912064855e-21 2.7466751466378414e-14 2.7466750611357868e-14 8.55020545898476e-22
1.0001793341362166 1.0598842022175101e-21 2.8138810118421155e-14 2.8138809089483847e-14 1.0289373019382954e-21
1.0077091589558085 1.0774790120930594e-21 2.8821292852480106e-14 2.882129161589991e-14 1.2365801958718574e-21
1.0114953028030835 1.0863017098837057e-21 2.9166463056226234e-14 2.9166461701281583e-14 1.3549446452908338e-21
1.0152956718711033 1.0951408530460832e-21 2.9514263345833656e-14 2.95142618616906e-14 1.4841430453626434e-21
1.0229392996569957 1.112858651430813e-21 3.021755374690293e-14 3.021755196799047e-14 1.7789124610373004e-21
1.0267826658714554 1.1217171802497254e-21 3.057252669972632e-14 3.057252475305733e-14 1.946668986849732e-21
1.0306404723013447 1.1305905364467614e-21 3.0930146123777873e-14 3.09301439942435e-14 2.129534369041167e-21
1.03451277320114 1.1394784470041285e-21 3.129042092156437e-14 3.129041859276412e-14 2.3288002529081297e-21
1.0383996230291617 1.1483806472479565e-21 3.165336020450797e-14 3.1653357658645615e-14 2.545862349778239e-21
1.0403485208654093 1.1528370256250363e-21 3.1835831934708134e-14 3.1835829273174624e-14 2.661533509882182e-21
1.0423010764483396 1.1572968810586146e-21 3.20189733025056e-14 3.201897052027733e-14 2.782228269230201e-21
1.0462171883269815 1.1662269010795479e-21 3.2387269773621426e-14 3.238726673409554e-14 3.0395258955588288e-21
1.0471985131304309 1.1684615320442034e-21 3.247976431105439e-14 3.2479761203730564e-14 3.1073238196002596e-21
1.048180758391296 1.170697006067131e-21 3.257242732579807e-14 3.2572424149230174e-14 3.1765678916003157e-21
1.0501480137395462 1.1751704689245048e-21 3.2758259413910226e-14 3.2758256094397875e-14 3.3195123428272947e-21
1.0521189612883777 1.179647261288717e-21 3.294476730128355e-14 3.2944763832682896e-14 3.4686006505959915e-21
1.0531058218030118 1.1818839319948329e-21 3.3038192176311196e-14 3.3038188630779316e-14 3.5455318881019495e-21
1.0540936079674168 1.1841117099050403e-21 3.313151450598442e-14 3.3131510881873064e-14 3.624111352630003e-21
1.058054026499678 1.1930305819518627e-21 3.350648370640117e-14 3.350647975098752e-14 3.955413639304264e-21
1.0590464539527713 1.1952622238590197e-21 3.360064678867556e-14 3.360064274601789e-14 4.04265767681324e-21
1.06003981227728 1.1974946289762494e-21 3.3694978512310455e-14 3.3694974380570116e-14 4.131740343433235e-21
1.0620293250338977 1.2019617164545355e-21 3.3884148549472444e-14 3.3884144233902965e-14 4.31556947370498e-21
1.0660195594769086 1.210904915875822e-21 3.426451970718192e-14 3.426451500022403e-14 4.706957889426115e-21
1.070024785945596 1.2198599927583074e-21 3.4647608142827607e-14 3.464760301068536e-14 5.132142238069192e-21
1.0740450607676866 1.22882676991853e-21 3.5033425121603273e-14 3.50334195277198e-14 5.59388348042608e-21
1.07808044048254 1.2378050806387274e-21 3.542198222129373e-14 3.542197612613937e-14 6.095154358288018e-21
1.0861967418109137 1.2557819442581662e-21 3.620696842110136e-14 3.620696119177403e-14 7.229327323848648e-21
1.0902777775684922 1.2647489665799071e-21 3.6602514934193556e-14 3.660250706481674e-14 7.869376830248839e-21
1.0943741465085532 1.2737264247159205e-21 3.7000825766449193e-14 3.700081720316673e-14 8.563282455897292e-21
1.1026131145906286 1.2917122240890571e-21 3.780579336635072e-14 3.780578323625448e-14 1.0130096230827348e-20
1.1109141095355224 1.3097386112112814e-21 3.862198105663513e-14 3.862196908868039e-14 1.1967954733206706e-20
1.1192775983109025 1.3277909268281758e-21 3.9449085633244604e-14 3.9449071512368296e-14 1.4120876311122346e-20
1.1277040513999907 1.3458039268889726e-21 4.0285277996264014e-14 4.0285261356732594e-14 1.6639531417109074e-20
1.1361939428280308 1.363854393787652e-21 4.113295494810704e-14 4.1132935365939554e-14 1.9582167484714902e-20
1.1447477501889525 1.3819424137631509e-21 4.199225314547435e-14 4.199223012982331e-14 2.30156510433087e-20
1.1533659546722406 1.4000747234591821e-21 4.2863514358497124e-14 4.2863487341819536e-14 2.7016677580680387e-20
1.1707974979042381 1.4365271667344016e-21 4.464420176410289e-14 4.464416467861198e-14 3.708549090348777e-20
1.1884924949847024 1.4731625184926873e-21 4.647469382096834e-14 4.6474643169386385e-14 5.0651581929988335e-20
1.2064549276569216 1.5102283746438898e-21 4.8364105551631354e-14 4.836403671329758e-14 6.883833377163182e-20
1.2246888378427687 1.547484737444878e-21 5.0306206242495726e-14 5.0306113146222356e-14 9.309627338636425e-20
1.2431983285522175 1.5849013822119809e-21 5.23012531479227e-14 5.2301127856210556e-14 1.2529171214143476e-19
1.2619875648066055 1.6225329629631806e-21 5.4352313832482077e-14 5.435214601877115e-14 1.6781371091910212e-19
1.3004222497298317 1.6982097525461926e-21 5.861991106121487e-14 5.861961425448677e-14 2.968067281191373e-19
1.3400274889804893 1.7747418534281077e-21 6.312746239039188e-14 6.31269470694717e-14 5.153209201727671e-19
1.3808389325824078 1.8524078677510916e-21 6.789676358423002e-14 6.789588487777857e-14 8.78706451455498e-19
1.4228933163050095 1.9318556457630046e-21 7.29653120069728e-14 7.296383973772935e-14 1.472269243471671e-18
1.466228494730424 2.0144605089538954e-21 7.840248831043646e-14 7.840006323383581e-14 2.4250766006512858e-18
1.5108834753276823 2.1000446345601724e-21 8.422265536987382e-14 8.421872665992742e-14 3.928709946393032e-18
1.5568984535646726 2.1885176093957537e-21 9.044400091826069e-14 9.043773449871853e-14 6.2664195421552674e-18
1.6043148490894465 2.2803740195603293e-21 9.711026085055593e-14 9.71004015391208e-14 9.859311435105813e-18
1.6531753430134553 2.3761289788835573e-21 1.0426975741915314e-13 1.0425447418422454e-13 1.528323492860837e-17
1.7035239163302658 2.4763798220403093e-21 1.1197857199222809e-13 1.1195522522384854e-13 2.3346768379543593e-17
1.755405889504358 2.582926188626899e-21 1.2035357075482075e-13 1.2031840682347537e-13 3.516393134536302e-17
1.8088679632656115 2.6956795745208427e-21 1.2943286609387862e-13 1.29380628894377e-13 5.223719950159394e-17
1.8639582606462262 2.8144819340033193e-21 1.3925284647574315e-13 1.3917627878420513e-13 7.656769153801769e-17
1.9207263702978936 2.9395483876716367e-21 1.4987028925508835e-13 1.4975951051662848e-13 1.1077873845989649e-16
1.979223391128241 3.0712436173709982e-21 1.6135354629408757e-13 1.6119528363483533e-13 1.5826265925220988e-16
2.039501978296691 3.2098318285762948e-21 1.737704169389956e-13 1.735470779614845e-13 2.2333897751112445e-16
2.1016163906111602 3.3565207346913526e-21 1.8724585570599129e-13 1.869344032078012e-13 3.1145249819006515e-16
2.1656225393682647 3.511735825136509e-21 2.0187104630204853e-13 2.014417002443589e-13 4.2934605768965585e-16
2.231578038680979 3.674790823512297e-21 2.176777977631099e-13 2.1709254384503115e-13 5.852539180787534e-16
2.299542257339062 3.845491848572885e-21 2.347268242045406e-13 2.3393772297773915e-13 7.891012268015294e-16
2.369576372248914 4.0239836071580206e-21 2.531024485452295e-13 2.5204973471901754e-13 1.0527138262119586e-15
2.4417434235010123 4.2105005860698685e-21 2.728997839651291e-13 2.7150981537585013e-13 1.3899685892789086e-15
2.5161083711144245 4.406004274109031e-21 2.9426844193616056e-13 2.9245144666701063e-13 1.816995269149863e-15
2.5927381535095444 4.612413729625637e-21 3.174361241781298e-13 3.1508384072609557e-13 2.3522834520342603e-15
2.6717017477616296 4.831316150433242e-21 3.4262801112263895e-13 3.396113890228851e-13 3.0166220997537138e-15
2.753070231689431 5.065294290623302e-21 3.7016163626759883e-13 3.6632853850357024e-13 3.833097764028644e-15
2.836916847834745 5.3222060452631996e-21 4.0078155268987303e-13 3.9595437711755586e-13 4.827175572317212e-15
2.9233170693905177 5.6199073440523486e-21 4.360883762258886e-13 4.3006307741605406e-13 6.02529880983456e-15
2.967498994190263 5.801508621651734e-21 4.569839586663546e-13 4.50287540832191e-13 6.696417834163665e-15
3.0123486681368425 5.995744678985907e-21 4.794218265120986e-13 4.719892226383634e-13 7.43260387373545e-15
3.0578761833420214 6.3113605995745334e-21 5.122858069100039e-13 5.040443193321857e-13 8.24148757781816e-15
3.1040917844459814 6.680256067077821e-21 5.504236647501933e-13 5.413034240944813e-13 9.120240655711988e-15
3.127460860933648 7.019102997178449e-21 5.826972005735683e-13 5.73107042932284e-13 9.590157641284302e-15
3.1510058709225794 7.44855939196064e-21 6.230041367872352e-13 6.129245862446472e-13 1.0079550542588098e-14
3.162844764501044 7.834942710002236e-21 6.577837419767618e-13 6.474510941937114e-13 1.0332647783050383e-14
3.1747281389236908 8.271905363424077e-21 6.970782488529717e-13 6.864874733093822e-13 1.0590775543589482e-14
3.1986289994194426 9.453417335763407e-21 8.026424673908214e-13 7.91518756489921e-13 1.1123710900900119e-14
3.2227097969389145 1.2181632252695997e-20 1.0420681373561463e-12 1.0303801455691055e-12 1.1687991787040732e-14
3.2348180950136065 1.4738662858351392e-20 1.2655443856481201e-12 1.2535553709896886e-12 1.1989014658432032e-14
3.240889293275058 1.6648045145337876e-20 1.4321775906403256e-12 1.420029793772796e-12 1.2147796867529387e-14
3.2469718861334385 1.8860626078188264e-20 1.6255639762040782e-12 1.6132518869663519e-12 1.2312089237726221e-14
3.2714166318528037 3.046862893687207e-20 2.64580724969852e-12 2.6328165771267606e-12 1.2990672571759673e-14
3.2744851364798273 3.11944918806338e-20 2.711379901037389e-12 2.698309357956857e-12 1.3070543080531648e-14
3.2775565192852394 3.193974210224491e-20 2.7787599301356737e-12 2.765609126430308e-12 1.3150803705365504e-14
3.283707930232385 3.1226565641069777e-20 2.7218123300796776e-12 2.7085181941609167e-12 1.3294135918761026e-14
3.2898708863219004 2.895575248719652e-20 2.528617520151786e-12 2.5151931275239454e-12 1.3424392627840843e-14
3.29141343181113 2.841910582325561e-20 2.4829174421138655e-12 2.4694603460446086e-12 1.3457096069256129e-14
3.292184975758714 2.815524716329857e-20 2.4604412861825843e-12 2.446967817482192e-12 1.3473468700393558e-14
3.295272960557952 2.6509437015146e-20 2.3187895392041316e-12 2.3052524187472075e-12 1.3537120456923664e-14
3.3076538914384823 2.0765133089390376e-20 1.8231575961654034e-12 1.809364911655063e-12 1.3792684510340327e-14
3.310756385682612 1.9583996013687505e-20 1.7210677649935981e-12 1.7072106824239431e-12 1.385708256965464e-14
3.313861789986515 1.8489516199507105e-20 1.6264075137956992e-12 1.6124858300883768e-12 1.3921683707322482e-14
3.3200813396944477 1.6961575922223313e-20 1.494804365322166e-12 1.4807436456454507e-12 1.4060719676714912e-14
3.345076488085796 1.4297831321835157e-20 1.2695378544349818e-12 1.2548573081724051e-12 1.4680546262576722e-14
3.3482140837626964 1.4407443138409198e-20 1.280470466625379e-12 1.2657059456995913e-12 1.4764520925787805e-14
3.3513546224236106 1.4518042977866807e-20 1.291510364412338e-12 1.2766615004815235e-12 1.484886393081393e-14
3.3576445397418455 1.5288931175131595e-20 1.362640447139881e-12 1.3476152093267836e-12 1.5025237813097312e-14
3.3702598118196083 1.807803673555623e-20 1.6172757675531849e-12 1.6018805955646143e-12 1.5395171988570072e-14
3.382922481734668 1.8747396488896175e-20 1.6834586119047781e-12 1.6677041547160063e-12 1.5754457188771614e-14
3.389271646505754 1.909239298157245e-20 1.7176559433663797e-12 1.701719433153459e-12 1.5936510212920724e-14
3.395632727569191 1.947175103384776e-20 1.7550728654152282e-12 1.7389487385787248e-12 1.612412683650324e-14
3.421196662673239 2.1310246076465034e-20 1.9352449259421217e-12 1.9183444631769434e-12 1.690046276517785e-14
3.4276182099114902 2.0982145600343412e-20 1.909025681578167e-12 1.891952277628183e-12 1.7073403949983908e-14
3.4340518103208963 1.9484759866098648e-20 1.7761160305098192e-12 1.7588792056473474e-12 1.723682486247137e-14
3.4469541582030403 1.7337384711026592e-20 1.5863116979595877e-12 1.5687615145302721e-12 1.7550183429316012e-14
3.472904465399547 1.675023787088106e-20 1.544127823528343e-12 1.5258553382455628e-12 1.8272485282779843e-14
3.4990501388274233 1.5857463389883916e-20 1.4728323549534235e-12 1.453821422907982e-12 1.9010932045441123e-14
3.5253949054701885 1.2666078390521623e-20 1.1852756901857911e-12 1.1655484738737748e-12 1.972721631201646e-14
3.5519380250092896 9.62890375873536e-21 9.078449006540489e-13 8.873986541461015e-13 2.044624650794759e-14
3.578680990867387 8.453040433583699e-21 8.029811786772804e-13 7.817469786119609e-13 2.123420006531959e-14
3.605625307711299 8.009767041768819e-21 7.666019357267406e-13 7.445384279096959e-13 2.2063507817044904e-14
3.660119384959845 7.750619463264574e-21 7.530106160628999e-13 7.292073512697289e-13 2.380326479317115e-14
3.715437065384467 7.586266159538088e-21 7.481822797325793e-13 7.22548715663651e-13 2.563356406892839e-14
3.8285932144167436 7.637922306387182e-21 7.762183309797206e-13 7.466642132740623e-13 2.955411770565803e-14
3.94519561050918 7.78402934914158e-21 8.151592086688905e-13 7.813498394620486e-13 3.380936920684167e-14
4.06534921144712 7.962164107820872e-21 8.59208203335271e-13 8.208188171019207e-13 3.838938623335013e-14
4.189162171576248 8.153620664012449e-21 9.066655383581041e-13 8.633679955283005e-13 4.32975428298034e-14
4.316745939156006 8.350199177749044e-21 9.568035038239575e-13 9.082940137469822e-13 4.850949007697561e-14
4.448215356677963 8.547820495870155e-21 1.0092775929408895e-12 9.553317116911675e-13 5.394588124972219e-14
4.58368876423945 8.745459944804044e-21 1.0640626744036167e-12 1.0044551653014727e-12 5.960750910214374e-14
4.723288106065518 8.944045260422943e-21 1.121367224486815e-12 1.05584303395948e-12 6.552419052733515e-14
4.867139040275056 9.144706837026414e-21 1.181443543774665e-12 1.109916008735224e-12 7.152753503944094e-14
4.940699165968905 9.250823171022876e-21 1.2132162635284345e-12 1.1386375072776041e-12 7.457875625083038e-14
5.015371051989984 9.353523706328808e-21 1.2452247763062999e-12 1.1675723515334398e-12 7.765242477286029e-14
5.091171501069577 9.468990177874077e-21 1.279648895107886e-12 1.1988321285806505e-12 8.081676652723498e-14
5.129500256944802 9.525263436982786e-21 1.2969447772465558e-12 1.2145413106311978e-12 8.240346661535816e-14
5.168117569889187 9.582028519512234e-21 1.3144960248041117e-12 1.2304865226541676e-12 8.400950214994436e-14
5.20702561229733 9.650551443320189e-21 1.333863157344795e-12 1.248094275183897e-12 8.576888216089826e-14
5.246226572918644 9.718479872847942e-21 1.3533646095214923e-12 1.2658289659668449e-12 8.753564355464754e-14
5.265937586045735 9.752224684052851e-21 1.3631662936656193e-12 1.274744765528211e-12 8.842152813740809e-14
5.285722656980489 9.785825354367095e-21 1.3730023028285237e-12 1.2836933633295092e-12 8.930893949901436e-14
5.305582063971359 9.819283636313516e-21 1.3828729274040508e-12 1.2926751575780586e-12 9.019776982599239e-14
5.3255160863122235 9.854902227222085e-21 1.3931037260539197e-12 1.3020082335279864e-12 9.109549252593338e-14
5.365609099470188 9.943545667175566e-21 1.416216779120661e-12 1.3232635241238144e-12 9.295325499684661e-14
5.406003951863644 1.0032610236225654e-20 1.439659317196073e-12 1.3448411487436928e-12 9.481816845238012e-14
5.446702915881641 1.0122175499605662e-20 1.4634469496801592e-12 1.3667575811355507e-12 9.668936854460824e-14
5.487708281020852 1.0216690551671755e-20 1.4882321740941084e-12 1.3896576173035028e-12 9.857455679060529e-14
5.529022354014368 1.035070547386406e-20 1.5191047786660445e-12 1.418565214052594e-12 1.0053956461345006e-13
5.570647458961463 1.0488364151635052e-20 1.5508966765398689e-12 1.4483850020547936e-12 1.0251167448507471e-13
5.612585937458331 1.0630027616369756e-20 1.5836778029938089e-12 1.4791877971192593e-12 1.0449000587454975e-13
5.654840148729818 1.0782639828704836e-20 1.6185080529454337e-12 1.5120238769052232e-12 1.0648417604021085e-13
5.67608639626678 1.088978672857116e-20 1.640732590385554e-12 1.533203896905575e-12 1.0752869347997893e-13
5.686739436050992 1.094442467753987e-20 1.652059555461585e-12 1.5440078532876402e-12 1.0805170217394476e-13
5.6974124697621304 1.0999797475792846e-20 1.6635343922171459e-12 1.5549591999741213e-12 1.0857519224302424e-13
5.718818669136295 1.1112826089715935e-20 1.686942490099923e-12 1.5773189297003233e-12 1.0962356039959963e-13
5.740305295436557 1.1237200538172408e-20 1.7122317862456627e-12 1.601549740879537e-12 1.1068204536612605e-13
5.7835210386641895 1.1564184595179962e-20 1.7753205014654753e-12 1.6624514887794389e-12 1.1286901268603608e-13
5.827062130521658 1.1933193158399851e-20 1.845762219412379e-12 1.7306771090190378e-12 1.1508511039334122e-13
5.8489554468988025 1.2198485342056225e-20 1.8938852206958164e-12 1.777599504372043e-12 1.1628571632377332e-13
5.870931020387893 1.2478936515415048e-20 1.9447061431449126e-12 1.827216088572722e-12 1.1749005457219014e-13
5.892989160043636 1.2775753013086804e-20 1.9984421568230204e-12 1.8797441427853983e-12 1.1869801403762183e-13
5.915130176081913 1.3112338564100039e-20 2.0587987413808517e-12 1.9388473237337255e-12 1.1995141764712656e-13
5.95966208400165 1.4064967288902262e-20 2.2249988723803696e-12 2.102168300158004e-12 1.228305722223655e-13
6.004529249263818 1.5433125348454888e-20 2.459814069932972e-12 2.333730632386929e-12 1.260834375460434e-13
6.027089341400364 1.6386247551550097e-20 2.6215405141141477e-12 2.493566026866758e-12 1.2797448724738902e-13
6.049734195844842 1.7502342023893267e-20 2.8106184521321807e-12 2.6806383634832597e-12 1.2998008864892135e-13
6.095279466722835 2.0725907445218033e-20 3.353332438772676e-12 3.218383211863698e-12 1.349492269089787e-13
6.141167624020661 2.5643816602797477e-20 4.180257617984441e-12 4.0388103944111466e-12 1.4144722357329558e-13
6.164241091010745 2.8777511570947684e-20 4.708713713335787e-12 4.563164718040097e-12 1.4554899529568979e-13
6.187401249150058 3.2299544064222487e-20 5.304862182539173e-12 5.155105800629725e-12 1.4975638190944702e-13
6.1990139391386085 3.4009228655950744e-20 5.5961433143071084e-12 5.444246935990219e-12 1.5189637831688898e-13
6.204828454712694 3.4905823852979654e-20 5.749063490218329e-12 5.596086701900084e-12 1.5297678831824544e-13
6.210648424152782 3.5553095117958074e-20 5.861162913573374e-12 5.707270849718724e-12 1.5389206385465011e-13
6.233982942956859 3.771778050271363e-20 6.24138785486844e-12 6.084326879794658e-12 1.5706097507378172e-13
6.239830258556775 3.797468035253765e-20 6.289792752417608e-12 6.132308758786043e-12 1.574839936315644e-13
6.245683058788269 3.79657291898018e-20 6.294208433517807e-12 6.136300916368737e-12 1.5790751714907193e-13
6.257405133728602 3.783435451316405e-20 6.284200546182085e-12 6.125561491246321e-12 1.5863905493576152e-13
6.269149208991335 3.731821395497616e-20 6.210104234698092e-12 6.0512436415106996e-12 1.5886059318739216e-13
6.280915325867298 3.613083409183126e-20 6.023797434786999e-12 5.865345326361183e-12 1.5845210842581464e-13
6.304513850009849 3.3247435764829223e-20 5.5638984113220036e-12 5.4068323890097755e-12 1.5706602231222751e-13
6.32820103803542 2.973968334890264e-20 4.995581409683086e-12 4.840506905940928e-12 1.5507450374216066e-13
6.3519772230701035 2.6541152580321786e-20 4.47505259438965e-12 4.321776048382282e-12 1.532765460073674e-13
6.375842739491607 2.3843125484756015e-20 4.0352478437919875e-12 3.883570229988953e-12 1.5167761380303446e-13
6.399797922933955 2.1700245673905447e-20 3.686382067715117e-12 3.535586985592098e-12 1.5079508212301978e-13
6.42384311029221 1.9910434768599715e-20 3.395041615735835e-12 3.2449858727160137e-12 1.5005574301982137e-13
6.447978639727206 1.860799331248131e-20 3.1848762661155426e-12 3.035002498472475e-12 1.4987376764306737e-13
6.472204850670314 1.7517069581631562e-20 3.0094223550521385e-12 2.859620368050927e-12 1.4980198700121245e-13
