Dust emission spectrum from A.P. Jones, M. Kohler, N. Ysard, M. Bocchio, and L. Verstraete (2017), A&A, 602A, 46J 
inside the DustPedia framework.

lambda    nu*dP/dnu     j_nu    j_nu(carb.) j_nu(sil)
 (um)   (erg s-1 H-1) (Jy cm2 sr-1 H-1)
0.9927057738263894 2.783148584472054e-25 7.333754599767601e-18 7.333754585750522e-18 1.4017078853623845e-26
1.0001793341362166 2.8292303369241103e-25 7.511308788773359e-18 7.511308771894446e-18 1.68789146667708e-26
1.0077091589558085 2.875275894151434e-25 7.69102392222354e-18 7.691023901925021e-18 2.0298518149474428e-26
1.0114953028030835 2.8982798472849543e-25 7.781684528646399e-18 7.781684506397372e-18 2.224902858557071e-26
1.0152956718711033 2.9212684685625047e-25 7.872876502161305e-18 7.87287647778233e-18 2.4378974872189524e-26
1.0229392996569957 2.9671688856338615e-25 8.05678108019395e-18 8.056781050952267e-18 2.924168510039453e-26
1.0267826658714554 2.9900254329393045e-25 8.149347624420502e-18 8.149347592409628e-18 3.2010873229603234e-26
1.0306404723013447 3.0128572455627446e-25 8.242428346181965e-18 8.242428311151159e-18 3.5030804623645044e-26
1.03451277320114 3.0356622983554325e-25 8.336019987126695e-18 8.336019948803638e-18 3.832305646655847e-26
1.0383996230291617 3.0584385792998734e-25 8.430119250611116e-18 8.43011920870016e-18 4.1910958281518946e-26
1.0403485208654093 3.0698153052714984e-25 8.477358200412726e-18 8.477358156589144e-18 4.3823580141859086e-26
1.0423010764483396 3.081184089945532e-25 8.524722802832324e-18 8.524722757012599e-18 4.581972509790016e-26
1.0462171883269815 3.1038968458364267e-25 8.61982727396717e-18 8.61982722389057e-18 5.007659998331679e-26
1.0471985131304309 3.1095696856917913e-25 8.643681262092936e-18 8.643681210894328e-18 5.1198608473211516e-26
1.048180758391296 3.1152403245363543e-25 8.667566291489887e-18 8.667566239145205e-18 5.23446832663576e-26
1.0501480137395462 3.1265748769305044e-25 8.71542925931741e-18 8.715429204606402e-18 5.471100654072024e-26
1.0521189612883777 3.1379002590832607e-25 8.763415746602057e-18 8.763415689422444e-18 5.717961522142216e-26
1.0531058218030118 3.14355088116852e-25 8.787431262625205e-18 8.787431204171534e-18 5.845366729926846e-26
1.0540936079674168 3.149171093558656e-25 8.811399034000999e-18 8.811398974245833e-18 5.975516298144243e-26
1.058054026499678 3.1716263467295816e-25 8.907571031047993e-18 8.907570965803893e-18 6.524409736813207e-26
1.0590464539527713 3.177233611573638e-25 8.931688981428543e-18 8.931688914738583e-18 6.66899603200514e-26
1.06003981227728 3.1828381975203407e-25 8.955836801146595e-18 8.955836732980123e-18 6.816647048522335e-26
1.0620293250338977 3.194039214200234e-25 9.00422182547065e-18 9.004221754256738e-18 7.121391518150273e-26
1.0660195594769086 3.2164078007037014e-25 9.101347845617926e-18 9.101347767913375e-18 7.770455147585091e-26
1.070024785945596 3.2387302277428655e-25 9.198945491886362e-18 9.1989454071273e-18 8.475906212632765e-26
1.0740450607676866 3.2610046339544545e-25 9.297011137901802e-18 9.297011045477951e-18 9.242385124483717e-26
1.07808044048254 3.28322917546473e-25 9.39554113170489e-18 9.395541030955978e-18 1.0074891386182916e-25
1.0861967418109137 3.327482738321539e-25 9.593868026135572e-18 9.593867906536191e-18 1.1959937972248925e-25
1.0902777775684922 3.3494202944333847e-25 9.693402373706804e-18 9.693402243461618e-18 1.3024518301424707e-25
1.0943741465085532 3.371299255608801e-25 9.793379013170908e-18 9.793378871378308e-18 1.4179259855727983e-25
1.1026131145906286 3.4148744499224455e-25 9.994643963119883e-18 9.994643795233422e-18 1.6788646073830716e-25
1.1109141095355224 3.4581946341001253e-25 1.019763229892492e-17 1.0197632100399038e-17 1.9852588202430205e-25
1.1192775983109025 3.5012070148146454e-25 1.0402196050328423e-17 1.0402195815873168e-17 2.3445525711601076e-25
1.1277040513999907 3.5437174175566905e-25 1.0607759306846753e-17 1.0607759030314123e-17 2.7653262972058153e-25
1.1361939428280308 3.585928075047933e-25 1.0814924131927837e-17 1.0814923806182214e-17 3.2574562310088964e-25
1.1447477501889525 3.6278267495013707e-25 1.1023658997349099e-17 1.1023658614119545e-17 3.8322955449860496e-25
1.1533659546722406 3.6694233534329082e-25 1.1233999011757857e-17 1.1233998561469458e-17 4.502883988184111e-25
1.1707974979042381 3.7518435757116547e-25 1.1659929965834955e-17 1.1659929346502286e-17 6.193326707114441e-25
1.1884924949847024 3.8329034213392075e-25 1.2091877896428159e-17 1.2091877048824495e-17 8.476036621677796e-25
1.2064549276569216 3.9132250563784616e-25 1.253185497316614e-17 1.2531853818842068e-17 1.1543240715268476e-24
1.2246888378427687 3.991981274459233e-25 1.2977280386022571e-17 1.297727882163657e-17 1.5643860010258505e-24
1.2431983285522175 4.069005239372443e-25 1.3427590856639053e-17 1.3427588746727897e-17 2.1099111567312642e-24
1.2619875648066055 4.144289255048788e-25 1.388272012616773e-17 1.3882717294028887e-17 2.8321388466585432e-24
1.3004222497298317 4.288507640506736e-25 1.480335018067842e-17 1.4803345149211512e-17 5.03146690732653e-24
1.3400274889804893 4.424236793247395e-25 1.573698401446002e-17 1.5736975238659865e-17 8.775800156977955e-24
1.3808389325824078 4.551154923443676e-25 1.668146066813085e-17 1.6681445633512255e-17 1.503461859693598e-23
1.4228933163050095 4.6699782262468695e-25 1.7638296064781348e-17 1.7638270752854957e-17 2.531192639426372e-23
1.466228494730424 4.7834259440960965e-25 1.8617019047972607e-17 1.861697714919931e-17 4.1898773295911255e-23
1.5108834753276823 4.88976411984643e-25 1.9610484059642507e-17 1.9610415839673564e-17 6.821996893811541e-23
1.5568984535646726 4.987621744569729e-25 2.0612146948653058e-17 2.0612037575799663e-17 1.093728533916625e-22
1.6043148490894465 5.077333242763421e-25 2.1621942339310635e-17 2.162176935902507e-17 1.729802855673974e-22
1.6531753430134553 5.159308925432983e-25 2.2640180515711464e-17 2.2639910947464817e-17 2.695682466457379e-22
1.7035239163302658 5.234429181693045e-25 2.3669386244534393e-17 2.3668972216996056e-17 4.140275383313204e-22
1.755405889504358 5.3069063251031e-25 2.4727966625598457e-17 2.4727339585572917e-17 6.270400255369636e-22
1.8088679632656115 5.375942819479584e-25 2.5812551820285686e-17 2.5811615076964144e-17 9.36743321538189e-22
1.8639582606462262 5.441015448970551e-25 2.692065206863571e-17 2.6919271119721588e-17 1.380948914117223e-21
1.9207263702978936 5.502756001034966e-25 2.8055317511834305e-17 2.8053307817986364e-17 2.0096938479385208e-21
1.979223391128241 5.562426801112737e-25 2.922325292869789e-17 2.9220364611339324e-17 2.888317358572791e-21
2.039501978296691 5.621466276112401e-25 3.043288841215801e-17 3.0428787528377e-17 4.100883781004967e-21
2.1016163906111602 5.68378700277512e-25 3.170740314473531e-17 3.1701648655311696e-17 5.754489423626382e-21
2.1656225393682647 5.751646870759405e-25 3.3063163904561935e-17 3.305518060633027e-17 7.98329823165825e-21
2.231578038680979 5.82513693397068e-25 3.450544644180204e-17 3.449449328559607e-17 1.0953156205973241e-20
2.299542257339062 5.905530240530994e-25 3.604704971922253e-17 3.603218316070833e-17 1.4866558514182634e-20
2.369576372248914 5.995621314272399e-25 3.771154615274552e-17 3.769157807065913e-17 1.9968082086395557e-20
2.4417434235010123 6.098692809118038e-25 3.952812536315323e-17 3.950157638316791e-17 2.654897998532406e-20
2.5161083711144245 6.220434124411308e-25 4.154506768668977e-17 4.151011462665613e-17 3.49530600336344e-20
2.5927381535095444 6.370167822757205e-25 4.3840849987765675e-17 4.379526887311531e-17 4.558111465036534e-20
2.6717017477616296 6.5587410233410345e-25 4.6513379011520164e-17 4.645448668563556e-17 5.889232588460646e-20
2.753070231689431 6.802462790000379e-25 4.971104564757964e-17 4.963563847389253e-17 7.540717368711754e-20
2.836916847834745 7.138799780890249e-25 5.375776954508774e-17 5.36620574106738e-17 9.571213441392842e-20
2.9233170693905177 7.65034507151042e-25 5.936444064924841e-17 5.924400257173919e-17 1.20438077509216e-19
2.967498994190263 8.053400110555019e-25 6.343651114316002e-17 6.33020726426854e-17 1.3443850047460017e-19
3.0123486681368425 8.516523381739319e-25 6.809841669070273e-17 6.794855006584564e-17 1.4986662485708267e-19
3.0578761833420214 9.496011887528226e-25 7.707802518140586e-17 7.691113480000444e-17 1.6689038140141655e-19
3.1040917844459814 1.0741658348853405e-24 8.850653170330824e-17 8.832104122662405e-17 1.854904766841926e-19
3.127460860933648 1.2034046225349539e-24 9.990172604537745e-17 9.970624705650359e-17 1.95478988873865e-19
3.1510058709225794 1.3745894998810746e-24 1.1497188915946708e-16 1.1476597686675031e-16 2.0591229271676658e-19
3.162844764501044 1.5332035498762365e-24 1.2872032452287806e-16 1.2850900461391772e-16 2.1131990896031994e-19
3.1747281389236908 1.717125495054313e-24 1.4470315853054897e-16 1.4448631518817994e-16 2.168433423690168e-19
3.1986289994194426 2.228462235816977e-24 1.8920760227909287e-16 1.8897932961627675e-16 2.2827266281619033e-19
3.2227097969389145 3.430888602378379e-24 2.934926634782965e-16 2.9325225716922847e-16 2.4040630906794675e-19
3.2348180950136065 4.5697571611274925e-24 3.9238501990451806e-16 3.9213813253037454e-16 2.468873741436166e-19
3.240889293275058 5.4210790872456516e-24 4.663579368065536e-16 4.661076307081624e-16 2.503060983912848e-19
3.2469718861334385 6.406113657642046e-24 5.521315965950251e-16 5.518777529767207e-16 2.538436183044873e-19
3.2714166318528037 1.1652561531239194e-23 1.011874601931984e-15 1.0116061207875216e-15 2.684811444624344e-19
3.2744851364798273 1.1980701353373928e-23 1.0413451507455522e-15 1.0410749393481682e-15 2.702113973840036e-19
3.2775565192852394 1.2318207150158378e-23 1.0716849350378762e-15 1.0714129842446038e-15 2.7195079327224374e-19
3.283707930232385 1.1994467519192196e-23 1.0454780702345303e-15 1.0452029982348178e-15 2.750719997125762e-19
3.2898708863219004 1.0966333605457754e-23 9.576564552708869e-16 9.5737853300914e-16 2.779222617469084e-19
3.29141343181113 1.0723822379523346e-23 9.36917783333666e-16 9.366391450952308e-16 2.786382384353225e-19
3.292184975758714 1.0604653233836556e-23 9.267234093470572e-16 9.264444126077078e-16 2.789967393493856e-19
3.295272960557952 9.853160356504622e-24 8.618593125802725e-16 8.615789194959649e-16 2.8039308430779297e-19
3.3076538914384823 7.247817132211807e-24 6.363509833202634e-16 6.360649767659733e-16 2.860065542900177e-19
3.310756385682612 6.717029695325699e-24 5.90301554241028e-16 5.90014131712515e-16 2.874225285128014e-19
3.313861789986515 6.227087340109126e-24 5.477580662324491e-16 5.47469222671574e-16 2.8884356087510477e-19
3.3200813396944477 5.540349383482395e-24 4.882646802287158e-16 4.879727846638816e-16 2.9189556483422243e-19
3.345076488085796 4.318349828295571e-24 3.8343637243374356e-16 3.831308872036259e-16 3.0548523011769473e-19
3.3482140837626964 4.364745820493627e-24 3.879194985381529e-16 3.8761217279623823e-16 3.073257419148253e-19
3.3513546224236106 4.411645762299761e-24 3.9245552825626733e-16 3.921463531517443e-16 3.091751045230839e-19
3.3576445397418455 4.75219879293375e-24 4.2354421077084293e-16 4.2323117079373933e-16 3.1303997710361023e-19
3.3702598118196083 6.005655593307933e-24 5.372707999991968e-16 5.369496520951461e-16 3.2114790405068216e-19
3.382922481734668 6.29311497205499e-24 5.651023917741148e-16 5.647733434869692e-16 3.290482871454342e-19
3.389271646505754 6.441969235003238e-24 5.795547343995307e-16 5.792216777856479e-16 3.3305661388258757e-19
3.395632727569191 6.6026884224145045e-24 5.951287723855548e-16 5.947915847878122e-16 3.3718759774268905e-19
3.421196662673239 7.375080621996672e-24 6.697523482798129e-16 6.693980381551976e-16 3.543101246152361e-19
3.4276182099114902 7.221927467851647e-24 6.57075080367278e-16 6.567169276327106e-16 3.581527345673931e-19
3.4340518103208963 6.546862176829171e-24 5.967734240356807e-16 5.964116264565584e-16 3.6179757912236986e-19
3.4469541582030403 5.584888128207826e-24 5.109982570749055e-16 5.106294424406861e-16 3.688146342193038e-19
3.472904465399547 5.316960508604735e-24 4.901462726216277e-16 4.897613236877913e-16 3.8494893383653873e-19
3.4990501388274233 4.9066724084438544e-24 4.557289965382193e-16 4.553274878267325e-16 4.0150871148682174e-19
3.5253949054701885 3.442501939092223e-24 3.2214500305610546e-16 3.2172732844027797e-16 4.176746158274908e-19
3.5519380250092896 2.0642791549945808e-24 1.9462706776855488e-16 1.9419308120829422e-16 4.3398656026062e-19
3.578680990867387 1.5193703062313094e-24 1.4432981468984206e-16 1.4387793869010737e-16 4.518759997347061e-19
3.605625307711299 1.300779882150165e-24 1.2449555279331918e-16 1.240247960057595e-16 4.707567875596673e-19
3.660119384959845 1.1450522055786027e-24 1.112474262004021e-16 1.1073682595298835e-16 5.106002474137676e-19
3.715437065384467 1.036024653877485e-24 1.0217612605413909e-16 1.0162326429605291e-16 5.528617580861507e-19
3.8285932144167436 9.89072204421968e-25 1.0051633741977665e-16 9.987173396557115e-17 6.446034542055196e-19
3.94519561050918 9.889858704665253e-25 1.0356858940198005e-16 1.0282255483183327e-16 7.460345701467927e-19
4.06534921144712 1.008105617254556e-24 1.0878607931764172e-16 1.0792868243506935e-16 8.573968825723804e-19
4.189162171576248 1.0383142779041634e-24 1.1545837273445264e-16 1.144791093661392e-16 9.792633683134653e-19
4.316745939156006 1.0765465466210665e-24 1.2335556145551565e-16 1.2224394836606154e-16 1.1116130894541026e-18
4.448215356677963 1.1217394254368178e-24 1.3244855431378792e-16 1.3119543237505669e-16 1.2531219387312103e-18
4.58368876423945 1.173976157627636e-24 1.4283802314062672e-16 1.4143364366032335e-16 1.4043794803033525e-18
4.723288106065518 1.2341886545771535e-24 1.5473744438664143e-16 1.5317070423007455e-16 1.5667401565668634e-18
4.867139040275056 1.3042283630488585e-24 1.6849880554868828e-16 1.6676202735485507e-16 1.7367781938332635e-18
4.940699165968905 1.3453733067752023e-24 1.7644146322129164e-16 1.746161718431519e-16 1.8252913781397215e-18
5.015371051989984 1.3876634554762345e-24 1.8473817677552353e-16 1.828222176169103e-16 1.9159591586132694e-18
5.091171501069577 1.4382296680601313e-24 1.9436380976981132e-16 1.9235319905286754e-16 2.010610716943851e-18
5.129500256944802 1.4640450662921998e-24 1.9934205651562677e-16 1.9728334194867632e-16 2.0587145669504697e-18
5.168117569889187 1.4908272800040893e-24 2.0451687544493531e-16 2.02409140955722e-16 2.107734489213339e-18
5.20702561229733 1.5232775854488318e-24 2.105417355239025e-16 2.0838087069903697e-16 2.160864824865583e-18
5.246226572918644 1.55643063358845e-24 2.1674358173635325e-16 2.1452890349624769e-16 2.2146782401055955e-18
5.265937586045735 1.5732776478846333e-24 2.1991280242761853e-16 2.176709641760594e-16 2.2418382515590816e-18
5.285722656980489 1.5903088306808374e-24 2.2312861794114314e-16 2.2085945238003233e-16 2.2691655611107595e-18
5.305582063971359 1.6075271463648251e-24 2.2639184823564137e-16 2.2409518927625223e-16 2.2966589593891504e-18
5.3255160863122235 1.6259548314790008e-24 2.298474081124664e-16 2.275229059635753e-16 2.324502148891084e-18
5.365609099470188 1.6714575809004074e-24 2.3805857094554547e-16 2.3567645018958355e-16 2.3821207559619905e-18
5.406003951863644 1.718506810942848e-24 2.4660225841381267e-16 2.4416178107145177e-16 2.44047734236092e-18
5.446702915881641 1.7671775096988397e-24 2.554955242786394e-16 2.529959611371938e-16 2.4995631414456316e-18
5.487708281020852 1.819543551084945e-24 2.6504700726665044e-16 2.6248742133280867e-16 2.559585933841742e-18
5.529022354014368 1.89183754921079e-24 2.776525202772582e-16 2.750302869157341e-16 2.6222333615241275e-18
5.570647458961463 1.9680834960458576e-24 2.910171795183768e-16 2.883314913139088e-16 2.685688204467961e-18
5.612585937458331 2.0485661012173984e-24 3.051985168380502e-16 3.024485744343591e-16 2.749942403691025e-18
5.654840148729818 2.1367123176418766e-24 3.207272196669925e-16 3.17911958948807e-16 2.815260718185393e-18
5.67608639626678 2.1966211703149825e-24 3.309585424121098e-16 3.2810913670321294e-16 2.849405708896873e-18
5.686739436050992 2.2274543237446045e-24 3.362339554904475e-16 3.3336739240662486e-16 2.8665630838226798e-18
5.6974124697621304 2.258891947062186e-24 3.416194207675126e-16 3.3873564386287875e-16 2.883776904633832e-18
5.718818669136295 2.3236387120908812e-24 3.5273159531351647e-16 3.4981322185960604e-16 2.9183734539103217e-18
5.740305295436557 2.394913960535115e-24 3.649172046562618e-16 3.6196378030993874e-16 2.95342434632304e-18
5.7835210386641895 2.579578476458338e-24 3.9601396161596783e-16 3.929879611182527e-16 3.0260004977150818e-18
5.827062130521658 2.7915677726077954e-24 4.3178470835207324e-16 4.28684580133926e-16 3.100128218147193e-18
5.8489554468988025 2.9403546928900582e-24 4.56507028562727e-16 4.533670129692451e-16 3.140015593481921e-18
5.870931020387893 3.099671999488887e-24 4.83050071750431e-16 4.798698567593981e-16 3.1802149910328796e-18
5.892989160043636 3.270362626260479e-24 5.115651917912498e-16 5.083444654712796e-16 3.2207263199701862e-18
5.915130176081913 3.464299016888165e-24 5.439376371247473e-16 5.4067495152557e-16 3.2626855991773215e-18
5.95966208400165 4.006615660247373e-24 6.338241065904183e-16 6.304666697583036e-16 3.357436832114667e-18
6.004529249263818 4.7872039416556646e-24 7.630101710086948e-16 7.595465435753327e-16 3.4636274333620095e-18
6.027089341400364 5.329670389908447e-24 8.526629913324986e-16 8.491384396807167e-16 3.524551651781784e-18
6.049734195844842 5.969846597735226e-24 9.5866947298181e-16 9.55080462444176e-16 3.589010537634338e-18
6.095279466722835 7.818596637052305e-24 1.2650038990092885e-15 1.2612579570031333e-15 3.745942006155102e-18
6.141167624020661 1.0660567386109088e-23 1.7378036474866046e-15 1.733855887862265e-15 3.947759624339774e-18
6.164241091010745 1.2475675334857645e-23 2.041329507853437e-15 2.0372559886834687e-15 4.073519169967666e-18
6.187401249150058 1.4540122526936844e-23 2.3880630008047737e-15 2.3838600838124366e-15 4.202916992337156e-18
6.1990139391386085 1.5547973240280284e-23 2.5583845896603724e-15 2.554115775760161e-15 4.268813900211266e-18
6.204828454712694 1.6078589095665797e-23 2.6481778494457203e-15 2.6438757240529455e-15 4.302125392774339e-18
6.210648424152782 1.6465888233444507e-23 2.7145105969736447e-15 2.710179874214921e-15 4.330722758724182e-18
6.233982942956859 1.778056145775166e-23 2.942256380307661e-15 2.9378250285995e-15 4.4313517081612345e-18
6.239830258556775 1.7948013233701306e-23 2.972751383543536e-15 2.9683053763276458e-15 4.446007215889472e-18
6.245683058788269 1.796165291075469e-23 2.9778010232754868e-15 2.973340326773733e-15 4.460696501753568e-18
6.257405133728602 1.7923514950291825e-23 2.977055215807541e-15 2.972568400001315e-15 4.4868158062265135e-18
6.269149208991335 1.7662494477262614e-23 2.939206358613908e-15 2.9347079816240763e-15 4.4983769898319854e-18
6.280915325867298 1.7010902150129084e-23 2.8360881034442403e-15 2.831596200518797e-15 4.491902925443056e-18
6.304513850009849 1.5405215297423378e-23 2.5780349957117254e-15 2.573572397105736e-15 4.46259860598921e-18
6.32820103803542 1.3417304455917428e-23 2.2537979278959735e-15 2.249382037225695e-15 4.415890670279018e-18
6.3519772230701035 1.1594879691330934e-23 1.9549903225678702e-15 1.9506156248979973e-15 4.374697669873015e-18
6.375842739491607 1.0060832986716899e-23 1.7027111081706448e-15 1.6983719798108135e-15 4.339128359831645e-18
6.399797922933955 8.832901543640652e-24 1.500510655302176e-15 1.4961863052703054e-15 4.3243500318707444e-18
6.42384311029221 7.811230124043928e-24 1.3319373308232187e-15 1.327623625505101e-15 4.313705318117607e-18
6.447978639727206 7.067317281080782e-24 1.2096162490839256e-15 1.2052968868600467e-15 4.3193622238785735e-18
6.472204850670314 6.4472082865702866e-24 1.1076266298346717e-15 1.103298332490512e-15 4.328297344159474e-18
6.496522083828205 6.0444648650319815e-24 1.042337132888796e-15 1.0379866103293302e-15 4.350522559465668e-18
