Dust emission spectrum from A.P. Jones, M. Kohler, N. Ysard, M. Bocchio, and L. Verstraete (2017), A&A, 602A, 46J 
inside the DustPedia framework.

lambda    nu*dP/dnu     j_nu    j_nu(carb.) j_nu(sil)
 (um)   (erg s-1 H-1) (Jy cm2 sr-1 H-1)
0.9927057738263894 1.5551389978664273e-21 4.0978795895097165e-14 4.097879465459364e-14 1.2405035322561997e-21
1.0001793341362166 1.5813214252966002e-21 4.1982419616705014e-14 4.1982418123614934e-14 1.4930900748166724e-21
1.0077091589558085 1.6075960894132235e-21 4.300129947912028e-14 4.300129768439488e-14 1.7947253984394664e-21
1.0114953028030835 1.6207666055469303e-21 4.351648247751581e-14 4.351648051081788e-14 1.9666979119267994e-21
1.0152956718711033 1.6339585142674692e-21 4.4035506256680466e-14 4.403550410224777e-14 2.15443271044188e-21
1.0229392996569957 1.660391542854064e-21 4.5084764918337014e-14 4.5084762335506844e-14 2.5828301751238234e-21
1.0267826658714554 1.673602513070345e-21 4.561422292219966e-14 4.5614220095521783e-14 2.8266778789507534e-21
1.0306404723013447 1.6868321256674977e-21 4.614753303804555e-14 4.614752994552626e-14 3.092519295793863e-21
1.03451277320114 1.700079888035421e-21 4.6684705126960254e-14 4.668470174472228e-14 3.3822379699852848e-21
1.0383996230291617 1.713345319281968e-21 4.7225749298289866e-14 4.7225745600420343e-14 3.697869523389836e-21
1.0403485208654093 1.719984513736955e-21 4.7497726645223406e-14 4.749772277914026e-14 3.8660831531159114e-21
1.0423010764483396 1.7266279505452628e-21 4.777067592310279e-14 4.777067188148967e-14 4.0416131305913495e-21
1.0462171883269815 1.739927325304029e-21 4.83194956478486e-14 4.83194912320048e-14 4.415843794005886e-21
1.0471985131304309 1.7432547328662753e-21 4.8457310150870015e-14 4.845730563640884e-14 4.514461177700562e-21
1.048180758391296 1.7465831522815942e-21 4.859536882841679e-14 4.8595364213231524e-14 4.615185249831341e-21
1.0501480137395462 1.753242999685797e-21 4.887221940821172e-14 4.887221458508625e-14 4.823125469603383e-21
1.0521189612883777 1.7599068140591533e-21 4.9150048801691445e-14 4.9150043761674666e-14 5.040016773415319e-21
1.0531058218030118 1.763235723805628e-21 4.9289206087186405e-14 4.9289200935246046e-14 5.151940360487675e-21
1.0540936079674168 1.7665509657517577e-21 4.9428198756736255e-14 4.9428193490470886e-14 5.266265352555276e-21
1.058054026499678 1.7798209298425292e-21 4.9986598741260676e-14 4.998659299294608e-14 5.7483146011302565e-21
1.0590464539527713 1.7831406387154843e-21 5.012680697175554e-14 5.012680109648967e-14 5.8752658576451405e-21
1.06003981227728 1.7864612224284486e-21 5.026725886383606e-14 5.0267252858939344e-14 6.0048967057952246e-21
1.0620293250338977 1.793104990213693e-21 5.054889437944863e-14 5.054888810703547e-14 6.272413141677123e-21
1.0660195594769086 1.8064027612108006e-21 5.1115097642367416e-14 5.1115090800332736e-14 6.842034674591802e-21
1.070024785945596 1.8197138714903147e-21 5.168522086612616e-14 5.16852134052035e-14 7.460922647937835e-21
1.0740450607676866 1.8330379643103265e-21 5.225927676687861e-14 5.225926863376886e-14 8.133109763238307e-21
1.07808044048254 1.8463746978182078e-21 5.2837278456002545e-14 5.2837269593063765e-14 8.862938778132965e-21
1.0861967418109137 1.873064137970625e-21 5.4004578107118955e-14 5.40045675925394e-14 1.0514579556864473e-20
1.0902777775684922 1.8863692660933396e-21 5.4592540542094114e-14 5.4592529095256914e-14 1.1446837210774185e-20
1.0943741465085532 1.899685005409568e-21 5.518446703496183e-14 5.5184454577286906e-14 1.2457674917225302e-20
1.1026131145906286 1.926347297514909e-21 5.6380273038784596e-14 5.6380258298202466e-14 1.4740582114962756e-20
1.1109141095355224 1.9530491424340143e-21 5.75921228373986e-14 5.75921054182507e-14 1.7419147923011548e-20
1.1192775983109025 1.9797677372991026e-21 5.881952152603756e-14 5.881950096826636e-14 2.0557771178078032e-20
1.1277040513999907 2.006404290239936e-21 6.005968105031461e-14 6.005965681970541e-14 2.4230609179342993e-20
1.1361939428280308 2.0330733039916662e-21 6.131615882179627e-14 6.131613029885896e-14 2.852293731981067e-20
1.1447477501889525 2.059774085872718e-21 6.258911657608285e-14 6.258908304339795e-14 3.353268491036632e-20
1.1533659546722406 2.0865161587519542e-21 6.387903004843302e-14 6.387899067621641e-14 3.9372216609185715e-20
1.1707974979042381 2.1402053238052505e-21 6.651301869199841e-14 6.65129646176389e-14 5.407435949148782e-20
1.1884924949847024 2.194057431657223e-21 6.921717467141474e-14 6.921710077652494e-14 7.38948898036979e-20
1.2064549276569216 2.248440126660993e-21 7.20048685603575e-14 7.200476807792407e-14 1.004824334565998e-19
1.2246888378427687 2.3029829802469516e-21 7.486622257002218e-14 7.486608660269326e-14 1.3596732893827147e-19
1.2431983285522175 2.357635521802784e-21 7.780123964826594e-14 7.780105655558259e-14 1.8309268337402543e-19
1.2619875648066055 2.412470182266514e-21 8.081397386133124e-14 8.081372848869658e-14 2.4537263466017763e-19
1.3004222497298317 2.5223102517531066e-21 8.706674920743383e-14 8.70663147142598e-14 4.344931740326244e-19
1.3400274889804893 2.632786977255815e-21 9.364807651749142e-14 9.364732123303079e-14 7.552844606089375e-19
1.3808389325824078 2.7442639515676663e-21 1.0058618513563314e-13 1.0058489566215885e-13 1.2894734742960638e-18
1.4228933163050095 2.8576686192108274e-21 1.0793284833189489e-13 1.0793068509855972e-13 2.1632333351780132e-18
1.466228494730424 2.9750320973670135e-21 1.157877844714447e-13 1.1578421667196935e-13 3.567799475333274e-18
1.5108834753276823 3.0960527659264425e-21 1.2416773473301905e-13 1.241619471819544e-13 5.787551064654104e-18
1.5568984535646726 3.220580479193244e-21 1.33095654596039e-13 1.3308641093796725e-13 9.243658071799487e-18
1.6043148490894465 3.349366328916808e-21 1.426335483105933e-13 1.4261898510132574e-13 1.4563209267532494e-17
1.6531753430134553 3.4832111998848e-21 1.5285095635772889e-13 1.5282835047309765e-13 2.2605884631188333e-17
1.7035239163302658 3.6230756533186426e-21 1.6383061849703058e-13 1.6379603740079096e-13 3.4581096239640326e-17
1.755405889504358 3.771754699969966e-21 1.7574801330036573e-13 1.7569585477480744e-13 5.2158525558311e-17
1.8088679632656115 3.9292363582174306e-21 1.8866200872362753e-13 1.8858441368276936e-13 7.759504085818286e-17
1.8639582606462262 4.095456103331171e-21 2.026319348918756e-13 2.0251803160737823e-13 1.139032844974131e-16
1.9207263702978936 4.270943889376942e-21 2.1775031796641943e-13 2.175852759884704e-13 1.6504197794903943e-16
1.979223391128241 4.456493850117556e-21 2.341302665432279e-13 2.338941237482512e-13 2.361427949768331e-16
2.039501978296691 4.652802017488531e-21 2.518883822247462e-13 2.5155462530242263e-13 3.337569223235946e-16
2.1016163906111602 4.862008797991006e-21 2.7123055979381543e-13 2.7076439578494025e-13 4.661640088752279e-16
2.1656225393682647 5.085129611976839e-21 2.923171008489486e-13 2.9167345402432373e-13 6.436468246247888e-16
2.231578038680979 5.321571518008327e-21 3.1522555277630103e-13 3.1434675247487573e-13 8.788003014252931e-16
2.299542257339062 5.57148978682537e-21 3.400808414754245e-13 3.388939876224511e-13 1.1868538529732876e-15
2.369576372248914 5.8356034755311885e-21 3.6705058285243506e-13 3.654645689905685e-13 1.5860138618664619e-15
2.4417434235010123 6.114789317590649e-21 3.963245342569529e-13 3.942268129417277e-13 2.097721315225382e-15
2.5161083711144245 6.41106301221378e-21 4.281824089106666e-13 4.254354170330838e-13 2.7469918775827674e-15
2.5927381535095444 6.727957725235519e-21 4.630323620397368e-13 4.594697436296874e-13 3.562618410049457e-15
2.6717017477616296 7.068638116266955e-21 5.012947494452504e-13 4.967176269812358e-13 4.5771224640146804e-15
2.753070231689431 7.437923444366549e-21 5.435486577150212e-13 5.377218579911925e-13 5.826799723828709e-15
2.836916847834745 7.849038459719882e-21 5.91061261863171e-13 5.837093698082667e-13 7.351892054904585e-15
2.9233170693905177 8.331428016969209e-21 6.464944514446668e-13 6.372998897695476e-13 9.194561675119274e-15
2.967498994190263 8.627812175128982e-21 6.796114630779738e-13 6.693820078347949e-13 1.0229455243178674e-14
3.0123486681368425 8.946427406460883e-21 7.15359442004928e-13 7.039935510134966e-13 1.1365890991431587e-14
3.0578761833420214 9.462305495588516e-21 7.680443431426347e-13 7.554285792505512e-13 1.2615763892083372e-14
3.1040917844459814 1.0067720391562576e-20 8.295357989215786e-13 8.155603645305449e-13 1.3975434391034125e-14
3.127460860933648 1.0620689892000996e-20 8.816862027408197e-13 8.669829523356096e-13 1.470325040521008e-14
3.1510058709225794 1.1321948783321527e-20 9.469778728106285e-13 9.315161123096247e-13 1.5461760501003753e-14
3.162844764501044 1.1949705377368058e-20 1.003239233467573e-12 9.873849943719272e-13 1.585423909564596e-14
3.1747281389236908 1.2661019948637852e-20 1.0669514732982496e-12 1.0506968122496835e-12 1.6254661048565834e-14
3.1986289994194426 1.4586449126058252e-20 1.2384625687388668e-12 1.221380754013542e-12 1.708181472532533e-14
3.2227097969389145 1.902442220068211e-20 1.6274292143857961e-12 1.6094710535551465e-12 1.795816083064987e-14
3.2348180950136065 2.318351750735021e-20 1.990667043745907e-12 1.972241249255677e-12 1.8425794490230207e-14
3.240889293275058 2.628795275045001e-20 2.261467728152422e-12 2.2427952684614315e-12 1.8672459690990082e-14
3.2469718861334385 2.9884347829819733e-20 2.57567904072323e-12 2.5567513546498992e-12 1.8927686073330716e-14
3.2714166318528037 4.8787205036067695e-20 4.236539197231356e-12 4.216556894572499e-12 1.9982302658858016e-14
3.2744851364798273 4.997112612426266e-20 4.343417662451033e-12 4.323311102196496e-12 2.0106560254536646e-14
3.2775565192852394 5.1186934023839607e-20 4.45326705383594e-12 4.433035617419504e-12 2.0231436416435497e-14
3.283707930232385 5.003241991975127e-20 4.360993745088574e-12 4.340539041480024e-12 2.0454703608549273e-14
3.2898708863219004 4.63433675394112e-20 4.047024892715352e-12 4.026367050988316e-12 2.065784172703477e-14
3.29141343181113 4.547178526678267e-20 3.972774142336374e-12 3.952065292818787e-12 2.070884951758681e-14
3.292184975758714 4.504327952347127e-20 3.936258984402653e-12 3.915524597461255e-12 2.0734386941398142e-14
3.295272960557952 4.236507790074854e-20 3.705687880421508e-12 3.6848541667036915e-12 2.083371371781632e-14
3.3076538914384823 3.3025445804610303e-20 2.8996006009799088e-12 2.8783679675888753e-12 2.1232633391033886e-14
3.310756385682612 3.1107424413270225e-20 2.7337620663441666e-12 2.712428887117834e-12 2.1333179226332755e-14
3.313861789986515 2.933105517527237e-20 2.580070133251563e-12 2.558636081263862e-12 2.143405198770053e-14
3.3200813396944477 2.6851323849047153e-20 2.3663765848340857e-12 2.344725544102997e-12 2.1651040731088478e-14
3.345076488085796 2.2527834627382958e-20 2.0002990799196936e-12 1.9776809974590436e-12 2.2618082460649665e-14
3.3482140837626964 2.2707400992878842e-20 2.0181343813661324e-12 1.9953852962235156e-12 2.2749085142616713e-14
3.3513546224236106 2.2888620308720096e-20 2.0361484258503157e-12 2.013267750467046e-12 2.288067538326961e-14
3.3576445397418455 2.414534518850531e-20 2.1519767200945928e-12 2.1288209129037723e-12 2.31558071908201e-14
3.3702598118196083 2.869418885407315e-20 2.5670053104834206e-12 2.5432724085702258e-12 2.3732901913193498e-14
3.382922481734668 2.9788743863396905e-20 2.674937686646952e-12 2.650643865169174e-12 2.4293821477779072e-14
3.389271646505754 3.035318479065729e-20 2.7307382739340913e-12 2.7061601444746e-12 2.457812945948975e-14
3.395632727569191 3.097214238358405e-20 2.7916527171446523e-12 2.766781590594437e-12 2.487112655021563e-14
3.421196662673239 3.3965660953856324e-20 3.0845196616389604e-12 3.058435672640281e-12 2.608398899867917e-14
3.4276182099114902 3.343490952843546e-20 3.042019732718908e-12 3.0156650801519e-12 2.6354652567007986e-14
3.4340518103208963 3.100154571681372e-20 2.8259184458320332e-12 2.7993077961690387e-12 2.6610649662994755e-14
3.4469541582030403 2.751706660069077e-20 2.51771794707001e-12 2.4906159509771558e-12 2.710199609285278e-14
3.472904465399547 2.6581411015470814e-20 2.450418713693903e-12 2.4221848649632627e-12 2.823384873063998e-14
3.4990501388274233 2.5145385708380085e-20 2.335489399440241e-12 2.3060973384573458e-12 2.939206098289442e-14
3.5253949054701885 1.9953127348541068e-20 1.8671885693605777e-12 1.836671350120886e-12 3.0517219239692263e-14
3.5519380250092896 1.5016518739501854e-20 1.4158070643156173e-12 1.3841589972770994e-12 3.1648067038518214e-14
3.578680990867387 1.311209722260929e-20 1.2455597918248917e-12 1.2126722956875749e-12 3.288749613731669e-14
3.605625307711299 1.2400989379278331e-20 1.1868787710687458e-12 1.152685969469388e-12 3.419280159935769e-14
3.660119384959845 1.2002577533902262e-20 1.1661091537242901e-12 1.1291742695184522e-12 3.693488420583796e-14
3.715437065384467 1.176149755104261e-20 1.159957199727884e-12 1.120132060125208e-12 3.982513960267571e-14
3.8285932144167436 1.1904541554790895e-20 1.2098215988674255e-12 1.1637863187539525e-12 4.603528011347325e-14
3.94519561050918 1.2209392427157227e-20 1.278592130481496e-12 1.2257877847242609e-12 5.280434575723541e-14
4.06534921144712 1.2574181745024966e-20 1.3568974413554149e-12 1.2967740485641555e-12 6.012339279125957e-14
4.189162171576248 1.2968218267876726e-20 1.4420387067165505e-12 1.3740341185086807e-12 6.800458820786992e-14
4.316745939156006 1.3377996697998808e-20 1.5329112326924294e-12 1.456494487078251e-12 7.641674561417848e-14
4.448215356677963 1.3796694291844447e-20 1.6290344903875475e-12 1.543793522544803e-12 8.524096784274514e-14
4.58368876423945 1.422245962917136e-20 1.730450831074345e-12 1.6359652457870127e-12 9.448558528733225e-14
4.723288106065518 1.4656652750598263e-20 1.8375902107664667e-12 1.7333844182655878e-12 1.0420579250087939e-13
4.867139040275056 1.5101127302593477e-20 1.9509788201334824e-12 1.8368385255121997e-12 1.1414029462128334e-13
4.940699165968905 1.533555581723125e-20 2.0112097468247066e-12 1.8919924371764384e-12 1.1921730964826814e-13
5.015371051989984 1.556598378900598e-20 2.07228305505201e-12 1.947931743071167e-12 1.2435131198084258e-13
5.091171501069577 1.581948866360389e-20 2.137861673661317e-12 2.0082082955408363e-12 1.2965337812048066e-13
5.129500256944802 1.594446459467067e-20 2.1709730359542726e-12 2.038652803468095e-12 1.3232023248617712e-13
5.168117569889187 1.6070695989286617e-20 2.204634013636602e-12 2.069610400255126e-12 1.3502361338147568e-13
5.20702561229733 1.6217067552046415e-20 2.2414624754753266e-12 2.103486032714801e-12 1.379764427605253e-13
5.246226572918644 1.6362938680974568e-20 2.2786508186811534e-12 2.1377033688898567e-12 1.4094744979129657e-13
5.265937586045735 1.6435690425761243e-20 2.2973813593689183e-12 2.1549419789849107e-12 1.424393803840077e-13
5.285722656980489 1.650832207630903e-20 2.316203631867615e-12 2.1722682469400305e-12 1.4393538492758475e-13
5.305582063971359 1.6580835730409616e-20 2.33511829320429e-12 2.1896829896696028e-12 1.4543530353468796e-13
5.3255160863122235 1.665711753059659e-20 2.354675060407297e-12 2.2077239751977597e-12 1.4695108520953728e-13
5.365609099470188 1.6839498645980822e-20 2.398377936065913e-12 2.2482906113562215e-12 1.5008732470969112e-13
5.406003951863644 1.7023205134533514e-20 2.4427955739752883e-12 2.2895535926496037e-12 1.5324198132568434e-13
5.446702915881641 1.7208370904713674e-20 2.4879570513719232e-12 2.3315432724799133e-12 1.5641377889201019e-13
5.487708281020852 1.7402551474120947e-20 2.534973226812453e-12 2.375357999429961e-12 1.596152273824921e-13
5.529022354014368 1.7664577215226958e-20 2.592513498574989e-12 2.4295609492843035e-12 1.629525492906851e-13
5.570647458961463 1.7933685441793084e-20 2.651823749412099e-12 2.4855148430784345e-12 1.6630890633366452e-13
5.612585937458331 1.82105109216188e-20 2.7130298216095314e-12 2.543346822068495e-12 1.6968299954103598e-13
5.654840148729818 1.8506943117582677e-20 2.7779502002348272e-12 2.604859673961343e-12 1.7309052627348494e-13
5.67608639626678 1.8708280624898332e-20 2.8187223952527136e-12 2.643848289121095e-12 1.7487410613161845e-13
5.686739436050992 1.8810895733634293e-20 2.839502391324205e-12 2.6637345048884352e-12 1.7576788643577015e-13
5.6974124697621304 1.8914852952815186e-20 2.860553431095796e-12 2.683890464703007e-12 1.7666296639278956e-13
5.718818669136295 1.9126932543557537e-20 2.903495020304685e-12 2.7250380773802602e-12 1.7845694292442463e-13
5.740305295436557 1.9358808670430433e-20 2.9497353399328085e-12 2.76946576201047e-12 1.8026957792233944e-13
5.7835210386641895 1.995808056097886e-20 3.06394188869777e-12 2.87992582646542e-12 1.8401606223234937e-13
5.827062130521658 2.0631588204361653e-20 3.191183242289124e-12 3.003364192344537e-12 1.878190499445874e-13
5.8489554468988025 2.1108227848396047e-20 3.2771741438530527e-12 3.087298649101145e-12 1.8987549475190726e-13
5.870931020387893 2.1611772733403305e-20 3.367959052198388e-12 3.176018562674266e-12 1.9194048952412218e-13
5.892989160043636 2.2144352882449532e-20 3.4639217187840784e-12 3.269907840677029e-12 1.940138781070484e-13
5.915130176081913 2.2746394803382113e-20 3.5714642939719753e-12 3.3753002680783466e-12 1.9616402589362877e-13
5.95966208400165 2.443631417876798e-20 3.865687731516559e-12 3.664606313788359e-12 2.0108141772820094e-13
6.004529249263818 2.6850944748397072e-20 4.279647199892178e-12 4.073022143873095e-12 2.0662505601908362e-13
6.027089341400364 2.852721691290877e-20 4.563903642786e-12 4.354066445749857e-12 2.098371970361438e-13
6.049734195844842 3.048869057553999e-20 4.896034838993486e-12 4.682793188819507e-12 2.1324165017397877e-13
6.095279466722835 3.6142275638617926e-20 5.847612010735097e-12 5.625971096713162e-12 2.2164091402193425e-13
6.141167624020661 4.475978441647102e-20 7.296395567182569e-12 7.063814978065269e-12 2.3258058911730157e-13
6.164241091010745 5.0252297369037255e-20 8.222520601367662e-12 7.983055335817821e-12 2.3946526554984095e-13
6.187401249150058 5.642927891778607e-20 9.267918677852216e-12 9.021386932902386e-12 2.4653174494982993e-13
6.1990139391386085 5.943151679649673e-20 9.779324569351897e-12 9.52919776920383e-12 2.5012680014806875e-13
6.204828454712694 6.100622640965111e-20 1.0047855349438465e-11 9.795913046955147e-12 2.519423024833121e-13
6.210648424152782 6.214675391714251e-20 1.0245303483412916e-11 9.99181857287472e-12 2.534849105381947e-13
6.233982942956859 6.59725298406307e-20 1.0916871062246987e-11 1.0658025682379429e-11 2.588453798675559e-13
6.239830258556775 6.643381463033871e-20 1.1003513970314068e-11 1.0743938126907874e-11 2.5957584340619757e-13
6.245683058788269 6.643111633557765e-20 1.101338764223478e-11 1.0753080285940562e-11 2.603073562942177e-13
6.257405133728602 6.622761480941555e-20 1.1000256737903587e-11 1.0738676815396399e-11 2.6157992250718726e-13
6.269149208991335 6.535208107593308e-20 1.0875205226210145e-11 1.0613195505512494e-11 2.6200972069764896e-13
6.280915325867298 6.330316476408923e-20 1.055401711874768e-11 1.0292619300873458e-11 2.613978178742221e-13
6.304513850009849 5.831163715332885e-20 9.758347308762988e-12 9.499115228148532e-12 2.592320806144559e-13
6.32820103803542 5.2220861316727655e-20 8.77190119783536e-12 8.51583699370304e-12 2.560642041323204e-13
6.3519772230701035 4.666292627085155e-20 7.867746083680268e-12 7.614530360857265e-12 2.5321572282300407e-13
6.375842739491607 4.1973735396810457e-20 7.1037006186191284e-12 6.8530055266369605e-12 2.506950919821677e-13
6.399797922933955 3.825169952247175e-20 6.4981005882726855e-12 6.248738628565985e-12 2.4936195970669835e-13
6.42384311029221 3.5143586538863664e-20 5.992533071845475e-12 5.744267425374424e-12 2.4826564647105144e-13
6.447978639727206 3.288703261889722e-20 5.628824553620099e-12 5.380729931228819e-12 2.4809462239127904e-13
6.472204850670314 3.0998743874759515e-20 5.325566149092605e-12 5.077459248376789e-12 2.481069007158169e-13
6.496522083828205 2.9768233944117887e-20 5.1333800945686535e-12 4.88451186111964e-12 2.488682334490127e-13
6.520930681187647 2.872597984038379e-20 4.972260436572093e-12 4.722518180138234e-12 2.497422564338578e-13
