Dust emission spectrum from A.P. Jones, M. Kohler, N. Ysard, M. Bocchio, and L. Verstraete (2017), A&A, 602A, 46J 
inside the DustPedia framework.

lambda    nu*dP/dnu     j_nu    j_nu(carb.) j_nu(sil)
 (um)   (erg s-1 H-1) (Jy cm2 sr-1 H-1)
0.9927057738263894 2.6887950391171643e-23 7.08512764858308e-16 7.085127624950828e-16 2.3632252156377297e-24
1.0001793341362166 2.7335271574677005e-23 7.257226919374909e-16 7.257226890915015e-16 2.84598957175431e-24
1.0077091589558085 2.7782473592342776e-23 7.431484034345619e-16 7.43148400011645e-16 3.422916912811124e-24
1.0114953028030835 2.8005981656674493e-23 7.519415848385184e-16 7.519415810864958e-16 3.7520224588864956e-24
1.0152956718711033 2.822940221637284e-23 7.607879925144467e-16 7.607879884030191e-16 4.1114275374625084e-24
1.0229392996569957 2.8675686495445166e-23 7.786335639224029e-16 7.786335589903628e-16 4.9320401296804344e-24
1.0267826658714554 2.889801733104916e-23 7.876186814094851e-16 7.876186760100807e-16 5.3994042669538955e-24
1.0306404723013447 2.9120173766521207e-23 7.966555536357232e-16 7.966555477266007e-16 5.909122354420404e-24
1.03451277320114 2.9342137247279347e-23 8.057439152268199e-16 8.057439087619768e-16 6.4648428443265095e-24
1.0383996230291617 2.9563889348844386e-23 8.148834977738285e-16 8.148834907033176e-16 7.070510863755946e-24
1.0403485208654093 2.967468041142064e-23 8.194724122275334e-16 8.19472404834139e-16 7.39339469597072e-24
1.0423010764483396 2.97854117811656e-23 8.240740299523663e-16 8.240740222219754e-16 7.730390794952435e-24
1.0462171883269815 3.0006686392876957e-23 8.333152376428272e-16 8.333152291937369e-16 8.449090446656274e-24
1.0471985131304309 3.006196421026566e-23 8.356334252344418e-16 8.35633416595911e-16 8.638530693144892e-24
1.048180758391296 3.0117225132655446e-23 8.379547584081428e-16 8.379547495761046e-16 8.832037842269541e-24
1.0501480137395462 3.0227695175483777e-23 8.426068440515867e-16 8.426068348199999e-16 9.23158691865265e-24
1.0521189612883777 3.033809429329918e-23 8.472714595761842e-16 8.472714499277624e-16 9.648422053583644e-24
1.0531058218030118 3.0393184360093604e-23 8.496061572171525e-16 8.496061473535954e-16 9.86355709743447e-24
1.0540936079674168 3.044798654501792e-23 8.519364342534701e-16 8.519364241701401e-16 1.008333014951841e-23
1.058054026499678 3.066699299876126e-23 8.612881486710899e-16 8.61288137660844e-16 1.1010245749455972e-23
1.0590464539527713 3.072169267825874e-23 8.636337063340235e-16 8.636336950796034e-16 1.1254419735496511e-23
1.06003981227728 3.0776371041407706e-23 8.659823065876097e-16 8.659822950838357e-16 1.1503774041052177e-23
1.0620293250338977 3.088566273821279e-23 8.706886167368988e-16 8.70688604718455e-16 1.2018443732332321e-23
1.0660195594769086 3.1103978486900505e-23 8.801375482610222e-16 8.801375351463402e-16 1.3114681876527299e-23
1.070024785945596 3.1321923134696237e-23 8.896346511019152e-16 8.896346367956685e-16 1.430624679024036e-23
1.0740450607676866 3.153947974152518e-23 8.991796312935972e-16 8.991796156926043e-16 1.5600992512443786e-23
1.07808044048254 3.175663154100334e-23 9.087721931736925e-16 9.087721761663105e-16 1.7007381710479302e-23
1.0861967418109137 3.218928234195849e-23 9.280881402875195e-16 9.280881200952658e-16 2.0192253553848538e-23
1.0902777775684922 3.240390227911229e-23 9.377863500491114e-16 9.377863280579894e-16 2.1991121663592177e-23
1.0943741465085532 3.2618037279665914e-23 9.475302473195035e-16 9.475302233770076e-16 2.394249554407973e-23
1.1026131145906286 3.304478967565485e-23 9.671538807286184e-16 9.671538523760325e-16 2.8352585910818885e-23
1.1109141095355224 3.346941592684808e-23 9.869565857174256e-16 9.869565521856622e-16 3.353176353914777e-23
1.1192775983109025 3.389141559695196e-23 1.006924606202746e-15 1.006924566596602e-15 3.9606144263521197e-23
1.1277040513999907 3.4308925313915694e-23 1.0270029433033292e-15 1.0270028965821992e-15 4.67211299689251e-23
1.1361939428280308 3.472390286299869e-23 1.0472501599819256e-15 1.0472501049378101e-15 5.504411567104932e-23
1.1447477501889525 3.513623907154684e-23 1.0676637687488883e-15 1.0676637039813163e-15 6.47675719498538e-23
1.1533659546722406 3.554603545959269e-23 1.0882476312017488e-15 1.088247555089138e-15 7.611261063810374e-23
1.1707974979042381 3.6359304928550396e-23 1.1299696816195768e-15 1.12996957690021e-15 1.0471936644693063e-22
1.1884924949847024 3.716106871618289e-23 1.1723413194164413e-15 1.1723411760536792e-15 1.4336276237749194e-22
1.2064549276569216 3.795737440730415e-23 1.2155608337914608e-15 1.215560638485719e-15 1.9530574192666077e-22
1.2246888378427687 3.8740360628247594e-23 1.2593859729377167e-15 1.2593857081621394e-15 2.647755770542257e-22
1.2431983285522175 3.950847491251615e-23 1.3037673959271535e-15 1.3037670386972327e-15 3.572299204753619e-22
1.2619875648066055 4.0261763202129016e-23 1.3487060287605718e-15 1.3487055490816637e-15 4.7967890786300625e-22
1.3004222497298317 4.171332077497963e-23 1.439887593526655e-15 1.4398867407338357e-15 8.527928191862171e-22
1.3400274889804893 4.3091971063114873e-23 1.532778853082271e-15 1.5327773645487944e-15 1.4885334767204265e-21
1.3808389325824078 4.439550594206875e-23 1.6272394560763953e-15 1.6272369039803852e-15 2.5520960101077707e-21
1.4228933163050095 4.56318061493645e-23 1.7234926328126597e-15 1.7234883327774542e-15 4.300035206005066e-21
1.466228494730424 4.6828230499080594e-23 1.8225474155406325e-15 1.822540291937185e-15 7.123603447565503e-21
1.5108834753276823 4.796933196137257e-23 1.9238184025321465e-15 1.9238067941704266e-15 1.1608361720049506e-20
1.5568984535646726 4.904318498258166e-23 2.026788292018233e-15 2.0267696652033897e-15 1.8626814843496866e-20
1.6043148490894465 5.0054443035058943e-23 2.1315801610479053e-15 2.1315506759763313e-15 2.9485071573808606e-20
1.6531753430134553 5.100865294811563e-23 2.2383717030700926e-15 2.238325713451619e-15 4.5989618473994637e-20
1.7035239163302658 5.191591980871849e-23 2.347568217162083e-15 2.3474975178405324e-15 7.069932154999793e-20
1.755405889504358 5.281885064113583e-23 2.4611378001496986e-15 2.461030627014075e-15 1.0717313562392327e-19
1.8088679632656115 5.371158060557938e-23 2.5789577833813012e-15 2.578797523073074e-15 1.6026030822682237e-19
1.8639582606462262 5.45907266041399e-23 2.7009994198088866e-15 2.7007629323998624e-15 2.364874090251168e-19
1.9207263702978936 5.546422098513292e-23 2.8277945269457346e-15 2.8274500214674925e-15 3.445054782427156e-19
1.979223391128241 5.634614874289795e-23 2.960250651644246e-15 2.959755021008479e-15 4.956306357688351e-19
2.039501978296691 5.72521530273463e-23 3.0994553713519184e-15 3.0987509226180206e-15 7.044487338960545e-19
2.1016163906111602 5.822227824308579e-23 3.247970494596511e-15 3.246980917471234e-15 9.89577125276896e-19
2.1656225393682647 5.928028544842499e-23 3.4077088495380964e-15 3.4063344628768016e-15 1.374386661295008e-18
2.231578038680979 6.042822631199666e-23 3.579491693013975e-15 3.577603862535425e-15 1.887830478548517e-18
2.299542257339062 6.167988996231265e-23 3.764908432587663e-15 3.762343090153595e-15 2.5653424340687136e-18
2.369576372248914 6.306350243515094e-23 3.966598385684712e-15 3.963148559530144e-15 3.449826154568084e-18
2.4417434235010123 6.461188268703657e-23 4.187760686985439e-15 4.183168176249664e-15 4.5925107357754795e-18
2.5161083711144245 6.638109859994007e-23 4.43346425553913e-15 4.427410214470528e-15 6.054041068601043e-18
2.5927381535095444 6.846188757416384e-23 4.711692731698056e-15 4.703787398907874e-15 7.90533279018307e-18
2.6717017477616296 7.095754406127809e-23 5.032177866000878e-15 5.0219499517686935e-15 1.0227914232185694e-17
2.753070231689431 7.402211641237837e-23 5.409389101422768e-15 5.3962745552462725e-15 1.3114546176493668e-17
2.836916847834745 7.80102829161554e-23 5.874459208646982e-15 5.857789043856226e-15 1.6670164790755214e-17
2.9233170693905177 8.370170822633613e-23 6.4950077987292904e-15 6.47399945762642e-15 2.1008341102869132e-17
2.967498994190263 8.795477416442463e-23 6.928184288351614e-15 6.904714735725022e-15 2.34695526265928e-17
3.0123486681368425 9.27849103673648e-23 7.419113651885367e-15 7.392929476588492e-15 2.6184175296869225e-17
3.0578761833420214 1.0251063938660802e-22 8.320669495349241e-15 8.291487402551376e-15 2.918209279786435e-17
3.1040917844459814 1.1473849329017553e-22 9.453946275493599e-15 9.421485092010646e-15 3.246118348295414e-17
3.127460860933648 1.2718212829720736e-22 1.0558139715510866e-14 1.0523916193697925e-14 3.4223521812940176e-17
3.1510058709225794 1.4357120107542637e-22 1.200842303681469e-14 1.1972357653319277e-14 3.6065383495411073e-17
3.162844764501044 1.5867805604626279e-22 1.3321839015167387e-14 1.328481858465517e-14 3.7020430512209936e-17
3.1747281389236908 1.7614876276555925e-22 1.484415811007369e-14 1.4806161894291612e-14 3.7996215782076534e-17
3.1986289994194426 2.24566497670586e-22 1.9066820111891153e-14 1.902680388826564e-14 4.001622362551578e-17
3.2227097969389145 3.3811866168458857e-22 2.892409462689476e-14 2.888193280596514e-14 4.2161820929623245e-17
3.2348180950136065 4.455323068109168e-22 3.8255906585848906e-14 3.821259842341849e-14 4.330816243040475e-17
3.240889293275058 5.258099014773644e-22 4.5233728720609825e-14 4.518981585904369e-14 4.391286156612948e-17
3.2469718861334385 6.187118141549607e-22 5.332567607102408e-14 5.3281137488301945e-14 4.4538582722124484e-17
3.2714166318528037 1.1128843409216277e-21 9.663964412009031e-14 9.659251552447669e-14 4.712859561362768e-17
3.2744851364798273 1.1438186139545446e-21 9.941905167668932e-14 9.937161667812871e-14 4.743499856059971e-17
3.2775565192852394 1.1756310951577547e-21 1.0227999241159428e-13 1.022322493672466e-13 4.774304434765381e-17
3.283707930232385 1.1452408388110215e-21 9.982303759613325e-14 9.977474129859073e-14 4.829629754254163e-17
3.2898708863219004 1.0485207611957074e-21 9.15641190183088e-14 9.151531704221969e-14 4.880197608912704e-17
3.29141343181113 1.0257025203495263e-21 8.961346968601578e-14 8.956454067257664e-14 4.892901343913226e-17
3.292184975758714 1.0144890648760999e-21 8.865455043334401e-14 8.860555780839828e-14 4.899262494572572e-17
3.295272960557952 9.438248190311954e-22 8.255668032332654e-14 8.250743984981843e-14 4.9240473508082776e-17
3.3076538914384823 6.986726617589572e-22 6.134275013001327e-14 6.129251303469671e-14 5.0237095316534164e-17
3.310756385682612 6.486829541874891e-22 5.700712568428941e-14 5.695663714465343e-14 5.0488539635994156e-17
3.313861789986515 6.02522665499605e-22 5.3000163975458364e-14 5.2949423072850895e-14 5.074090260747517e-17
3.3200813396944477 5.378564106574857e-22 4.74006728062291e-14 4.7349390096339005e-14 5.1282709890089283e-17
3.345076488085796 4.230889574153673e-22 3.7567057209015756e-14 3.751336246278049e-14 5.369474623527124e-17
3.3482140837626964 4.275099573688154e-22 3.799521326165621e-14 3.794119185606637e-14 5.402140558986734e-17
3.3513546224236106 4.31978250318919e-22 3.842834659865197e-14 3.837399693596629e-14 5.434966268568603e-17
3.3576445397418455 4.641805037836974e-22 4.1370526296714036e-14 4.131549070408976e-14 5.5035592624276286e-17
3.3702598118196083 5.824510228534026e-22 5.210653893598204e-14 5.205006429530402e-14 5.647464067800998e-17
3.382922481734668 6.097860150116955e-22 5.475691085951835e-14 5.469903313554117e-14 5.787772397717633e-17
3.389271646505754 6.239353505156113e-22 5.613263167817215e-14 5.6074041910097094e-14 5.858976807506227e-17
3.395632727569191 6.392383081154897e-22 5.761730453297282e-14 5.755798091991806e-14 5.932361305476684e-17
3.421196662673239 7.128288182209756e-22 6.473404148302986e-14 6.467167513234522e-14 6.236635068464388e-17
3.4276182099114902 6.9850306128121665e-22 6.355214133224708e-14 6.348909118905374e-14 6.305014319335524e-17
3.4340518103208963 6.349084532255631e-22 5.787451779901792e-14 5.781081859928563e-14 6.369919973230162e-17
3.4469541582030403 5.442494175813562e-22 4.9796969503013164e-14 4.973201980435171e-14 6.494969866145991e-17
3.472904465399547 5.192364317883142e-22 4.7866031962908464e-14 4.779820821128703e-14 6.782375162142427e-17
3.4990501388274233 4.808261968171469e-22 4.4658868973537684e-14 4.458809312158405e-14 7.077585195364998e-17
3.5253949054701885 3.431003100181969e-22 3.2106895616886324e-14 3.20332343680729e-14 7.366124881342547e-17
3.5519380250092896 2.1326025591492546e-22 2.0106882433932497e-14 2.00303068300105e-14 7.657560392199648e-17
3.578680990867387 1.6210458174133753e-22 1.539882946714618e-14 1.5319057052527737e-14 7.977241461843977e-17
3.605625307711299 1.4179005972531934e-22 1.3570498827920496e-14 1.348735055905185e-14 8.314826886864465e-17
3.660119384959845 1.2775889853987905e-22 1.2412402305777848e-14 1.2322121833641396e-14 9.028047213645382e-17
3.715437065384467 1.181062107994799e-22 1.1648019221607674e-14 1.1550161480330782e-14 9.785774127688719e-17
3.8285932144167436 1.1503190630683652e-22 1.1690335505015535e-14 1.1575985573005656e-14 1.1434993200987925e-16
3.94519561050918 1.1642887640409218e-22 1.2192666098597665e-14 1.206001525205137e-14 1.3265084654629287e-16
4.06534921144712 1.1968524918381352e-22 1.2915401707928744e-14 1.2762578753344143e-14 1.528229545845999e-16
4.189162171576248 1.2403548707937263e-22 1.3792486344709027e-14 1.3617496370486221e-14 1.7498997422280508e-16
4.316745939156006 1.291884792877254e-22 1.4802998947086836e-14 1.460382702200565e-14 1.9917192508118714e-16
4.448215356677963 1.3504208364819896e-22 1.5944994305393618e-14 1.5719838995923118e-14 2.251553094704953e-16
4.58368876423945 1.4160364457780093e-22 1.7228956933737367e-14 1.6975883626964083e-14 2.530733067732815e-16
4.723288106065518 1.48962117356073e-22 1.8676251207315535e-14 1.839304974368257e-14 2.8320146363296975e-16
4.867139040275056 1.572904210392785e-22 2.0321018021271046e-14 2.0006065615615605e-14 3.149524056554448e-16
4.940699165968905 1.6205397405707773e-22 2.1252867259565472e-14 2.0921308692281092e-14 3.315585672843798e-16
5.015371051989984 1.6693003340339088e-22 2.2223219829217313e-14 2.1874594557598757e-14 3.486252716185562e-16
5.091171501069577 1.7261186445864152e-22 2.332694167886486e-14 2.2960449588537755e-14 3.664920903271077e-16
5.129500256944802 1.7550321220978607e-22 2.3896239297878787e-14 2.3520642892017158e-14 3.7559640586163267e-16
5.168117569889187 1.7848801414471917e-22 2.448560704976452e-14 2.4100719972605605e-14 3.848870771589154e-16
5.20702561229733 1.8202628032524785e-22 2.515899225245011e-14 2.4764050902713943e-14 3.949413497361709e-16
5.246226572918644 1.856300895178756e-22 2.5850256099998428e-14 2.544511373676653e-14 4.0514236323190094e-16
5.265937586045735 1.8745717414507186e-22 2.6202770093907666e-14 2.5792472492108024e-14 4.1029760179963757e-16
5.285722656980489 1.893013778707563e-22 2.655996999059166e-14 2.6144480828403174e-14 4.1548916218847984e-16
5.305582063971359 1.9116295753553892e-22 2.6921931221210176e-14 2.6501214306374627e-14 4.207169148355514e-16
5.3255160863122235 1.9314203640752226e-22 2.7302847290937155e-14 2.6876832993088042e-14 4.2601429784910547e-16
5.365609099470188 1.9794230895134273e-22 2.8192078421298587e-14 2.775509953241741e-14 4.3697888888117254e-16
5.406003951863644 2.0288581887829325e-22 2.911370546624314e-14 2.866560180440707e-14 4.481036618360665e-16
5.446702915881641 2.079792863309671e-22 3.0069292138786545e-14 2.960990431769594e-14 4.593878210906089e-16
5.487708281020852 2.134254698236055e-22 3.108899592839951e-14 3.061812573087108e-14 4.708701975284366e-16
5.529022354014368 2.20810574399789e-22 3.240691174120437e-14 3.192405098604559e-14 4.828607551587907e-16
5.570647458961463 2.2856164734295175e-22 3.3797024409512076e-14 3.330199616984191e-14 4.950282396701601e-16
5.612585937458331 2.3670460839256534e-22 3.526461526782627e-14 3.4757243175465226e-14 5.073720923610417e-16
5.654840148729818 2.455727995618393e-22 3.686124733732602e-14 3.6341305360428375e-14 5.199419768976572e-16
5.67608639626678 2.515440404233956e-22 3.789941119389384e-14 3.737289905852431e-14 5.265121353695315e-16
5.686739436050992 2.5461117753493934e-22 3.843352585149081e-14 3.790370996731243e-14 5.298158841783786e-16
5.6974124697621304 2.577343686733438e-22 3.897798912098399e-14 3.8444857045603697e-14 5.331320753803104e-16
5.718818669136295 2.6415423898344586e-22 4.009898167069894e-14 3.955917989889823e-14 5.398017718007086e-16
5.740305295436557 2.71200153288561e-22 4.1323238943539614e-14 4.077667494770126e-14 5.465639958383577e-16
5.7835210386641895 2.8935816043195683e-22 4.4421936562246196e-14 4.386136255882573e-14 5.605740034204705e-16
5.827062130521658 3.100933414215593e-22 4.796357240596337e-14 4.738866530475927e-14 5.74907101204082e-16
5.8489554468988025 3.2460393487964293e-22 5.039663348438602e-14 4.981402116191991e-14 5.826123224660952e-16
5.870931020387893 3.4009646819931793e-22 5.3000324999818656e-14 5.240993977249437e-14 5.903852273242903e-16
5.892989160043636 3.5664875657832104e-22 5.5788641937154967e-14 5.519041596028107e-14 5.982259768738717e-16
5.915130176081913 3.7541833359434563e-22 5.894530475375839e-14 5.833895907770435e-14 6.063456760540303e-16
5.95966208400165 4.278114859044245e-22 6.767737557980534e-14 6.705274476802049e-14 6.246308117848617e-16
6.004529249263818 5.029980242365659e-22 8.017051564279966e-14 7.952541628392989e-14 6.450993588697667e-16
6.027089341400364 5.551864883075149e-22 8.882105969705245e-14 8.816424309596302e-14 6.568166010893681e-16
6.049734195844842 6.166560210384873e-22 9.902587830720771e-14 9.835666875003444e-14 6.692095571732616e-16
6.095279466722835 7.940262981541558e-22 1.2846888127222863e-13 1.2776959409283576e-13 6.992871793928877e-16
6.141167624020661 1.0662344810417397e-21 1.7380933895176088e-13 1.7307148842120972e-13 7.378505305512269e-16
6.164241091010745 1.2401345203784287e-21 2.0291672572489573e-13 2.021549034750613e-13 7.618222498343403e-16
6.187401249150058 1.4375537422742105e-21 2.361031619392209e-13 2.353166573500241e-13 7.865045891968294e-16
6.1990139391386085 1.5339446633296312e-21 2.524071997941997e-13 2.516081216661936e-13 7.990781280060966e-16
6.204828454712694 1.58465969406135e-21 2.6099682476828213e-13 2.601913888080841e-13 8.054359601980718e-16
6.210648424152782 1.621703727449659e-21 2.6734858702444113e-13 2.665376783913824e-13 8.109086330587385e-16
6.233982942956859 1.747403314751085e-21 2.89153329832322e-13 2.88323101605889e-13 8.302282264328575e-16
6.239830258556775 1.763399400349743e-21 2.920739994377909e-13 2.912409117009032e-13 8.330877368877293e-16
6.245683058788269 1.7646979681760653e-21 2.925632424541748e-13 2.917272879557878e-13 8.359544983870977e-16
6.257405133728602 1.7610422487780307e-21 2.925051267299954e-13 2.9166404890706894e-13 8.410778229263845e-16
6.269149208991335 1.7360895577151204e-21 2.889017445258573e-13 2.8805827697542307e-13 8.43467550434294e-16
6.280915325867298 1.6738114701304292e-21 2.7906084909255693e-13 2.782183805630107e-13 8.424685295462343e-16
6.304513850009849 1.520337499466357e-21 2.544257385077042e-13 2.5358834320837824e-13 8.373952993260577e-16
6.32820103803542 1.330447706631723e-21 2.2348455267094088e-13 2.226555025527937e-13 8.290501181471859e-16
6.3519772230701035 1.1564046902994528e-21 1.9497916655382057e-13 1.941574248023304e-13 8.217417514902224e-16
6.375842739491607 1.009783775859354e-21 1.7089738536324638e-13 1.700818967414093e-13 8.15488621837009e-16
6.399797922933955 8.926322719038576e-22 1.5163808049266061e-13 1.5082492431894798e-13 8.131561737127048e-16
6.42384311029221 7.950686826452451e-22 1.3557168873107e-13 1.3476008507747624e-13 8.116036535938317e-16
6.447978639727206 7.241506698424099e-22 1.2394298744323991e-13 1.2312985643636953e-13 8.131310068703636e-16
6.472204850670314 6.650007218787927e-22 1.1424673683127812e-13 1.1343145533427276e-13 8.152814970053333e-16
6.496522083828205 6.266901980215442e-22 1.0806952787404976e-13 1.0724957958379422e-13 8.199482902555754e-16
6.520930681187647 5.944024442796623e-22 1.0288678657841823e-13 1.0206176633962476e-13 8.250202387935164e-16
6.57002334288761 5.615077827792515e-22 9.79246720597945e-14 9.708594565452752e-14 8.387264052670302e-16
