Dust emission spectrum from A.P. Jones, M. Kohler, N. Ysard, M. Bocchio, and L. Verstraete (2017), A&A, 602A, 46J 
inside the DustPedia framework.

lambda    nu*dP/dnu     j_nu    j_nu(carb.) j_nu(sil)
 (um)   (erg s-1 H-1) (Jy cm2 sr-1 H-1)
0.9927057738263894 2.826406316994121e-22 7.447741181953405e-15 7.44774118114898e-15 8.044231968231896e-25
1.0001793341362166 2.8730483128187807e-22 7.627640903252847e-15 7.627640902284002e-15 9.688449944717906e-25
1.0077091589558085 2.9196240160217615e-22 7.809649918046817e-15 7.809649916881456e-15 1.1653624757585243e-24
1.0114953028030835 2.942881296758919e-22 7.901436390997403e-15 7.901436389719926e-15 1.2774758972460497e-24
1.0152956718711033 2.966115169418914e-22 7.99373925105669e-15 7.993739249656773e-15 1.3999194187603516e-24
1.0229392996569957 3.0124808327276525e-22 8.179817028642845e-15 8.179817026963325e-15 1.6795179601604365e-24
1.0267826658714554 3.035556355060076e-22 8.273442659845611e-15 8.273442658006837e-15 1.8387740821571345e-24
1.0306404723013447 3.058598309512165e-22 8.367564524683781e-15 8.367564522671305e-15 2.0124747489827157e-24
1.03451277320114 3.081604483505078e-22 8.462178609535779e-15 8.462178607333914e-15 2.20186556144843e-24
1.0383996230291617 3.104572676938502e-22 8.557280851058232e-15 8.55728084864994e-15 2.4082935382379195e-24
1.0403485208654093 3.1160418469308513e-22 8.605013747422248e-15 8.605013744903901e-15 2.51834702963233e-24
1.0423010764483396 3.127500702615321e-22 8.652867137169412e-15 8.652867134536197e-15 2.633214847237867e-24
1.0462171883269815 3.1503863866569984e-22 8.748933308034288e-15 8.748933305156082e-15 2.8782030826984944e-24
1.0471985131304309 3.156100938336614e-22 8.773024340795574e-15 8.77302433785279e-15 2.9427818958886543e-24
1.048180758391296 3.161812674969534e-22 8.797145037486048e-15 8.797145034477297e-15 3.0087483222519447e-24
1.0501480137395462 3.173227568909623e-22 8.845475157050686e-15 8.845475153905728e-15 3.144958123374358e-24
1.0521189612883777 3.1846308006675913e-22 8.893923133757511e-15 8.893923130470446e-15 3.2870662574499427e-24
1.0531058218030118 3.1903192004207673e-22 8.918166665433403e-15 8.91816666207299e-15 3.360412517477608e-24
1.0540936079674168 3.195975886272676e-22 8.942359116211357e-15 8.942359112776016e-15 3.435341384341063e-24
1.058054026499678 3.2185706261091107e-22 9.039414904619576e-15 9.039414900868196e-15 3.751376873895085e-24
1.0590464539527713 3.2242111458782174e-22 9.063750005834953e-15 9.06375000200032e-15 3.8346328959428376e-24
1.06003981227728 3.2298483340651317e-22 9.08811343123818e-15 9.088113427318521e-15 3.9196568899418974e-24
1.0620293250338977 3.2411125851713605e-22 9.136924978397602e-15 9.136924974302451e-15 4.095152338520446e-24
1.0660195594769086 3.2635996761507796e-22 9.23488491571114e-15 9.234884911242164e-15 4.4689767557756414e-24
1.070024785945596 3.2860298277570503e-22 9.333290254099466e-15 9.33329024922413e-15 4.8753400480976616e-24
1.0740450607676866 3.3084009850620095e-22 9.432136491467615e-15 9.432136486150686e-15 5.3169263134378665e-24
1.07808044048254 3.3307111098341227e-22 9.531419087077101e-15 9.531419081280474e-15 5.79662794784043e-24
1.0861967418109137 3.375100748931972e-22 9.731161273130464e-15 9.731161266247383e-15 6.883080707475315e-24
1.0902777775684922 3.397086575328321e-22 9.83135115282558e-15 9.831351145328781e-15 7.496801115312354e-24
1.0943741465085532 3.4190018235905374e-22 9.931951501913777e-15 9.931951493751171e-15 8.162606752329226e-24
1.1026131145906286 3.4626128498451607e-22 1.0134364564153226e-14 1.0134364554485712e-14 9.66751266169378e-24
1.1109141095355224 3.5059185458249683e-22 1.0338362059719004e-14 1.0338362048283847e-14 1.1435160489795755e-23
1.1192775983109025 3.5488637178269184e-22 1.0543785612370414e-14 1.0543785598861716e-14 1.3508694008759008e-23
1.1277040513999907 3.5912489580891227e-22 1.0750040161113997e-14 1.0750040145176129e-14 1.5937865824251473e-23
1.1361939428280308 3.633279181032665e-22 1.0957731965233558e-14 1.095773194645359e-14 1.8779966344744687e-23
1.1447477501889525 3.6749404933495807e-22 1.1166820697764508e-14 1.1166820675663623e-14 2.2100883034930566e-23
1.1533659546722406 3.7162420143989224e-22 1.1377335100392051e-14 1.1377335074415724e-14 2.5976325197329165e-23
1.1707974979042381 3.7978994015326343e-22 1.1803061653698423e-14 1.180306161794735e-14 3.5751076178333986e-23
1.1884924949847024 3.877943364773391e-22 1.2233967961478091e-14 1.2233967912517903e-14 4.896018820668302e-23
1.2064549276569216 3.9570005080443503e-22 1.267204307984495e-14 1.2672043013122836e-14 6.672210676670525e-23
1.2246888378427687 4.0342091193484114e-22 1.311455622615e-14 1.3114556135663478e-14 9.048652487158872e-23
1.2431983285522175 4.1093896486824123e-22 1.3560858152526082e-14 1.3560858030400072e-14 1.221260120665694e-22
1.2619875648066055 4.1825154804312613e-22 1.4010771996055473e-14 1.4010771832008473e-14 1.6404700206800287e-22
1.3004222497298317 4.321394042550035e-22 1.4916869606651044e-14 1.491686931478442e-14 2.9186662430624374e-22
1.3400274889804893 4.450313150473127e-22 1.5829737462341254e-14 1.5829736952501568e-14 5.098396831753862e-22
1.3808389325824078 4.568807911360099e-22 1.6746164601210766e-14 1.6746163726394832e-14 8.748159333589883e-22
1.4228933163050095 4.677465683161373e-22 1.7666575850131965e-14 1.7666574374946488e-14 1.4751854713337068e-21
1.466228494730424 4.778902460551799e-22 1.8599413720683847e-14 1.8599411274779356e-14 2.445904487866929e-21
1.5108834753276823 4.871173769279715e-22 1.9535927135317255e-14 1.953592314611511e-14 3.989202147891226e-21
1.5568984535646726 4.95270978672387e-22 2.0467867682454193e-14 2.046786127569268e-14 6.40676151098264e-21
1.6043148490894465 5.023674284324404e-22 2.1393434410072486e-14 2.1393424259403072e-14 1.015066942178488e-20
1.6531753430134553 5.084297436772071e-22 2.231101363142904e-14 2.2310997784148568e-14 1.5847280473218295e-20
1.7035239163302658 5.135301870302616e-22 2.322114584634767e-14 2.322112146133079e-14 2.438501687562875e-20
1.755405889504358 5.180781503658543e-22 2.4140277643679227e-14 2.4140240642345154e-14 3.700133407223231e-20
1.8088679632656115 5.219748826835764e-22 2.506258745784364e-14 2.5062532072839104e-14 5.538500453540648e-20
1.8639582606462262 5.251539217552173e-22 2.5983175645506716e-14 2.5983093832841786e-14 8.181266492231792e-20
1.9207263702978936 5.276664148495692e-22 2.6902608086114702e-14 2.690248877882947e-14 1.1930728523687297e-19
1.979223391128241 5.296291022011189e-22 2.7825058675695804e-14 2.782488684537778e-14 1.718303180324462e-19
2.039501978296691 5.311811249877937e-22 2.8756511396484734e-14 2.875626689867991e-14 2.4449780481760796e-19
2.1016163906111602 5.327097986901263e-22 2.971758853379208e-14 2.971724468076132e-14 3.4385303075879953e-19
2.1656225393682647 5.344401404687985e-22 3.0722125955489915e-14 3.072164782748974e-14 4.781280001808331e-19
2.231578038680979 5.363888844990427e-22 3.1773223764275576e-14 3.177256621942526e-14 6.575448503172633e-19
2.299542257339062 5.386908019193099e-22 3.288140662933466e-14 3.2880511984340136e-14 8.946449945223958e-19
2.369576372248914 5.416423669325339e-22 3.406848106006076e-14 3.4067276406128785e-14 1.2046539319641899e-18
2.4417434235010123 5.455933718964013e-22 3.536214050555736e-14 3.5360534701480366e-14 1.6058040769844215e-18
2.5161083711144245 5.511424336141879e-22 3.680972943616748e-14 3.680760969148266e-14 2.1197446848200566e-18
2.5927381535095444 5.592684697360583e-22 3.849004573630417e-14 3.8487273860621424e-14 2.7718756827433976e-18
2.6717017477616296 5.711381653221519e-22 4.050406298561392e-14 4.050047147900713e-14 3.591506606781541e-18
2.753070231689431 5.8850717250642835e-22 4.3006934134796595e-14 4.300232201466799e-14 4.61212012859094e-18
2.836916847834745 6.153547913382561e-22 4.633846315423941e-14 4.6332591399604305e-14 5.871754635109764e-18
2.9233170693905177 6.604440544615132e-22 5.124852736281712e-14 5.1241115518150625e-14 7.411844666496929e-18
2.967498994190263 6.984801480341245e-22 5.501917585836812e-14 5.5010888421732873e-14 8.287436635230827e-18
3.0123486681368425 7.42843030837651e-22 5.93979866928231e-14 5.938873256690925e-14 9.25412591385268e-18
3.0578761833420214 8.416188453542291e-22 6.83132238287925e-14 6.830290113716624e-14 1.0322691626275088e-17
3.1040917844459814 9.687740978744853e-22 7.982271696066779e-14 7.98112240969368e-14 1.1492863730977495e-17
3.127460860933648 1.1030610125389628e-21 9.157161026511127e-14 9.155948794443579e-14 1.2122320675513375e-17
3.1510058709225794 1.2818989714204749e-21 1.0721917086413128e-13 1.0720639027656398e-13 1.2780587567324555e-17
3.162844764501044 1.4482951858945384e-21 1.2159183061395575e-13 1.2157870854281486e-13 1.312207114088201e-17
3.1747281389236908 1.6417625115677864e-21 1.383522763275909e-13 1.3833880524738615e-13 1.3471080204734758e-17
3.1986289994194426 2.181272054044933e-21 1.852009195538056e-13 1.851867256375678e-13 1.419391623779428e-17
3.2227097969389145 3.452751380384554e-21 2.9536289760470297e-13 2.9534793547769493e-13 1.4962127008070576e-17
3.2348180950136065 4.658393472126219e-21 3.999958314704695e-13 3.9998045879066833e-13 1.53726798011202e-17
3.240889293275058 5.5597505755090635e-21 4.782873973659045e-13 4.782718081127523e-13 1.5589253152251798e-17
3.2469718861334385 6.602493177667577e-21 5.690571998117141e-13 5.690413864516277e-13 1.5813360086552565e-17
3.2714166318528037 1.2164077397968718e-20 1.0562931542512515e-12 1.0562764129014035e-12 1.6741349848104906e-17
3.2744851364798273 1.251175958160377e-20 1.0875039601857803e-12 1.0874871089580873e-12 1.6851227693239395e-17
3.2775565192852394 1.28694236150477e-20 1.119640808337111e-12 1.1196238466331413e-12 1.696170396989217e-17
3.283707930232385 1.2525522375181441e-20 1.0917665949347667e-12 1.0917494346267247e-12 1.7160308042281954e-17
3.2898708863219004 1.1434804147683383e-20 9.9856655841086e-13 9.985492164036064e-13 1.734200725332449e-17
3.29141343181113 1.1177582319193407e-20 9.76561833915208e-13 9.765444462562948e-13 1.7387658912913388e-17
3.292184975758714 1.1051192134882338e-20 9.65745718107032e-13 9.657283075881914e-13 1.741051884043846e-17
3.295272960557952 1.0253454793488758e-20 8.968732041446275e-13 8.968557045246786e-13 1.749961994912715e-17
3.3076538914384823 7.489721874794162e-21 6.575899740403756e-13 6.575721160424938e-13 1.7857997881714612e-17
3.310756385682612 6.927196285652885e-21 6.087712753152116e-13 6.087533268799343e-13 1.7948435277367373e-17
3.313861789986515 6.408164852054249e-21 5.63686326487027e-13 5.636682872759269e-13 1.8039211099949066e-17
3.3200813396944477 5.680308970608277e-21 5.005991592160335e-13 5.005809251914946e-13 1.8234024538902788e-17
3.345076488085796 4.382128101970758e-21 3.890993943913122e-13 3.8908029325962837e-13 1.910113168368208e-17
3.3482140837626964 4.430854681945815e-21 3.937949647023112e-13 3.937757461434652e-13 1.9218558845984963e-17
3.3513546224236106 4.480119284539751e-21 3.9854686327956124e-13 3.985275267086496e-13 1.9336570911676128e-17
3.3576445397418455 4.839974772359304e-21 4.31367327932043e-13 4.313477447895444e-13 1.9583142498671614e-17
3.3702598118196083 6.167068806091842e-21 5.517109563843692e-13 5.516908559165274e-13 2.0100467841787008e-17
3.382922481734668 6.469474313340238e-21 5.809389188381448e-13 5.809183136361423e-13 2.0605202002460846e-17
3.389271646505754 6.626135780431986e-21 5.961233626291225e-13 5.961025012120625e-13 2.0861417059987302e-17
3.395632727569191 6.794967339789148e-21 6.124597001428499e-13 6.124385746605136e-13 2.1125482336523918e-17
3.421196662673239 7.605668280429034e-21 6.906926787839701e-13 6.906704580050959e-13 2.2220778874297037e-17
3.4276182099114902 7.442481821967264e-21 6.771418520983688e-13 6.771193848073595e-13 2.2467291009464245e-17
3.4340518103208963 6.727099836163597e-21 6.132028282595645e-13 6.131801268025753e-13 2.2701456989287358e-17
3.4469541582030403 5.7082322405429024e-21 5.222838235852414e-13 5.222606706119771e-13 2.315297326435156e-17
3.472904465399547 5.422847513938661e-21 4.999075113781498e-13 4.998833211253583e-13 2.4190252791423654e-17
3.4990501388274233 4.986305072206511e-21 4.631252339323782e-13 4.63099977342998e-13 2.5256589380271653e-17
3.5253949054701885 3.432335509702471e-21 3.211936413764966e-13 3.211673411724274e-13 2.630020406931304e-17
3.5519380250092896 1.9716531488704048e-21 1.8589398148638103e-13 1.8586662605742088e-13 2.7355428960142462e-17
3.578680990867387 1.3926298136751273e-21 1.3229033245874195e-13 1.3226181927124288e-13 2.8513187499021115e-17
3.605625307711299 1.1585859314675785e-21 1.1088639821073703e-13 1.108566616648466e-13 2.973654589045583e-17
3.660119384959845 9.881754319895557e-22 9.600607981691036e-14 9.597375539009841e-14 3.23244268119468e-17
3.715437065384467 8.676185515161116e-22 8.5567367682645e-14 8.553228902009104e-14 3.507866255395895e-17
3.8285932144167436 8.071755241870151e-22 8.203074253166736e-14 8.198965185612169e-14 4.1090675545642825e-17
3.94519561050918 7.963796124352828e-22 8.33984746915649e-14 8.335068582188746e-14 4.778886967744343e-17
4.06534921144712 8.059888365475253e-22 8.697537639020291e-14 8.692017248364498e-14 5.520390655796492e-17
4.189162171576248 8.27429076324358e-22 9.20083800623604e-14 9.194499045712502e-14 6.338960523536961e-17
4.316745939156006 8.575028010181547e-22 9.825654060316677e-14 9.818417722103725e-14 7.236338212950815e-17
4.448215356677963 8.951345704251835e-22 1.0569235339387383e-13 1.0561029535068531e-13 8.205804318853613e-17
4.58368876423945 9.404512714003628e-22 1.1442498179722368e-13 1.1433244774174622e-13 9.253405547747685e-17
4.723288106065518 9.944694306671025e-22 1.2468244433407734e-13 1.2457853829853524e-13 1.0390603554207496e-16
4.867139040275056 1.0592230052364935e-21 1.3684552203328756e-13 1.3672954913466693e-13 1.1597289862067492e-16
4.940699165968905 1.098187344711839e-21 1.4402380440898563e-13 1.4390148771221895e-13 1.2231669676666853e-16
5.015371051989984 1.1385156046671993e-21 1.5156938536261915e-13 1.5144052532854263e-13 1.2886003407653756e-16
5.091171501069577 1.1876231922549805e-21 1.6049659754898908e-13 1.6036086615345285e-13 1.3573139553617052e-16
5.129500256944802 1.2128170900895236e-21 1.6513525333481186e-13 1.6499601041412986e-13 1.392429206820126e-16
5.168117569889187 1.2390712462596912e-21 1.6998010643996198e-13 1.6983727456524038e-13 1.4283187472161804e-16
5.20702561229733 1.2712482203276699e-21 1.757071784855267e-13 1.7556046846770564e-13 1.467100178210644e-16
5.246226572918644 1.3042361850550709e-21 1.8162378462523933e-13 1.8147313246065413e-13 1.5065216458518065e-16
5.265937586045735 1.3210423645006983e-21 1.8465534605005663e-13 1.8450269881443295e-13 1.5264723562367164e-16
5.285722656980489 1.3380611235930688e-21 1.877369498729855e-13 1.8758229157217689e-13 1.5465830080854342e-16
5.305582063971359 1.35529588973163e-21 1.9086952408633088e-13 1.9071283873081938e-13 1.566853555114761e-16
5.3255160863122235 1.3738049533872979e-21 1.9420312401969468e-13 1.9404438324806639e-13 1.5874077162831928e-16
5.365609099470188 1.4198638570405484e-21 2.022251504355966e-13 2.0206215411040574e-13 1.6299632519081175e-16
5.406003951863644 1.4676603502301899e-21 2.1060629765709365e-13 2.1043897518855626e-13 1.6732246853737018e-16
5.446702915881641 1.5172783910959956e-21 2.1936553395577453e-13 2.1919381466299256e-13 1.71719292782002e-16
5.487708281020852 1.5708723643133461e-21 2.288238820724452e-13 2.286476804360486e-13 1.7620163639664442e-16
5.529022354014368 1.6453147984302453e-21 2.4147200198251633e-13 2.412911166163628e-13 1.8088536615359243e-16
5.570647458961463 1.7241190061423214e-21 2.549425628179113e-13 2.5475691499589037e-13 1.856478220208909e-16
5.612585937458331 1.8075990009519912e-21 2.692988689994649e-13 2.691083797582002e-13 1.9048924126467412e-16
5.654840148729818 1.899335029988986e-21 2.850961443685518e-13 2.8490071568786945e-13 1.954286806823185e-16
5.67608639626678 1.961800995460657e-21 2.955788675510138e-13 2.9538085710589317e-13 1.980104451205396e-16
5.686739436050992 1.993995192283388e-21 3.0099332838541817e-13 3.0079401871186333e-13 1.9930967355478258e-16
5.6974124697621304 2.0268506439631598e-21 3.0652707575210674e-13 3.063264612768014e-13 2.0061447530536564e-16
5.718818669136295 2.094609007543325e-21 3.179645669287341e-13 3.177613261026615e-13 2.0324082607258641e-16
5.740305295436557 2.169292196835984e-21 3.3053882419022345e-13 3.3033291839416147e-13 2.0590579606198437e-16
5.7835210386641895 2.363022159513263e-21 3.627684814846067e-13 3.625570504665012e-13 2.1143101810541407e-16
5.827062130521658 2.5861358457358284e-21 4.0000960136702814e-13 3.9979250732713813e-13 2.170940398900759e-16
5.8489554468988025 2.7426674749593506e-21 4.258149475493041e-13 4.2559481177574936e-13 2.2013577355484904e-16
5.870931020387893 2.910614766488409e-21 4.535875641106299e-13 4.5336435664209723e-13 2.2320746853256755e-16
5.892989160043636 3.0908961683216554e-21 4.83492221461183e-13 4.832659121882139e-13 2.263092729691231e-16
5.915130176081913 3.295915948503709e-21 5.174994203592883e-13 5.172698992207807e-13 2.2952113850741455e-16
5.95966208400165 3.869179939028424e-21 6.120825469795242e-13 6.118458127428523e-13 2.3673423667192174e-16
6.004529249263818 4.69538569629057e-21 7.483756879259645e-13 7.481308879122078e-13 2.4480001375653596e-16
6.027089341400364 5.2697066894548595e-21 8.430697473868819e-13 8.428203402847908e-13 2.494071020911489e-16
6.049734195844842 5.948332077619156e-21 9.552145577970621e-13 9.54960279220604e-13 2.5427857645820995e-16
6.095279466722835 7.908610253418558e-21 1.2795675836387803e-12 1.2793015195883177e-12 2.660640504624493e-16
6.141167624020661 1.0925210933720263e-20 1.7809438018203923e-12 1.7806626737228044e-12 2.8112809758764727e-16
6.164241091010745 1.285168107619797e-20 2.1028533608167904e-12 2.1025628923215594e-12 2.9046849523127764e-16
6.187401249150058 1.5045953462233744e-20 2.471140439733309e-12 2.4708403457800135e-12 3.0009395329567956e-16
6.1990139391386085 1.6117379731871022e-20 2.6520791677783922e-12 2.651774168684487e-12 3.0499909390489914e-16
6.204828454712694 1.668174416837799e-20 2.7475187738162424e-12 2.747211293571512e-12 3.074802447310718e-16
6.210648424152782 1.7093738879614823e-20 2.8180159292207317e-12 2.817706307142018e-12 3.0962207871328835e-16
6.233982942956859 1.8493414893820428e-20 3.0602165232132265e-12 3.0598993135277993e-12 3.1720968542645676e-16
6.239830258556775 1.867231477461814e-20 3.0927183336358266e-12 3.0923999816229403e-12 3.1835201288580364e-16
6.245683058788269 1.8687801292646856e-20 3.098186680730967e-12 3.0978671831975347e-12 3.194975334317616e-16
6.257405133728602 1.8649288300771343e-20 3.097604524608379e-12 3.097282969112199e-12 3.2155549617958713e-16
6.269149208991335 1.837393753162004e-20 3.0575972207795527e-12 3.0572746551661135e-12 3.2256561343928705e-16
6.280915325867298 1.7683521266822367e-20 2.9482283684441495e-12 2.9479060926845175e-12 3.222757596322256e-16
6.304513850009849 1.598095410944208e-20 2.674383847520499e-12 2.674063331907176e-12 3.2051561332262147e-16
6.32820103803542 1.3870725003554446e-20 2.3299621301831976e-12 2.329644630837489e-12 3.174993457076763e-16
6.3519772230701035 1.1935530537241684e-20 2.012426805296363e-12 2.0121119241751377e-12 3.1488112122538635e-16
6.375842739491607 1.0307405213272175e-20 1.7444413773915276e-12 1.7441287099392423e-12 3.126674522856916e-16
6.399797922933955 9.002670789779262e-21 1.5293506193292864e-12 1.5290386554587258e-12 3.1196387056026946e-16
6.42384311029221 7.917845549549878e-21 1.3501169341658304e-12 1.3498053729131187e-12 3.1156125271185136e-16
6.447978639727206 7.127392626627594e-21 1.2198985261138936e-12 1.219586178442851e-12 3.123476710425925e-16
6.472204850670314 6.468891391093768e-21 1.1113517745671173e-12 1.1110383979769828e-12 3.133765901345447e-16
6.496522083828205 6.040990117307536e-21 1.041737930368559e-12 1.0414225508998044e-12 3.153794687548517e-16
