Dust emission spectrum from A.P. Jones, M. Kohler, N. Ysard, M. Bocchio, and L. Verstraete (2017), A&A, 602A, 46J 
inside the DustPedia framework.

lambda    nu*dP/dnu     j_nu    j_nu(carb.) j_nu(sil)
 (um)   (erg s-1 H-1) (Jy cm2 sr-1 H-1)
0.9927057738263894 6.120762327770468e-21 1.6128556386034964e-13 1.6128555071707408e-13 1.3143275647961774e-20
1.0001793341362166 6.2235858052149396e-21 1.652296532604656e-13 1.6522963744510496e-13 1.5815360631305895e-20
1.0077091589558085 6.3268334213523595e-21 1.6923533249286727e-13 1.6923531348759035e-13 1.900527692394016e-20
1.0114953028030835 6.3786118541897775e-21 1.712613957085178e-13 1.7126137488501274e-13 2.0823505045915143e-20
1.0152956718711033 6.4304910932496486e-21 1.733030112439989e-13 1.733029884359527e-13 2.2808046202715012e-20
1.0229392996569957 6.534494798069778e-21 1.7743174078366515e-13 1.7743171344822506e-13 2.733544008430061e-20
1.0267826658714554 6.586501296921167e-21 1.7951582654112042e-13 1.7951579662930474e-13 2.99118156437971e-20
1.0306404723013447 6.638599634261341e-21 1.8161558064185212e-13 1.8161554792178365e-13 3.2720068416883286e-20
1.03451277320114 6.690788344067094e-21 1.8373106058599938e-13 1.8373102480599482e-13 3.5780004594980606e-20
1.0383996230291617 6.743066011463692e-21 1.8586232522738552e-13 1.85862286114361e-13 3.911302449609421e-20
1.0403485208654093 6.769237776413998e-21 1.869338955861111e-13 1.8693385469701744e-13 4.0889093657060484e-20
1.0423010764483396 6.795431274016091e-21 1.880094348329214e-13 1.8800939209067903e-13 4.274224239375613e-20
1.0462171883269815 6.847882823013635e-21 1.9017245114290422e-13 1.9017240445028954e-13 4.6692614659954767e-20
1.0471985131304309 6.861009044374372e-21 1.9071569802339186e-13 1.9071565028989278e-13 4.773349905918916e-20
1.048180758391296 6.874140560962072e-21 1.91259944023824e-13 1.912598952272542e-13 4.8796569766292036e-20
1.0501480137395462 6.900419404747568e-21 1.9235143743219985e-13 1.923513864411231e-13 5.0991076745647337e-20
1.0521189612883777 6.926719206458909e-21 1.9344693952734804e-13 1.9344688624751226e-13 5.327983577270059e-20
1.0531058218030118 6.939859572062093e-21 1.9399571143285714e-13 1.9399565697202265e-13 5.446083442254204e-20
1.0540936079674168 6.952948285628026e-21 1.9454389738542337e-13 1.945438417183055e-13 5.566711790731935e-20
1.058054026499678 7.005352361141807e-21 1.967466117776918e-13 1.967465510249064e-13 6.075278538665483e-20
1.0590464539527713 7.018465602143553e-21 1.9729978827132253e-13 1.9729972617934528e-13 6.209197718282083e-20
1.06003981227728 7.031583699542674e-21 1.978539660475605e-13 1.9785390258818971e-13 6.34593707671201e-20
1.0620293250338977 7.057834400529599e-21 1.9896532975321897e-13 1.9896526347218903e-13 6.628102997308452e-20
1.0660195594769086 7.110393399695906e-21 2.0120012031950608e-13 2.0120004803119664e-13 7.228830943235798e-20
1.070024785945596 7.163028416393903e-21 2.0345105435089677e-13 2.034509755369938e-13 7.881390301739605e-20
1.0740450607676866 7.215738571441274e-21 2.0571820465500792e-13 2.0571811875489332e-13 8.590011465432383e-20
1.07808044048254 7.268523049924866e-21 2.0800164603997732e-13 2.0800155244748782e-13 9.359248956858621e-20
1.0861967418109137 7.374231557002259e-21 2.1261539101997137e-13 2.1261528002444217e-13 1.1099552919986822e-19
1.0902777775684922 7.426971293302086e-21 2.1494054145308622e-13 2.149404206374098e-13 1.2081567646693734e-19
1.0943741465085532 7.479779612902644e-21 2.1728215483177636e-13 2.1728202337034006e-13 1.314614362655433e-19
1.1026131145906286 7.585600230887618e-21 2.2201511260832308e-13 2.2201495711153596e-13 1.554967871755723e-19
1.1109141095355224 7.691690592865795e-21 2.2681497348270477e-13 2.2681478979638826e-13 1.836863165160685e-19
1.1192775983109025 7.797966361053702e-21 2.31680030738888e-13 2.316798140349334e-13 2.1670395457495968e-19
1.1277040513999907 7.904046989360333e-21 2.365996441977864e-13 2.36599388872442e-13 2.5532534444544324e-19
1.1361939428280308 8.010383869739525e-21 2.4158792927739765e-13 2.41587628835428e-13 3.004419696042011e-19
1.1447477501889525 8.116979231740423e-21 2.466457670603194e-13 2.466454139832666e-13 3.5307705287395264e-19
1.1533659546722406 8.223874009313834e-21 2.517752344030313e-13 2.5177481999900834e-13 4.144040229233583e-19
1.1707974979042381 8.438888589409688e-21 2.6226266622359554e-13 2.6226209752005516e-13 5.687035402788022e-19
1.1884924949847024 8.65515900753941e-21 2.730492120168525e-13 2.730484354789472e-13 7.765379054035497e-19
1.2064549276569216 8.874149246001512e-21 2.841889995052897e-13 2.841879444244596e-13 1.0550808300826922e-18
1.2246888378427687 9.0944768910024e-21 2.956466187199954e-13 2.956451922207619e-13 1.4264992334925668e-18
1.2431983285522175 9.315983448972071e-21 3.07424559127161e-13 3.0742263982363155e-13 1.9193035293922352e-18
1.2619875648066055 9.539015890120446e-21 3.1954209692356497e-13 3.19539526947056e-13 2.5699765090326817e-18
1.3004222497298317 9.988411732305171e-21 3.447865062090426e-13 3.447819633269093e-13 4.542882133279886e-18
1.3400274889804893 1.0444239252921509e-20 3.7150097033070563e-13 3.714930874384287e-13 7.882892276998929e-18
1.3808389325824078 1.0908438532258646e-20 3.9982969463256e-13 3.9981626091614277e-13 1.3433716417274246e-17
1.4228933163050095 1.1385184118230536e-20 4.3001324310410407e-13 4.2999074847299914e-13 2.2494631105094332e-17
1.466228494730424 1.1883004745868142e-20 4.624846883519177e-13 4.624476585570331e-13 3.702979488467608e-17
1.5108834753276823 1.2401473614587254e-20 4.97363256537983e-13 4.973033043404698e-13 5.99521975131647e-17
1.5568984535646726 1.2940823547617834e-20 5.348002921241964e-13 5.347047269451069e-13 9.556517908953769e-17
1.6043148490894465 1.3504902762491953e-20 5.751094420378659e-13 5.749591800515299e-13 1.502619863361266e-16
1.6531753430134553 1.4097910170352245e-20 6.186472563750832e-13 6.184144815589562e-13 2.32774816126834e-16
1.7035239163302658 1.4724793399984008e-20 6.658353953361987e-13 6.654800412690439e-13 3.5535406715455407e-16
1.755405889504358 1.539787486605964e-20 7.174766473490878e-13 7.169417857896986e-13 5.348615593893706e-16
1.8088679632656115 1.611880170019027e-20 7.739431354430729e-13 7.731491201223379e-13 7.940153207350907e-16
1.8639582606462262 1.6889222299083387e-20 8.356323952535212e-13 8.344693539388771e-13 1.1630413146440683e-15
1.9207263702978936 1.7713455014117716e-20 9.031049251669485e-13 9.01423405111915e-13 1.681520055033598e-15
1.979223391128241 1.8597232492978553e-20 9.770405047081108e-13 9.746399283724143e-13 2.40057633569643e-15
2.039501978296691 1.9546235591661298e-20 1.0581730413762347e-12 1.05478781081835e-12 3.3852305578845305e-15
2.1016163906111602 2.0572301283995408e-20 1.1476402090861508e-12 1.1429228675685573e-12 4.7173415175931996e-15
2.1656225393682647 2.1683291693542467e-20 1.2464573075560951e-12 1.2399591581988089e-12 6.4981493572862674e-15
2.231578038680979 2.288105934079516e-20 1.355369284129992e-12 1.3465181682284392e-12 8.851115901553012e-15
2.299542257339062 2.4170939482917835e-20 1.4753815860956731e-12 1.463456747600844e-12 1.192483849482885e-14
2.369576372248914 2.556073357603707e-20 1.6077312649085027e-12 1.5918351645118035e-12 1.5896100396699626e-14
2.4417434235010123 2.7059148067683252e-20 1.7538141869358866e-12 1.7328421839278346e-12 2.097200300805231e-14
2.5161083711144245 2.867951800085144e-20 1.9154491354408027e-12 1.888056279446751e-12 2.7392855994052097e-14
2.5927381535095444 3.044082513206243e-20 2.0950023378519423e-12 2.059568725620303e-12 3.543361223163893e-14
2.6717017477616296 3.235988365719858e-20 2.2949031345488926e-12 2.2495003618854535e-12 4.540277266343959e-14
2.753070231689431 3.44587461769671e-20 2.518176661957863e-12 2.460534506697285e-12 5.764215526057834e-14
2.836916847834745 3.678949764471105e-20 2.770383533318946e-12 2.69785562396462e-12 7.252790935432618e-14
2.9233170693905177 3.945948377603703e-20 3.0619405540226808e-12 2.9714915498224494e-12 9.044900420023175e-14
2.967498994190263 4.10120395613692e-20 3.230512167436838e-12 3.1300370588675807e-12 1.0047510856925651e-13
3.0123486681368425 4.266687404077107e-20 3.4116580640735113e-12 3.300190023597279e-12 1.1146804047623163e-13
3.0578761833420214 4.505032874295748e-20 3.656682841605138e-12 3.5331415521465685e-12 1.2354128945856993e-13
3.1040917844459814 4.776456085275615e-20 3.9355893495349426e-12 3.798939981079863e-12 1.3664936845508011e-13
3.127460860933648 5.0013641182191264e-20 4.15192777753349e-12 4.008271976830624e-12 1.4365580070286582e-13
3.1510058709225794 5.278503541590964e-20 4.414987341050955e-12 4.264037026925234e-12 1.5095031412572076e-13
3.162844764501044 5.515339416885024e-20 4.630411139163936e-12 4.475689235000207e-12 1.5472190416372919e-13
3.1747281389236908 5.780958576102736e-20 4.871647225003036e-12 4.71307938591395e-12 1.585678390890862e-13
3.1986289994194426 6.487430563454437e-20 5.508153389969004e-12 5.341647047941505e-12 1.6650634202749944e-13
3.2227097969389145 8.075093876289225e-20 6.9077754606969055e-12 6.7328660374110614e-12 1.7490942328584257e-13
3.2348180950136065 9.547948180053446e-20 8.198404651666903e-12 8.01901307567752e-12 1.7939157598938473e-13
3.240889293275058 1.0643534117451635e-19 9.156288870647833e-12 8.974533063601901e-12 1.8175580704592718e-13
3.2469718861334385 1.191170495996545e-19 1.0266487654131622e-11 1.0082285573497886e-11 1.8420208063373805e-13
3.2714166318528037 1.85472825690749e-19 1.6105921531664168e-11 1.5911617429166902e-11 1.943041024972642e-13
3.2744851364798273 1.8964241849855717e-19 1.6483443419071387e-11 1.6287950844552787e-11 1.9549257451860421e-13
3.2775565192852394 1.9392182610776845e-19 1.687121324405217e-11 1.6674526442795308e-11 1.9668680125686135e-13
3.283707930232385 1.8995186575403876e-19 1.6556842538296832e-11 1.635802417737853e-11 1.988183609183047e-13
3.2898708863219004 1.7712523297714376e-19 1.5467806183417768e-11 1.5267051755838886e-11 2.0075442757887766e-13
3.29141343181113 1.7409486604978468e-19 1.5210301906957343e-11 1.500906141884772e-11 2.0124048810961958e-13
3.292184975758714 1.7260502683291824e-19 1.508367274345782e-11 1.4882188918222806e-11 2.014838252350116e-13
3.295272960557952 1.6329630294485774e-19 1.428358357225413e-11 1.4081153924214496e-11 2.0242964803963415e-13
3.3076538914384823 1.3081745805976635e-19 1.1485639959349475e-11 1.1279413312224834e-11 2.0622664712463916e-13
3.310756385682612 1.2414351454169974e-19 1.0909898110753502e-11 1.0702714785294327e-11 2.0718332545916954e-13
3.313861789986515 1.1796108029626005e-19 1.037630110269784e-11 1.0168158124257183e-11 2.0814297844065772e-13
3.3200813396944477 1.0936136077904892e-19 9.637892153400011e-12 9.427683297849226e-12 2.1020885555078797e-13
3.345076488085796 9.461172647988277e-20 8.400796284134854e-12 8.181376334193865e-12 2.194199499409887e-13
3.3482140837626964 9.528728892531567e-20 8.46871704725939e-12 8.248049108988859e-12 2.2066793827052945e-13
3.3513546224236106 9.596857463216091e-20 8.537266970780547e-12 8.315345625511268e-12 2.219213452692802e-13
3.3576445397418455 1.0045969882643595e-19 8.953565645651761e-12 8.72902304754829e-12 2.2454259810347098e-13
3.3702598118196083 1.1653054547342331e-19 1.0424916716938143e-11 1.0194876272302894e-11 2.3004044463524704e-13
3.382922481734668 1.2055029758402132e-19 1.082504638741192e-11 1.0589668246268724e-11 2.3537814114319734e-13
3.389271646505754 1.2261923270147637e-19 1.1031495843606377e-11 1.0793413407606018e-11 2.3808243600035924e-13
3.395632727569191 1.2488915468806104e-19 1.1256797922110011e-11 1.1015928545151343e-11 2.408693769586674e-13
3.421196662673239 1.3581808384212592e-19 1.233403202682567e-11 1.2081632626558276e-11 2.523994002673996e-13
3.4276182099114902 1.3404753051481998e-19 1.2196092009805525e-11 1.1941126184759545e-11 2.549658250459834e-13
3.4340518103208963 1.2561416579134355e-19 1.1450248042794834e-11 1.1192858081712453e-11 2.5738996108238066e-13
3.4469541582030403 1.1356567792989607e-19 1.0390873040518579e-11 1.0128836857350702e-11 2.6203618316787634e-13
3.472904465399547 1.1061678264800756e-19 1.019725529587308e-11 9.924506246039546e-12 2.7274904983353675e-13
3.4990501388274233 1.0593672117435396e-19 9.839343575139739e-12 9.55564671340295e-12 2.836968617367862e-13
3.5253949054701885 8.818305448857286e-20 8.252059362734607e-12 7.957750557390395e-12 2.943088053442124e-13
3.5519380250092896 7.130121282961216e-20 6.722514223811705e-12 6.417558648998961e-12 3.049555748127433e-13
3.578680990867387 6.50438472941702e-20 6.1787217955889e-12 5.8620995812776926e-12 3.166222143112072e-13
3.605625307711299 6.297036511419864e-20 6.026792482007564e-12 5.697894785156411e-12 3.2889769685115174e-13
3.660119384959845 6.241416596513972e-20 6.063841708036338e-12 5.709207811654662e-12 3.5463389638167704e-13
3.715437065384467 6.241766675022052e-20 6.1558336107221244e-12 5.774147045698711e-12 3.816865650234121e-13
3.8285932144167436 6.465083166881594e-20 6.570263304780372e-12 6.130709045316484e-12 4.395542594638882e-13
3.94519561050918 6.749135214496796e-20 7.06783013511539e-12 6.565587297881366e-12 5.022428372340237e-13
4.06534921144712 7.057049290498368e-20 7.615360044867295e-12 7.045781473847241e-12 5.695785710200536e-13
4.189162171576248 7.376770899945019e-20 8.202814718696651e-12 7.561230239480013e-12 6.415844792166372e-13
4.316745939156006 7.701889221747333e-20 8.825172234296729e-12 8.107299686501713e-12 7.178725477950155e-13
4.448215356677963 8.027852460514687e-20 9.478827511349203e-12 8.681581502383604e-12 7.97246008965596e-13
4.58368876423945 8.352480273831295e-20 1.0162487226708715e-11 9.282797010579585e-12 8.796902161291277e-13
4.723288106065518 8.674840930221099e-20 1.0876155043435743e-11 9.910539150370888e-12 9.656158930648569e-13
4.867139040275056 8.992725639525738e-20 1.1618084469079952e-11 1.0565565380090268e-11 1.0525190889896827e-12
4.940699165968905 9.152550600854517e-20 1.2003281260964652e-11 1.0906700776708338e-11 1.0965804842563155e-12
5.015371051989984 9.308341522534259e-20 1.23920971968432e-11 1.1251206581040676e-11 1.1408906158025242e-12
5.091171501069577 9.469859872960803e-20 1.2797664265801871e-11 1.1611219287840046e-11 1.1864449779618215e-12
5.129500256944802 9.548829248051007e-20 1.3001534607426826e-11 1.1792278594293904e-11 1.2092560131329204e-12
5.168117569889187 9.627541250334755e-20 1.3207396196360783e-11 1.1975066144006044e-11 1.2323300523547385e-12
5.20702561229733 9.713447076143172e-20 1.3425563566788639e-11 1.2167920723638891e-11 1.257642843149745e-12
5.246226572918644 9.798303572723632e-20 1.3644806041859101e-11 1.2361766083756283e-11 1.2830399581028217e-12
5.265937586045735 9.840331352143021e-20 1.3754818466885211e-11 1.2459052315369257e-11 1.2957661515159557e-12
5.285722656980489 9.882088636606864e-20 1.3865085430695733e-11 1.2556576809015428e-11 1.308508621680301e-12
5.305582063971359 9.92357291908192e-20 1.3975602336374166e-11 1.2654336590873201e-11 1.3212657455009637e-12
5.3255160863122235 9.966182352781931e-20 1.4088344511264569e-11 1.2754197098000715e-11 1.3341474132638525e-12
5.365609099470188 1.0061392030064169e-19 1.4330011337228746e-11 1.2969203324453406e-11 1.3608080127753352e-12
5.406003951863644 1.0156015754424855e-19 1.4573677599528137e-11 1.3186130097408303e-11 1.3875475021198333e-12
5.446702915881641 1.0250070419592771e-19 1.481937780089296e-11 1.340502494546718e-11 1.414352855425777e-12
5.487708281020852 1.0346192464889547e-19 1.5070962977438086e-11 1.3629626347165514e-11 1.4413366302725755e-12
5.529022354014368 1.046499917706655e-19 1.535878911708932e-11 1.3889326129760968e-11 1.469462987328348e-12
5.570647458961463 1.0584907208226584e-19 1.5651723351121793e-11 1.4154058165818195e-11 1.4976651853035974e-12
5.612585937458331 1.0706089488972783e-19 1.5950096173260748e-11 1.4424166210252881e-11 1.5259299630078676e-12
5.654840148729818 1.0832636484764967e-19 1.6260127078109553e-11 1.4705729507148263e-11 1.5543975709612958e-12
5.67608639626678 1.0913783664990613e-19 1.6443481392143946e-11 1.4874167564655275e-11 1.5693138274886701e-12
5.686739436050992 1.095485273703952e-19 1.65363366975712e-11 1.4959556636156622e-11 1.5767800614145812e-12
5.6974124697621304 1.0996265450065795e-19 1.663000232721567e-11 1.5045750908807046e-11 1.5842514184086222e-12
5.718818669136295 1.1080163376049306e-19 1.6819842446382042e-11 1.5220633790624287e-11 1.599208655757752e-12
5.740305295436557 1.1170402047673072e-19 1.7020535840931193e-11 1.5406230425030893e-11 1.6143054159003022e-12
5.7835210386641895 1.1395818037931363e-19 1.749473058579689e-11 1.5849237348308845e-11 1.6454932374880466e-12
5.827062130521658 1.1644041920014383e-19 1.8010378590149684e-11 1.6333305855748166e-11 1.677072734401521e-12
5.8489554468988025 1.1815160887237668e-19 1.8343718877405157e-11 1.6649521963707173e-11 1.6941969136979835e-12
5.870931020387893 1.1994388382523353e-19 1.869194601795226e-11 1.6980579523586216e-11 1.7113664943660492e-12
5.892989160043636 1.2182384626209896e-19 1.905624739513356e-11 1.7327667616162157e-11 1.728579778971401e-12
5.915130176081913 1.2393056963884602e-19 1.9458626662495746e-11 1.771218084026971e-11 1.7464458222260336e-12
5.95966208400165 1.2976458542334735e-19 2.0528028989421725e-11 1.874045971725908e-11 1.787569272162646e-12
6.004529249263818 1.3798266836749118e-19 2.1992415754676078e-11 2.0158337685872154e-11 1.834078068803926e-12
6.027089341400364 1.436437531457492e-19 2.2980729253987786e-11 2.1119572227741624e-11 1.8611570262461593e-12
6.049734195844842 1.5022853117317924e-19 2.4124490378238478e-11 2.2234604987092486e-11 1.8898853911459883e-12
6.095279466722835 1.690994161705596e-19 2.7359311485929147e-11 2.539811111682319e-11 1.961200369105964e-12
6.141167624020661 1.9764907381123866e-19 3.2219230829971973e-11 3.016460619952021e-11 2.054624630451767e-12
6.164241091010745 2.1580240456163799e-19 3.5310618822097084e-11 3.3196941924123354e-11 2.1136768979737385e-12
6.187401249150058 2.3609444941168407e-19 3.87760432067139e-11 3.6601809931769044e-11 2.1742332749448636e-12
6.1990139391386085 2.4593653206641745e-19 4.0468312104060056e-11 3.826328104068468e-11 2.2050310633753842e-12
6.204828454712694 2.5108840939924553e-19 4.1354795502727315e-11 3.913421745996258e-11 2.2205780427647383e-12
6.210648424152782 2.5481037059486153e-19 4.200717516068305e-11 3.977344358481376e-11 2.233731575869282e-12
6.233982942956859 2.672301897791899e-19 4.422018577742206e-11 4.194098641897793e-11 2.2791993584441213e-12
6.239830258556775 2.6868989380615374e-19 4.4503435737198206e-11 4.2218222583690815e-11 2.2852131535073834e-12
6.245683058788269 2.686337291809888e-19 4.453586747367158e-11 4.224463397666622e-11 2.291233497005361e-12
6.257405133728602 2.6786796365746266e-19 4.4492261733584234e-11 4.219066326678774e-11 2.3015984667965035e-12
6.269149208991335 2.6489032573072574e-19 4.4080258919561344e-11 4.17756875641115e-11 2.3045713554498477e-12
6.280915325867298 2.5806562377999365e-19 4.3025163454061906e-11 4.072674876102292e-11 2.2984146930389916e-12
6.304513850009849 2.415003023786155e-19 4.0414640041490865e-11 3.81367819112062e-11 2.2778581302846654e-12
6.32820103803542 2.214182241423273e-19 3.719315876075955e-11 3.494462597228434e-11 2.248532788475211e-12
6.3519772230701035 2.0313906499882092e-19 3.425088632054576e-11 3.20288711027663e-11 2.222015217779445e-12
6.375842739491607 1.8768990471087745e-19 3.176493298960809e-11 2.956654621961682e-11 2.1983867699912857e-12
6.399797922933955 1.7551208771689269e-19 2.9815543222389375e-11 2.7630414076154347e-11 2.1851291462350264e-12
6.42384311029221 1.6532449886185627e-19 2.8190421769285572e-11 2.6016474942765062e-11 2.1739468265205097e-12
6.447978639727206 1.5796569821706123e-19 2.7036832755869137e-11 2.4866004764279958e-11 2.170827991589182e-12
6.472204850670314 1.51801632234099e-19 2.607943203341153e-11 2.3910129573669722e-11 2.169302459741808e-12
