Dust emission spectrum from A.P. Jones, M. Kohler, N. Ysard, M. Bocchio, and L. Verstraete (2017), A&A, 602A, 46J 
inside the DustPedia framework.

lambda    nu*dP/dnu     j_nu    j_nu(carb.) j_nu(sil)
 (um)   (erg s-1 H-1) (Jy cm2 sr-1 H-1)
0.9927057738263894 1.0397196412461923e-22 2.7397203095803838e-15 2.7397201736735744e-15 1.3590680883229352e-22
1.0001793341362166 1.057225095518624e-22 2.8068213634080663e-15 2.8068211998138512e-15 1.6359421635646166e-22
1.0077091589558085 1.0747855108931402e-22 2.8749244871953247e-15 2.874924290533407e-15 1.9666191826809231e-22
1.0114953028030835 1.0835852859887036e-22 2.9093528919735632e-15 2.9093526764569994e-15 2.1551656382056597e-22
1.0152956718711033 1.0923975619034605e-22 2.9440331105069868e-15 2.9440328744064178e-15 2.361005698951511e-22
1.0229392996569957 1.1100494535178147e-22 3.0141275336511307e-15 3.014127250575024e-15 2.8307610594257567e-22
1.0267826658714554 1.1188688557864886e-22 3.0494895299195925e-15 3.0494892201022047e-15 3.098173870773958e-22
1.0306404723013447 1.1276987487734521e-22 3.0851034002801255e-15 3.0851030613077387e-15 3.389723873687731e-22
1.03451277320114 1.1365387597087503e-22 3.1209696224145135e-15 3.120969251666506e-15 3.7074800721136976e-22
1.0383996230291617 1.1453885233783307e-22 3.1570886875783095e-15 3.1570882822104392e-15 4.053678706408975e-22
1.0403485208654093 1.1498169504770197e-22 3.175243193739255e-15 3.1752427699200957e-15 4.238191582604833e-22
1.0423010764483396 1.154247682334721e-22 3.193461101471901e-15 3.1934606583983125e-15 4.430735889305596e-22
1.0462171883269815 1.1631158871066044e-22 3.2300873851251647e-15 3.230086900999053e-15 4.841261124181051e-22
1.0471985131304309 1.165334311530903e-22 3.23928368577877e-15 3.239283190834051e-15 4.949447190932765e-22
1.048180758391296 1.1675532746958615e-22 3.2484958953459342e-15 3.2484953893513196e-15 5.059946148662382e-22
1.0501480137395462 1.1719927964072168e-22 3.2669680757956564e-15 3.2669675469884793e-15 5.288071761654685e-22
1.0521189612883777 1.1764344108926478e-22 3.285503996316664e-15 3.2855034437141504e-15 5.526025143367542e-22
1.0531058218030118 1.1786529798272182e-22 3.294787466226736e-15 3.2947869013446866e-15 5.648820492574123e-22
1.0540936079674168 1.1808621942117582e-22 3.3040592867908527e-15 3.304058709365605e-15 5.774252488126675e-22
1.058054026499678 1.1897036278809318e-22 3.341304558833783e-15 3.3413039285181593e-15 6.3031562470205855e-22
1.0590464539527713 1.191915105923788e-22 3.350655419103732e-15 3.3506547748584634e-15 6.442452692431861e-22
1.06003981227728 1.1941270221777894e-22 3.360022114474795e-15 3.3600214560056295e-15 6.584691666574552e-22
1.0620293250338977 1.1985521503269055e-22 3.378803047551361e-15 3.3788023597279013e-15 6.878234587923556e-22
1.0660195594769086 1.207407458270086e-22 3.4165553468391745e-15 3.4165545965085938e-15 7.503305804359786e-22
1.070024785945596 1.2162692577464998e-22 3.4545620717735876e-15 3.454561253525083e-15 8.182485051792012e-22
1.0740450607676866 1.2251372643063512e-22 3.492823859591538e-15 3.492822967570954e-15 8.920205845300252e-22
1.07808044048254 1.234011203210923e-22 3.531341370683254e-15 3.5313403985589553e-15 9.721242989144706e-22
1.0861967418109137 1.2517619438753815e-22 3.609106292685706e-15 3.6091051392635424e-15 1.1534221642359962e-21
1.0902777775684922 1.2606066731795446e-22 3.648263473657728e-15 3.648262217892643e-15 1.2557650861505511e-21
1.0943741465085532 1.2694557858764767e-22 3.687676681584296e-15 3.687675314842004e-15 1.366742292016467e-21
1.1026131145906286 1.287166290328738e-22 3.767274311785519e-15 3.767272694381886e-15 1.617403633838127e-21
1.1109141095355224 1.3048918255665672e-22 3.847905752841861e-15 3.8479038412918135e-15 1.9115500468259717e-21
1.1192775983109025 1.3226166955496109e-22 3.929535759619444e-15 3.92953350335193e-15 2.25626751431158e-21
1.1277040513999907 1.3402741548004036e-22 4.011974986739389e-15 4.0119723270220966e-15 2.6597172910265783e-21
1.1361939428280308 1.3579407370995416e-22 4.095460293689633e-15 4.095457162403747e-15 3.1312858861436156e-21
1.1447477501889525 1.3756155905355494e-22 4.1800003772465615e-15 4.179996695491862e-15 3.6817547000784785e-21
1.1533659546722406 1.393304851093001e-22 4.265625361983022e-15 4.265621038486323e-15 4.3234966997661555e-21
1.1707974979042381 1.4287806092012893e-22 4.440345527110638e-15 4.440339587525068e-15 5.939585570347901e-21
1.1884924949847024 1.4643074860399684e-22 4.619533908797125e-15 4.6195257898229034e-15 8.118974220390166e-21
1.2064549276569216 1.5001307698143252e-22 4.804073616326922e-15 4.8040625729659535e-15 1.1043360966515917e-20
1.2246888378427687 1.535997039851233e-22 4.993275991994813e-15 4.993261044367033e-15 1.4947627778517e-20
1.2431983285522175 1.5718705310642481e-22 5.187123910903071e-15 5.187103776562459e-15 2.0134340612059607e-20
1.2619875648066055 1.6077956917492083e-22 5.385863832120409e-15 5.385836840853869e-15 2.69912665396259e-20
1.3004222497298317 1.6795383222047979e-22 5.7975398459425176e-15 5.79749202179253e-15 4.782414998827928e-20
1.3400274889804893 1.7513965106573048e-22 6.229706993364782e-15 6.22962380756648e-15 8.318579830180022e-20
1.3808389325824078 1.8236002779481587e-22 6.6840871872511154e-15 6.683945074785141e-15 1.42112465975114e-19
1.4228933163050095 1.8967682918264834e-22 7.164007855431172e-15 7.16376928821337e-15 2.3856721780005546e-19
1.466228494730424 1.9722726534803843e-22 7.676054356597382e-15 7.675660623609388e-15 3.9373298799504213e-19
1.5108834753276823 2.0499283432760208e-22 8.221273279024002e-15 8.220634138466397e-15 6.391405576047349e-19
1.5568984535646726 2.1296746173436946e-22 8.801221987873823e-15 8.80020045796298e-15 1.0215299108449372e-18
1.6043148490894465 2.2120826969111467e-22 9.420205890674924e-15 9.418595341885119e-15 1.610548789804172e-18
1.6531753430134553 2.2977852015036513e-22 1.0083186042984865e-14 1.0080684238199705e-14 2.5018047851622627e-18
1.7035239163302658 2.387563734868078e-22 1.0796242773076763e-14 1.0792412836501255e-14 3.829936575507915e-18
1.755405889504358 2.4834731164082093e-22 1.1571947303388689e-14 1.1566166277433912e-14 5.7810259547766e-18
1.8088679632656115 2.5857318994341955e-22 1.2415373617008086e-14 1.2406766724880649e-14 8.606892127437368e-18
1.8639582606462262 2.6945884454543094e-22 1.3332084550865614e-14 1.3319440462791192e-14 1.2644088074425404e-17
1.9207263702978936 2.8107503375366767e-22 1.4330363394498227e-14 1.4312027975795853e-14 1.8335418702372472e-17
1.979223391128241 2.9351718117976966e-22 1.5420475866431108e-14 1.5394220221338402e-14 2.6255645092702446e-17
2.039501978296691 3.0688207368992152e-22 1.6613651039735053e-14 1.6576511499546715e-14 3.713954018834093e-17
2.1016163906111602 3.2137049066723577e-22 1.7927877489835987e-14 1.78759604257124e-14 5.1917064123582455e-17
2.1656225393682647 3.371164813934027e-22 1.937903652587701e-14 1.9307291577388284e-14 7.17449484887285e-17
2.231578038680979 3.5415525738685036e-22 2.097853733631404e-14 2.0880495002547627e-14 9.804233376641168e-17
2.299542257339062 3.7257874054536283e-22 2.2742012719854294e-14 2.2609484562601587e-14 1.3252815725270502e-16
2.369576372248914 3.925255029699254e-22 2.468925711859504e-14 2.4511996025739e-14 1.772610928560372e-16
2.4417434235010123 4.141509772448071e-22 2.684282068335984e-14 2.6608150360755566e-14 2.346703226042667e-16
2.5161083711144245 4.3769482383564e-22 2.9232784591358934e-14 2.892518874259558e-14 3.0759584876334547e-16
2.5927381535095444 4.635059965778812e-22 3.1899468632217896e-14 3.150015482983347e-14 3.993138023844143e-16
2.6717017477616296 4.919181872049879e-22 3.488592856875759e-14 3.4372394750878377e-14 5.13533817879226e-16
2.753070231689431 5.233843945516123e-22 3.8247890994762187e-14 3.7593483692233117e-14 6.544073025290815e-16
2.836916847834745 5.5894763564957295e-22 4.20907983236284e-14 4.1264248286607585e-14 8.265500370208247e-16
2.9233170693905177 6.0079206468522695e-22 4.661970738988382e-14 4.558488617520802e-14 1.0348212146758124e-15
2.967498994190263 6.260388119943109e-22 4.9312982750078187e-14 4.816102223783621e-14 1.1519605122419878e-15
3.0123486681368425 6.532331076836638e-22 5.2232746121011496e-14 5.095207637434873e-14 1.2806697466627733e-15
3.0578761833420214 6.947656709305224e-22 5.639332228458097e-14 5.497101814681656e-14 1.4223041377644066e-15
3.1040917844459814 7.430941526635675e-22 6.122768388763855e-14 5.965118785412557e-14 1.5764960335129737e-15
3.127460860933648 7.851136635600229e-22 6.517692275955826e-14 6.351784393411565e-14 1.6590788254426008e-15
3.1510058709225794 8.377967633089929e-22 7.007406692518413e-14 6.832888922602021e-14 1.7451776991639046e-15
3.162844764501044 8.837565620270843e-22 7.419590925975358e-14 7.240616830748961e-14 1.7897409522639614e-15
3.1747281389236908 9.357443265500099e-22 7.885571556582412e-14 7.702050046348306e-14 1.835215102341061e-15
3.1986289994194426 1.0756567752731768e-21 9.132864629859226e-14 8.939946755025519e-14 1.9291787483370833e-15
3.2227097969389145 1.3940952031157125e-21 1.1925677622441875e-13 1.172280112935292e-13 2.0287649308895517e-15
3.2348180950136065 1.6912595923264778e-21 1.452210490403819e-13 1.4313913449037997e-13 2.0819145500019e-15
3.240889293275058 1.912641059942812e-21 1.645383371485963e-13 1.6242838742791131e-13 2.1099497206849982e-15
3.2469718861334385 2.1689198543108768e-21 1.8693536300573523e-13 1.8479640495527052e-13 2.138958050464665e-15
3.2714166318528037 3.5167511422742245e-21 3.053844558248087e-13 3.0312560478056683e-13 2.258851044241855e-15
3.2744851364798273 3.6014398210388736e-21 3.1303191547167773e-13 3.1075893035717815e-13 2.272985114499535e-15
3.2775565192852394 3.688413766992235e-21 3.2089227109815725e-13 3.1860508081536695e-13 2.28719028279021e-15
3.283707930232385 3.607360565635158e-21 3.1442966157237027e-13 3.121170575886676e-13 2.3126039837026096e-15
3.2898708863219004 3.3461034488440746e-21 2.922050051618823e-13 2.8986926381797385e-13 2.335741343908345e-15
3.29141343181113 3.284401729612536e-21 2.8695126412776445e-13 2.846097126292302e-13 2.3415514985342918e-15
3.292184975758714 3.254070151742975e-21 2.8436790140913946e-13 2.820234409561673e-13 2.3444604529721768e-15
3.295272960557952 3.064015057406182e-21 2.6801044695962853e-13 2.6565466943739845e-13 2.355777522230096e-15
3.3076538914384823 2.4018935964689715e-21 2.1088381840523062e-13 2.0848258134401221e-13 2.4012370612184202e-15
3.310756385682612 2.26611899650995e-21 1.9914956854602366e-13 1.9673687206923688e-13 2.412696476786766e-15
3.313861789986515 2.1404518522427624e-21 1.8828221019100297e-13 1.858580164125816e-13 2.4241937784213463e-15
3.3200813396944477 1.9652895449190927e-21 1.7319872895878867e-13 1.7074981009123892e-13 2.448918867549747e-15
3.345076488085796 1.6618283555589935e-21 1.4755762307348209e-13 1.4499853140002817e-13 2.5590916734538607e-15
3.3482140837626964 1.6750949527132034e-21 1.4887510539773154e-13 1.4630108963968437e-13 2.5740157580471582e-15
3.3513546224236106 1.688482859776331e-21 1.5020572103679866e-13 1.4761671343683882e-13 2.5890075999598753e-15
3.3576445397418455 1.7788426101289036e-21 1.5854102957832558e-13 1.559206793508874e-13 2.6203502274381585e-15
3.3702598118196083 2.1045952285550706e-21 1.8827878897688528e-13 1.855926954217867e-13 2.686093555098577e-15
3.382922481734668 2.1844657740367435e-21 1.9615831573688116e-13 1.934082940107535e-13 2.750021726127691e-15
3.389271646505754 2.225648149083849e-21 2.002314625938211e-13 1.9744903279611977e-13 2.7824297977013037e-15
3.395632727569191 2.270654897911515e-21 2.046639149771004e-13 2.018480865392361e-13 2.8158284378643198e-15
3.421196662673239 2.4873281367970535e-21 2.2588144400667812e-13 2.229273314477004e-13 2.9541125589778036e-15
3.4276182099114902 2.4505714075880155e-21 2.2296117092763438e-13 2.1997616863776905e-13 2.9850022898654027e-15
3.4340518103208963 2.2784905460636962e-21 2.07693787967585e-13 2.0467955513986262e-13 3.0142328277223633e-15
3.4469541582030403 2.032813229642082e-21 1.8599549238227086e-13 1.829251263574033e-13 3.0703660248674877e-15
3.472904465399547 1.9708100514005804e-21 1.816799653064801e-13 1.7848033614079744e-13 3.1996291656826286e-15
3.4990501388274233 1.873125161505846e-21 1.7397482024162262e-13 1.7064284993840569e-13 3.3319703032169605e-15
3.5253949054701885 1.5074926476106045e-21 1.4106926652876018e-13 1.376086238998123e-13 3.460642628947917e-15
3.5519380250092896 1.1603920978037931e-21 1.0940560578297718e-13 1.0581555271662555e-13 3.590053066351653e-15
3.578680990867387 1.029322755319009e-21 9.777864021821492e-14 9.404673802191651e-14 3.7319021962984116e-15
3.605625307711299 9.832814163552277e-22 9.410828469932482e-14 9.022694051912088e-14 3.881344180203927e-15
3.660119384959845 9.64364020857304e-22 9.36926846810754e-14 8.949716373924303e-14 4.195520941832386e-15
3.715437065384467 9.570799055456194e-22 9.439033782344426e-14 8.986331151076569e-14 4.527026312678582e-15
3.8285932144167436 9.880739664616034e-22 1.0041488959503683e-13 9.51743417707795e-14 5.240547824257298e-15
3.94519561050918 1.0320055124382994e-21 1.0807369283029606e-13 1.0205354252959248e-13 6.020150300703594e-15
4.06534921144712 1.0815415314172251e-21 1.1671065095589937e-13 1.0984538813909822e-13 6.865262816801147e-15
4.189162171576248 1.1344022467823414e-21 1.2614315359716666e-13 1.1836540326359052e-13 7.777750333576144e-15
4.316745939156006 1.1895058146499264e-21 1.3629894413881798e-13 1.275444028409487e-13 8.754541297869298e-15
4.448215356677963 1.2462003469997456e-21 1.4714418571958629e-13 1.3736172791840618e-13 9.782457801180112e-15
4.58368876423945 1.3042336441455245e-21 1.586864896981421e-13 1.4782352294305588e-13 1.0862966755086231e-14
4.723288106065518 1.3635895187363842e-21 1.7096118696210893e-13 1.589581977298212e-13 1.2002989232287699e-14
4.867139040275056 1.4241796480948015e-21 1.8399582188946418e-13 1.7082289483012004e-13 1.3172927059344164e-14
4.940699165968905 1.4555190696819773e-21 1.9088673240942498e-13 1.7711405799996537e-13 1.3772674409459609e-14
5.015371051989984 1.4866370289556941e-21 1.979144245475589e-13 1.8353395785620733e-13 1.4380466691351613e-14
5.091171501069577 1.5195461770334515e-21 2.05353004911748e-13 1.9034372726859837e-13 1.5009277643149582e-14
5.129500256944802 1.5358848800073605e-21 2.0912365172426872e-13 1.9379754060657038e-13 1.5326111117698365e-14
5.168117569889187 1.5523308047441706e-21 2.129541430462213e-13 1.9730658320764511e-13 1.5647559838576127e-14
5.20702561229733 1.5703414731720558e-21 2.1704673021193892e-13 2.0104859248818564e-13 1.599813772375332e-14
5.246226572918644 1.5883219793604109e-21 2.211846691576864e-13 2.048334049185494e-13 1.6351264239137044e-14
5.265937586045735 1.5973002875413807e-21 2.2327068780514698e-13 2.0674194685652104e-13 1.6528740948625976e-14
5.285722656980489 1.6062703248293034e-21 2.253680987645617e-13 2.0866129506069937e-13 1.6706803703862355e-14
5.305582063971359 1.6152318803099685e-21 2.274769241312175e-13 2.1059148904197464e-13 1.688543508924291e-14
5.3255160863122235 1.6244764203286231e-21 2.2963841769990387e-13 2.1257240175989475e-13 1.7066015940009187e-14
5.365609099470188 1.6452064625937891e-21 2.3431973618168055e-13 2.168801064465102e-13 1.7439629735170385e-14
5.406003951863644 1.6660375780696186e-21 2.3907302941024555e-13 2.2125716183651975e-13 1.7815867573725753e-14
5.446702915881641 1.6869770154480842e-21 2.4390027297335606e-13 2.2570568191690118e-13 1.819459105645488e-14
5.487708281020852 1.7085889640272683e-21 2.4888461245911255e-13 2.303073516696882e-13 1.8577260789424375e-14
5.529022354014368 1.7352901174698497e-21 2.546770861635118e-13 2.357008692365611e-13 1.897621692695079e-14
5.570647458961463 1.7625221771668004e-21 2.6062117479680324e-13 2.4124325120872827e-13 1.9377923588074992e-14
5.612585937458331 1.790330365275028e-21 2.667261611950676e-13 2.4694392093853173e-13 1.978224025653588e-14
5.654840148729818 1.8196069195881457e-21 2.731287049678255e-13 2.5293770038162124e-13 2.0191004586204198e-14
5.67608639626678 1.838240356106902e-21 2.7696234429581673e-13 2.5655745199367417e-13 2.0404892302142495e-14
5.686739436050992 1.847703178778625e-21 2.789105669868915e-13 2.5839844359998026e-13 2.051212338691121e-14
5.6974124697621304 1.8572667099480115e-21 2.808803575082012e-13 2.602608144816153e-13 2.0619543026585895e-14
5.718818669136295 1.8767062087460827e-21 2.848866183461554e-13 2.6405167923255155e-13 2.0834939113603864e-14
5.740305295436557 1.8976351109538444e-21 2.8914596163284524e-13 2.680932919083868e-13 2.1052669724458542e-14
5.7835210386641895 1.949695901614513e-21 2.993151032198301e-13 2.7781230364069665e-13 2.150279957913344e-14
5.827062130521658 2.00734632132516e-21 3.104855466594346e-13 2.8852536945144344e-13 2.196017720799113e-14
5.8489554468988025 2.046738440849829e-21 3.177679502873499e-13 2.9556068961700924e-13 2.2207260670340706e-14
5.870931020387893 2.0881505293194795e-21 3.254154836962748e-13 3.0295996357147514e-13 2.2455520124799558e-14
5.892989160043636 2.1317424197280855e-21 3.334569723372574e-13 3.107520329464242e-13 2.270493939083322e-14
5.915130176081913 2.1805830561433483e-21 3.4237841171640494e-13 3.1941489199058456e-13 2.2963519725820416e-14
5.95966208400165 2.3150255062745058e-21 3.6622403985658944e-13 3.426705351345025e-13 2.355350472208694e-14
6.004529249263818 2.5042320993108406e-21 3.99137907143306e-13 3.749200372676365e-13 2.421786987566938e-14
6.027089341400364 2.634319963887848e-21 4.2144954119275617e-13 3.9684740972470675e-13 2.460213146804935e-14
6.049734195844842 2.7859153923230347e-21 4.4737699657867995e-13 4.22367738657055e-13 2.500925792162488e-14
6.095279466722835 3.220039227437744e-21 5.209837988531025e-13 4.949724506260138e-13 2.6011348227088784e-14
6.141167624020661 3.878176000295422e-21 6.321904036449408e-13 6.04876766419823e-13 2.731363722511782e-14
6.164241091010745 4.297142602040608e-21 7.031189701202404e-13 6.749871500306125e-13 2.8131820089627943e-14
6.187401249150058 4.767411926108135e-21 7.829975304020154e-13 7.540256020349217e-13 2.897192836709384e-14
6.1990139391386085 4.996147681768178e-21 8.221050447648367e-13 7.92705651017906e-13 2.939939374693023e-14
6.204828454712694 5.1160395541653344e-21 8.426226047334521e-13 8.13007307058815e-13 2.961529767463718e-14
6.210648424152782 5.203189891250477e-21 8.577802726231027e-13 8.279812111894483e-13 2.979906143365452e-14
6.233982942956859 5.4961276609243354e-21 9.094772803302053e-13 8.79038317391284e-13 3.043896293892085e-14
6.239830258556775 5.531882051101132e-21 9.16252389993319e-13 8.857252208700653e-13 3.052716912325372e-14
6.245683058788269 5.53265873124085e-21 9.172405743047413e-13 8.866250598727448e-13 3.061551443199658e-14
6.257405133728602 5.519218865194955e-21 9.167297461117967e-13 8.859599417669454e-13 3.076980434485114e-14
6.269149208991335 5.454944201398116e-21 9.077543776884615e-13 8.769295390213457e-13 3.0824838667115915e-14
6.280915325867298 5.30194125824362e-21 8.839491518414745e-13 8.531920055243746e-13 3.075714631709974e-14
6.304513850009849 4.92806004036885e-21 8.247019596775371e-13 7.94191230669184e-13 3.051072900835318e-14
6.32820103803542 4.4711800023557756e-21 7.510551957487292e-13 7.209090190854445e-13 3.014617666328457e-14
6.3519772230701035 4.054419289765005e-21 6.836078239819363e-13 6.537886050833768e-13 2.9819218898559885e-14
6.375842739491607 3.7025835391123435e-21 6.266310283949619e-13 5.971002168121183e-13 2.953081158284351e-14
6.399797922933955 3.4245798404960775e-21 5.817588382717793e-13 5.523763096728229e-13 2.938252859895638e-14
6.42384311029221 3.1924725656339627e-21 5.44366677241801e-13 5.151045159729912e-13 2.9262161268809726e-14
6.447978639727206 3.025099490543933e-21 5.177649953049588e-13 4.885139165547571e-13 2.9251078750201316e-14
6.472204850670314 2.885315575499503e-21 4.956955359356158e-13 4.664338555044267e-13 2.9261680431189105e-14
6.496522083828205 2.7955751456642675e-21 4.82082673515789e-13 4.527218298851693e-13 2.9360843630619624e-14
6.520930681187647 2.7199525712833155e-21 4.70804220941898e-13 4.413308001240442e-13 2.9473420817853893e-14
