Dust emission spectrum from A.P. Jones, M. Kohler, N. Ysard, M. Bocchio, and L. Verstraete (2017), A&A, 602A, 46J 
inside the DustPedia framework.

lambda    nu*dP/dnu     j_nu    j_nu(carb.) j_nu(sil)
 (um)   (erg s-1 H-1) (Jy cm2 sr-1 H-1)
0.9927057738263894 3.46209354211922e-20 9.122813126471612e-13 9.122812262406804e-13 8.640648091204563e-20
1.0001793341362166 3.520148186545309e-20 9.345622965477065e-13 9.345621925916027e-13 1.0395610385908524e-19
1.0077091589558085 3.578454097113957e-20 9.571942686079072e-13 9.571941437055377e-13 1.249023692687687e-19
1.0114953028030835 3.607699008868039e-20 9.68642679126395e-13 9.686425422866802e-13 1.368397149484443e-19
1.0152956718711033 3.6370040648078e-20 9.801798139484426e-13 9.801796640808728e-13 1.4986756969328627e-19
1.0229392996569957 3.695762633429879e-20 1.00351384129403e-12 1.0035136617105267e-12 1.7958350339016509e-19
1.0267826658714554 3.7251495862373255e-20 1.015293669304063e-12 1.0152934728130154e-12 1.9649104774328345e-19
1.0306404723013447 3.754592010808262e-20 1.027163024859947e-12 1.0271628099417047e-12 2.1491824198122173e-19
1.03451277320114 3.784089179069674e-20 1.0391222715017977e-12 1.0391220365071202e-12 2.3499467741009693e-19
1.0383996230291617 3.8136403928899204e-20 1.0511717812024523e-12 1.0511715243420973e-12 2.5686035517292807e-19
1.0403485208654093 3.8284360570854704e-20 1.0572305033321511e-12 1.0572302348212033e-12 2.68510947744574e-19
1.0423010764483396 3.843244984809465e-20 1.0633119347132347e-12 1.063311654046768e-12 2.806664668907476e-19
1.0462171883269815 3.8729023187675014e-20 1.075543121914758e-12 1.0755428153385285e-12 3.065762293080414e-19
1.0471985131304309 3.8803248217102664e-20 1.0786151893164401e-12 1.0786148759137312e-12 3.1340270885420913e-19
1.048180758391296 3.887750574005361e-20 1.081692977570986e-12 1.0816926571964949e-12 3.203744911723219e-19
1.0501480137395462 3.9026117908241056e-20 1.0878657421727098e-12 1.0878654074069337e-12 3.3476577633090706e-19
1.0521189612883777 3.917485898867821e-20 1.0940614671818624e-12 1.0940611174075862e-12 3.497742761699785e-19
1.0531058218030118 3.9249180066695577e-20 1.097165228075713e-12 1.097164870557394e-12 3.5751831867083804e-19
1.0540936079674168 3.932321340896532e-20 1.1002657980517194e-12 1.100265432623784e-12 3.654279354365159e-19
1.058054026499678 3.9619652096241444e-20 1.1127252289242326e-12 1.1127248301519915e-12 3.987722410076504e-19
1.0590464539527713 3.969383771150707e-20 1.1158544075167496e-12 1.115853999964707e-12 4.075520427198971e-19
1.06003981227728 3.9768053554505944e-20 1.1189893278611655e-12 1.1189889113446947e-12 4.1651647044828966e-19
1.0620293250338977 3.9916575635473406e-20 1.1252764209564518e-12 1.1252759859424346e-12 4.3501401733152465e-19
1.0660195594769086 4.0213979437997504e-20 1.1379198093029947e-12 1.137919334911471e-12 4.743915238073306e-19
1.070024785945596 4.05118592749227e-20 1.150655840528908e-12 1.1506553233674878e-12 5.17161419820719e-19
1.0740450607676866 4.0810211283973875e-20 1.163484972994767e-12 1.1634844093946807e-12 5.6360008640486135e-19
1.07808044048254 4.1109031976265974e-20 1.1764076772463112e-12 1.1764070632412762e-12 6.14005035047591e-19
1.0861967418109137 4.1707614051415154e-20 1.2025226766348703e-12 1.2025219486162112e-12 7.280186594501649e-19
1.0902777775684922 4.200633983892753e-20 1.215686054634948e-12 1.2156852622927328e-12 7.923422153334091e-19
1.0943741465085532 4.2305506608707254e-20 1.2289441819025302e-12 1.2289433198375627e-12 8.620649675543212e-19
1.1026131145906286 4.2905157760750157e-20 1.2557468284373579e-12 1.2557458089866642e-12 1.0194506933678773e-18
1.1109141095355224 4.3506561028812814e-20 1.2829350539953568e-12 1.2829338500038135e-12 1.203991543448143e-18
1.1192775983109025 4.4109250840676666e-20 1.3104997017781971e-12 1.3104982816943276e-12 1.4200838695361283e-18
1.1277040513999907 4.471109315596849e-20 1.3383813060114848e-12 1.3383796332255963e-12 1.6727858888348542e-18
1.1361939428280308 4.531464105352959e-20 1.3666598849808613e-12 1.3666579170714197e-12 1.9679094416442242e-18
1.1447477501889525 4.591991715961082e-20 1.3953409104325193e-12 1.3953385983095106e-12 2.3121230083958444e-18
1.1533659546722406 4.652715961521793e-20 1.424436525287447e-12 1.424433812215978e-12 2.713071469610865e-18
1.1707974979042381 4.774940361153331e-20 1.4839496657726702e-12 1.4839459443269902e-12 3.721445680431891e-18
1.1884924949847024 4.8979973502429636e-20 1.5451990145755657e-12 1.5451939356371633e-12 5.0789384025637995e-18
1.2064549276569216 5.022717017624318e-20 1.608493258866479e-12 1.6084863616027658e-12 6.897263713074937e-18
1.2246888378427687 5.1483327227635015e-20 1.673639044634233e-12 1.6736297241173814e-12 9.320516851943117e-18
1.2431983285522175 5.2747618303008375e-20 1.740655014109046e-12 1.7406424802107396e-12 1.253389830625431e-17
1.2619875648066055 5.402211590336155e-20 1.8096562994392978e-12 1.8096395252080816e-12 1.6774231216360754e-17
1.3004222497298317 5.659507435578618e-20 1.953585662939942e-12 1.9535560434131113e-12 2.961952683060538e-17
1.3400274889804893 5.921181031134567e-20 2.1061605783829045e-12 2.106109238533211e-12 5.1339849693361343e-17
1.3808389325824078 6.188398795904955e-20 2.2682491114691763e-12 2.2681617183080233e-12 8.739316115307863e-17
1.4228933163050095 6.463577839691593e-20 2.441264049872541e-12 2.4411178783079086e-12 1.4617156463216255e-16
1.466228494730424 6.751577792507122e-20 2.6277035295615063e-12 2.6274631879505186e-12 2.4034161098785046e-16
1.5108834753276823 7.052223524961166e-20 2.828306511963818e-12 2.827917853951871e-12 3.8865801194724945e-16
1.5568984535646726 7.36569881584655e-20 3.043993192487902e-12 3.043374407712784e-12 6.18784775117881e-16
1.6043148490894465 7.694209923751059e-20 3.2765972876610107e-12 3.2756255211591594e-12 9.717665018503295e-16
1.6531753430134553 8.040154542920915e-20 3.5281963700336215e-12 3.5266928320706197e-12 1.5035379630019304e-15
1.7035239163302658 8.406331152031665e-20 3.801230125202358e-12 3.798937686427945e-12 2.2924387744124304e-15
1.755405889504358 8.799678607982124e-20 4.100282643107466e-12 4.096836539368588e-12 3.4461037388783568e-15
1.8088679632656115 9.221127259322058e-20 4.427517799486956e-12 4.422408530581087e-12 5.109268905868446e-15
1.8639582606462262 9.671585302454585e-20 4.785235133430328e-12 4.777761008679711e-12 7.474124750615937e-15
1.9207263702978936 1.0153463064973305e-19 5.176653845435485e-12 5.1658620220456105e-12 1.0791823389873567e-14
1.979223391128241 1.0669965129288627e-19 5.605666390993441e-12 5.590280309216656e-12 1.5386081776784426e-14
2.039501978296691 1.122425103370254e-19 6.0764640832275375e-12 6.054796400908829e-12 2.166768231870829e-14
2.1016163906111602 1.1822953834217763e-19 6.5955174498992196e-12 6.565364836300754e-12 3.015261359846559e-14
2.1656225393682647 1.2470462070560241e-19 7.16860649948277e-12 7.12712902943532e-12 4.147747004745096e-14
2.231578038680979 1.31677589173896e-19 7.799978013097727e-12 7.743561431780587e-12 5.641658131713833e-14
2.299542257339062 1.3917810979700226e-19 8.49535950090885e-12 8.41946009416327e-12 7.589940674558043e-14
2.369576372248914 1.4724935833990021e-19 9.26176067821121e-12 9.16073209819127e-12 1.010285800199402e-13
2.4417434235010123 1.5593945519479152e-19 1.0107074625542487e-11 9.973982725053088e-12 1.3309190048939775e-13
2.5161083711144245 1.6532203495994327e-19 1.1041536643814455e-11 1.0867957714030848e-11 1.7357892978360895e-13
2.5927381535095444 1.7550129391372808e-19 1.207837236507887e-11 1.1854184258823393e-11 2.2418810625548004e-13
2.6717017477616296 1.86567503357444e-19 1.3231022484368999e-11 1.2944204697991531e-11 2.86817786377463e-13
2.753070231689431 1.9863790632478526e-19 1.4516063275151705e-11 1.4152500717299941e-11 3.635625578517641e-13
2.836916847834745 2.1199223918634126e-19 1.5963789837659904e-11 1.55070723821105e-11 4.567174555494081e-13
2.9233170693905177 2.2720478669976723e-19 1.763042705810986e-11 1.7061789886086854e-11 5.686371720230064e-13
2.967498994190263 2.359778164315637e-19 1.8587936990712596e-11 1.7956826968759158e-11 6.311100219534347e-13
3.0123486681368425 2.4530781357703125e-19 1.9614897955041177e-11 1.8915349545651796e-11 6.995484093893846e-13
3.0578761833420214 2.5858231053427007e-19 2.0988825707983118e-11 2.0214171404368468e-11 7.746543036146472e-13
3.1040917844459814 2.7362488869845895e-19 2.2545485156851397e-11 2.168937836009548e-11 8.5610679675592e-13
3.127460860933648 2.859513645856033e-19 2.373851184563074e-11 2.2838903540962435e-11 8.99608304668308e-13
3.1510058709225794 3.010776929550517e-19 2.518240619894964e-11 2.4237533762945556e-11 9.448724360040869e-13
3.162844764501044 3.1393765475744077e-19 2.6356680953152655e-11 2.5388414886708263e-11 9.682660664443952e-13
3.1747281389236908 3.2833138810500207e-19 2.7668675958952285e-11 2.6676562106765495e-11 9.92113852186791e-13
3.1986289994194426 3.6650446801349e-19 3.1118064512313445e-11 3.0076747005688234e-11 1.0413175066252024e-12
3.2227097969389145 4.520121888702992e-19 3.86670267126231e-11 3.757365228870061e-11 1.0933744239224928e-12
3.2348180950136065 5.312163485802178e-19 4.56132197317517e-11 4.4492084892500475e-11 1.1211348392512272e-12
3.240889293275058 5.901075729757844e-19 5.076504987252164e-11 4.9629271959133646e-11 1.1357779133879873e-12
3.2469718861334385 6.582698639088667e-19 5.673511435702053e-11 5.5584185230767754e-11 1.1509291262527706e-12
3.2714166318528037 1.014467375368178e-18 8.809340065458507e-11 8.687992530620424e-11 1.2134753483808335e-12
3.2744851364798273 1.0368431094755659e-18 9.012089628895215e-11 8.890006884983328e-11 1.2208274391188445e-12
3.2775565192852394 1.0598044676661487e-18 9.220306723523841e-11 9.0974852669098e-11 1.2282145661404296e-12
3.283707930232385 1.0385020426486e-18 9.051932565956861e-11 8.927793876944126e-11 1.24138689012737e-12
3.2898708863219004 9.696783688734428e-19 8.467905344645355e-11 8.342571413716983e-11 1.253339309283697e-12
3.29141343181113 9.534175000841907e-19 8.329807965451491e-11 8.204173991448756e-11 1.2563397400273378e-12
3.292184975758714 9.454229322426412e-19 8.261897336230202e-11 8.136113155659854e-11 1.257841805703496e-12
3.295272960557952 8.95508102802765e-19 7.833040059904693e-11 7.706672268232642e-11 1.263677916720489e-12
3.3076538914384823 7.213041688569085e-19 6.332977346863962e-11 6.204267228222342e-11 1.2871011864161952e-12
3.310756385682612 6.854935676872327e-19 6.0242091636068e-11 5.894908997787745e-11 1.2930016581905633e-12
3.313861789986515 6.523148454771049e-19 5.738007174426372e-11 5.6081151739681306e-11 1.298920004582414e-12
3.3200813396944477 6.061859899195498e-19 5.3422480793288604e-11 5.211081455076403e-11 1.3116662425245706e-12
3.345076488085796 5.272575447433279e-19 4.6816429500455566e-11 4.544791605458785e-11 1.3685134458677197e-12
3.3482140837626964 5.30910750940418e-19 4.718502307885351e-11 4.580880681106614e-11 1.3762162677873464e-12
3.3513546224236106 5.345942688529849e-19 4.755696343037786e-11 4.61730115153052e-11 1.3839519150726598e-12
3.3576445397418455 5.587470439909045e-19 4.979885860826367e-11 4.839872692617043e-11 1.4001316820932278e-12
3.3702598118196083 6.450232525015446e-19 5.770430113837195e-11 5.62702346404363e-11 1.4340664979356516e-12
3.382922481734668 6.666904561202194e-19 5.986675485820433e-11 5.839976330933735e-11 1.4669915488670024e-12
3.389271646505754 6.778370725051878e-19 6.098192496594592e-11 5.949825630300417e-11 1.4836686629417657e-12
3.395632727569191 6.9007681875984995e-19 6.219959866743148e-11 6.069874315329068e-11 1.5008555141408119e-12
3.421196662673239 7.490008495561101e-19 6.801892800433796e-11 6.644699011130338e-11 1.5719378930345747e-12
3.4276182099114902 7.395383106285927e-19 6.728566536483328e-11 6.569792886607022e-11 1.5877364987630559e-12
3.4340518103208963 6.94333313712794e-19 6.329133833196263e-11 6.168869053104623e-11 1.6026478009164167e-12
3.4469541582030403 6.297410520981768e-19 5.7619163113648456e-11 5.5987958582264275e-11 1.6312045313841959e-12
3.472904465399547 6.140267614506416e-19 5.6604318938968264e-11 5.4907234183026836e-11 1.6970847559414386e-12
3.4990501388274233 5.89060956904378e-19 5.471165312114544e-11 5.294729346758174e-11 1.7643596535637065e-12
3.5253949054701885 4.941329122531861e-19 4.6240336634320345e-11 4.441084766888078e-11 1.8294889654395526e-12
3.5519380250092896 4.0385969482544986e-19 3.807722807431394e-11 3.6182461314984836e-11 1.8947667593291216e-12
3.578680990867387 3.7055534984004607e-19 3.520023048719587e-11 3.323393961613941e-11 1.9662908710564566e-12
3.605625307711299 3.596817369543602e-19 3.442456120844659e-11 3.238305154341374e-11 2.0415096650328473e-12
3.660119384959845 3.57166474951774e-19 3.470047118365006e-11 3.250143629407245e-11 2.1990348895776174e-12
3.715437065384467 3.576318071251219e-19 3.5270813748518394e-11 3.2906448303832884e-11 2.3643654446855287e-12
3.8285932144167436 3.704398798951984e-19 3.7646654910344273e-11 3.49295126760864e-11 2.7171422342578647e-12
3.94519561050918 3.864194560327548e-19 4.0466622601912563e-11 3.736861807865029e-11 3.0980045232622645e-12
4.06534921144712 4.0357819921223204e-19 4.3550684808144274e-11 4.004507824839251e-11 3.5056065597517418e-12
4.189162171576248 4.212546917533099e-19 4.6842639316070185e-11 4.2902829080302364e-11 3.939810235767824e-12
4.316745939156006 4.390868676060971e-19 5.0312554762538166e-11 4.591459882627556e-11 4.397955936262598e-12
4.448215356677963 4.5680850599229725e-19 5.393732701635259e-11 4.906483543637176e-11 4.872491579980826e-12
4.58368876423945 4.742891002260612e-19 5.7706893818302855e-11 5.2343826634559615e-11 5.36306718374323e-12
4.723288106065518 4.914675953427435e-19 6.161816462997644e-11 5.5746266086140325e-11 5.871898543836131e-12
4.867139040275056 5.081988433804838e-19 6.565636856007291e-11 5.927281394120601e-11 6.383554618866913e-12
4.940699165968905 5.165300502634786e-19 6.774128593699206e-11 6.109944024108666e-11 6.641845695905386e-12
5.015371051989984 5.245912867180169e-19 6.983828642179883e-11 6.293747924313302e-11 6.9008071786658164e-12
5.091171501069577 5.329017536308985e-19 7.201688114834823e-11 6.485049092174915e-11 7.1663902265990805e-12
5.129500256944802 5.36939778561428e-19 7.310886949303644e-11 6.580981640878607e-11 7.29905308425038e-12
5.168117569889187 5.409503449067594e-19 7.420945121884748e-11 6.67763580821284e-11 7.43309313671908e-12
5.20702561229733 5.453368325844783e-19 7.537441913032121e-11 6.779388401580707e-11 7.580535114514155e-12
5.246226572918644 5.496520061310416e-19 7.654279088734201e-11 6.881454872190727e-11 7.728242165434745e-12
5.265937586045735 5.517824576504916e-19 7.71281704506974e-11 6.932600033210049e-11 7.802170118596937e-12
5.285722656980489 5.538946218315129e-19 7.771430244865507e-11 6.983816818403022e-11 7.87613426462487e-12
5.305582063971359 5.559883585744826e-19 7.830115490106405e-11 7.035103042780976e-11 7.950124473254315e-12
5.3255160863122235 5.581376296947624e-19 7.889917054994987e-11 7.087436405460039e-11 8.02480649534949e-12
5.365609099470188 5.629519298672045e-19 8.017884119023233e-11 7.199942748082915e-11 8.179413709403154e-12
5.406003951863644 5.677176942605406e-19 8.146634313850719e-11 7.313210852547014e-11 8.334234613037032e-12
5.446702915881641 5.724357079416504e-19 8.276178285071693e-11 7.427259501341188e-11 8.489187837305056e-12
5.487708281020852 5.772443573490132e-19 8.408531320159324e-11 7.544036438323415e-11 8.644948818359106e-12
5.529022354014368 5.832248030559956e-19 8.55960579301632e-11 7.67887397244267e-11 8.807318205736503e-12
5.570647458961463 5.89241755511327e-19 8.713018227523804e-11 7.816032037553848e-11 8.969861899699562e-12
5.612585937458331 5.953039812326437e-19 8.868929932601104e-11 7.955680208179328e-11 9.132497244217756e-12
5.654840148729818 6.016250191830358e-19 9.030580209207962e-11 8.10097395452261e-11 9.296062546853511e-12
5.67608639626678 6.057109092345075e-19 9.126070637597507e-11 8.187887815637381e-11 9.381828219601267e-12
5.686739436050992 6.077772056874095e-19 9.174389425039451e-11 8.231916303198136e-11 9.424731218413169e-12
5.6974124697621304 6.09859748011702e-19 9.223103129662153e-11 8.27633853902331e-11 9.467645906388426e-12
5.718818669136295 6.140756875561693e-19 9.321754530420319e-11 8.366404022900626e-11 9.553505075196918e-12
5.740305295436557 6.186152295174686e-19 9.425947822479047e-11 8.461936084836455e-11 9.640117376425912e-12
5.7835210386641895 6.300113257879503e-19 9.671862409503389e-11 8.689961045228442e-11 9.819013642749493e-12
5.827062130521658 6.425593903912723e-19 9.938763504201041e-11 8.938771557774076e-11 9.999919464269659e-12
5.8489554468988025 6.512644931643983e-19 1.0111256961678615e-10 9.101438365393441e-11 1.0098185962851704e-11
5.870931020387893 6.603781665273337e-19 1.0291273424286399e-10 9.27161001510997e-11 1.019663409176428e-11
5.892989160043636 6.69934101341358e-19 1.047941791800839e-10 9.449892610972284e-11 1.0295253070361064e-11
5.915130176081913 6.806552204127702e-19 1.0687125749916127e-10 9.647358707595038e-11 1.0397670423210921e-11
5.95966208400165 7.10466318999404e-19 1.1239178351201712e-10 1.0175747663101262e-10 1.0634306881004529e-11
6.004529249263818 7.525506473017725e-19 1.1994554756567145e-10 1.090431003730788e-10 1.0902447192592657e-11
6.027089341400364 7.815913770187863e-19 1.2504226204877428e-10 1.1398325859677014e-10 1.1059003452004168e-11
6.049734195844842 8.153734532889262e-19 1.3093697232427982e-10 1.1971177759230832e-10 1.1225194731971511e-11
6.095279466722835 9.122885992277504e-19 1.4760304036862488e-10 1.359638573430296e-10 1.1639183025595273e-11
6.141167624020661 1.0589381553085466e-18 1.7261994808604445e-10 1.6043667054000762e-10 1.2183277546036826e-11
6.164241091010745 1.1521735186275622e-18 1.8852412704026188e-10 1.7599610500714584e-10 1.252802203311602e-11
6.187401249150058 1.2563023626838904e-18 2.063345191617896e-10 1.9345313503306884e-10 1.2881384128720741e-11
6.1990139391386085 1.3067636043933518e-18 2.1502505928861032e-10 2.019639897055974e-10 1.3061069583012916e-11
6.204828454712694 1.3331706773854242e-18 2.1957604839434034e-10 2.0642428965215293e-10 1.3151758742187421e-11
6.210648424152782 1.352206201234339e-18 2.2292013710433403e-10 2.0969182687329682e-10 1.3228310231037214e-11
6.233982942956859 1.4155759967967956e-18 2.3424386897355094e-10 2.2075169144606127e-10 1.3492177527489663e-11
6.239830258556775 1.4229262451661268e-18 2.356810143228139e-10 2.221545094481511e-10 1.3526504874662782e-11
6.245683058788269 1.4224838505444539e-18 2.358287339584357e-10 2.2226787061000372e-10 1.3560863348431868e-11
6.257405133728602 1.4182332424279474e-18 2.355653276330722e-10 2.2194566063428418e-10 1.3619666998788021e-11
6.269149208991335 1.4025920726539503e-18 2.334046045304055e-10 2.197698000472539e-10 1.363480448315168e-11
6.280915325867298 1.3671637182772707e-18 2.279359861485852e-10 2.143399519823389e-10 1.3596034166246257e-11
6.304513850009849 1.2813504351854586e-18 2.1443168432907723e-10 2.00961825168825e-10 1.3469859160252218e-11
6.32820103803542 1.1775623707676689e-18 1.9780333970389673e-10 1.8451138509040723e-10 1.329195461348951e-11
6.3519772230701035 1.083139490937998e-18 1.8262606246428524e-10 1.6949539916885416e-10 1.3130663295431062e-11
6.375842739491607 1.0033046552383797e-18 1.6980084885706685e-10 1.5681436130271587e-10 1.2986487554351041e-11
6.399797922933955 9.403844833420877e-19 1.5975010367363834e-10 1.4684665435178894e-10 1.2903449321849361e-11
6.42384311029221 8.877099336342337e-19 1.5136847599849163e-10 1.385358027097293e-10 1.2832673288762378e-11
6.447978639727206 8.496106016620657e-19 1.4541625178136077e-10 1.3260686921311532e-10 1.2809382568245424e-11
6.472204850670314 8.176585322821299e-19 1.4047325977566684e-10 1.2767779032193122e-10 1.2795469453735636e-11
6.496522083828205 7.968806290969513e-19 1.3741799956399308e-10 1.245981378268003e-10 1.2819861737192732e-11
6.520930681187647 7.792405685341964e-19 1.3488093603851674e-10 1.2203103413378373e-10 1.2849901904733032e-11
6.57002334288761 7.604753046930694e-19 1.3262379811201588e-10 1.1966135397841498e-10 1.2962444133600846e-11
