Dust emission spectrum from A.P. Jones, M. Kohler, N. Ysard, M. Bocchio, and L. Verstraete (2017), A&A, 602A, 46J 
inside the DustPedia framework.

lambda    nu*dP/dnu     j_nu    j_nu(carb.) j_nu(sil)
 (um)   (erg s-1 H-1) (Jy cm2 sr-1 H-1)
0.9927057738263894 5.988081809390366e-25 1.5778935684000403e-17 1.5778935678040023e-17 5.960375447744093e-27
1.0001793341362166 6.086952285862071e-25 1.6160217711841347e-17 1.6160217704663375e-17 7.177972821114816e-27
1.0077091589558085 6.185696092236908e-25 1.6546007538883188e-17 1.654600753025013e-17 8.633062050873426e-27
1.0114953028030835 6.235008579891101e-25 1.6740574533396962e-17 1.6740574523933854e-17 9.46311100412796e-27
1.0152956718711033 6.284275142753714e-25 1.6936246235816822e-17 1.6936246225447242e-17 1.036957949979431e-26
1.0229392996569957 6.382603270942795e-25 1.7330741611875135e-17 1.733074159943586e-17 1.243927607987584e-26
1.0267826658714554 6.431545708134548e-25 1.7529249470769333e-17 1.75292494571513e-17 1.3618032006534617e-26
1.0306404723013447 6.480420996709194e-25 1.7728820639323668e-17 1.772882062442006e-17 1.49036103567083e-26
1.03451277320114 6.529224525757015e-25 1.7929446953514716e-17 1.7929446937209507e-17 1.630521302323755e-26
1.0383996230291617 6.57795171122614e-25 1.813112014925338e-17 1.8131120131420594e-17 1.7832790153257124e-26
1.0403485208654093 6.602285250170174e-25 1.8232346718345668e-17 1.823234669969852e-17 1.8647147097856948e-26
1.0423010764483396 6.626597996830192e-25 1.833383186454787e-17 1.8333831845050776e-17 1.9497097098841446e-26
1.0462171883269815 6.675158854936806e-25 1.8537573641672506e-17 1.8537573620362747e-17 2.1309755380403365e-26
1.0471985131304309 6.6872851936338915e-25 1.8588669033035456e-17 1.8588669011247907e-17 2.1787549450352698e-26
1.048180758391296 6.699405841842857e-25 1.8639828134739455e-17 1.8639828112463857e-17 2.2275600801943996e-26
1.0501480137395462 6.723629787436878e-25 1.8742336929341345e-17 1.8742336906058023e-17 2.328331792060315e-26
1.0521189612883777 6.747830134207701e-25 1.8845098942305993e-17 1.8845098917971362e-17 2.4334632830228432e-26
1.0531058218030118 6.759902761124791e-25 1.8896522786147328e-17 1.8896522761270094e-17 2.487723267421882e-26
1.0540936079674168 6.771908592497261e-25 1.894783962431351e-17 1.8947839598881984e-17 2.5431530205850775e-26
1.058054026499678 6.819866954084664e-25 1.9153721994536573e-17 1.9153721966767236e-17 2.776933743109838e-26
1.0590464539527713 6.831839961631096e-25 1.92053456459443e-17 1.9205345617559123e-17 2.8385177437266736e-26
1.06003981227728 6.84380619974455e-25 1.9257030241543015e-17 1.925703021252893e-17 2.901408291389694e-26
1.0620293250338977 6.867718096142929e-25 1.9360581704052072e-17 1.9360581673739922e-17 3.0312149882423383e-26
1.0660195594769086 6.915457676407532e-25 1.9568409767835816e-17 1.9568409734758808e-17 3.3077011596115726e-26
1.070024785945596 6.963081387041477e-25 1.977719712073791e-17 1.9777197084655606e-17 3.60823003892037e-26
1.0740450607676866 7.010584955375891e-25 1.9986934619684684e-17 1.998693458033686e-17 3.9347825216308494e-26
1.07808044048254 7.057964144631234e-25 2.0197613045880245e-17 2.019761300298532e-17 4.289493007558676e-26
1.0861967418109137 7.152249152236754e-25 2.0621514776425814e-17 2.0621514725498198e-17 5.0927610081644776e-26
1.0902777775684922 7.198956873172745e-25 2.0834168156979696e-17 2.0834168101515092e-17 5.546460014256664e-26
1.0943741465085532 7.245520326250652e-25 2.10477093021493e-17 2.104770924176307e-17 6.038623050165813e-26
1.1026131145906286 7.338198375912921e-25 2.147741627797177e-17 2.147741620646269e-17 7.150907828204509e-26
1.1109141095355224 7.430251603685482e-25 2.1910557895073047e-17 2.1910557810501377e-17 8.457166875002776e-26
1.1192775983109025 7.521563851251998e-25 2.234680253259137e-17 2.2346802432699292e-17 9.989208319480768e-26
1.1277040513999907 7.611713739983527e-25 2.27848944349615e-17 2.278489431712446e-17 1.1783704494838107e-25
1.1361939428280308 7.701135632174065e-25 2.322612050453224e-17 2.3226120365703497e-17 1.3882874700996066e-25
1.1447477501889525 7.7898008124307325e-25 2.367039931697734e-17 2.3670399153624713e-17 1.6335262636271365e-25
1.1533659546722406 7.877729071978394e-25 2.4117795109879388e-17 2.4117794917913027e-17 1.9196635712526454e-25
1.1707974979042381 8.051658946760954e-25 2.5022839447727646e-17 2.502283918361116e-17 2.6411648646352704e-25
1.1884924949847024 8.222281638498389e-25 2.5939298404765877e-17 2.59392980431855e-17 3.615803874069855e-25
1.2064549276569216 8.390927278208794e-25 2.6871412256112904e-17 2.6871411763525256e-17 4.9258764729165e-25
1.2246888378427687 8.555780797571925e-25 2.781344868569788e-17 2.781344801789786e-17 6.678000210084072e-25
1.2431983285522175 8.716466822816117e-25 2.876406967475285e-17 2.8764068773770406e-17 9.00982451074081e-25
1.2619875648066055 8.872938131664531e-25 2.972295349042913e-17 2.9722952280613675e-17 1.2098154531994435e-24
1.3004222497298317 9.170705587896289e-25 3.1656039256931784e-17 3.1656037106072284e-17 2.1508594898085518e-24
1.3400274889804893 9.448018698810889e-25 3.3606546434955303e-17 3.360654268067141e-17 3.75428390379914e-24
1.3808389325824078 9.703960645851431e-25 3.5568166885511135e-17 3.5568160448777844e-17 6.4367332826225066e-24
1.4228933163050095 9.939845052986769e-25 3.754234417995011e-17 3.7542333334676413e-17 1.0845273695909987e-23
1.466228494730424 1.016128617043913e-24 3.9547567036226594e-17 3.9547549069529725e-17 1.7966696874012228e-23
1.5108834753276823 1.0364255848216823e-24 4.156602836455349e-17 4.1565999086686225e-17 2.927786727307884e-23
1.5568984535646726 1.0545517318848044e-24 4.3581041979039107e-17 4.3580994999678364e-17 4.6979360733382904e-23
1.6043148490894465 1.0705506110191178e-24 4.5589648100723835e-17 4.558957373536263e-17 7.436536120553009e-23
1.6531753430134553 1.0844804093231137e-24 4.7589381810021035e-17 4.758926581794748e-17 1.15992073540884e-22
1.7035239163302658 1.0965029599329629e-24 4.958239222664197e-17 4.9582213913336065e-17 1.783133059040305e-22
1.755405889504358 1.1074949424685314e-24 5.160463799000425e-17 5.160436768477771e-17 2.703052265238072e-22
1.8088679632656115 1.1172562629065843e-24 5.36449812641547e-17 5.364457706585729e-17 4.0419829741897257e-22
1.8639582606462262 1.1256530927845542e-24 5.56942275666027e-17 5.56936311131874e-17 5.964534153198039e-22
1.9207263702978936 1.1328005709073447e-24 5.77548408259703e-17 5.775397193628937e-17 8.688896809269306e-22
1.979223391128241 1.1389519810640748e-24 5.983697944504852e-17 5.983572939715971e-17 1.2500478888239292e-21
2.039501978296691 1.1444057872711091e-24 6.195460741309467e-17 6.195283069755038e-17 1.776715544291617e-21
2.1016163906111602 1.1499876200343911e-24 6.415286333228523e-17 6.415036748413889e-17 2.495848146334958e-21
2.1656225393682647 1.1561763360349908e-24 6.646243860213481e-17 6.645897221196799e-17 3.46639016682354e-21
2.231578038680979 1.1630035842023175e-24 6.889101207611004e-17 6.88862507107456e-17 4.761365364428479e-21
2.299542257339062 1.1707517845492305e-24 7.146208057131211e-17 7.145561042854894e-17 6.4701427631747496e-21
2.369576372248914 1.1800421752918463e-24 7.422285802102091e-17 7.421415708984744e-17 8.700931173464279e-21
2.4417434235010123 1.1916068189014367e-24 7.723291727483462e-17 7.722133433744584e-17 1.1582937388784238e-20
2.5161083711144245 1.2067025189920538e-24 8.059331041299049e-17 8.057804129684382e-17 1.5269116146662885e-20
2.5927381535095444 1.2273860600652761e-24 8.447131949045897e-17 8.445138116401243e-17 1.9938326446556927e-20
2.6717017477616296 1.2560955139095432e-24 8.90799720635758e-17 8.905417586956416e-17 2.5796194011627703e-20
2.753070231689431 1.2964997040213231e-24 9.474562075285369e-17 9.471254407842594e-17 3.30766744277879e-20
2.836916847834745 1.3569419628987828e-24 1.0218268555848888e-16 1.0214064112708747e-16 4.204443140141907e-20
2.9233170693905177 1.4558034756988642e-24 1.1296609266937569e-16 1.1291310676224042e-16 5.2985907135269284e-20
2.967498994190263 1.5377950438039203e-24 1.2113188354358388e-16 1.2107269012276413e-16 5.919342081973712e-20
3.0123486681368425 1.6330764790649216e-24 1.3058136234041131e-16 1.3051532226770302e-16 6.604007270827109e-20
3.0578761833420214 1.8426808918805274e-24 1.495682670450327e-16 1.4949466581130044e-16 7.360123373225272e-20
3.1040917844459814 2.1117508588032344e-24 1.739989657687329e-16 1.7391709421572083e-16 8.187155301209133e-20
3.127460860933648 2.3947839758620597e-24 1.9880516346236847e-16 1.9871884704849143e-16 8.631641387705441e-20
3.1510058709225794 2.7712581671591377e-24 2.317904995305537e-16 2.3169953768664265e-16 9.096184391103867e-20
3.162844764501044 3.121227374588683e-24 2.6204309310344166e-16 2.6194972249859977e-16 9.337060484197681e-20
3.1747281389236908 3.527882614719395e-24 2.972967082168686e-16 2.9720087654626427e-16 9.583167060429931e-20
3.1986289994194426 4.661122603370884e-24 3.957526484128942e-16 3.956517220020233e-16 1.0092641087078227e-19
3.2227097969389145 7.330591474608549e-24 6.270896744542212e-16 6.269833365478056e-16 1.0633790641548609e-19
3.2348180950136065 9.861202251595018e-24 8.467382194155583e-16 8.466289902752412e-16 1.092291403169844e-19
3.240889293275058 1.1753079367841194e-23 1.0110794837887076e-15 1.0109687295120217e-15 1.107542766857267e-19
3.2469718861334385 1.3941812793090076e-23 1.2016201660260798e-15 1.2015078335922403e-15 1.1233243383937364e-19
3.2714166318528037 2.5611897093240056e-23 2.2240627613479913e-15 2.2239438965342123e-15 1.1886481377857659e-19
3.2744851364798273 2.6341537712525126e-23 2.2895681772748885e-15 2.2894485396696054e-15 1.196376052834316e-19
3.2775565192852394 2.709209802489311e-23 2.3570145361189223e-15 2.35689412157864e-15 1.204145402830892e-19
3.283707930232385 2.6370826859632565e-23 2.2985698307643066e-15 2.298448020842357e-15 1.2180992194966288e-19
3.2898708863219004 2.408252485434763e-23 2.1030534192858804e-15 2.1029303339731074e-15 1.2308531277288082e-19
3.29141343181113 2.3542853258397962e-23 2.0568895219978848e-15 2.0567661162794484e-15 1.2340571843644106e-19
3.292184975758714 2.3277672826608396e-23 2.0341979928876535e-15 2.0340744267322513e-15 1.23566155402217e-19
3.295272960557952 2.1604281708109224e-23 1.8897339237404744e-15 1.8896097324771534e-15 1.2419126332136884e-19
3.3076538914384823 1.5805907200229303e-23 1.3877425996901953e-15 1.387615894810714e-15 1.267048794812496e-19
3.310756385682612 1.4625449554806378e-23 1.2853040696967367e-15 1.2851767306403808e-15 1.2733905635601732e-19
3.313861789986515 1.3536160250882693e-23 1.1906916602049963e-15 1.1905636846548e-15 1.2797555019615517e-19
3.3200813396944477 1.2008775115560232e-23 1.0583196718998414e-15 1.0581903298371102e-15 1.2934206273110318e-19
3.345076488085796 9.286017143453874e-24 8.245271618600793e-16 8.243917363059903e-16 1.3542555408890443e-19
3.3482140837626964 9.38847848836978e-24 8.344068628566224e-16 8.342706134217681e-16 1.3624943485446114e-19
3.3513546224236106 9.492066992410704e-24 8.444046431798032e-16 8.442675658344431e-16 1.3707734536008245e-19
3.3576445397418455 1.0247727004000492e-23 9.133383587736945e-16 9.131995514161187e-16 1.3880735757600432e-19
3.3702598118196083 1.303324509580471e-23 1.1659646329055765e-15 1.165822196064339e-15 1.42436841237497e-19
3.382922481734668 1.3668917615836082e-23 1.2274268104067309e-15 1.2272808347914121e-15 1.4597561531899366e-19
3.389271646505754 1.39981961360157e-23 1.2593541738137523e-15 1.2592064023226351e-15 1.4777149111742322e-19
3.395632727569191 1.4353213547243558e-23 1.2937170152025872e-15 1.2935673928505823e-15 1.4962235200438685e-19
3.421196662673239 1.605830898915087e-23 1.458301367283884e-15 1.458144070715996e-15 1.5729656788876507e-19
3.4276182099114902 1.5716284427191405e-23 1.4299200454506598e-15 1.429761024261908e-15 1.5902118875205283e-19
3.4340518103208963 1.4215010140800688e-23 1.2957566610232465e-15 1.295596002823251e-15 1.606581999955516e-19
3.4469541582030403 1.2076560884943378e-23 1.104964221663887e-15 1.1048004095318926e-15 1.6381213199463299e-19
3.472904465399547 1.1478322110552764e-23 1.0581340202419953e-15 1.0579629593427083e-15 1.7106089928686653e-19
3.4990501388274233 1.0563006661667622e-23 9.810861670863054e-16 9.809076605729164e-16 1.785065133890328e-19
3.5253949054701885 7.302967988462686e-24 6.834025620279911e-16 6.832167781393992e-16 1.8578388859177416e-19
3.5519380250092896 4.23756658753196e-24 3.9953179656436125e-16 3.99338662264595e-16 1.9313429976624563e-19
3.578680990867387 3.02308784129045e-24 2.871727228938879e-16 2.8697152578551725e-16 2.0119710837073103e-19
3.605625307711299 2.532984057602737e-24 2.4242783486677044e-16 2.4221812337375916e-16 2.0971149301131506e-19
3.660119384959845 2.177759839634038e-24 2.1158002740972535e-16 2.1135232747995586e-16 2.2769992976948667e-19
3.715437065384467 1.9269587635731308e-24 1.9004295003124443e-16 1.897961391389036e-16 2.468108923408863e-19
3.8285932144167436 1.8047977523583553e-24 1.8341599232032535e-16 1.8312758572514589e-16 2.8840659517947605e-19
3.94519561050918 1.7867763270165573e-24 1.8711481052672883e-16 1.8678024632120047e-16 3.3456420552834304e-19
4.06534921144712 1.811486805643618e-24 1.954800607681243e-16 1.9509461946748454e-16 3.8544130063974726e-19
4.189162171576248 1.8609147388961794e-24 2.0692982088641095e-16 2.0648847094585434e-16 4.413499405566206e-19
4.316745939156006 1.928317182533038e-24 2.2095528471321014e-16 2.2045294406199308e-16 5.023406512170382e-19
4.448215356677963 2.0114054794392422e-24 2.374952166692518e-16 2.369273416638283e-16 5.678750054234754e-19
4.58368876423945 2.1104158473765325e-24 2.5677491462269397e-16 2.561366256683727e-16 6.382889543212561e-19
4.723288106065518 2.2274549172815885e-24 2.79269040521766e-16 2.7855476298853997e-16 7.142775332259182e-19
4.867139040275056 2.366748832050383e-24 3.0577034094090095e-16 3.0497598154915875e-16 7.9435939174231025e-19
4.940699165968905 2.4501266779801744e-24 3.213263812826472e-16 3.204901378776315e-16 8.362434050157302e-19
5.015371051989984 2.5362553820844624e-24 3.3764901228345197e-16 3.367697231731811e-16 8.792891102708692e-19
5.091171501069577 2.6407722054501387e-24 3.568766226869798e-16 3.559522697086608e-16 9.243529783189547e-19
5.129500256944802 2.694320626421334e-24 3.668544274689053e-16 3.659071114422204e-16 9.473160266848381e-19
5.168117569889187 2.7500660134706416e-24 3.7726362797760344e-16 3.76292878839863e-16 9.70749137740363e-19
5.20702561229733 2.818275683066241e-24 3.895315332974876e-16 3.8853542508434854e-16 9.961082131389422e-19
5.246226572918644 2.8881429282355156e-24 4.0219360202968603e-16 4.011717645865745e-16 1.0218374431114181e-18
5.265937586045735 2.923714616283032e-24 4.086769271971114e-16 4.0764208707669475e-16 1.0348401204167065e-18
5.285722656980489 2.959720760429605e-24 4.1526424932422683e-16 4.1421631490324604e-16 1.0479344209808032e-18
5.305582063971359 2.996168358974097e-24 4.2195747297156603e-16 4.2089635295312334e-16 1.0611200184427546e-18
5.3255160863122235 3.035292452415516e-24 4.290734831892212e-16 4.279990019385187e-16 1.0744812507025186e-18
5.365609099470188 3.132578657413647e-24 4.46159811101328e-16 4.450576745722256e-16 1.1021365291024606e-18
5.406003951863644 3.2334497924552094e-24 4.639935182157662e-16 4.628633223375114e-16 1.1301958782550688e-18
5.446702915881641 3.338079358434271e-24 4.826138467053107e-16 4.814551894097992e-16 1.158657295511323e-18
5.487708281020852 3.4510136746854545e-24 5.026979683812822e-16 5.015103496539984e-16 1.1876187272838896e-18
5.529022354014368 3.607856380900869e-24 5.295012869225489e-16 5.282834249283968e-16 1.21786199415201e-18
5.570647458961463 3.7737537152764075e-24 5.580185823534523e-16 5.567700307639865e-16 1.2485515894657541e-18
5.612585937458331 3.94935805473469e-24 5.883814147130225e-16 5.871017286034041e-16 1.2796861096182588e-18
5.654840148729818 4.142214588446794e-24 6.217593998254201e-16 6.20448008995703e-16 1.3113908297171356e-18
5.67608639626678 4.273590473686434e-24 6.438894849742007e-16 6.425615223402569e-16 1.3279626339436993e-18
5.686739436050992 4.341279741995448e-24 6.553156417087741e-16 6.539793460734141e-16 1.3362956353598485e-18
5.6974124697621304 4.410345788384469e-24 6.669906347542808e-16 6.656459747278701e-16 1.3446600264108e-18
5.718818669136295 4.552740810947104e-24 6.911124009675715e-16 6.897509180228631e-16 1.361482944708311e-18
5.740305295436557 4.709671397170482e-24 7.176208203826215e-16 7.1624228110165e-16 1.3785392809712867e-18
5.7835210386641895 5.116830413271839e-24 7.855300008778689e-16 7.841161240331445e-16 1.4138768447246823e-18
5.827062130521658 5.5854557518441566e-24 8.639282938026224e-16 8.624782643061659e-16 1.4500294964565274e-18
5.8489554468988025 5.9144141351684935e-24 9.182469139059452e-16 9.167774492464272e-16 1.4694646595181715e-18
5.870931020387893 6.267206631251603e-24 9.766757945356977e-16 9.751867239436783e-16 1.4890705920194376e-18
5.892989160043636 6.645748479961094e-24 1.0395586007644527e-15 1.0380497530619019e-15 1.5088477025509828e-18
5.915130176081913 7.076184541320454e-24 1.1110481746815003e-15 1.109518846193318e-15 1.5293284881826816e-18
5.95966208400165 8.280077089416482e-24 1.309861715903933e-15 1.3082862654283774e-15 1.575450475555575e-18
6.004529249263818 1.0014944643892457e-23 1.596235447353046e-15 1.5946083668548096e-15 1.6270804982365606e-18
6.027089341400364 1.1220986211884955e-23 1.7951803712369726e-15 1.79352373471042e-15 1.6566365265530983e-18
6.049734195844842 1.2645682746114659e-23 2.0307104739193814e-15 2.0290225766934508e-15 1.6878972259308772e-18
6.095279466722835 1.676120792560903e-23 2.7118668940561388e-15 2.7101031261719004e-15 1.763767884239135e-18
6.141167624020661 2.309329895497921e-23 3.764491860794735e-15 3.762630815171827e-15 1.861045622907885e-18
6.164241091010745 2.7137385325194695e-23 4.440348433525573e-15 4.438426917616562e-15 1.9215159090108176e-18
6.187401249150058 3.174210250731095e-23 5.213308238980219e-15 5.211324459417669e-15 1.9837795625486827e-18
6.1990139391386085 3.3990436597402786e-23 5.593051122659097e-15 5.591035625030822e-15 2.0154976282752754e-18
6.204828454712694 3.517459180360729e-23 5.793330143794598e-15 5.791298607784174e-15 2.031536010424497e-18
6.210648424152782 3.603900664976721e-23 5.941268643892161e-15 5.939223302509008e-15 2.0453413831537097e-18
6.233982942956859 3.8975097805747305e-23 6.449443706519247e-15 6.447349629441734e-15 2.0940770775138172e-18
6.239830258556775 3.9350045914628527e-23 6.517596232632706e-15 6.51549494222903e-15 2.101290403677192e-18
6.245683058788269 3.938200168820183e-23 6.529007408641492e-15 6.526898886612317e-15 2.108522029174773e-18
6.257405133728602 3.930006185941281e-23 6.527651214876185e-15 6.525529768916474e-15 2.121445959711393e-18
6.269149208991335 3.872104042531814e-23 6.4435478452237146e-15 6.4414203713360026e-15 2.1274738877123832e-18
6.280915325867298 3.727087757134892e-23 6.213867527550696e-15 6.211742574483557e-15 2.124953067141763e-18
6.304513850009849 3.3695397850809096e-23 5.6388640584818525e-15 5.636751904836075e-15 2.1121536457764992e-18
6.32820103803542 2.9264971553334157e-23 4.915840768430204e-15 4.913749668684677e-15 2.0910997455285366e-18
6.3519772230701035 2.5202249962909828e-23 4.249302804000862e-15 4.24723014283586e-15 2.0726611650031955e-18
6.375842739491607 2.1783659561659995e-23 3.6867006102990655e-15 3.684643725549273e-15 2.0568847497918266e-18
6.399797922933955 1.9044706361678855e-23 3.23526586157574e-15 3.2332148630725677e-15 2.0509985031721627e-18
6.42384311029221 1.676690784728846e-23 2.8590209390367565e-15 2.8569738591584894e-15 2.0470798782675116e-18
6.447978639727206 1.51073225499852e-23 2.585714226462393e-15 2.58366329578089e-15 2.0509306815043847e-18
6.472204850670314 1.3724464716001183e-23 2.3578550473287124e-15 2.3557986938157206e-15 2.056353512991971e-18
6.496522083828205 1.2825784520661577e-23 2.211741115686864e-15 2.20967299151514e-15 2.0681241717244457e-18
