Dust emission spectrum from A.P. Jones, M. Kohler, N. Ysard, M. Bocchio, and L. Verstraete (2017), A&A, 602A, 46J 
inside the DustPedia framework.

lambda    nu*dP/dnu     j_nu    j_nu(carb.) j_nu(sil)
 (um)   (erg s-1 H-1) (Jy cm2 sr-1 H-1)
0.9927057738263894 2.600504030191395e-22 6.852475825234487e-15 6.85247568660016e-15 1.3863432948176485e-22
1.0001793341362166 2.6442814898660803e-22 7.0202890643451245e-15 7.020288897482609e-15 1.6686251670852747e-22
1.0077091589558085 2.688212212768332e-22 7.190650635811926e-15 7.190650435239704e-15 2.0057222389687006e-22
1.0114953028030835 2.710232684309972e-22 7.276790668880208e-15 7.27679044908894e-15 2.1979126961232103e-22
1.0152956718711033 2.732288666944905e-22 7.363572186056997e-15 7.363571945285144e-15 2.4077185308973845e-22
1.0229392996569957 2.776482115428406e-22 7.539007531855327e-15 7.539007243207274e-15 2.8864805313557866e-22
1.0267826658714554 2.798569156635479e-22 7.627531410655656e-15 7.627531094756037e-15 3.158996183562191e-22
1.0306404723013447 2.820687084838317e-22 7.716698565131714e-15 7.71669821952259e-15 3.4560912390312885e-22
1.03451277320114 2.8428350696678704e-22 7.806510616709378e-15 7.806510238722313e-15 3.7798706809311653e-22
1.0383996230291617 2.8650123002186892e-22 7.896969227624665e-15 7.896968814363723e-15 4.132609448953397e-22
1.0403485208654093 2.8761116346808505e-22 7.942441523988622e-15 7.942441091928711e-15 4.32059910928394e-22
1.0423010764483396 2.887217985565326e-22 7.98807610314885e-15 7.988075651472325e-15 4.516765263579346e-22
1.0462171883269815 2.909451355275148e-22 8.079832993845286e-15 8.07983250034605e-15 4.934992344316715e-22
1.0471985131304309 2.9150139350917296e-22 8.102873991031554e-15 8.102873486511185e-15 5.045203677926473e-22
1.048180758391296 2.920578186734901e-22 8.125955754881176e-15 8.125955239104239e-15 5.1577693727385355e-22
1.0501480137395462 2.931711659917309e-22 8.172241697857558e-15 8.172241158841951e-15 5.390156078546273e-22
1.0521189612883777 2.9428516845078896e-22 8.218691055357266e-15 8.218690492102643e-15 5.632546202334997e-22
1.0531058218030118 2.948416650962843e-22 8.24195619327297e-15 8.241955617510164e-15 5.757628082744877e-22
1.0540936079674168 2.953958733299061e-22 8.265193714723568e-15 8.265193126184201e-15 5.885393689260107e-22
1.058054026499678 2.9761418946277964e-22 8.358549345578112e-15 8.358548703166609e-15 6.424115044062174e-22
1.0590464539527713 2.9816913401412162e-22 8.381989788774137e-15 8.381989132175004e-15 6.565991321446071e-22
1.06003981227728 2.9872422269172673e-22 8.405470906629016e-15 8.405470235542796e-15 6.710862216579708e-22
1.0620293250338977 2.9983482833668436e-22 8.4525552890603e-15 8.452554588077378e-15 7.009829214653352e-22
1.0660195594769086 3.0205772467905574e-22 8.547213513033103e-15 8.547212748391275e-15 7.646418286918017e-22
1.070024785945596 3.0428281559181794e-22 8.642526045454477e-15 8.642525211647899e-15 8.338065807285059e-22
1.0740450607676866 3.0651004059916563e-22 8.738494976848831e-15 8.738494067920973e-15 9.089278581717667e-22
1.07808044048254 3.087393416947948e-22 8.835122462806271e-15 8.835121472315278e-15 9.904909924034243e-22
1.0861967418109137 3.1320049766214455e-22 9.030262443393746e-15 9.030261268321166e-15 1.1750725804040078e-21
1.0902777775684922 3.154243930324958e-22 9.128551484648661e-15 9.128550205390229e-15 1.279258430257214e-21
1.0943741465085532 3.1765002150204955e-22 9.22750197549487e-15 9.22750058326876e-15 1.3922261115292357e-21
1.1026131145906286 3.221063033059499e-22 9.427397308538787e-15 9.427395661182966e-15 1.6473558232937838e-21
1.1109141095355224 3.265690220918786e-22 9.629969275511997e-15 9.629967328809041e-15 1.9467029554186232e-21
1.1192775983109025 3.3103435570254993e-22 9.835134720231271e-15 9.835132422766775e-15 2.29746449631535e-21
1.1277040513999907 3.3548577237837753e-22 1.0042426934580697e-14 1.0042424226652691e-14 2.7079280059793853e-21
1.1361939428280308 3.3994241328671473e-22 1.0252440461654085e-14 1.025243727403052e-14 3.1876235636269805e-21
1.1447477501889525 3.4440415254974455e-22 1.0465201888434191e-14 1.0465198140938787e-14 3.747495406012135e-21
1.1533659546722406 3.488725736426589e-22 1.0680790331441133e-14 1.068078593134012e-14 4.400101013737354e-21
1.1707974979042381 3.5784299878624127e-22 1.112099750539441e-14 1.1120991462233406e-14 6.043161003035401e-21
1.1884924949847024 3.6683962889510003e-22 1.1572897911997784e-14 1.1572889653763744e-14 8.258234042616837e-21
1.2064549276569216 3.759238520738434e-22 1.2038722862270632e-14 1.2038711632705845e-14 1.1229564789401004e-20
1.2246888378427687 3.8503356654398705e-22 1.2516813600906653e-14 1.2516798405674244e-14 1.519523241058443e-20
1.2431983285522175 3.9416019331021268e-22 1.3007163904658838e-14 1.3007143442861889e-14 2.0461796949831547e-20
1.2619875648066055 4.033156575443753e-22 1.3510443049718922e-14 1.3510415627732774e-14 2.742198614897809e-20
1.3004222497298317 4.2164945501330005e-22 1.4554770701811207e-14 1.4554722144376036e-14 4.855743517058893e-20
1.3400274889804893 4.40080432918332e-22 1.5653634878862535e-14 1.5653550470916847e-14 8.440794567837802e-20
1.3808389325824078 4.586667619414703e-22 1.6811626230724303e-14 1.681148212368563e-14 1.4410703867035703e-19
1.4228933163050095 4.775600907859729e-22 1.80372281452294e-14 1.8036986389849318e-14 2.4175538008308833e-19
1.466228494730424 4.970955684498648e-22 1.934688186803878e-14 1.9346483143266837e-14 3.987247719388843e-19
1.5108834753276823 5.17216802854208e-22 2.0743069847856504e-14 2.0742423051422376e-14 6.467964341306828e-19
1.5568984535646726 5.378910811215512e-22 2.2229211785192687e-14 2.2228178746345622e-14 1.0330388470655578e-18
1.6043148490894465 5.592342947457105e-22 2.3815123209395025e-14 2.3813495676139842e-14 1.6275332551734963e-18
1.6531753430134553 5.8136815935261225e-22 2.551171147931491e-14 2.5509185124833292e-14 2.526354481625158e-18
1.7035239163302658 6.044380847805581e-22 2.7331878974719925e-14 2.7328014312536164e-14 3.864662183757152e-18
1.755405889504358 6.288925735497053e-22 2.9303766859916664e-14 2.929793780580314e-14 5.82905411352124e-18
1.8088679632656115 6.547066555885274e-22 3.143569424367642e-14 3.142702249371299e-14 8.671749963438368e-18
1.8639582606462262 6.81842010516983e-22 3.373567251013717e-14 3.372294307804651e-14 1.2729432090658138e-17
1.9207263702978936 7.103544723796511e-22 3.6216798027777955e-14 3.6198353514437716e-14 1.8444513340247768e-17
1.979223391128241 7.403381808416536e-22 3.8895055494806204e-14 3.8868665003209575e-14 2.6390491596625972e-17
2.039501978296691 7.71864845980783e-22 4.1786387346693417e-14 4.174908784215099e-14 3.729950454242563e-17
2.1016163906111602 8.052407487632837e-22 4.492091810819066e-14 4.486882125145579e-14 5.2096856734873267e-17
2.1656225393682647 8.405772143276568e-22 4.832032083375438e-14 4.824838911922486e-14 7.193171452952803e-17
2.231578038680979 8.777107113887172e-22 5.199156738548146e-14 5.189335574208915e-14 9.821164339229992e-17
2.299542257339062 9.16596036497055e-22 5.5948545777120277e-14 5.581590714786851e-14 1.3263862925178564e-16
2.369576372248914 9.572761119563847e-22 6.021121145698137e-14 6.00339641033282e-14 1.7724735365316124e-16
2.4417434235010123 9.998152178098144e-22 6.480211826784894e-14 6.456768428163611e-14 2.3443398621282746e-16
2.5161083711144245 1.0444626692010765e-21 6.975762691207017e-14 6.945063272209684e-14 3.0699418997331966e-16
2.5927381535095444 1.0917189201563308e-21 7.513441833729136e-14 7.473627258305542e-14 3.9814575423594053e-16
2.6717017477616296 1.1420226713584903e-21 8.099013692354497e-14 8.047861374987835e-14 5.115231736666651e-16
2.753070231689431 1.1960922382816345e-21 8.740804278023952e-14 8.675686005342827e-14 6.511827268112497e-16
2.836916847834745 1.2560537880142146e-21 9.458543753118426e-14 9.376381582759574e-14 8.21621703588535e-16
2.9233170693905177 1.3267655231013228e-21 1.0295312487919874e-13 1.019255728734162e-13 1.027552005782539e-15
2.967498994190263 1.370997418667589e-21 1.0799325978174485e-13 1.0685005169585223e-13 1.1432080858926319e-15
3.0123486681368425 1.418612406641731e-21 1.134327406383045e-13 1.1216252847392714e-13 1.2702121643773335e-15
3.0578761833420214 1.498878501785784e-21 1.2166222649346816e-13 1.202523329118035e-13 1.4098935816646727e-15
3.1040917844459814 1.5938209490570693e-21 1.3132382335747421e-13 1.2976197776353654e-13 1.5618455939377e-15
3.127460860933648 1.6830870793553118e-21 1.3972300019762054e-13 1.3807981643535076e-13 1.6431837622697742e-15
3.1510058709225794 1.7971212606903788e-21 1.5031282168828728e-13 1.4858486949463912e-13 1.727952193648152e-15
3.162844764501044 1.9005250224684635e-21 1.5955885157958208e-13 1.5778703735297969e-13 1.7718142266023387e-15
3.1747281389236908 2.0179229086795725e-21 1.700515305364158e-13 1.6823496655496217e-13 1.816563981453667e-15
3.1986289994194426 2.336937338142364e-21 1.9841768162802174e-13 1.9650867784902498e-13 1.9090037789967872e-15
3.2227097969389145 3.0768936673588584e-21 2.6321044555239737e-13 2.6120350440235033e-13 2.006941150047052e-15
3.2348180950136065 3.771964306517953e-21 3.23882043904277e-13 3.2182284165446874e-13 2.0592022498081904e-15
3.240889293275058 4.2912318176740696e-21 3.6916082289917555e-13 3.670740542105517e-13 2.086768688623889e-15
3.2469718861334385 4.892933337690093e-21 4.217132633213749e-13 4.1959797142626945e-13 2.115291895105568e-15
3.2714166318528037 8.05718862628102e-21 6.996628605695074e-13 6.97429708418918e-13 2.2331521505896763e-15
3.2744851364798273 8.255131575555312e-21 7.175240398217705e-13 7.152770010775385e-13 2.247038744232347e-15
3.2775565192852394 8.458420629943386e-21 7.358832217079058e-13 7.336222272412369e-13 2.26099446666912e-15
3.283707930232385 8.263944047018883e-21 7.203131161078261e-13 7.180271700818308e-13 2.28594602599541e-15
3.2898708863219004 7.644680418956057e-21 6.67586616921146e-13 6.652779688905869e-13 2.308648030559189e-15
3.29141343181113 7.498362181830584e-21 6.55116116754068e-13 6.528017682715081e-13 2.3143484825597003e-15
3.292184975758714 7.426424598647877e-21 6.489831747971218e-13 6.466659723415303e-13 2.317202455591617e-15
3.295272960557952 6.977014680976206e-21 6.102818648271537e-13 6.079535619589549e-13 2.3283028681988036e-15
3.3076538914384823 5.409658664879433e-21 4.749625367234514e-13 4.725896519899239e-13 2.372884733527476e-15
3.310756385682612 5.087726348873912e-21 4.4711619681884935e-13 4.447320754349646e-13 2.384121383884923e-15
3.313861789986515 4.7895466623725404e-21 4.213065715351423e-13 4.189111769647876e-13 2.3953945703546604e-15
3.3200813396944477 4.372963539921719e-21 3.853842955892523e-13 3.8296465111701096e-13 2.4196444722413495e-15
3.345076488085796 3.644018105809724e-21 3.2356088300656477e-13 3.2103316533799984e-13 2.52771766856487e-15
3.3482140837626964 3.673539796132944e-21 3.26488133371917e-13 3.2394577530249323e-13 2.542358069423808e-15
3.3513546224236106 3.703336892646532e-21 3.2944509029593375e-13 3.2688802616215034e-13 2.557064133783398e-15
3.3576445397418455 3.912772071335541e-21 3.487295105045307e-13 3.461416986036689e-13 2.5878119008617988e-15
3.3702598118196083 4.67275736305862e-21 4.1802864777163017e-13 4.1537634178604417e-13 2.6523059855859914e-15
3.382922481734668 4.8538267505254276e-21 4.358587310352941e-13 4.331437386439631e-13 2.714992391330941e-15
3.389271646505754 4.947229269065742e-21 4.45079763726245e-13 4.423329980707538e-13 2.7467656554911096e-15
3.395632727569191 5.049712751195396e-21 4.551523800996854e-13 4.5237287011564647e-13 2.779509984039001e-15
3.421196662673239 5.546146074105763e-21 5.036615255372697e-13 5.007464702944085e-13 2.915055242861261e-15
3.4276182099114902 5.456126613520415e-21 4.964166213288557e-13 4.934713176736811e-13 2.9453036551746152e-15
3.4340518103208963 5.047420505349455e-21 4.600931463298615e-13 4.5711923333595e-13 2.9739129939114123e-15
3.4469541582030403 4.461641757559509e-21 4.0822503682578457e-13 4.0519621267597067e-13 3.028824149814019e-15
3.472904465399547 4.3004434489047514e-21 3.9643821384219713e-13 3.932828978062449e-13 3.1553160359522384e-15
3.4990501388274233 4.0553349744192855e-21 3.766572505101435e-13 3.73372496729872e-13 3.284753780271578e-15
3.5253949054701885 3.1809073983709197e-21 2.976653148493511e-13 2.942548173235185e-13 3.4104975258326176e-15
3.5519380250092896 2.3493950558962235e-21 2.2150873812424e-13 2.179718610095604e-13 3.5368771146795632e-15
3.578680990867387 2.0255312917234055e-21 1.9241165552856932e-13 1.887362641592861e-13 3.675391369283226e-15
3.605625307711299 1.90141166228115e-21 1.819810555434378e-13 1.7815978780793997e-13 3.821267735497867e-15
3.660119384959845 1.824417631076327e-21 1.7725110242403156e-13 1.7312338914138459e-13 4.127713282646946e-15
3.715437065384467 1.7735006844782167e-21 1.7490841440514326e-13 1.704576963033003e-13 4.450718101842959e-15
3.8285932144167436 1.7755130623139653e-21 1.8043988018960812e-13 1.7529513853702424e-13 5.1447416525838766e-15
3.94519561050918 1.8035584654487365e-21 1.8887226981555535e-13 1.829710410970513e-13 5.901228718504012e-15
4.06534921144712 1.8406851862012532e-21 1.9863089862570913e-13 1.9191171884741376e-13 6.7191797782953336e-15
4.189162171576248 1.8818749452004786e-21 2.092605519218712e-13 2.0166059734940806e-13 7.599954572463135e-15
4.316745939156006 1.9250245973666746e-21 2.2057800544636222e-13 2.12037937627303e-13 8.540067819059251e-15
4.448215356677963 1.9692025154228712e-21 2.3251213285765405e-13 2.229859008704238e-13 9.526231987230314e-15
4.58368876423945 2.014251761995798e-21 2.450746021728501e-13 2.3451522412011703e-13 1.055937805273302e-14
4.723288106065518 2.0605436050894193e-21 2.5834239386037217e-13 2.466967194947412e-13 1.164567436563094e-14
4.867139040275056 2.1086726723313523e-21 2.7242838497270353e-13 2.5967246544508554e-13 1.275591952761797e-14
4.940699165968905 2.1348486476151245e-21 2.7997866260932645e-13 2.6665535366383743e-13 1.3323308945489002e-14
5.015371051989984 2.1604583035393676e-21 2.876195423467637e-13 2.7372247528141345e-13 1.389706706535036e-14
5.091171501069577 2.189966615755858e-21 2.9595430003966016e-13 2.8146469263167723e-13 1.448960740798291e-14
5.129500256944802 2.204481146091852e-21 3.0015865995491797e-13 2.8537101424285436e-13 1.478764571206361e-14
5.168117569889187 2.2192336008565346e-21 3.0444218992849814e-13 2.8935242383523737e-13 1.5089766093260783e-14
5.20702561229733 2.2372728421658946e-21 3.092274917780729e-13 2.9380772781471047e-13 1.5419763963362397e-14
5.246226572918644 2.255274457372413e-21 3.140623508305091e-13 2.9831055752623324e-13 1.5751793304275864e-14
5.265937586045735 2.2642628452698723e-21 3.1649873651071177e-13 3.005802102682795e-13 1.591852624243211e-14
5.285722656980489 2.273243918816533e-21 3.1894797039609554e-13 3.0286225592499377e-13 1.6085714471101774e-14
5.305582063971359 2.2822184431466902e-21 3.214102185395932e-13 3.0515687841775645e-13 1.625334012183683e-14
5.3255160863122235 2.291825624782329e-21 3.2397589988572544e-13 3.0755316131222614e-13 1.6422738573499203e-14
5.365609099470188 2.3159847594751556e-21 3.2985582671820714e-13 3.130825930013178e-13 1.677323371688937e-14
5.406003951863644 2.3404238015967225e-21 3.3584609117873743e-13 3.187203040859365e-13 1.7125787092800953e-14
5.446702915881641 2.365168538509435e-21 3.419520520362405e-13 3.244717959547837e-13 1.7480256081456773e-14
5.487708281020852 2.3914680756759473e-21 3.4835739768564306e-13 3.305193589319093e-13 1.7838038753733746e-14
5.529022354014368 2.4290299581481586e-21 3.564927073099627e-13 3.3828170114641616e-13 1.8211006163546577e-14
5.570647458961463 2.4678487556296983e-21 3.649166236006872e-13 3.463305227271151e-13 1.8586100873572192e-14
5.612585937458331 2.50803444672919e-21 3.7365081500938935e-13 3.5468763729394673e-13 1.8963177715442622e-14
5.654840148729818 2.55155448771635e-21 3.8299633035169416e-13 3.636523393804523e-13 1.9343990971241865e-14
5.67608639626678 2.582124045299351e-21 3.8904114278248195e-13 3.6949782517157636e-13 1.954331761090554e-14
5.686739436050992 2.597742767645134e-21 3.9212895043506814e-13 3.7248574706695435e-13 1.9643203368113718e-14
5.6974124697621304 2.6135916773272417e-21 3.9526179022973176e-13 3.755185558597383e-13 1.97432343699935e-14
5.718818669136295 2.6460036072732863e-21 4.016670357324988e-13 3.817233128268723e-13 1.994372290562656e-14
5.740305295436557 2.6817205976170416e-21 4.086184306733394e-13 3.8847213402712585e-13 2.0146296646213497e-14
5.7835210386641895 2.7756730923183303e-21 4.2611818460704185e-13 4.055531939919211e-13 2.056499061512073e-14
5.827062130521658 2.8820961161631117e-21 4.4578714626641886e-13 4.247971470595817e-13 2.0989999206837058e-14
5.8489554468988025 2.9584932325427555e-21 4.593231414824855e-13 4.381033212037076e-13 2.121982027877784e-14
5.870931020387893 3.039428506207444e-21 4.736617804225433e-13 4.522111835575504e-13 2.145059686499308e-14
5.892989160043636 3.1252605221340647e-21 4.888676520350484e-13 4.671853405208048e-13 2.168231151424355e-14
5.915130176081913 3.2226597024973637e-21 5.059972869801918e-13 4.840746824766762e-13 2.1922604503515626e-14
5.95966208400165 3.498072690534549e-21 5.533754634527413e-13 5.309033084522507e-13 2.247215500049061e-14
6.004529249263818 3.89402927350202e-21 6.206512148007736e-13 5.975595221902442e-13 2.309169261052928e-14
6.027089341400364 4.16991434203248e-21 6.671203613660581e-13 6.436696911187199e-13 2.3450670247337968e-14
6.049734195844842 4.493379839587441e-21 7.21570648793317e-13 6.977395087791904e-13 2.3831140014126382e-14
6.095279466722835 5.4280342742638645e-21 8.782246788841354e-13 8.53454866538282e-13 2.4769812345853535e-14
6.141167624020661 6.856223794516205e-21 1.1176488348659446e-12 1.0916564427145498e-12 2.599239215139463e-14
6.164241091010745 7.767079915115822e-21 1.2708866650514363e-12 1.2441248655536535e-12 2.6761799497782637e-14
6.187401249150058 8.79286230966712e-21 1.4441356401217664e-12 1.4165841156122622e-12 2.7551524509504546e-14
6.1990139391386085 9.291477992384176e-21 1.52889214198671e-12 1.5009388466873896e-12 2.7953295299320665e-14
6.204828454712694 9.553131521272312e-21 1.5734210966492426e-12 1.545264907161191e-12 2.8156189488051548e-14
6.210648424152782 9.74252617994145e-21 1.6061198874791548e-12 1.5777913015124434e-12 2.8328585966711313e-14
6.233982942956859 1.0377946577671734e-20 1.7173012002573625e-12 1.6883735469940974e-12 2.892765326326454e-14
6.239830258556775 1.0454573750535703e-20 1.7316038369587125e-12 1.7025945496461288e-12 2.900928731258428e-14
6.245683058788269 1.0453911438605735e-20 1.7331182343732033e-12 1.704027195739662e-12 2.9091038633541073e-14
6.257405133728602 1.0419654507477811e-20 1.7306810011556531e-12 1.7014477449745554e-12 2.9233256181097914e-14
6.269149208991335 1.0273629035303921e-20 1.7096291707537832e-12 1.6803478818307297e-12 2.928128892305336e-14
6.280915325867298 9.932349419467217e-21 1.6559391018299709e-12 1.6267261970256993e-12 2.9212904804271515e-14
6.304513850009849 9.101131254459765e-21 1.5230579009491271e-12 1.4940870313640799e-12 2.897086958504661e-14
6.32820103803542 8.086312917776274e-21 1.3583142097043855e-12 1.329697370912765e-12 2.861683879162055e-14
6.3519772230701035 7.159860271786996e-21 1.2072102440827502e-12 1.1789117415980475e-12 2.829850248470292e-14
6.375842739491607 6.378513221622027e-21 1.0795095525796309e-12 1.051492746980236e-12 2.8016805599394654e-14
6.399797922933955 5.757015948444393e-21 9.77987100920958e-13 9.501192815229003e-13 2.7867819398057834e-14
6.42384311029221 5.238127136975498e-21 8.931828875275599e-13 8.654375882632376e-13 2.7745299264322307e-14
6.447978639727206 4.860491027646191e-21 8.319039165407828e-13 8.041777303316125e-13 2.7726186209170326e-14
6.472204850670314 4.544366866949141e-21 7.807195818469312e-13 7.529920234573698e-13 2.7727558389561275e-14
6.496522083828205 4.3374205746593426e-21 7.479660527234072e-13 7.201534104533664e-13 2.781264227004085e-14
