Dust emission spectrum from A.P. Jones, M. Kohler, N. Ysard, M. Bocchio, and L. Verstraete (2017), A&A, 602A, 46J 
inside the DustPedia framework.

lambda    nu*dP/dnu     j_nu    j_nu(carb.) j_nu(sil)
 (um)   (erg s-1 H-1) (Jy cm2 sr-1 H-1)
0.9927057738263894 1.4821268691408315e-19 3.90548848331165e-12 3.905488387052159e-12 9.625949103088379e-20
1.0001793341362166 1.506956280063489e-19 4.0008103274631726e-12 4.000810211662168e-12 1.1580100386317635e-19
1.0077091589558085 1.5318946828856343e-19 4.097637613268961e-12 4.097637474146622e-12 1.3912233788250256e-19
1.0114953028030835 1.5444038123452097e-19 4.14661933483321e-12 4.146619182420971e-12 1.5241223890198722e-19
1.0152956718711033 1.556939078124231e-19 4.195981716631695e-12 4.195981549716238e-12 1.6691545706586823e-19
1.0229392996569957 1.5820743696803314e-19 4.295821148170779e-12 4.295820948176788e-12 1.9999399037687327e-19
1.0267826658714554 1.594645917738996e-19 4.346225212119102e-12 4.3462249933058e-12 2.188133026019971e-19
1.0306404723013447 1.6072416441606506e-19 4.397013534744975e-12 4.397013295421983e-12 2.3932299307293217e-19
1.03451277320114 1.619861247106454e-19 4.4481877116458966e-12 4.448187449978797e-12 2.616670987657224e-19
1.0383996230291617 1.6325044373324745e-19 4.499749374406255e-12 4.499749088405039e-12 2.8600121595633475e-19
1.0403485208654093 1.6388347908026125e-19 4.525676033041828e-12 4.525675734075302e-12 2.9896652531590937e-19
1.0423010764483396 1.645170938481447e-19 4.551700192012145e-12 4.5516998795187774e-12 3.1249336607266156e-19
1.0462171883269815 1.6578604873717193e-19 4.604041872283391e-12 4.604041530958471e-12 3.413249213616707e-19
1.0471985131304309 1.6610364462399543e-19 4.6171885685924425e-12 4.617188219671497e-12 3.48920947386694e-19
1.048180758391296 1.6642138261487218e-19 4.630359830587042e-12 4.630359473908496e-12 3.5667854746411163e-19
1.0501480137395462 1.6705728342832046e-19 4.6567761633224054e-12 4.6567757906308094e-12 3.726915941179662e-19
1.0521189612883777 1.676937482709916e-19 4.683291095536815e-12 4.683290706145874e-12 3.8939093935196443e-19
1.0531058218030118 1.680117744381544e-19 4.696573954095402e-12 4.696573556088163e-12 3.9800723891630196e-19
1.0540936079674168 1.6832857485232537e-19 4.709843313633599e-12 4.7098429068259555e-12 4.068076426302384e-19
1.058054026499678 1.6959711486397676e-19 4.763166218711207e-12 4.7631657748053276e-12 4.439058785143837e-19
1.0590464539527713 1.6991458286360057e-19 4.776558456446616e-12 4.776558002772841e-12 4.536737735531354e-19
1.06003981227728 1.70232183445098e-19 4.789975357292424e-12 4.789974893645494e-12 4.636469301724409e-19
1.0620293250338977 1.7086778116619523e-19 4.816883266825001e-12 4.816882782599518e-12 4.842254835219299e-19
1.0660195594769086 1.7214055485433302e-19 4.870996357253534e-12 4.870995829222408e-12 5.28031125419009e-19
1.070024785945596 1.7341541852145786e-19 4.92550743734931e-12 4.9255068617414195e-12 5.756078905892722e-19
1.0740450607676866 1.746923562845811e-19 4.980418504080985e-12 4.980417876818235e-12 6.2726274888939055e-19
1.07808044048254 1.7597135381044816e-19 5.035731605588678e-12 5.0357309222625634e-12 6.83326114945349e-19
1.0861967418109137 1.7853354143125816e-19 5.1475165145231936e-12 5.147515704395767e-12 8.101274272872063e-19
1.0902777775684922 1.7981230679384865e-19 5.203864813245383e-12 5.2038639315862195e-12 8.816591642678652e-19
1.0943741465085532 1.810930155211724e-19 5.260620322228309e-12 5.2606193630378216e-12 9.591904887672065e-19
1.1026131145906286 1.8366024138203604e-19 5.375362256248676e-12 5.375361122062177e-12 1.1341864976962418e-18
1.1109141095355224 1.8623519283489266e-19 5.491761507355995e-12 5.491760168004918e-12 1.3393510777786847e-18
1.1192775983109025 1.8881588020894944e-19 5.609779127706902e-12 5.609777548143252e-12 1.5795636510109848e-18
1.1277040513999907 1.913931813781883e-19 5.729161109102478e-12 5.729159248665127e-12 1.860437351909263e-18
1.1361939428280308 1.9397800620352437e-19 5.8502495768147856e-12 5.850247388394131e-12 2.188420654711768e-18
1.1447477501889525 1.9657044695284682e-19 5.973067970962279e-12 5.973065400050939e-12 2.5709113388519316e-18
1.1533659546722406 1.9917151066130522e-19 6.097668048703482e-12 6.097665032314446e-12 3.0163890350663983e-18
1.1707974979042381 2.0440738306862465e-19 6.352545683165053e-12 6.352541546634502e-12 4.1365305498739065e-18
1.1884924949847024 2.0967959047921323e-19 6.614881009868589e-12 6.614875365776402e-12 5.644092186712317e-18
1.2064549276569216 2.150234083353259e-19 6.885988232907754e-12 6.885980570012992e-12 7.662894763229168e-18
1.2246888378427687 2.2040592486598906e-19 7.165037331278631e-12 7.165026978681741e-12 1.0352596886931479e-17
1.2431983285522175 2.2582330155235415e-19 7.452098782768087e-12 7.452084864434962e-12 1.3918333126336076e-17
1.2619875648066055 2.312840930381349e-19 7.747654991435114e-12 7.747636369105177e-12 1.8622329936832414e-17
1.3004222497298317 2.4230560097066146e-19 8.364062659066633e-12 8.364029793119755e-12 3.2865946879660554e-17
1.3400274889804893 2.5350657705239567e-19 9.017213899407458e-12 9.017156962442194e-12 5.693696526213955e-17
1.3808389325824078 2.6492959996024275e-19 9.71053013114403e-12 9.710433262265126e-12 9.686887890429983e-17
1.4228933163050095 2.766675009125066e-19 1.0449606092745809e-11 1.0449444160808296e-11 1.6193193751244334e-16
1.466228494730424 2.889133806112416e-19 1.1244463639480543e-11 1.1244197531880367e-11 2.661076001738637e-16
1.5108834753276823 3.0164042908894325e-19 1.2097341878688059e-11 1.209691179724891e-11 4.300814391504603e-16
1.5568984535646726 3.148308554212771e-19 1.3010890136123043e-11 1.3010205792552919e-11 6.843435701222361e-16
1.6043148490894465 3.285453967984344e-19 1.3991182547544052e-11 1.3990108444106544e-11 1.0741034375102288e-15
1.6531753430134553 3.4284407104101154e-19 1.5044750700712293e-11 1.5043089794758813e-11 1.6609059534789183e-15
1.7035239163302658 3.577928944532432e-19 1.617891449173179e-11 1.617638361162206e-11 2.5308801097358272e-15
1.755405889504358 3.73621868505386e-19 1.7409218344956244e-11 1.7405416082379794e-11 3.802262576450611e-15
1.8088679632656115 3.902904555571536e-19 1.873976890626077e-11 1.873413500546201e-11 5.6339007987495965e-15
1.8639582606462262 4.0774105784834304e-19 2.0173909181804487e-11 2.0165672653092658e-11 8.236528711828496e-15
1.9207263702978936 4.259629135215887e-19 2.1717344517668086e-11 2.1705459253041756e-11 1.1885264626330124e-14
1.979223391128241 4.449600693524371e-19 2.3376812162734437e-11 2.3359877798256993e-11 1.6934364477449322e-14
2.039501978296691 4.647151287132109e-19 2.515824690733769e-11 2.5134414013489736e-11 2.3832893847952324e-14
2.1016163906111602 4.853380182637838e-19 2.7074920645413156e-11 2.704177631342322e-11 3.314433198993553e-14
2.1656225393682647 5.068221144016176e-19 2.9134512280488507e-11 2.9088949208921544e-11 4.556307156697352e-14
2.231578038680979 5.289980596963609e-19 3.1335425112878314e-11 3.1273492375693484e-11 6.193273718481862e-14
2.299542257339062 5.517638310275392e-19 3.367937753296484e-11 3.3596112836041304e-11 8.326469692353413e-14
2.369576372248914 5.750589432092471e-19 3.6170332882366756e-11 3.605957569958992e-11 1.107571827768291e-13
2.4417434235010123 5.988337047237333e-19 3.8812864482387924e-11 3.866705680957119e-11 1.4580767281674253e-13
2.5161083711144245 6.23135709256628e-19 4.161802006304514e-11 4.142798983760997e-11 1.9003022543518437e-13
2.5927381535095444 6.48140181413158e-19 4.4606385977565326e-11 4.436112366531703e-11 2.4526231224830685e-13
2.6717017477616296 6.739667074017185e-19 4.779647312031462e-11 4.748291907160521e-11 3.1355404870940263e-13
2.753070231689431 7.008631358144825e-19 5.121768455447533e-11 5.082052144580137e-11 3.971631086739526e-13
2.836916847834745 7.297707922980954e-19 5.4954405890628285e-11 5.445584757602533e-11 4.985583146029465e-13
2.9233170693905177 7.629203330576964e-19 5.920038692184992e-11 5.858012360273131e-11 6.202633191185998e-13
2.967498994190263 7.833448480455865e-19 6.170395547199025e-11 6.101582859861394e-11 6.881268733763079e-13
3.0123486681368425 8.050886860150307e-19 6.43751708951746e-11 6.361272902209233e-11 7.624418730822709e-13
3.0578761833420214 8.421863325161349e-19 6.835928610238014e-11 6.75153175358206e-11 8.439685665595291e-13
3.1040917844459814 8.856993395475106e-19 7.297772292639384e-11 7.204538355214074e-11 9.323393742530911e-13
3.127460860933648 9.27192480937864e-19 7.697172462813761e-11 7.599220663675386e-11 9.795179913837512e-13
3.1510058709225794 9.801437792973824e-19 8.198009803179008e-11 8.095150267407498e-11 1.0285953577150976e-12
3.162844764501044 1.028693920672051e-18 8.636414604851841e-11 8.531019120290814e-11 1.053954845610261e-12
3.1747281389236908 1.0835903776326126e-18 9.131478779411506e-11 9.023498458748353e-11 1.079803206631535e-12
3.1986289994194426 1.2324321825259443e-18 1.0463966338735603e-10 1.0350653934349874e-10 1.1331240438573081e-12
3.2227097969389145 1.578998256753436e-18 1.3507416232660406e-10 1.3388463834048593e-10 1.1895239861181932e-12
3.2348180950136065 1.9045996796352685e-18 1.6353962734847683e-10 1.6232003007333739e-10 1.2195972751394815e-12
3.240889293275058 2.1480399377927002e-18 1.8478894283685031e-10 1.8355348241994963e-10 1.2354604169007298e-12
3.2469718861334385 2.4302714900314437e-18 2.0946079786607015e-10 2.0820892381588148e-10 1.2518740501886167e-12
3.2714166318528037 3.908658325785e-18 3.3941653746163297e-10 3.3809691635878065e-10 1.3196211028524912e-12
3.2744851364798273 4.00077747000295e-18 3.477417635843478e-10 3.464141821709243e-10 1.3275814134234945e-12
3.2775565192852394 4.095340175138799e-18 3.5629489876659515e-10 3.549593193852939e-10 1.3355793813012671e-12
3.283707930232385 4.003209568642567e-18 3.4893319006217203e-10 3.475833555490167e-10 1.3498345131553331e-12
3.2898708863219004 3.71229046561901e-18 3.2418300009323994e-10 3.2282023652569575e-10 1.362763567544293e-12
3.29141343181113 3.643518474824965e-18 3.1832653807158615e-10 3.1696052905091653e-10 1.3660090206696115e-12
3.292184975758714 3.609701470238122e-18 3.1544594429080937e-10 3.140783105637748e-10 1.3676337270346157e-12
3.295272960557952 3.3993498388476535e-18 2.973422951951654e-10 2.9596834996938977e-10 1.3739452257756687e-12
3.3076538914384823 2.664516150594595e-18 2.3394181193781846e-10 2.3254253831031695e-10 1.3992736275015259e-12
3.310756385682612 2.513213349385327e-18 2.208645507870608e-10 2.1945889734859988e-10 1.4056534384608845e-12
3.313861789986515 2.372929279932657e-18 2.0873180071045743e-10 2.073197483662613e-10 1.412052344196096e-12
3.3200813396944477 2.176908942484205e-18 1.9184850541338785e-10 1.9042266904010454e-10 1.4258363732833571e-12
3.345076488085796 1.8339348169846238e-18 1.628393579642143e-10 1.6135203787835525e-10 1.4873200858590403e-12
3.3482140837626964 1.847530661784063e-18 1.6420043625176824e-10 1.6270478470811612e-10 1.4956515436521086e-12
3.3513546224236106 1.86124760337925e-18 1.6557469723478725e-10 1.640706790334378e-10 1.5040182013494495e-12
3.3576445397418455 1.958791184076437e-18 1.7457911637832976e-10 1.7305759749361116e-10 1.521518884718605e-12
3.3702598118196083 2.3124753920897418e-18 2.068759163064461e-10 2.0531769252187666e-10 1.5582237845694743e-12
3.382922481734668 2.3961632367817075e-18 2.1516809754778392e-10 2.135742715673238e-10 1.5938259804601788e-12
3.389271646505754 2.439282626035628e-18 2.1945118687869008e-10 2.1783932975582045e-10 1.6118571228696015e-12
3.395632727569191 2.4868665847720433e-18 2.2415200642480522e-10 2.225215669821861e-10 1.630439442619155e-12
3.421196662673239 2.718341919737252e-18 2.468604721067551e-10 2.4515318975586454e-10 1.7072823508905768e-12
3.4276182099114902 2.6756648514817553e-18 2.4344092420610707e-10 2.41716574501112e-10 1.7243497049950326e-12
3.4340518103208963 2.4840125879080016e-18 2.264279676881108e-10 2.246875148447988e-10 1.7404528433119525e-12
3.4469541582030403 2.2085060745677966e-18 2.020707897698985e-10 2.0029950912116104e-10 1.7712806487375112e-12
3.472904465399547 2.1297964633301758e-18 1.9633619551143737e-10 1.944937767911987e-10 1.8424187202386707e-12
3.4990501388274233 2.0124062605535466e-18 1.8691117103539404e-10 1.849961328257019e-10 1.91503820969214e-12
3.5253949054701885 1.603617124568973e-18 1.5006447422112994e-10 1.480791727902367e-10 1.985301430893271e-12
3.5519380250092896 1.2143324966265959e-18 1.1449128502928828e-10 1.1243559224045447e-10 2.0556927888338426e-12
3.578680990867387 1.0617180698604178e-18 1.0085597411463559e-10 9.872315722257758e-11 2.132816892058017e-12
3.605625307711299 1.0022255396869164e-18 9.592139630931136e-11 9.370748970421053e-11 2.213906605100807e-12
3.660119384959845 9.627980509725465e-19 9.354054304217208e-11 9.115690150389616e-11 2.383641538275915e-12
3.715437065384467 9.35144537453299e-19 9.22270003711389e-11 8.966533634685307e-11 2.5616640242858193e-12
3.8285932144167436 9.274815112017904e-19 9.425706648489544e-11 9.131597010927399e-11 2.9410963756214574e-12
3.94519561050918 9.309341492447766e-19 9.748929640211409e-11 9.413919073532817e-11 3.350105666785904e-12
4.06534921144712 9.376551927972653e-19 1.0118367602596646e-10 9.739656574499934e-11 3.787110280967124e-12
4.189162171576248 9.453618432660272e-19 1.051222567111927e-10 1.0087042323187638e-10 4.251833479316319e-12
4.316745939156006 9.531139966851203e-19 1.0921210286840258e-10 1.0447082208920266e-10 4.74128077919988e-12
4.448215356677963 9.605146688024422e-19 1.1341206023005733e-10 1.081648442159802e-10 5.24721601407713e-12
4.58368876423945 9.675296317057875e-19 1.17719613831091e-10 1.119504651641732e-10 5.7691486669177995e-12
4.723288106065518 9.743613383656137e-19 1.2216137528787945e-10 1.1585203826672079e-10 6.309337021158635e-12
4.867139040275056 9.812731445184795e-19 1.267748482189504e-10 1.199237291689862e-10 6.8511190499642106e-12
4.940699165968905 9.853874469626632e-19 1.2923045381265018e-10 1.2210636884628358e-10 7.124084966366596e-12
5.015371051989984 9.890735306408236e-19 1.3167431917763359e-10 1.2427693162449704e-10 7.397387553136516e-12
5.091171501069577 9.942793489890672e-19 1.3436791531746038e-10 1.266905409938139e-10 7.677374323646452e-12
5.129500256944802 9.96706142230411e-19 1.357099290919727e-10 1.2789285071157818e-10 7.817078380394532e-12
5.168117569889187 9.991910989042763e-19 1.3707251286663697e-10 1.2911435050522778e-10 7.95816236140925e-12
5.20702561229733 1.0030616700877383e-18 1.3863943569782832e-10 1.305258837077308e-10 8.11355199009756e-12
5.246226572918644 1.0068604764860122e-18 1.4021218888451531e-10 1.31943073888174e-10 8.269114996341305e-12
5.265937586045735 1.0087340034900206e-18 1.4100087286550476e-10 1.3265393842601618e-10 8.346934439488602e-12
5.285722656980489 1.0105908587244199e-18 1.417911648736781e-10 1.3336640023938621e-10 8.42476463429187e-12
5.305582063971359 1.0124314934343609e-18 1.4258312062032058e-10 1.3408052600333674e-10 8.502594616983821e-12
5.3255160863122235 1.01452908824123e-18 1.434153500899155e-10 1.3483421148779967e-10 8.581138602115791e-12
5.365609099470188 1.0207861335495686e-18 1.4538621318940818e-10 1.3664244850048922e-10 8.743764688918936e-12
5.406003951863644 1.0270904046989273e-18 1.4738539980237283e-10 1.3847889810326305e-10 8.90650169910978e-12
5.446702915881641 1.0334529578844638e-18 1.4941487419506582e-10 1.4034561263259742e-10 9.069261562468364e-12
5.487708281020852 1.0403999237126704e-18 1.5155168227551873e-10 1.4231891610426795e-10 9.232766171250747e-12
5.529022354014368 1.0519973288773517e-18 1.5439470995254864e-10 1.449914905764554e-10 9.403219376093233e-12
5.570647458961463 1.0640121699127238e-18 1.5733368085416528e-10 1.477599478690675e-10 9.573732985097787e-12
5.612585937458331 1.0764876927411968e-18 1.6037678599864822e-10 1.5063256834476886e-10 9.744217653879338e-12
5.654840148729818 1.090237976352703e-18 1.6364813926699931e-10 1.5373257151528835e-10 9.915567751710957e-12
5.67608639626678 1.100719592802673e-18 1.6584222940279966e-10 1.558367817624226e-10 1.0005447640377114e-11
5.686739436050992 1.106082641975112e-18 1.6696303840942785e-10 1.5691264195697504e-10 1.0050396452452752e-11
5.6974124697621304 1.111530115720393e-18 1.6810023816849412e-10 1.580048888869703e-10 1.0095349281523842e-11
5.718818669136295 1.1226874614170274e-18 1.7042552150793294e-10 1.6024026021761447e-10 1.0185261290318514e-11
5.740305295436557 1.135163478723437e-18 1.7296683317636902e-10 1.6269089285272752e-10 1.0275940323641465e-11
5.7835210386641895 1.169218509900047e-18 1.7949709936173537e-10 1.6903387444855242e-10 1.046322491318296e-11
5.827062130521658 1.2081257965438969e-18 1.86866408844523e-10 1.7621390384677256e-10 1.0652504997750421e-11
5.8489554468988025 1.2369506538113737e-18 1.9204372479809055e-10 1.8128832044255353e-10 1.0755404355537055e-11
5.870931020387893 1.2675226441656044e-18 1.9752957871363525e-10 1.8667112115035332e-10 1.0858457563281921e-11
5.892989160043636 1.2999811201881794e-18 2.0334903711717678e-10 1.9238738422267688e-10 1.0961652894499883e-11
5.915130176081913 1.3370334664625259e-18 2.099307308517514e-10 1.988618781012468e-10 1.1068852750504598e-11
5.95966208400165 1.4434402108869123e-18 2.283441387102241e-10 2.1702716376580807e-10 1.1316974944416018e-11
6.004529249263818 1.597822542890726e-18 2.546695036499642e-10 2.430711204629911e-10 1.15983831869731e-11
6.027089341400364 1.7060479453484059e-18 2.729406957683219e-10 2.611777994152665e-10 1.176289635305538e-11
6.049734195844842 1.833073123011377e-18 2.9436455627538344e-10 2.8242697320370853e-10 1.1937583071674952e-11
6.095279466722835 2.2013415169696944e-18 3.561643772260835e-10 3.437909574136215e-10 1.2373419812461991e-11
6.141167624020661 2.764633608233553e-18 4.5066929313842416e-10 4.3772222613306156e-10 1.294706700536251e-11
6.164241091010745 3.1234991033924013e-18 5.11081822536176e-10 4.977708940271918e-10 1.3310928508984217e-11
6.187401249150058 3.527017385283607e-18 5.792757045469953e-10 5.655918927973552e-10 1.368381174964022e-11
6.1990139391386085 3.722601817376084e-18 6.125458910839353e-10 5.986724791863759e-10 1.3873411897559436e-11
6.204828454712694 3.825190990430169e-18 6.300170985454894e-10 6.160480013939461e-10 1.3969097151543237e-11
6.210648424152782 3.8989328055691016e-18 6.42764864400607e-10 6.287150803640196e-10 1.4049784036587366e-11
6.233982942956859 4.1447285053650545e-18 6.858531390321687e-10 6.715255810310496e-10 1.4327558001119081e-11
6.239830258556775 4.173370070059341e-18 6.912403890204616e-10 6.768769622811393e-10 1.4363426739322308e-11
6.245683058788269 4.1713172625568344e-18 6.915484267826518e-10 6.771491016254399e-10 1.4399325157212008e-11
6.257405133728602 4.15414114001342e-18 6.899934294347929e-10 6.755328309898431e-10 1.446059844494958e-11
6.269149208991335 4.092651986260956e-18 6.810560511199298e-10 6.665805053048325e-10 1.4475545815097192e-11
6.280915325867298 3.953899256543117e-18 6.592011725617894e-10 6.447678608877629e-10 1.44333116740267e-11
6.304513850009849 3.618242738026761e-18 6.055063964716522e-10 5.912091217188659e-10 1.4297274752786187e-11
6.32820103803542 3.2111373686837115e-18 5.393970727508411e-10 5.252906826562499e-10 1.410639009459131e-11
6.3519772230701035 2.840170120071472e-18 4.788756112180758e-10 4.649424662048674e-10 1.3933145013208396e-11
6.375842739491607 2.5275248067737917e-18 4.277622509341531e-10 4.1398416849606453e-10 1.3778082438088415e-11
6.399797922933955 2.2786831868572502e-18 3.870968543059225e-10 3.7340902727821066e-10 1.3687827027711913e-11
6.42384311029221 2.0709227092415338e-18 3.53124824372777e-10 3.3951424020446697e-10 1.3610584168310145e-11
6.447978639727206 1.919145362887297e-18 3.284739205804457e-10 3.1489026608374565e-10 1.358365449669996e-11
6.472204850670314 1.791927890443347e-18 3.0785216825286745e-10 2.942855080818455e-10 1.3566660171022067e-11
6.496522083828205 1.707732409145537e-18 2.9448974273765036e-10 2.808995098165213e-10 1.3590232921129063e-11
