Dust emission spectrum from A.P. Jones, M. Kohler, N. Ysard, M. Bocchio, and L. Verstraete (2017), A&A, 602A, 46J 
inside the DustPedia framework.

lambda    nu*dP/dnu     j_nu    j_nu(carb.) j_nu(sil)
 (um)   (erg s-1 H-1) (Jy cm2 sr-1 H-1)
0.9927057738263894 1.4668007552138788e-25 3.865103302608236e-18 3.8651032617045295e-18 4.090370618254218e-26
1.0001793341362166 1.4912293337065892e-25 3.95905694003146e-18 3.959056890781162e-18 4.925029855714366e-26
1.0077091589558085 1.515664560914174e-25 4.054223951088919e-18 4.0542238918665265e-18 5.922239255766871e-26
1.0114953028030835 1.5278822263293658e-25 4.1022599985846314e-18 4.102259933674781e-18 6.490984969546648e-26
1.0152956718711033 1.540098636014299e-25 4.150596390907583e-18 4.150596319787463e-18 7.112011912117853e-26
1.0229392996569957 1.5645119158855958e-25 4.248133655173567e-18 4.248133569876692e-18 8.529687476900982e-26
1.0267826658714554 1.576679808795409e-25 4.297258382062552e-18 4.297258288693165e-18 9.336938647409422e-26
1.0306404723013447 1.5888420206944966e-25 4.34667673958488e-18 4.346676637412632e-18 1.0217224855987707e-25
1.03451277320114 1.6009976198135657e-25 4.396387623662323e-18 4.396387511894077e-18 1.1176824637615017e-25
1.0383996230291617 1.613145682127334e-25 4.4463899196742645e-18 4.446389797449008e-18 1.222252579663189e-25
1.0403485208654093 1.619216600402751e-25 4.4714999961389115e-18 4.471499868339569e-18 1.2779934289855525e-25
1.0423010764483396 1.6252852916017937e-25 4.4966825032095755e-18 4.496682369592934e-18 1.336166405004637e-25
1.0462171883269815 1.6374155404380382e-25 4.547264240826291e-18 4.547264094804647e-18 1.460216438337412e-25
1.0471985131304309 1.640446534468284e-25 4.559954721932614e-18 4.5599545726414586e-18 1.4929115658074485e-25
1.048180758391296 1.64347687324068e-25 4.572663185933887e-18 4.572663033303148e-18 1.5263073841603337e-25
1.0501480137395462 1.6495355293126154e-25 4.5981339908189716e-18 4.5981338312931196e-18 1.5952585292405626e-25
1.0521189612883777 1.655591397601563e-25 4.623676511604342e-18 4.6236763448855894e-18 1.6671875295107015e-25
1.0531058218030118 1.6586138077712914e-25 4.636462197683112e-18 4.636462027252192e-18 1.7043091836802742e-25
1.0540936079674168 1.6616209196991175e-25 4.649224996590344e-18 4.649224822367364e-18 1.742229794386447e-25
1.058054026499678 1.673641109041184e-25 4.700451891074347e-18 4.700451700859446e-18 1.9021490183558462e-25
1.0590464539527713 1.676644024092119e-25 4.713302446886982e-18 4.7133022524597725e-18 1.9442720998719454e-25
1.06003981227728 1.6796460592825555e-25 4.726170498501262e-18 4.726170299772535e-18 1.9872872532584753e-25
1.0620293250338977 1.685647436489502e-25 4.7519590148450586e-18 4.751958807238463e-18 2.076065964376736e-25
1.0660195594769086 1.6976390451951913e-25 4.803745179091942e-18 4.803744952577764e-18 2.2651417910090592e-25
1.070024785945596 1.7096150881226209e-25 4.8558091912171095e-18 4.855808944154282e-18 2.4706282770595723e-25
1.0740450607676866 1.72157472826557e-25 4.908149855649306e-18 4.908149586261865e-18 2.6938744143600553e-25
1.07808044048254 1.733517138859686e-25 4.960765974664604e-18 4.960765681031261e-18 2.9363334422022155e-25
1.0861967418109137 1.7573268360278793e-25 5.0667615941239175e-18 5.066761245596886e-18 3.4852703077772114e-25
1.0902777775684922 1.7691466298044897e-25 5.12000544371315e-18 5.120005064188449e-18 3.795247007156452e-25
1.0943741465085532 1.7809451891735453e-25 5.173516177848248e-18 5.173515764703253e-18 4.1314499472327e-25
1.1026131145906286 1.8044755467804822e-25 5.281333441303117e-18 5.281332952194955e-18 4.891081604641081e-25
1.1109141095355224 1.8279119100523175e-25 5.390203706214923e-18 5.3902031279250056e-18 5.782899182271881e-25
1.1192775983109025 1.8512278491281429e-25 5.5000561060735264e-18 5.500055423221339e-18 6.828521862858955e-25
1.1277040513999907 1.8743229958370074e-25 5.610596122767409e-18 5.610595317480983e-18 8.052864252337416e-25
1.1361939428280308 1.897304324832156e-25 5.7221455363306615e-18 5.722144587870891e-18 9.484597705897486e-25
1.1447477501889525 1.9201666812099862e-25 5.834695031850616e-18 5.834693916183198e-18 1.1156674182241088e-24
1.1533659546722406 1.9429161289165213e-25 5.9482691883335676e-18 5.94826787764029e-18 1.3106932768774939e-24
1.1707974979042381 1.9881479347876131e-25 6.1787399217319025e-18 6.17873811954056e-18 1.8021913425723063e-24
1.1884924949847024 2.032865503232826e-25 6.413196144755382e-18 6.41319367909552e-18 2.4656598627933283e-24
1.2064549276569216 2.0774013858727794e-25 6.6527461400099485e-18 6.652742783186358e-18 3.3568235903003575e-24
1.2246888378427687 2.121338891492955e-25 6.896126934465042e-18 6.896122386655362e-18 4.547809679497536e-24
1.2431983285522175 2.164599218903511e-25 7.143110163337986e-18 7.143104031687442e-18 6.131650544718447e-24
1.2619875648066055 2.2071950437282618e-25 7.393757812299056e-18 7.393749584568746e-18 8.227730306458914e-24
1.3004222497298317 2.2898532113583806e-25 7.904264558121151e-18 7.904249951248809e-18 1.4606872340442756e-23
1.3400274889804893 2.36921612732482e-25 8.427287702913579e-18 8.42726224416733e-18 2.5458746248164218e-23
1.3808389325824078 2.4452391445665687e-25 8.962595495078619e-18 8.962551911655607e-18 4.358342301154927e-23
1.4228933163050095 2.5184272114616302e-25 9.511985414343497e-18 9.511912094089424e-18 7.332025407675988e-23
1.466228494730424 2.59034675259948e-25 1.0081589094845138e-17 1.008146782264703e-17 1.2127219810872442e-22
1.5108834753276823 2.660253586705914e-25 1.0668993284351224e-17 1.0668795985741629e-17 1.9729860959465886e-22
1.5568984535646726 2.72759259934776e-25 1.1272213963503902e-17 1.1271897905549413e-17 3.1605795449074796e-22
1.6043148490894465 2.7927096652506405e-25 1.1892819412345683e-17 1.1892319962006441e-17 4.99450339240445e-22
1.6531753430134553 2.8560050498342546e-25 1.2532777318932221e-17 1.2531999649878147e-17 7.77669054072403e-22
1.7035239163302658 2.9181202618425305e-25 1.3195348181826463e-17 1.3194154806283707e-17 1.1933755427533516e-21
1.755405889504358 2.981470510347928e-25 1.3892407131127803e-17 1.389060138697985e-17 1.8057441479559387e-21
1.8088679632656115 3.045838204589097e-25 1.4624570820820752e-17 1.4621875654581556e-17 2.6951662391959058e-21
1.8639582606462262 3.111125041014409e-25 1.5392993377185722e-17 1.538902386385572e-17 3.969513329998158e-21
1.9207263702978936 3.1778538142628607e-25 1.6202008184366115e-17 1.6196236871908084e-17 5.771312458032717e-21
1.979223391128241 3.2468844149770437e-25 1.705811651672256e-17 1.7049830141046565e-17 8.286375675994665e-21
2.039501978296691 3.3191507001634367e-25 1.7968860421780514e-17 1.795710706964643e-17 1.1753352134080612e-20
2.1016163906111602 3.396938061303918e-25 1.8950056452655643e-17 1.893358071890384e-17 1.6475733751803552e-20
2.1656225393682647 3.4816373012653213e-25 2.00140841979009e-17 1.9991251217269784e-17 2.2832980631115675e-20
2.231578038680979 3.573424169588733e-25 2.1167330089446714e-17 2.1136036894020856e-17 3.1293195425864026e-20
2.299542257339062 3.6731430534536767e-25 2.2420674330804254e-17 2.2378247656540314e-17 4.242667426393918e-20
2.369576372248914 3.7824058589760884e-25 2.3790757561629302e-17 2.373383692635622e-17 5.692063527307515e-20
2.4417434235010123 3.903077045286062e-25 2.529744054618559e-17 2.522184915441548e-17 7.559139177010593e-20
2.5161083711144245 4.0382778528261018e-25 2.6970871064276105e-17 2.6871471059921068e-17 9.940000435503496e-20
2.5927381535095444 4.19296404712616e-25 2.885687047952664e-17 2.872740688792601e-17 1.2946359160062888e-19
2.6717017477616296 4.372634044523425e-25 3.1009912400534046e-17 3.084285450613615e-17 1.6705789439788608e-19
2.753070231689431 4.5853763924944015e-25 3.350901904141259e-17 3.3295395166036236e-17 2.1362387537635388e-19
2.836916847834745 4.8497723436858345e-25 3.6520556956353066e-17 3.624977771341024e-17 2.707792429428234e-19
2.9233170693905177 5.206361537575407e-25 4.0399843092947464e-17 4.005958900403529e-17 3.4025408891215426e-19
2.967498994190263 5.458720422197671e-25 4.29982583922895e-17 4.261873826788901e-17 3.795201244004878e-19
3.0123486681368425 5.741894708396733e-25 4.591238947161623e-17 4.5489634636746124e-17 4.2275483487011497e-19
3.0578761833420214 6.280784360447781e-25 5.098039691055885e-17 5.050997275443243e-17 4.704241561264145e-19
3.1040917844459814 6.949230486256352e-25 5.725859717099419e-17 5.673614213957612e-17 5.2245503141805815e-19
3.127460860933648 7.612383239367961e-25 6.319488978942094e-17 6.264451424168679e-17 5.503755477341374e-19
3.1510058709225794 8.479530663299185e-25 7.092354914899919e-17 7.034402504647118e-17 5.795241025280396e-19
3.162844764501044 9.272490276757917e-25 7.784732546802786e-17 7.725269946043125e-17 5.946260075966198e-19
3.1747281389236908 1.0186874878301452e-24 8.584538373528118e-17 8.523533651071481e-17 6.10047224566374e-19
3.1986289994194426 1.2711267854713836e-24 1.0792502893081298e-16 1.0728308416038164e-16 6.4194477043133465e-19
3.2227097969389145 1.8608136714532307e-24 1.5918184003206682e-16 1.5850604809599667e-16 6.757919360701211e-19
3.2348180950136065 2.4176536462066746e-24 2.0759332293599968e-16 2.0689945607191124e-16 6.938668640884758e-19
3.240889293275058 2.83363602139837e-24 2.43768561080244e-16 2.430651599229948e-16 7.034011572491556e-19
3.2469718861334385 3.3150367130304776e-24 2.857171463002656e-16 2.850038796683592e-16 7.132666319063577e-19
3.2714166318528037 5.8722793802586116e-24 5.099316870717846e-16 5.091776122949803e-16 7.540747768042047e-19
3.2744851364798273 6.032412995290625e-24 5.243285709789685e-16 5.235696760065695e-16 7.588949723990186e-19
3.2775565192852394 6.197065584871734e-24 5.391451651844751e-16 5.383814248893608e-16 7.637402951143984e-19
3.283707930232385 6.040187120588695e-24 5.264829943125169e-16 5.257105666567344e-16 7.724276557824765e-19
3.2898708863219004 5.540244543100793e-24 4.838126525568445e-16 4.830322982887284e-16 7.803542681159791e-19
3.29141343181113 5.422285547982694e-24 4.737336722322628e-16 4.729513270050169e-16 7.823452272459517e-19
3.292184975758714 5.364315706142764e-24 4.687788304240565e-16 4.679954883190838e-16 7.83342104972704e-19
3.295272960557952 4.999241253683612e-24 4.3728534545551393e-16 4.364981217969245e-16 7.872236585893523e-19
3.3076538914384823 3.7321589886286665e-24 3.276797688184287e-16 3.268769443516743e-16 8.028244667543556e-19
3.310756385682612 3.4736334433901825e-24 3.0526755329424116e-16 3.04460794318196e-16 8.067589760453112e-19
3.313861789986515 3.2348537755160805e-24 2.84549927091656e-16 2.837392198455843e-16 8.1070724607163685e-19
3.3200813396944477 2.9005501133867806e-24 2.5562217751509106e-16 2.5480298744254013e-16 8.191900725508962e-19
3.345076488085796 2.3089396584931884e-24 2.0501614783961826e-16 2.0415917911767118e-16 8.569687219471076e-19
3.3482140837626964 2.3320929584361933e-24 2.0726621163901212e-16 2.0640412614454829e-16 8.620854944638154e-19
3.3513546224236106 2.3554891122943797e-24 2.095419201077198e-16 2.0867469362148784e-16 8.672264862318633e-19
3.3576445397418455 2.522677481368905e-24 2.248360157964179e-16 2.239580443425143e-16 8.779714539035483e-19
3.3702598118196083 3.1353254682744416e-24 2.804887487179111e-16 2.795882368562598e-16 9.005118616512098e-19
3.382922481734668 3.2779428507624003e-24 2.9434919801883233e-16 2.9342673536371375e-16 9.224626551185888e-19
3.389271646505754 3.351727471823745e-24 3.015397084105206e-16 3.0060611138744336e-16 9.335970230772465e-19
3.395632727569191 3.431623049725956e-24 3.093069795540282e-16 3.083619075896777e-16 9.450719643504415e-19
3.421196662673239 3.815827358213102e-24 3.465262910036745e-16 3.455336711183869e-16 9.926198852876436e-19
3.4276182099114902 3.742227593283515e-24 3.4048036449483793e-16 3.3947708770304597e-16 1.0032767917919896e-18
3.4340518103208963 3.413563675945953e-24 3.1116037393729396e-16 3.1014699533269994e-16 1.0133786045940698e-18
3.4469541582030403 2.9449878415830753e-24 2.6945636503531036e-16 2.68423551953534e-16 1.0328130817764074e-18
3.472904465399547 2.8170705210702107e-24 2.5969284770504543e-16 2.586153308553041e-16 1.0775168497413424e-18
3.4990501388274233 2.6200594355189746e-24 2.433496590000071e-16 2.422262917073546e-16 1.1233672926524703e-18
3.5253949054701885 1.910034066899775e-24 1.7873858641338873e-16 1.7757050962751147e-16 1.1680767858772581e-18
3.5519380250092896 1.2402777646131722e-24 1.1693749072703942e-16 1.1572434184868966e-16 1.2131488783497926e-18
3.578680990867387 9.7782081959746e-25 9.28863076457185e-17 9.16237360345395e-17 1.2625716111789891e-18
3.605625307711299 8.75071856478226e-25 8.375172156418409e-17 8.243701504288128e-17 1.3147065213028085e-18
3.660119384959845 8.07282252006581e-25 7.843142200456784e-17 7.700681382363936e-17 1.4246081809285027e-18
3.715437065384467 7.62123414509373e-25 7.516309363708365e-17 7.362208618105804e-17 1.541007456025625e-18
3.8285932144167436 7.561043111758286e-25 7.684053371120028e-17 7.504745424844914e-17 1.7930794627511233e-18
3.94519561050918 7.735105035326728e-25 8.10035756129701e-17 7.893273311831466e-17 2.0708424946554117e-18
4.06534921144712 8.007979998112402e-25 8.641522597812972e-17 8.404052163653235e-17 2.3747043415973707e-18
4.189162171576248 8.339740772988432e-25 9.273617046083667e-17 9.003020703397537e-17 2.7059634268613068e-18
4.316745939156006 8.714764908490543e-25 9.985770904321799e-17 9.67934604486451e-17 3.0642485945728897e-18
4.448215356677963 9.126968733211557e-25 1.077660093394929e-16 1.0432040548552901e-16 3.445603853963881e-18
4.58368876423945 9.576171582774663e-25 1.1651356028414626e-16 1.1266225981800402e-16 3.8513004661422296e-18
4.723288106065518 1.0066410699925425e-24 1.2620847388898342e-16 1.2192382177303477e-16 4.284652115948638e-18
4.867139040275056 1.0605272159048912e-24 1.3701401855278904e-16 1.3227812226758989e-16 4.735896285199152e-18
4.940699165968905 1.0904914498681925e-24 1.430145120882802e-16 1.380447369078523e-16 4.9697751804279074e-18
5.015371051989984 1.1209639626433582e-24 1.4923275371457434e-16 1.4402413231360037e-16 5.208621400973963e-18
5.091171501069577 1.1555340004798841e-24 1.561600317665197e-16 1.5070270933861053e-16 5.457322427909183e-18
5.129500256944802 1.173039788862615e-24 1.5971923902502356e-16 1.5413582862492755e-16 5.583410400096027e-18
5.168117569889187 1.191004869538855e-24 1.6338619357510103e-16 1.576744567994047e-16 5.7117367756963624e-18
5.20702561229733 1.2118376939353004e-24 1.6749567753880163e-16 1.6164463706913665e-16 5.851040469665005e-18
5.246226572918644 1.2329731517023238e-24 1.7169992116422508e-16 1.6570800745992061e-16 5.991913704304419e-18
5.265937586045735 1.243656964672586e-24 1.7383841226467946e-16 1.6777548373234281e-16 6.062928532336675e-18
5.285722656980489 1.254419611217715e-24 1.7600160973101456e-16 1.698672865698643e-16 6.134323161150301e-18
5.305582063971359 1.2652622128281015e-24 1.7818986852733572e-16 1.719837752794614e-16 6.206093247874279e-18
5.3255160863122235 1.2767018469905636e-24 1.8047648359103237e-16 1.741977453805318e-16 6.278738210500636e-18
5.365609099470188 1.3038940351669305e-24 1.8570806356273033e-16 1.7927901391583018e-16 6.429049646900203e-18
5.406003951863644 1.3317705557127673e-24 1.9110638644929348e-16 1.8452534774000298e-16 6.581038709290512e-18
5.446702915881641 1.3603636317980166e-24 1.9667906444500874e-16 1.899443921396787e-16 6.7346723053300885e-18
5.487708281020852 1.3907134500213096e-24 2.0258071738587273e-16 1.9569021424324627e-16 6.890503142626428e-18
5.529022354014368 1.4309583993766997e-24 2.1001232699107594e-16 2.029592445085288e-16 7.053082482547093e-18
5.570647458961463 1.4729939301395577e-24 2.1780912235591194e-16 2.1059164280343087e-16 7.217479552481061e-18
5.612585937458331 1.5169481816581217e-24 2.259972645681811e-16 2.1861360250070227e-16 7.383662067478837e-18
5.654840148729818 1.5645232245259445e-24 2.3483984238946374e-16 2.272875105502259e-16 7.55233183923781e-18
5.67608639626678 1.5961383863958784e-24 2.404855425179427e-16 2.3284502363017487e-16 7.640518887767856e-18
5.686739436050992 1.6123494905396342e-24 2.433839567698845e-16 2.3569915384788306e-16 7.68480292200141e-18
5.6974124697621304 1.628838130857923e-24 2.4633437624646285e-16 2.386051629105165e-16 7.72921333594636e-18
5.718818669136295 1.6626745689200154e-24 2.523963170912399e-16 2.445779056947683e-16 7.81841139647151e-18
5.740305295436557 1.6996729317372196e-24 2.589821201513536e-16 2.510733988334243e-16 7.908721317929257e-18
5.7835210386641895 1.7942956138165367e-24 2.754582273120921e-16 2.673626038007859e-16 8.095623511306206e-18
5.827062130521658 1.9018414089194254e-24 2.9416661352091916e-16 2.8588037714244505e-16 8.286236378474056e-18
5.8489554468988025 1.976651251106367e-24 3.0688650975656426e-16 2.984976066819194e-16 8.388903074644806e-18
5.870931020387893 2.0563666779740122e-24 3.204623171433411e-16 3.1197003431804667e-16 8.49228282529453e-18
5.892989160043636 2.141377240101686e-24 3.3496409533723215e-16 3.263677219721898e-16 8.596373365042437e-18
5.915130176081913 2.2375793077750943e-24 3.513275256024769e-16 3.426233198785385e-16 8.704205723938325e-18
5.95966208400165 2.50520768781668e-24 3.9630979340200014e-16 3.8736142441016114e-16 8.948368991839068e-18
6.004529249263818 2.8879695649319457e-24 4.603000370284052e-16 4.51077699282865e-16 9.222337745540167e-18
6.027089341400364 3.1531280564204493e-24 5.044506327694443e-16 4.950707737921549e-16 9.379858977289545e-18
6.049734195844842 3.465028619193835e-24 5.564325826210737e-16 5.468860061763327e-16 9.546576444741027e-18
6.095279466722835 4.3636554181088865e-24 7.060143110185899e-16 6.96060636324052e-16 9.953674694537904e-18
6.141167624020661 5.7402793722233066e-24 9.357361638781075e-16 9.252574480202583e-16 1.047871585784908e-17
6.164241091010745 6.61898475141699e-24 1.0830298578985601e-15 1.072223225327478e-15 1.0806632571082223e-17
6.187401249150058 7.615360921258674e-24 1.2507433565392119e-15 1.2395995288979757e-15 1.1143827641236401e-17
6.1990139391386085 8.101543977745009e-24 1.3330911331530553e-15 1.3217756316136504e-15 1.1315501539404784e-17
6.204828454712694 8.357246582497584e-24 1.3764563016348172e-15 1.3650540392500978e-15 1.1402262384718988e-17
6.210648424152782 8.543877844549035e-24 1.408514780342649e-15 1.3970382170731295e-15 1.1476563269519353e-17
6.233982942956859 9.176441316134359e-24 1.518480902589519e-15 1.5067436627542357e-15 1.1737239835283413e-17
6.239830258556775 9.256554197082903e-24 1.5331743930606168e-15 1.5213997604976066e-15 1.177463256301043e-17
6.245683058788269 9.262520659250393e-24 1.5356016305554617e-15 1.5237895269331464e-15 1.1812103622315673e-17
6.257405133728602 9.242880285507923e-24 1.5352214696374633e-15 1.523343060055364e-15 1.1878409582099062e-17
6.269149208991335 9.115773733826336e-24 1.5169510827952144e-15 1.5050448456932837e-15 1.1906237101930666e-17
6.280915325867298 8.800436190224106e-24 1.4672244989678778e-15 1.4553380755554962e-15 1.1886423412381914e-17
6.304513850009849 8.024228367751738e-24 1.3428401451232393e-15 1.3310365277566812e-15 1.1803617366558105e-17
6.32820103803542 7.065368719284336e-24 1.1868191134562164e-15 1.1751442462183409e-15 1.167486723787559e-17
6.3519772230701035 6.187187705753365e-24 1.0432097969677416e-15 1.0316491119446907e-15 1.156068502305097e-17
6.375842739491607 5.447453508100634e-24 9.219355506380295e-16 9.10474168099491e-16 1.1461382538538625e-17
6.399797922933955 4.857223237273278e-24 8.251326233741605e-16 8.137157889299745e-16 1.1416834444186108e-17
6.42384311029221 4.365781576545587e-24 7.444342782991617e-16 7.330511059141606e-16 1.1383172385001182e-17
6.447978639727206 4.0090086727296375e-24 6.861673022992613e-16 6.74774930577031e-16 1.1392371722230237e-17
6.472204850670314 3.711576283521672e-24 6.376466444949231e-16 6.262364951026685e-16 1.1410149392254626e-17
6.496522083828205 3.519298157511134e-24 6.068850151652868e-16 5.954222094931248e-16 1.1462805672162033e-17
