Dust emission spectrum from A.P. Jones, M. Kohler, N. Ysard, M. Bocchio, and L. Verstraete (2017), A&A, 602A, 46J 
inside the DustPedia framework.

lambda    nu*dP/dnu     j_nu    j_nu(carb.) j_nu(sil)
 (um)   (erg s-1 H-1) (Jy cm2 sr-1 H-1)
0.9927057738263894 6.175360416075162e-20 1.6272425449827339e-12 1.6272425003781535e-12 4.460458078653792e-20
1.0001793341362166 6.278906579372659e-20 1.666983615932922e-12 1.6669835622689097e-12 5.366401204970119e-20
1.0077091589558085 6.382899906273117e-20 1.7073504484268956e-12 1.7073503839500441e-12 6.447685129255298e-20
1.0114953028030835 6.435060167569077e-20 1.7277699458108137e-12 1.72776987517169e-12 7.06391240078128e-20
1.0152956718711033 6.487327400058905e-20 1.7483476099299888e-12 1.748347532565651e-12 7.736433713196606e-20
1.0229392996569957 6.592125661616164e-20 1.7899659694437733e-12 1.7899658767395363e-12 9.270423700104007e-20
1.0267826658714554 6.644537922350947e-20 1.8109762123211277e-12 1.8109761108889119e-12 1.0143221573643499e-19
1.0306404723013447 6.697048732845729e-20 1.832146026588769e-12 1.8321459156441035e-12 1.1094466509647783e-19
1.03451277320114 6.749656769367161e-20 1.853476052529667e-12 1.8534759312211854e-12 1.2130848244606438e-19
1.0383996230291617 6.802360760129207e-20 1.8749669449531347e-12 1.8749668123571956e-12 1.3259593889527895e-19
1.0403485208654093 6.828748355423673e-20 1.885772924840048e-12 1.8857727862298637e-12 1.3861018449454132e-19
1.0423010764483396 6.855159486519479e-20 1.8966193737816543e-12 1.896619228896572e-12 1.448850822803882e-19
1.0462171883269815 6.90805178431467e-20 1.9184340246451353e-12 1.918433866384967e-12 1.5826016802284046e-19
1.0471985131304309 6.921289348139255e-20 1.923913116445411e-12 1.9239129546612913e-12 1.6178411964302786e-19
1.048180758391296 6.934532673837825e-20 1.9294024020422108e-12 1.9294022366591312e-12 1.6538307916958192e-19
1.0501480137395462 6.96103654488426e-20 1.940411599482399e-12 1.9404114266702786e-12 1.72812119615421e-19
1.0521189612883777 6.987563267756966e-20 1.9514617073561596e-12 1.951461526796382e-12 1.8055977738935634e-19
1.0531058218030118 7.00081775167273e-20 1.9569972652111974e-12 1.956997080653806e-12 1.845573915231339e-19
1.0540936079674168 7.014020874121147e-20 1.9625271196317982e-12 1.9625269309913204e-12 1.8864047807279165e-19
1.058054026499678 7.066887440184155e-20 1.9847483581024876e-12 1.9847481522490788e-12 2.0585340881501948e-19
1.0590464539527713 7.080117529004496e-20 1.9903291810421198e-12 1.990328970656419e-12 2.1038570049765754e-19
1.06003981227728 7.093352968868968e-20 1.995920232816459e-12 1.995920017803159e-12 2.150132994531477e-19
1.0620293250338977 7.119839847882326e-20 2.007133070475156e-12 2.00713284591309e-12 2.2456206611505917e-19
1.0660195594769086 7.172877239608718e-20 2.02968201971503e-12 2.0296817748255866e-12 2.448894437635065e-19
1.070024785945596 7.225998819743293e-20 2.0523959883370423e-12 2.0523957213690087e-12 2.6696803395517185e-19
1.0740450607676866 7.279203855763435e-20 2.0752757790480224e-12 2.075275488107512e-12 2.9094050955431066e-19
1.07808044048254 7.332491679337328e-20 2.098322215394732e-12 2.0983218984342806e-12 3.169604513462291e-19
1.0861967418109137 7.439232484801908e-20 2.1448951140444188e-12 2.1448947382280818e-12 3.758163365385358e-19
1.0902777775684922 7.492500639105863e-20 2.1683699594468133e-12 2.1683695504254993e-12 4.090213139266565e-19
1.0943741465085532 7.545846429023695e-20 2.1920134776426515e-12 2.1920130326291973e-12 4.450134536512577e-19
1.1026131145906286 7.652769721002098e-20 2.239810271645487e-12 2.2398097453866883e-12 5.262587983013255e-19
1.1109141095355224 7.760000685619781e-20 2.2882932282366337e-12 2.2882926067145268e-12 6.215221068973605e-19
1.1192775983109025 7.867455700787241e-20 2.337445808561978e-12 2.3374450754891225e-12 7.330728553435771e-19
1.1277040513999907 7.974753469826291e-20 2.3871617110397034e-12 2.387160847517516e-12 8.635221864094362e-19
1.1361939428280308 8.082348689221619e-20 2.4375834108315122e-12 2.437582394961236e-12 1.0158702766724255e-18
1.1447477501889525 8.190244614261083e-20 2.4887203818346248e-12 2.488719188275109e-12 1.1935595157657705e-18
1.1533659546722406 8.298482858543226e-20 2.5405939640283774e-12 2.5405925634920493e-12 1.40053632862438e-18
1.1707974979042381 8.516314157432752e-20 2.646688878117189e-12 2.646686957039942e-12 1.9210772472553766e-18
1.1884924949847024 8.73558413692762e-20 2.7558642920566153e-12 2.7558616702171893e-12 2.6218394256515204e-18
1.2064549276569216 8.957762680859969e-20 2.868666667090876e-12 2.868663106599195e-12 3.560491681278725e-18
1.2246888378427687 9.18146951799568e-20 2.9847460721591192e-12 2.9847412607405476e-12 4.8114185707663536e-18
1.2431983285522175 9.406541784959579e-20 3.1041295607620465e-12 3.1041230905381262e-12 6.470223919206422e-18
1.2619875648066055 9.63333076365343e-20 3.227014975165575e-12 3.22700631600548e-12 8.659160094528557e-18
1.3004222497298317 1.0090779663108734e-19 3.4832010916370014e-12 3.4831858015040917e-12 1.5290132909354322e-17
1.3400274889804893 1.0555301867511255e-19 3.7545146093977655e-12 3.754488106843223e-12 2.6502554542723068e-17
1.3808389325824078 1.1028662829215435e-19 4.042363055143552e-12 4.042317941220666e-12 4.5113922887467064e-17
1.4228933163050095 1.1514744480431866e-19 4.349066792531715e-12 4.348991336138924e-12 7.54563927903355e-17
1.466228494730424 1.2021638233728163e-19 4.678802820421731e-12 4.678678751755926e-12 1.2406866580513356e-16
1.5108834753276823 1.254827015930685e-19 5.032505574990867e-12 5.032304942729151e-12 2.0063226171521532e-16
1.5568984535646726 1.309397610226162e-19 5.4112956712448356e-12 5.4109762434056276e-12 3.1942783920711096e-16
1.6043148490894465 1.3661410037511233e-19 5.817743409411881e-12 5.8172417660515704e-12 5.016433603117812e-16
1.6531753430134553 1.425323428686077e-19 6.2546321968920325e-12 6.253856043531446e-12 7.761533605866012e-16
1.7035239163302658 1.4872416870854244e-19 6.725107305628301e-12 6.723923907468437e-12 1.1833981598620625e-15
1.755405889504358 1.5528828557850467e-19 7.2357854235481825e-12 7.234006482767384e-12 1.7789407807969352e-15
1.8088679632656115 1.622109240354691e-19 7.788546164051833e-12 7.78590866747442e-12 2.637496577414541e-15
1.8639582606462262 1.6947189059735854e-19 8.38500431578186e-12 8.38114603804935e-12 3.858277732510174e-15
1.9207263702978936 1.7707113928672166e-19 9.027816305023999e-12 9.022245371534446e-12 5.570933489556792e-15
1.979223391128241 1.8501544431122817e-19 9.720133528302512e-12 9.712190955935752e-12 7.942572366758504e-15
2.039501978296691 1.9330332874851635e-19 1.0464847327289505e-11 1.0453662079652516e-11 1.1185247636987488e-14
2.1016163906111602 2.01987082651706e-19 1.1267990613546236e-11 1.125242529165161e-11 1.5565321894628002e-14
2.1656225393682647 2.1107093796730173e-19 1.2133347499098302e-11 1.2111936082454264e-11 2.141141664403578e-14
2.231578038680979 2.204916909779784e-19 1.3060919116826539e-11 1.3031795862037095e-11 2.912325478944225e-14
2.299542257339062 2.3021449006996177e-19 1.4052172847549776e-11 1.4012992207578107e-11 3.918063997166664e-14
2.369576372248914 2.4022235019323956e-19 1.5109620456962986e-11 1.5057467685415264e-11 5.215277154772338e-14
2.4417434235010123 2.5050291813665546e-19 1.6236119873323134e-11 1.6167415438600747e-11 6.870443472239157e-14
2.5161083711144245 2.610848715134852e-19 1.743734993741287e-11 1.7347745369391465e-11 8.96045680214069e-14
2.5927381535095444 2.720506680426477e-19 1.8723105667829657e-11 1.8607375731934776e-11 1.1572993589488365e-13
2.6717017477616296 2.8345998267579807e-19 2.010245802033824e-11 1.9954397516213417e-11 1.4806050412482525e-13
2.753070231689431 2.954266926315701e-19 2.1589195349234166e-11 2.1401517812647914e-11 1.8767753658624874e-13
2.836916847834745 3.08358006458165e-19 2.3220484055225185e-11 2.298471828363437e-11 2.3576577159081797e-13
2.9233170693905177 3.2320827697832296e-19 2.5080017171352715e-11 2.478647642753343e-11 2.935407438192862e-13
2.967498994190263 3.323090170032101e-19 2.6175931123138834e-11 2.5850140769657465e-11 3.2579035348136224e-13
3.0123486681368425 3.4200480394406383e-19 2.7346822882142388e-11 2.698570340115734e-11 3.6111948098505753e-13
3.0578761833420214 3.582594651197267e-19 2.9079504534153525e-11 2.8679614038643227e-11 3.9989049551029937e-13
3.1040917844459814 3.7728507477069236e-19 3.108662773187314e-11 3.0644689993236684e-11 4.419377386364622e-13
3.127460860933648 3.95201614549065e-19 3.2808020419769315e-11 3.234362641970971e-11 4.643940000596013e-13
3.1510058709225794 4.180068622147043e-19 3.4962465983192456e-11 3.447470582377087e-11 4.877601594215873e-13
3.162844764501044 4.387955692193101e-19 3.683914511786119e-11 3.633930874531472e-11 4.998363725464726e-13
3.1747281389236908 4.622948573600646e-19 3.895785498794602e-11 3.844570795913281e-11 5.121470288132119e-13
3.1986289994194426 5.2593506716078865e-19 4.465452068812142e-11 4.4116973847208163e-11 5.375468409132457e-13
3.2227097969389145 6.737303057000662e-19 5.763372840169877e-11 5.7069308843038244e-11 5.644195586605264e-13
3.2348180950136065 8.124705541939696e-19 6.976328573673662e-11 6.918453575198849e-11 5.78749984748112e-13
3.240889293275058 9.161628061692132e-19 7.881452920862282e-11 7.822822020542607e-11 5.863090031967546e-13
3.2469718861334385 1.0363634003363101e-18 8.932232699270498e-11 8.872819666070155e-11 5.941303320034354e-13
3.2714166318528037 1.6661318372266815e-18 1.446820499544416e-10 1.4405563213672694e-10 6.264178177146514e-13
3.2744851364798273 1.7054089517479679e-18 1.4823166770956023e-10 1.4760145461026698e-10 6.3021309929321e-13
3.2775565192852394 1.7457288502404263e-18 1.5187853935705273e-10 1.512445128898207e-10 6.340264672320126e-13
3.283707930232385 1.7066316612563322e-18 1.4875574701056725e-10 1.481149207525879e-10 6.408262579794223e-13
3.2898708863219004 1.582902971560923e-18 1.3823008703915056e-10 1.3758309072725587e-10 6.469963118946562e-13
3.29141343181113 1.5536558854144258e-18 1.3573964363726144e-10 1.3509109844900832e-10 6.485451882530787e-13
3.292184975758714 1.5392745975743846e-18 1.3451470515169123e-10 1.338653845700985e-10 6.493205815926949e-13
3.295272960557952 1.4497654672031141e-18 1.2681148218007364e-10 1.2615914889292237e-10 6.523332871512244e-13
3.3076538914384823 1.1371298092685614e-18 9.983884238398386e-11 9.91744175833906e-11 6.644248005932598e-13
3.310756385682612 1.0727750418833544e-18 9.427690561133095e-11 9.360943488099769e-11 6.674707303332572e-13
3.313861789986515 1.0131137958130894e-18 8.91173069138724e-11 8.844678102659987e-11 6.705258872725467e-13
3.3200813396944477 9.297736667174228e-19 8.193989415510758e-11 8.12627884303736e-11 6.771057247339758e-13
3.345076488085796 7.8413837255279485e-19 6.962547848431602e-11 6.891902720995146e-11 7.064512743645575e-13
3.3482140837626964 7.89977084643746e-19 7.020970455891899e-11 6.949927694922668e-11 7.104276096923217e-13
3.3513546224236106 7.958678098720831e-19 7.079959239127231e-11 7.008517150120761e-11 7.144208900647186e-13
3.3576445397418455 8.375037644694306e-19 7.464331489399459e-11 7.392054171695375e-11 7.22773177040865e-13
3.3702598118196083 9.883471667628865e-19 8.841833580256202e-11 8.767804486274758e-11 7.402909398144764e-13
3.382922481734668 1.024196682522723e-18 9.196971571484058e-11 9.121242827107562e-11 7.572874437649536e-13
3.389271646505754 1.0426681591003448e-18 9.380412199592631e-11 9.303822552568348e-11 7.658964702428552e-13
3.395632727569191 1.0630364753387617e-18 9.581606038257915e-11 9.504129175037946e-11 7.747686321997167e-13
3.421196662673239 1.1620244556528105e-18 1.0552679324084983e-10 1.0471533060516337e-10 8.114626356864898e-13
3.4276182099114902 1.1439541289625672e-18 1.0408076715954069e-10 1.0326114899919802e-10 8.19618160342656e-13
3.4340518103208963 1.0624264358752327e-18 9.684454091110321e-11 9.601722526818161e-11 8.273156429216438e-13
3.4469541582030403 9.452950426669892e-19 8.649127934804083e-11 8.564922220682293e-11 8.420571412178893e-13
3.472904465399547 9.122239618132231e-19 8.409375506086248e-11 8.321768936186647e-11 8.760656989959821e-13
3.4990501388274233 8.626567800492027e-19 8.012308057333663e-11 7.92122863612219e-11 9.107942121147291e-13
3.5253949054701885 6.88846824247372e-19 6.446141969665085e-11 6.351700456140082e-11 9.44415135250056e-13
3.5519380250092896 5.233437864876393e-19 4.9342583512765875e-11 4.836447080529228e-11 9.781127074735822e-13
3.578680990867387 4.587001603460061e-19 4.3573386204416816e-11 4.2558351463016465e-11 1.0150347414003538e-12
3.605625307711299 4.337453655088892e-19 4.151307211279243e-11 4.0459208075983076e-11 1.0538640368093567e-12
3.660119384959845 4.1776052749666887e-19 4.05874799644115e-11 3.945229857119602e-11 1.1351813932154998e-12
3.715437065384467 4.0681756543782035e-19 4.012167344825388e-11 3.890114544649752e-11 1.2205280017563731e-12
3.8285932144167436 4.053050371862421e-19 4.118989260198301e-11 3.978725487137291e-11 1.4026377306100939e-12
3.94519561050918 4.086107985555136e-19 4.279054462208676e-11 4.119129892226962e-11 1.5992456998171495e-12
4.06534921144712 4.133780379511352e-19 4.460819903691501e-11 4.27985418289164e-11 1.809657207998613e-12
4.189162171576248 4.186207175115219e-19 4.654974689779858e-11 4.451594593645823e-11 2.0338009613403443e-12
4.316745939156006 4.239235463095293e-19 4.857507298068736e-11 4.630476896200651e-11 2.2703040186808365e-12
4.448215356677963 4.290999093813254e-19 5.066565493283102e-11 4.815038707309436e-11 2.5152678597366614e-12
4.58368876423945 4.341220099368457e-19 5.2819752171562174e-11 5.005124035467129e-11 2.7685118168908937e-12
4.723288106065518 4.390645735946966e-19 5.5048091543209556e-11 5.2016911819138096e-11 3.0311797240714674e-12
4.867139040275056 4.440215512298701e-19 5.7365031416132483e-11 5.406972561618381e-11 3.295305799948665e-12
4.940699165968905 4.467733259451398e-19 5.85929116930035e-11 5.516427138977902e-11 3.4286403032244772e-12
5.015371051989984 4.493312410586219e-19 5.981899567497452e-11 5.625667479297304e-11 3.562320882001468e-12
5.091171501069577 4.52536935436942e-19 6.115629845942085e-11 5.745687882751021e-11 3.699419631910644e-12
5.129500256944802 4.540593565904927e-19 6.182400255761401e-11 5.805609997061677e-11 3.767902586997239e-12
5.168117569889187 4.55604256180827e-19 6.250137770034705e-11 5.866428122550858e-11 3.837096474838461e-12
5.20702561229733 4.577496469228892e-19 6.326844563277794e-11 5.935523695500656e-11 3.913208677771402e-12
5.246226572918644 4.598608845903462e-19 6.403876477087804e-11 6.004930705465493e-11 3.989457716223128e-12
5.265937586045735 4.609040656646374e-19 6.442518576862539e-11 6.039756511225694e-11 4.027620656368433e-12
5.285722656980489 4.619391641127925e-19 6.481247244112172e-11 6.074667016119921e-11 4.0658022799225175e-12
5.305582063971359 4.6296634452750165e-19 6.520064475769229e-11 6.109664740023165e-11 4.103997357460637e-12
5.3255160863122235 4.64104027946741e-19 6.560643989174171e-11 6.14638903301791e-11 4.1425495615625985e-12
5.365609099470188 4.672708989573498e-19 6.655140023972591e-11 6.232903965129747e-11 4.222360588428429e-12
5.406003951863644 4.704548527415693e-19 6.750932171409763e-11 6.320703978839558e-11 4.302281925702049e-12
5.446702915881641 4.736604520983912e-19 6.848102404809329e-11 6.409875247882445e-11 4.382271569268834e-12
5.487708281020852 4.771157336240139e-19 6.949990135793876e-11 6.503722316651032e-11 4.4626781914284175e-12
5.529022354014368 4.825850491687257e-19 7.082582497937928e-11 6.627932878749408e-11 4.546496191885212e-12
5.570647458961463 4.88232084933306e-19 7.219405304354865e-11 6.756364887100954e-11 4.6304041725391055e-12
5.612585937458331 4.940754074409428e-19 7.360811128697318e-11 6.88937518221139e-11 4.7143594648593096e-12
5.654840148729818 5.004683779813865e-19 7.512187301768645e-11 7.032307819938715e-11 4.798794818299312e-12
5.67608639626678 5.052297602930127e-19 7.612150301993958e-11 7.12784344175627e-11 4.8430686023768836e-12
5.686739436050992 5.076632079461195e-19 7.663169863691658e-11 7.176648273428747e-11 4.865215902629105e-12
5.6974124697621304 5.101330952731931e-19 7.714905210415935e-11 7.226168286712147e-11 4.8873692370378645e-12
5.718818669136295 5.151861398359428e-19 7.820597412246804e-11 7.32742828370031e-11 4.9316912854649486e-12
5.740305295436557 5.208111898131762e-19 7.93569066246793e-11 7.43805045102752e-11 4.976402114404091e-12
5.7835210386641895 5.3601394412007075e-19 8.228825268530941e-11 7.72195010980481e-11 5.068751587261297e-12
5.827062130521658 5.533217114320292e-19 8.55848301946691e-11 8.042269176598556e-11 5.162138428683542e-12
5.8489554468988025 5.660494798754212e-19 8.788244721027864e-11 8.266958184620356e-11 5.21286536407507e-12
5.870931020387893 5.795351164932297e-19 9.031422668272958e-11 8.505054062241696e-11 5.26368606031262e-12
5.892989160043636 5.938391018113393e-19 9.289104870875721e-11 8.75764537565247e-11 5.31459495223251e-12
5.915130176081913 6.101400720619333e-19 9.579951023125112e-11 9.043204559793754e-11 5.3674646333136055e-12
5.95966208400165 6.567924067266502e-19 1.0390087188527272e-10 9.841125125292592e-11 5.4896206323468285e-12
6.004529249263818 7.243088275340079e-19 1.1544421526539219e-10 1.0981617577760545e-10 5.62803948778675e-12
6.027089341400364 7.715690808142965e-19 1.234388531254154e-10 1.177299964784654e-10 5.708856646950035e-12
6.049734195844842 8.270029066992799e-19 1.3280449132823546e-10 1.2700984375107816e-10 5.79464757715725e-12
6.095279466722835 9.875704505568697e-19 1.59783210273371e-10 1.5377485448714354e-10 6.008355786227448e-12
6.141167624020661 1.2329951200569247e-18 2.0099337487046792e-10 1.947041476989393e-10 6.28922717152861e-12
6.164241091010745 1.3893540281137158e-18 2.2733273336468429e-10 2.2086554288343094e-10 6.467190481253411e-12
6.187401249150058 1.5651220810217644e-18 2.570549269104438e-10 2.504053245548253e-10 6.6496023556185145e-12
6.1990139391386085 1.650340096222497e-18 2.715598106983968e-10 2.6481745147688547e-10 6.7423592215112574e-12
6.204828454712694 1.69503479662327e-18 2.791758391081391e-10 2.7238666451023247e-10 6.789174597906718e-12
6.210648424152782 1.727189304419012e-18 2.8473858217390336e-10 2.779098903195047e-10 6.828691854398639e-12
6.233982942956859 1.8344275453939424e-18 3.0355375236446224e-10 2.965888474619515e-10 6.9649049025106656e-12
6.239830258556775 1.8469635066915465e-18 3.0591482457579125e-10 2.9893219927876825e-10 6.982625297023049e-12
6.245683058788269 1.8461529657874142e-18 3.060673880048744e-10 2.9906702624522985e-10 7.0003617596445605e-12
6.257405133728602 1.8388439838975866e-18 3.0542781862268013e-10 2.983971013602399e-10 7.030717262440175e-12
6.269149208991335 1.812251598488122e-18 3.015758294244085e-10 2.9453729792006104e-10 7.038531504347574e-12
6.280915325867298 1.752036741130179e-18 2.9210270651511634e-10 2.8508418894623157e-10 7.018517568884751e-12
6.304513850009849 1.6062665316438495e-18 2.6880580706398505e-10 2.6185242330437893e-10 6.953383759606169e-12
6.32820103803542 1.4293839361276352e-18 2.4010355910135586e-10 2.3324201287111896e-10 6.861546230236901e-12
6.3519772230701035 1.268187322951834e-18 2.1382662085125106e-10 2.0704833610268374e-10 6.778284748567377e-12
6.375842739491607 1.1322968123802373e-18 1.9163168325440902e-10 1.8492782461858982e-10 6.7038586358191925e-12
6.399797922933955 1.0242042059245416e-18 1.73989183124263e-10 1.673281903187721e-10 6.660992805490901e-12
6.42384311029221 9.339402143629965e-19 1.5925146443171403e-10 1.5262700748849058e-10 6.624456943223429e-12
6.447978639727206 8.68057830115967e-19 1.4857361212064212e-10 1.4196117826658895e-10 6.612433854053167e-12
6.472204850670314 8.128391416913403e-19 1.396452912781929e-10 1.3304003962428964e-10 6.605251653903279e-12
6.496522083828205 7.76365069928324e-19 1.3388019603614936e-10 1.2726235264645785e-10 6.617843389691511e-12
6.520930681187647 7.453330927198313e-19 1.2901179592797563e-10 1.2237844526306866e-10 6.633350664906958e-12
6.57002334288761 7.112599211726757e-19 1.240408355256785e-10 1.1734938853643924e-10 6.691446989239256e-12
