Dust emission spectrum from A.P. Jones, M. Kohler, N. Ysard, M. Bocchio, and L. Verstraete (2017), A&A, 602A, 46J 
inside the DustPedia framework.

lambda    nu*dP/dnu     j_nu    j_nu(carb.) j_nu(sil)
 (um)   (erg s-1 H-1) (Jy cm2 sr-1 H-1)
0.9927057738263894 5.102657385439113e-22 1.3445792035785567e-14 1.3445791776015355e-14 2.5977021628478537e-22
1.0001793341362166 5.18851301880243e-22 1.3774956011947029e-14 1.3774955699310851e-14 3.126361754168127e-22
1.0077091589558085 5.274692653332687e-22 1.4109180778678292e-14 1.4109180402917407e-14 3.7576088848772657e-22
1.0114953028030835 5.317899721092411e-22 1.4278199540766838e-14 1.427819912901946e-14 4.117473829024716e-22
1.0152956718711033 5.361182753929115e-22 1.444849392701336e-14 1.444849347598339e-14 4.510299681032441e-22
1.0229392996569957 5.447928155618952e-22 1.4792809638494883e-14 1.4792809097832868e-14 5.406620167336178e-22
1.0267826658714554 5.491291809774717e-22 1.4966576996970896e-14 1.496657640529395e-14 5.916769454518251e-22
1.0306404723013447 5.534723002149413e-22 1.514162605226946e-14 1.514162540497968e-14 6.472897765518483e-22
1.03451277320114 5.578220267490113e-22 1.5317960653128055e-14 1.5317959945234132e-14 7.078939237320643e-22
1.0383996230291617 5.621782180089434e-22 1.5495584740486547e-14 1.5495583966572016e-14 7.739145307497923e-22
1.0403485208654093 5.643586944641248e-22 1.558488159946984e-14 1.5584880790371716e-14 8.090981253783638e-22
1.0423010764483396 5.665407354802825e-22 1.5674502352008238e-14 1.5674501506197378e-14 8.458108625255795e-22
1.0462171883269815 5.7090944480584705e-22 1.58547176266638e-14 1.5854716702584936e-14 9.240788626611156e-22
1.0471985131304309 5.7200257427343e-22 1.589997470024932e-14 1.5899973755546052e-14 9.447032660551324e-22
1.048180758391296 5.730960805887743e-22 1.5945313209938403e-14 1.594531224417048e-14 9.657679191923457e-22
1.0501480137395462 5.752842158859237e-22 1.6036234809376987e-14 1.60362338001231e-14 1.0092538878926343e-21
1.0521189612883777 5.774738351163616e-22 1.612748297292239e-14 1.6127481918312064e-14 1.0546103260938054e-21
1.0531058218030118 5.785677382207207e-22 1.6173188927348447e-14 1.617318784933315e-14 1.0780152979889945e-21
1.0540936079674168 5.796572293321049e-22 1.6218842987082276e-14 1.62188418851602e-14 1.1019220730647475e-21
1.058054026499678 5.84018615539229e-22 1.6402270421086078e-14 1.6402269218365622e-14 1.202720458995254e-21
1.0590464539527713 5.851098085212523e-22 1.6448330430152608e-14 1.6448329200887203e-14 1.2292654035037957e-21
1.06003981227728 5.862013365351798e-22 1.6494471841871037e-14 1.6494470585500835e-14 1.2563701993519017e-21
1.0620293250338977 5.883853907257158e-22 1.6586999162084927e-14 1.6586997849780502e-14 1.3123044242227694e-21
1.0660195594769086 5.92757444270029e-22 1.67730338398032e-14 1.6773032408404156e-14 1.4313990430509124e-21
1.070024785945596 5.971346703458558e-22 1.696037921520634e-14 1.6960377654420717e-14 1.560785629354333e-21
1.0740450607676866 6.01516968015851e-22 1.714904018550498e-14 1.714903848419918e-14 1.7013057975916186e-21
1.07808044048254 6.059042413242197e-22 1.7339021789212615e-14 1.7339019935346827e-14 1.8538657933457332e-21
1.0861967418109137 6.146866053176169e-22 1.7722773136984625e-14 1.772277093790297e-14 2.1990816561438118e-21
1.0902777775684922 6.190661795502674e-22 1.7916108003248716e-14 1.7916105609331832e-14 2.3939168908931617e-21
1.0943741465085532 6.234501313649453e-22 1.811077264087467e-14 1.8110770035714316e-14 2.605160350502158e-21
1.1026131145906286 6.322308996465825e-22 1.8504114388726872e-14 1.850411130653775e-14 3.0821891208628433e-21
1.1109141095355224 6.410284300085771e-22 1.8902846467707902e-14 1.8902842825892434e-14 3.641815464451825e-21
1.1192775983109025 6.498354006390751e-22 1.9306813933849145e-14 1.9306809636381014e-14 4.297468137220281e-21
1.1277040513999907 6.586196479929353e-22 1.971511234517735e-14 1.9715107280569366e-14 5.064607979843048e-21
1.1361939428280308 6.674187438037164e-22 2.012891203448717e-14 2.012890607347643e-14 5.961010741195933e-21
1.1447477501889525 6.762325984401909e-22 2.054827334056282e-14 2.0548266333476674e-14 7.007086149120075e-21
1.1533659546722406 6.850644197336258e-22 2.0973358135626573e-14 2.0973349909378408e-14 8.226248174171078e-21
1.1707974979042381 7.02808683990372e-22 2.1841795558211637e-14 2.1841784263190408e-14 1.129502122828461e-20
1.1884924949847024 7.206258627330814e-22 2.273399296383019e-14 2.2733977532924045e-14 1.543090614962488e-20
1.2064549276569216 7.386367595796018e-22 2.36543736062742e-14 2.365435262913385e-14 2.0977140356599526e-20
1.2246888378427687 7.567218838007438e-22 2.4599794901722635e-14 2.4599766524641104e-14 2.8377081536350906e-20
1.2431983285522175 7.748654261452281e-22 2.5570318294399815e-14 2.5570280093009656e-14 3.820139015395997e-20
1.2619875648066055 7.930925480204788e-22 2.6567358600523e-14 2.656730741968016e-14 5.1180842843388396e-20
1.3004222497298317 8.296785311174688e-22 2.86393842872378e-14 2.863929371290587e-14 9.057433193414302e-20
1.3400274889804893 8.665795934434714e-22 3.082418470478689e-14 3.082402735473754e-14 1.5735004934878783e-19
1.3808389325824078 9.03919991098572e-22 3.31316029278093e-14 3.313133445731519e-14 2.684704941073786e-19
1.4228933163050095 9.420050004455903e-22 3.557910184458635e-14 3.557865174431896e-14 4.501002673882198e-19
1.466228494730424 9.814966101755589e-22 3.819969473910569e-14 3.8198952878642304e-14 7.418604633605374e-19
1.5108834753276823 1.0222913390252114e-21 4.0999171978246927e-14 4.099796936281457e-14 1.2026154323603186e-18
1.5568984535646726 1.0643280748690267e-21 4.398506503558028e-14 4.3983145567368145e-14 1.9194682121296277e-18
1.6043148490894465 1.1078318636840235e-21 4.717727896306042e-14 4.717425695386921e-14 3.0220091912072112e-18
1.6531753430134553 1.1530354198328203e-21 5.0597726213561465e-14 5.0593038546024235e-14 4.687667537230171e-18
1.7035239163302658 1.2002106858996427e-21 5.42719164082524e-14 5.426475059655178e-14 7.165811700617761e-18
1.755405889504358 1.2502166053637304e-21 5.825487129095447e-14 5.824407093766682e-14 1.0800353287647618e-17
1.8088679632656115 1.3029804019043037e-21 6.256251279887564e-14 6.254645717330007e-14 1.6055625575573483e-17
1.8639582606462262 1.3583927493411405e-21 6.72095474099218e-14 6.718599666541092e-14 2.355074451088616e-17
1.9207263702978936 1.416521411142745e-21 7.222009833699108e-14 7.218600007012315e-14 3.409826686793123e-17
1.979223391128241 1.4775008534622252e-21 7.762327970672112e-14 7.757452951662073e-14 4.875019010040827e-17
2.039501978296691 1.5414108827742073e-21 8.344724150012043e-14 8.337839376346338e-14 6.884773665705579e-17
2.1016163906111602 1.6087842754719458e-21 8.974715549754767e-14 8.96510717923198e-14 9.608370522786739e-17
2.1656225393682647 1.6797621640558579e-21 9.656060776820189e-14 9.642805040185499e-14 1.3255736634691226e-16
2.231578038680979 1.7539354243371655e-21 1.0389511102117902e-13 1.0371427495256976e-13 1.8083606860925074e-16
2.299542257339062 1.8311240617413457e-21 1.1177086122197222e-13 1.1152684209422572e-13 2.440191277465011e-16
2.369576372248914 1.911309293487239e-21 1.2021844752258602e-13 1.1989264215761375e-13 3.258053649722491e-16
2.4417434235010123 1.994509391451979e-21 1.2927232069375475e-13 1.2884177799464385e-13 4.305426991109231e-16
2.5161083711144245 2.0810954546866184e-21 1.3899231114452216e-13 1.3842901699865797e-13 5.632941458642008e-16
2.5927381535095444 2.1719150261468774e-21 1.4947581209291576e-13 1.4874593712622094e-13 7.298749666948491e-16
2.6717017477616296 2.267669839512863e-21 1.6081895342854196e-13 1.5988211532967724e-13 9.368380988646586e-16
2.753070231689431 2.3695787183549373e-21 1.7316410169392348e-13 1.7197262342536343e-13 1.1914782685600132e-15
2.836916847834745 2.4815229829275404e-21 1.86867743502426e-13 1.8536588162547622e-13 1.5018618769497756e-15
2.9233170693905177 2.612500375216912e-21 2.0272238967135106e-13 2.0084598787751826e-13 1.87640179383286e-15
2.967498994190263 2.6941928157390123e-21 2.1222116153579603e-13 2.101346938777741e-13 2.086467658021965e-15
3.0123486681368425 2.7818548872248387e-21 2.224380827621421e-13 2.2012106485172505e-13 2.31701791041697e-15
3.0578761833420214 2.930489270058943e-21 2.3786440921383214e-13 2.352939560567461e-13 2.570453157086048e-15
3.1040917844459814 3.105977601579466e-21 2.559188685174498e-13 2.5307290908489307e-13 2.8459594325567872e-15
3.127460860933648 3.2719502512926628e-21 2.7162391727413293e-13 2.686305585647408e-13 2.9933587093921437e-15
3.1510058709225794 3.484018267969349e-21 2.9140638872127715e-13 2.882594699276643e-13 3.1469187936128406e-15
3.162844764501044 3.677095563223333e-21 3.0871108682076145e-13 3.0548473215555126e-13 3.2263546652100508e-15
3.1747281389236908 3.8960748411142236e-21 3.283244800711566e-13 3.2501709675263947e-13 3.307383318517163e-15
3.1986289994194426 4.490900475611504e-21 3.81299937422084e-13 3.7782521835045256e-13 3.474719071631469e-15
3.2227097969389145 5.872733501280094e-21 5.023783622686177e-13 4.987264124474311e-13 3.6519498211866146e-15
3.2348180950136065 7.171039270274024e-21 6.15745714178892e-13 6.11999205170323e-13 3.746509008568803e-15
3.240889293275058 8.141263535830106e-21 7.003666252537942e-13 6.965702386324162e-13 3.79638662137815e-15
3.2469718861334385 9.265732859234161e-21 7.985971137257344e-13 7.947491185079372e-13 3.847995217796863e-15
3.2714166318528037 1.5172885474208064e-20 1.317569309392966e-12 1.3135081097476515e-12 4.061199645314507e-15
3.2744851364798273 1.5542058902757343e-20 1.350893173414283e-12 1.3468068667606494e-12 4.086306653633791e-15
3.2775565192852394 1.5921156226115933e-20 1.3851417716817301e-12 1.3810302342527809e-12 4.111537428949407e-15
3.283707930232385 1.5556757741870026e-20 1.3559792493540998e-12 1.351822628558685e-12 4.156620795414657e-15
3.2898708863219004 1.439891702914519e-20 1.2574134927837815e-12 1.2532158780055876e-12 4.197614778194179e-15
3.29141343181113 1.4125299262528163e-20 1.2340976571229621e-12 1.2298897494288924e-12 4.207907694069945e-15
3.292184975758714 1.3990767803750983e-20 1.2226304578357683e-12 1.218417397013515e-12 4.213060822253876e-15
3.295272960557952 1.315134650671547e-20 1.1503527852665215e-12 1.146119686246551e-12 4.2330990199705545e-15
3.3076538914384823 1.0222221558487489e-20 8.975006711401408e-13 8.931871064380594e-13 4.3135647020811994e-15
3.310756385682612 9.620117749966919e-21 8.45428815617558e-13 8.410949724703225e-13 4.333843147235586e-15
3.313861789986515 9.062255405488868e-21 7.971501322363264e-13 7.927959457374387e-13 4.354186498887705e-15
3.3200813396944477 8.282808472392791e-21 7.299544758360662e-13 7.255565169063763e-13 4.3979589296897114e-15
3.345076488085796 6.918729595943305e-21 6.14330168606457e-13 6.097371005976264e-13 4.593068008830505e-15
3.3482140837626964 6.973590192496682e-21 6.197821641256429e-13 6.151626638699663e-13 4.619500255676757e-15
3.3513546224236106 7.028956930427437e-21 6.252888726458935e-13 6.206428229440105e-13 4.646049701882777e-15
3.3576445397418455 7.419617639529533e-21 6.612804376005341e-13 6.565788732645888e-13 4.701564335945375e-15
3.3702598118196083 8.837065079959642e-21 7.90570979535596e-13 7.857529744096639e-13 4.818005125931981e-15
3.382922481734668 9.174096432538927e-21 8.238056764281886e-13 8.188745397468295e-13 4.9311366813591e-15
3.389271646505754 9.347901522387415e-21 8.409882733625757e-13 8.359998036446289e-13 4.9884697179468424e-15
3.395632727569191 9.538931802091483e-21 8.597850466450268e-13 8.54737491754312e-13 5.0475548907150334e-15
3.421196662673239 1.0465556752128842e-20 9.504074016341116e-13 9.451153131063155e-13 5.292088527796034e-15
3.4276182099114902 1.0296744777299813e-20 9.368322282636096e-13 9.314856192207787e-13 5.346609042830919e-15
3.4340518103208963 9.532595367247102e-21 8.689352889377557e-13 8.635371379181874e-13 5.398151019568158e-15
3.4469541582030403 8.436344420926328e-21 7.718968036984348e-13 7.663997750817866e-13 5.4970286166483465e-15
3.472904465399547 8.13114197817255e-21 7.495727918814985e-13 7.438479176785584e-13 5.724874202940109e-15
3.4990501388274233 7.669738872459503e-21 7.123610685810346e-13 7.064031531087573e-13 5.957915472277487e-15
3.5253949054701885 6.035610333596944e-21 5.648048261883524e-13 5.586206976541734e-13 6.1841285341788416e-15
3.5519380250092896 4.480651798316439e-21 4.224506744101285e-13 4.160393320741835e-13 6.411342335945002e-15
3.578680990867387 3.8733860272333474e-21 3.679452502395445e-13 3.6128489729025875e-13 6.660352949285777e-15
3.605625307711299 3.6390509894012254e-21 3.4828772399193676e-13 3.413652118198214e-13 6.922512172115331e-15
3.660119384959845 3.4897717771020785e-21 3.3904840874328104e-13 3.3157556452787215e-13 7.472844215408868e-15
3.715437065384467 3.388615662167811e-21 3.34196314490053e-13 3.2614396956893045e-13 8.052344921122488e-15
3.8285932144167436 3.379189098173256e-21 3.434164968731677e-13 3.3412100068121703e-13 9.295496191950827e-15
3.94519561050918 3.416944211373853e-21 3.5782926996754234e-13 3.471817287579375e-13 1.0647541209604776e-14
4.06534921144712 3.470303740756464e-21 3.744853034609309e-13 3.6237932860687207e-13 1.2105974854058814e-14
4.189162171576248 3.529977851692116e-21 3.925261428242144e-13 3.788536323605974e-13 1.3672510463616919e-14
4.316745939156006 3.592111597970918e-21 4.116003570577995e-13 3.962602364954388e-13 1.5340120562360734e-14
4.448215356677963 3.6550526208335374e-21 4.315676391437406e-13 4.144833623572808e-13 1.708427678645972e-14
4.58368876423945 3.718578855417314e-21 4.524405790946362e-13 4.3353469354184513e-13 1.890588555279105e-14
4.723288106065518 3.783444232081385e-21 4.74352514326289e-13 4.5353737804251045e-13 2.0815136283778535e-14
4.867139040275056 3.850820320378259e-21 4.975038442267387e-13 4.747447213645625e-13 2.2759122862176277e-14
4.940699165968905 3.888082712069081e-21 5.099097770025129e-13 4.861600109592748e-13 2.3749766043238146e-14
5.015371051989984 3.924094840802152e-21 5.224106201854525e-13 4.97661085787781e-13 2.474953439767153e-14
5.091171501069577 3.967066302482314e-21 5.361133463474514e-13 5.103330038913772e-13 2.5780342456074063e-14
5.129500256944802 3.9880317358930216e-21 5.430040823100142e-13 5.167060925377532e-13 2.6297989772261194e-14
5.168117569889187 4.0093820041298975e-21 5.500209789208782e-13 5.231986612386796e-13 2.6822317682198674e-14
5.20702561229733 4.0367005207788914e-21 5.579376612336934e-13 5.305417838630985e-13 2.7395877370594925e-14
5.246226572918644 4.063888691295777e-21 5.659242189923474e-13 5.379518371269626e-13 2.7972381865384746e-14
5.265937586045735 4.077437496147005e-21 5.699443500686488e-13 5.416826929168426e-13 2.8261657151806038e-14
5.285722656980489 4.090958149544486e-21 5.739827512446928e-13 5.45431180677863e-13 2.855157056682962e-14
5.305582063971359 4.104452252100821e-21 5.780397136367625e-13 5.491976247824056e-13 2.884208885435677e-14
5.3255160863122235 4.119089615985487e-21 5.82280672062732e-13 5.531450800125487e-13 2.9135592050183204e-14
5.365609099470188 4.157356633279226e-21 5.921145653581542e-13 5.62371652135181e-13 2.974291322297332e-14
5.406003951863644 4.196055866537635e-21 6.021255467419391e-13 5.717723865964073e-13 3.0353160145531834e-14
5.446702915881641 4.235234849548293e-21 6.123230645420068e-13 5.813569978879113e-13 3.0966066654095664e-14
5.487708281020852 4.27717290013304e-21 6.230419030455831e-13 5.914577998540356e-13 3.158410319154739e-14
5.529022354014368 4.3395542413601844e-21 6.368877562960725e-13 6.046594299103945e-13 3.222832638567826e-14
5.570647458961463 4.404100294562738e-21 6.51226865432663e-13 6.183513436195366e-13 3.287552181312636e-14
5.612585937458331 4.4710078655545424e-21 6.660976028684628e-13 6.325721845586621e-13 3.3525418309800585e-14
5.654840148729818 4.5438502334077156e-21 6.820461696745497e-13 6.478650616414039e-13 3.418110803314604e-14
5.67608639626678 4.596227127136451e-21 6.92500214032788e-13 6.579757858084369e-13 3.452442822435097e-14
5.686739436050992 4.623003032480656e-21 6.978417376667745e-13 6.631453375163274e-13 3.4696400150447126e-14
5.6974124697621304 4.650184042020768e-21 7.032621374225176e-13 6.683935631741716e-13 3.486857424834608e-14
5.718818669136295 4.705803318231071e-21 7.143475029203956e-13 6.791339912066401e-13 3.5213511713755624e-14
5.740305295436557 4.767368469969198e-21 7.264122236937668e-13 6.908503230259262e-13 3.5561900667840764e-14
5.7835210386641895 4.9311516870738445e-21 7.570248134526623e-13 7.207429800186909e-13 3.628183343397143e-14
5.827062130521658 5.117210365350299e-21 7.91502612567743e-13 7.544906535991662e-13 3.7011958968576937e-14
5.8489554468988025 5.2520925409286314e-21 8.154176655603366e-13 7.780105178565453e-13 3.7407147703791437e-14
5.870931020387893 5.3950554547236235e-21 8.407605465776777e-13 8.029567838354972e-13 3.780376274218047e-14
5.892989160043636 5.5467384859499306e-21 8.676463932764131e-13 8.29444622733521e-13 3.820177054289207e-14
5.915130176081913 5.719194582905487e-21 8.979840286640854e-13 8.593693969143686e-13 3.861463174971674e-14
5.95966208400165 6.2092500399751474e-21 9.822685011271533e-13 9.427075302531487e-13 3.956097087400474e-14
6.004529249263818 6.915950157642693e-21 1.1023011295912158e-12 1.0616721229939195e-12 4.0629006597296437e-14
6.027089341400364 7.409358270362212e-21 1.1853801688418779e-12 1.1441312587504844e-12 4.124891009139349e-14
6.049734195844842 7.98810789030089e-21 1.2827725228688088e-12 1.24086637345964e-12 4.19061494091693e-14
6.095279466722835 9.662412723551292e-21 1.563322721011675e-12 1.5197915122149317e-12 4.3531208796743357e-14
6.141167624020661 1.2222169894267206e-20 1.992364069677405e-12 1.946711910864294e-12 4.5652158813110795e-14
6.164241091010745 1.385448652387547e-20 2.2669371715954082e-12 2.2199481366111764e-12 4.698903498423171e-14
6.187401249150058 1.569215716483718e-20 2.577272637059118e-12 2.528911888200369e-12 4.836074885874938e-14
6.1990139391386085 1.658480110938525e-20 2.7289923210640014e-12 2.6799338036406013e-12 4.905851742339919e-14
6.204828454712694 1.7053181783125363e-20 2.808695339618904e-12 2.7592844987011553e-12 4.9410840917749305e-14
6.210648424152782 1.7391606952075408e-20 2.867121451360258e-12 2.817411711931666e-12 4.970973942859244e-14
6.233982942956859 1.8525170686199067e-20 3.0654713450567204e-12 3.0147249328733514e-12 5.074641218336902e-14
6.239830258556775 1.8660711696529822e-20 3.0907965016207014e-12 3.039910323963789e-12 5.088617765691187e-14
6.245683058788269 1.8657386713483877e-20 3.093144351642212e-12 3.042118225535758e-12 5.102612610645523e-14
6.257405133728602 1.8591595486004044e-20 3.088021878816304e-12 3.0367531868897315e-12 5.1268691926571755e-14
6.269149208991335 1.8325136243746697e-20 3.0494762242911723e-12 2.9981299599327636e-12 5.134626435840884e-14
6.280915325867298 1.7708252212429366e-20 2.952351556033139e-12 2.901131597041539e-12 5.121995899159953e-14
6.304513850009849 1.6208461776910404e-20 2.712456845346385e-12 2.6616737540727046e-12 5.0783091273680446e-14
6.32820103803542 1.4380423579678538e-20 2.415579744249738e-12 2.3654295455306467e-12 5.015019871909131e-14
6.3519772230701035 1.2712248237685074e-20 2.1433876801098643e-12 2.0938078012175132e-12 4.957987889235111e-14
6.375842739491607 1.1305578723083741e-20 1.9133738231722884e-12 1.8642999766810794e-12 4.9073846491208616e-14
6.399797922933955 1.0186264460594807e-20 1.7304164758694385e-12 1.681616562568181e-12 4.879991330125779e-14
6.42384311029221 9.25168354497438e-21 1.5775572465319643e-12 1.5289849281951566e-12 4.8572318336808014e-14
6.447978639727206 8.57065135886933e-21 1.4669214267024027e-12 1.4183960000550301e-12 4.8525426647372415e-14
6.472204850670314 8.000282529654715e-21 1.3744438805405187e-12 1.3259295895434622e-12 4.851429099705635e-14
6.496522083828205 7.625609753633528e-21 1.3149975034372468e-12 1.266348194225746e-12 4.8649309211500265e-14
