Dust emission spectrum from A.P. Jones, M. Kohler, N. Ysard, M. Bocchio, and L. Verstraete (2017), A&A, 602A, 46J 
inside the DustPedia framework.

lambda    nu*dP/dnu     j_nu    j_nu(carb.) j_nu(sil)
 (um)   (erg s-1 H-1) (Jy cm2 sr-1 H-1)
0.9927057738263894 4.329151803839567e-21 1.140756089403082e-13 1.1407560572448585e-13 3.2158223584771072e-21
1.0001793341362166 4.4018741981214736e-21 1.1686512731010416e-13 1.1686512344049116e-13 3.8696130011865995e-21
1.0077091589558085 4.4748959994851335e-21 1.1969819053367664e-13 1.1969818588357296e-13 4.650103680244561e-21
1.0114953028030835 4.511516022213101e-21 1.2113114081679754e-13 1.211311357218201e-13 5.094977454794498e-21
1.0152956718711033 4.548207168378138e-21 1.2257508588557065e-13 1.225750803050269e-13 5.580543762181857e-21
1.0229392996569957 4.62176233311684e-21 1.2549513950114826e-13 1.2549513281286738e-13 6.6882808940811875e-21
1.0267826658714554 4.658542889171049e-21 1.2696910537582628e-13 1.2696909805717236e-13 7.318653896213849e-21
1.0306404723013447 4.695388175996293e-21 1.2845414649219725e-13 1.2845413848643594e-13 8.00576130366949e-21
1.03451277320114 4.7322971423448284e-21 1.299503030524187e-13 1.2995029429796953e-13 8.75444918335832e-21
1.0383996230291617 4.769268772307311e-21 1.314576161865248e-13 1.3145760661657115e-13 9.569953644068044e-21
1.0403485208654093 4.787777778548885e-21 1.3221546958554102e-13 1.3221545958102883e-13 1.0004512202453202e-20
1.0423010764483396 4.806302086181576e-21 1.3297612799271902e-13 1.3297611753478882e-13 1.0457930155532018e-20
1.0462171883269815 4.843396141334731e-21 1.3450588157820703e-13 1.3450587015372213e-13 1.142448490171658e-20
1.0471985131304309 4.852679039081857e-21 1.3489008165363376e-13 1.3489006997447117e-13 1.1679162610174064e-20
1.048180758391296 4.86196566266477e-21 1.35274987795256e-13 1.3527497585598725e-13 1.1939268738974131e-20
1.0501480137395462 4.880550033057978e-21 1.36046921100561e-13 1.3604690862435272e-13 1.2476208296438197e-20
1.0521189612883777 4.899149145490377e-21 1.3682168718480996e-13 1.3682167414860105e-13 1.3036208911924455e-20
1.0531058218030118 4.9084419261620276e-21 1.3720979129405165e-13 1.3720977796888264e-13 1.3325168982854743e-20
1.0540936079674168 4.917698152275999e-21 1.3759748029284434e-13 1.3759746667252877e-13 1.3620315604207856e-20
1.058054026499678 4.954757651329605e-21 1.3915528153673136e-13 1.3915526667208338e-13 1.4864647962889173e-20
1.0590464539527713 4.964031114245232e-21 1.3954649681744056e-13 1.3954648162512675e-13 1.5192313838257738e-20
1.06003981227728 4.973307988789366e-21 1.399384195657075e-13 1.3993840403882752e-13 1.552687996766168e-20
1.0620293250338977 4.991871926804883e-21 1.407243904628936e-13 1.4072437424562603e-13 1.6217267585298714e-20
1.0660195594769086 5.029040246086577e-21 1.42304855122015e-13 1.4230483743492026e-13 1.7687094751386324e-20
1.070024785945596 5.0662619190461344e-21 1.4389672483899475e-13 1.4389670555525463e-13 1.928374008662697e-20
1.0740450607676866 5.1035362988379585e-21 1.4550005025735065e-13 1.4550002923979635e-13 2.101755427643033e-20
1.07808044048254 5.1408627826849526e-21 1.47114883384071e-13 1.4711486048438993e-13 2.2899681068993604e-20
1.0861967418109137 5.215612946752393e-21 1.503776464721401e-13 1.5037761931438174e-13 2.715775838934706e-20
1.0902777775684922 5.252906217136445e-21 1.5202192952217555e-13 1.52021899961679e-13 2.9560496488344166e-20
1.0943741465085532 5.290247410591053e-21 1.5367783764425337e-13 1.5367780547901257e-13 3.216524079260313e-20
1.1026131145906286 5.365072174342793e-21 1.5702476622593093e-13 1.5702472817985643e-13 3.804607452999042e-20
1.1109141095355224 5.440084946371998e-21 1.604189232467941e-13 1.6041887830346497e-13 4.494332915328307e-20
1.1192775983109025 5.515225743474929e-21 1.6385908974445995e-13 1.6385903672256185e-13 5.3021898114161027e-20
1.1277040513999907 5.590225037749245e-21 1.6733772669841737e-13 1.6733766422685601e-13 6.247156137829739e-20
1.1361939428280308 5.6654016925069685e-21 1.708648031947473e-13 1.7086472968430527e-13 7.351044208130261e-20
1.1447477501889525 5.740756835500337e-21 1.744409259619544e-13 1.7444083957305776e-13 8.638889659697126e-20
1.1533659546722406 5.816318921603741e-21 1.7806754556199142e-13 1.780674441679586e-13 1.0139403281604757e-19
1.1707974979042381 5.968292790020088e-21 1.8548181592040927e-13 1.8548167677324306e-13 1.3914716613717765e-19
1.1884924949847024 6.121128239001031e-21 1.931067055911307e-13 1.9310651559222747e-13 1.899989032634324e-19
1.2064549276569216 6.2758545258392125e-21 2.009802595491176e-13 2.0098000139790675e-13 2.581512108746404e-19
1.2246888378427687 6.431486487204727e-21 2.090771416623875e-13 2.0907679263462214e-13 3.490277653978327e-19
1.2431983285522175 6.58790308376368e-21 2.1739875475218715e-13 2.1739828514785345e-13 4.696043336411904e-19
1.2619875648066055 6.745339084276532e-21 2.2595829803392717e-13 2.2595766922660847e-13 6.288073186527053e-19
1.3004222497298317 7.062334298059375e-21 2.4378225823758903e-13 2.4378114671087927e-13 1.1115267097356487e-18
1.3400274889804893 7.38345371161109e-21 2.626290102927408e-13 2.6262708155123727e-13 1.928741503475268e-18
1.3808389325824078 7.70988641359847e-21 2.825923729858084e-13 2.8258908610004497e-13 3.2868857634292185e-18
1.4228933163050095 8.04433492452197e-21 3.038308835050196e-13 3.038253796458911e-13 5.503859128502341e-18
1.466228494730424 8.392494973045117e-21 3.266345932793988e-13 3.266255330385952e-13 9.060240803701733e-18
1.5108834753276823 8.753619297165354e-21 3.510654245968649e-13 3.510507558322154e-13 1.466876464944026e-17
1.5568984535646726 9.127291111569515e-21 3.771999467273867e-13 3.771765643798015e-13 2.3382347585144244e-17
1.6043148490894465 9.515479461578505e-21 4.052189179081065e-13 4.0518215265504234e-13 3.676525306412739e-17
1.6531753430134553 9.920203200275049e-21 4.353203005534642e-13 4.3526334652782857e-13 5.695402563569876e-17
1.7035239163302658 1.0343766678066836e-20 4.677312467666616e-13 4.676443007430873e-13 8.694602357431389e-17
1.755405889504358 1.0793401493615825e-20 5.029274224199378e-13 5.027965555183037e-13 1.3086690163429735e-16
1.8088679632656115 1.1268469401849026e-20 5.410547696239985e-13 5.40860494445589e-13 1.9427517840952014e-16
1.8639582606462262 1.1767968365252684e-20 5.822467972878454e-13 5.819622309161402e-13 2.8456637170544423e-16
1.9207263702978936 1.2292380471489553e-20 6.267162073678134e-13 6.263047825499795e-13 4.1142481783399824e-16
1.979223391128241 1.2842738726416031e-20 6.747173769984009e-13 6.741300175561783e-13 5.873594422225174e-16
2.039501978296691 1.3419579582614117e-20 7.264947398353892e-13 7.256664607664394e-13 8.282790689498491e-16
2.1016163906111602 1.4027285083067398e-20 7.825219047402566e-13 7.813676922949595e-13 1.1542124452971568e-15
2.1656225393682647 1.466692123521455e-20 8.431234247716799e-13 8.415334943348846e-13 1.5899304367952943e-15
2.231578038680979 1.5334871983534493e-20 9.083676657177851e-13 9.062020247332941e-13 2.165640984490841e-15
2.299542257339062 1.6029526989887252e-20 9.7843399804203e-13 9.755162959957483e-13 2.917702046281441e-15
2.369576372248914 1.6750603660889758e-20 1.0535874931598334e-12 1.0496981252094451e-12 3.889367950388448e-15
2.4417434235010123 1.749815800796234e-20 1.1341272712226088e-12 1.1289959601262154e-12 5.131311096393428e-15
2.5161083711144245 1.8275194791371933e-20 1.220564657401369e-12 1.2138623283071846e-12 6.70232909418416e-15
2.5927381535095444 1.908860528466109e-20 1.313718420056128e-12 1.3050487241973346e-12 8.669695858793253e-15
2.6717017477616296 1.9943802439333957e-20 1.4143776046200286e-12 1.4032687109637824e-12 1.1108893656246544e-14
2.753070231689431 2.0850198628599182e-20 1.5236910627589614e-12 1.5095875061842709e-12 1.4103556574690185e-14
2.836916847834745 2.1838583047579272e-20 1.6445250612094105e-12 1.6267793425040886e-12 1.7745718705322348e-14
2.9233170693905177 2.2980038772384392e-20 1.7831838107549638e-12 1.7610532599090485e-12 2.2130550845915038e-14
2.967498994190263 2.3678650071725292e-20 1.8651636929863996e-12 1.8405800116224973e-12 2.4583681363902382e-14
3.0123486681368425 2.442471829105249e-20 1.953008955865075e-12 1.925735586088745e-12 2.7273369776330152e-14
3.0578761833420214 2.565651084736422e-20 2.082509176044114e-12 2.0522817919827e-12 3.02273840614133e-14
3.1040917844459814 2.709803936194953e-20 2.232759041476949e-12 2.199324446774694e-12 3.343459470225522e-14
3.127460860933648 2.84391245985731e-20 2.3608997185271183e-12 2.3257508296048308e-12 3.514888892228693e-14
3.1510058709225794 3.014294841820181e-20 2.521183033026852e-12 2.4842493638117575e-12 3.693366921509515e-14
3.162844764501044 3.168600822822034e-20 2.660203377627415e-12 2.6223468970906905e-12 3.785648053672469e-14
3.1747281389236908 3.343103992980902e-20 2.817253069002538e-12 2.778455586857579e-12 3.879748214495992e-14
3.1986289994194426 3.815421598252425e-20 3.2394839844550804e-12 3.1987441543044966e-12 4.073983015058397e-14
3.2227097969389145 4.909278238331979e-20 4.199603405733627e-12 4.156807557181353e-12 4.279584855227291e-14
3.2348180950136065 5.93539672096169e-20 5.09646503824536e-12 5.052572521916786e-12 4.389251632857378e-14
3.240889293275058 6.701968051108751e-20 5.7654868017181645e-12 5.721015818704735e-12 4.447098301343055e-14
3.2469718861334385 7.590425476048997e-20 6.542053358555417e-12 6.49698383515454e-12 4.506952340087607e-14
3.2714166318528037 1.224927063234124e-19 1.0636910873054463e-11 1.0589369644072366e-11 4.7541228982093935e-14
3.2744851364798273 1.2540265408466897e-19 1.0899816452307842e-11 1.0851984434712544e-11 4.7832017595299543e-14
3.2775565192852394 1.2839015696445572e-19 1.1169953171650177e-11 1.112182895741008e-11 4.8124214240096676e-14
3.283707930232385 1.2551433123626405e-19 1.0940250627858184e-11 1.0891604875654396e-11 4.864575220378994e-14
3.2898708863219004 1.1638241994816595e-19 1.0163321649082374e-11 1.01142021910368e-11 4.911945804557057e-14
3.29141343181113 1.1422409162962694e-19 9.979518397962164e-12 9.930280013374672e-12 4.923838458749208e-14
3.292184975758714 1.1316284726596874e-19 9.889117288166028e-12 9.839819365226803e-12 4.929792293922746e-14
3.295272960557952 1.0654949618887567e-19 9.319920940949288e-12 9.270391599434986e-12 4.952934151430195e-14
3.3076538914384823 8.34597144596267e-20 7.327678167813326e-12 7.27721979803547e-12 5.045836977785888e-14
3.310756385682612 7.870968693528801e-20 6.91711256897642e-12 6.8664201245538195e-12 5.06924444226017e-14
3.313861789986515 7.430723490150082e-20 6.536344373164545e-12 6.485417126277404e-12 5.092724688714011e-14
3.3200813396944477 6.815924346333903e-20 6.006796487145074e-12 5.9553637731294526e-12 5.143271401562211e-14
3.345076488085796 5.742721283732855e-20 5.0990964245286306e-12 5.045409992027644e-12 5.3686432500986466e-14
3.3482140837626964 5.78631790552814e-20 5.1426260144535926e-12 5.088634231225683e-12 5.399178322790954e-14
3.3513546224236106 5.830306198202174e-20 5.186581203923395e-12 5.132282744159225e-12 5.4298459764171616e-14
3.3576445397418455 6.139031706670313e-20 5.471470055009348e-12 5.4165302419252594e-12 5.493981308408919e-14
3.3702598118196083 7.256879587429735e-20 6.492063090965035e-12 6.4357780958826455e-12 5.628499508239136e-14
3.382922481734668 7.523873785658427e-20 6.756207522923653e-12 6.698616530445122e-12 5.759099247853465e-14
3.389271646505754 7.661473095825043e-20 6.892679618886443e-12 6.834426954835426e-12 5.825266405101855e-14
3.395632727569191 7.812962602600061e-20 7.04216001862964e-12 6.983225461625484e-12 5.893455700415561e-14
3.421196662673239 8.548098444759407e-20 7.76277480903613e-12 7.701019151132693e-12 6.17556579034381e-14
3.4276182099114902 8.415448263945832e-20 7.656655884421112e-12 7.594272288216343e-12 6.238359620477012e-14
3.4340518103208963 7.813355624155597e-20 7.122195126603543e-12 7.059218406502216e-12 6.297672010132671e-14
3.4469541582030403 6.949170769084291e-20 6.35825475748153e-12 6.29414122603536e-12 6.41135314461686e-14
3.472904465399547 6.709203293446954e-20 6.18490767652275e-12 6.11817298144359e-12 6.67346950791597e-14
3.4990501388274233 6.346783125098674e-20 5.894856766613135e-12 5.825443422828899e-12 6.941334378423582e-14
3.5253949054701885 5.06298374821713e-20 4.737876532532943e-12 4.665866718398872e-12 7.200981413407221e-14
3.5519380250092896 3.840836379470474e-20 3.6212676008787827e-12 3.546652795400125e-12 7.461480547865859e-14
3.578680990867387 3.3654841539132595e-20 3.1969803693264455e-12 3.1195110364717855e-12 7.746933285466097e-14
3.605625307711299 3.184041440579921e-20 3.047394910556222e-12 2.9669220820532625e-12 8.047282850296006e-14
3.660119384959845 3.0726470031495063e-20 2.9852269534735794e-12 2.8984571372113056e-12 8.676981626227301e-14
3.715437065384467 2.998940005173845e-20 2.957652318896255e-12 2.864263408657355e-12 9.338891023889945e-14
3.8285932144167436 3.0032950875017516e-20 3.052155555851538e-12 2.9446079053868666e-12 1.0754765046467127e-13
3.94519561050918 3.044456051885687e-20 3.1882156075837932e-12 3.0653296704230195e-12 1.2288593716077325e-13
4.06534921144712 3.097469403215931e-20 3.342522315269777e-12 3.2031610515592505e-12 1.3936126371052558e-13
4.189162171576248 3.154931343606976e-20 3.508217567392474e-12 3.3512383052679122e-12 1.5697926212456113e-13
4.316745939156006 3.213664553767266e-20 3.6823618691072464e-12 3.5067168737826495e-12 1.7564499532459704e-13
4.448215356677963 3.272171550647667e-20 3.863592395187683e-12 3.668526750251918e-12 1.9506564493576538e-13
4.58368876423945 3.3301495056659946e-20 4.051802662784065e-12 3.836565035473074e-12 2.1523762731099005e-13
4.723288106065518 3.38806797230673e-20 4.247818820070026e-12 4.011557384048149e-12 2.3626143602187633e-13
4.867139040275056 3.446529651249056e-20 4.452718143362812e-12 4.195193724811804e-12 2.5752441855100785e-13
4.940699165968905 3.477969291273462e-20 4.561246961721861e-12 4.2929418501503804e-12 2.68305111571481e-13
5.015371051989984 3.508023308689448e-20 4.6701945459168815e-12 4.391047881938679e-12 2.7914666397820217e-13
5.091171501069577 3.543074203501405e-20 4.7881462591333565e-12 4.497853611438322e-12 2.9029264769503536e-13
5.129500256944802 3.560016986548389e-20 4.847262722085382e-12 4.551388799304285e-12 2.9587392278109833e-13
5.168117569889187 3.5771479413978456e-20 4.907256057032733e-12 4.605736508821767e-12 3.0151954821096647e-13
5.20702561229733 3.5988745822850376e-20 4.9742299612706e-12 4.6665170225552904e-12 3.0771293871530845e-13
5.246226572918644 3.6203626919491715e-20 5.041601984076705e-12 4.727675022898923e-12 3.1392696117778215e-13
5.265937586045735 3.63101941519815e-20 5.075440157298105e-12 4.758399423084407e-12 3.170407342137001e-13
5.285722656980489 3.641619140858125e-20 5.109381462843419e-12 4.789222973090362e-12 3.201584897530571e-13
5.305582063971359 3.652162846560606e-20 5.1434272743705895e-12 4.8201474437044176e-12 3.2327983066617337e-13
5.3255160863122235 3.6635546517947656e-20 5.1788556784658225e-12 4.8524240341790624e-12 3.2643164428676e-13
5.365609099470188 3.6931665567550534e-20 5.260019535113614e-12 4.927064726107811e-12 3.329548090058022e-13
5.406003951863644 3.7229377532082146e-20 5.342340525095097e-12 5.002843249052044e-12 3.394972760430535e-13
5.446702915881641 3.7529014277814654e-20 5.425881172630395e-12 5.079825314328472e-12 3.460558583019214e-13
5.487708281020852 3.7848032623997353e-20 5.513200149531748e-12 5.1605420537973415e-12 3.526580957344066e-13
5.529022354014368 3.832176750435953e-20 5.6242330814837994e-12 5.264693187763478e-12 3.595398937203213e-13
5.570647458961463 3.8809623955474894e-20 5.73871348669039e-12 5.372273238656867e-12 3.664402480335225e-13
5.612585937458331 3.931302567640881e-20 5.856914805788278e-12 5.483558891787354e-12 3.7335591400092336e-13
5.654840148729818 3.985914215296813e-20 5.982982236533134e-12 5.6026610292064784e-12 3.803212073266545e-13
5.67608639626678 4.025275540912688e-20 6.064765940667641e-12 5.6807951080473916e-12 3.83970832620251e-13
5.686739436050992 4.0453696251462814e-20 6.1064804606058435e-12 5.7206828320912e-12 3.857976285146435e-13
5.6974124697621304 4.0657491525528174e-20 6.148761884283533e-12 5.761136206391159e-12 3.876256778923745e-13
5.718818669136295 4.107395155178126e-20 6.235083096740573e-12 5.843797766598887e-12 3.9128533014168564e-13
5.740305295436557 4.1534672938839805e-20 6.328710339876639e-12 5.933731219837569e-12 3.949791200390698e-13
5.7835210386641895 4.276145986024715e-20 6.5646908121936944e-12 6.162080832340041e-12 4.0260997985365645e-13
5.827062130521658 4.415182470121895e-20 6.8291670862852174e-12 6.418830413713253e-12 4.1033667257196327e-13
5.8489554468988025 4.5162000636272585e-20 7.011661131993797e-12 6.597134612071209e-12 4.145265199225876e-13
5.870931020387893 4.6231150905648474e-20 7.2046206068773985e-12 6.7858931310533344e-12 4.1872747582406423e-13
5.892989160043636 4.736397181713838e-20 7.408890724248355e-12 6.985951599290588e-12 4.2293912495776443e-13
5.915130176081913 4.865162979965266e-20 7.638905425450839e-12 7.211594938064511e-12 4.2731048738632896e-13
5.95966208400165 5.231526626979391e-20 8.275981455741806e-12 7.838609115183862e-12 4.373723405579452e-13
6.004529249263818 5.759660497735972e-20 9.180054985937445e-12 8.731303136031077e-12 4.4875184990636894e-13
6.027089341400364 6.128438351201064e-20 9.804532352743993e-12 9.349154976665956e-12 4.553773760780347e-13
6.049734195844842 6.560647964477077e-20 1.0535434744521678e-11 1.0073028274582884e-11 4.624064699387943e-13
6.095279466722835 7.810771347059616e-20 1.2637378121638923e-11 1.2157522706189078e-11 4.798554154498439e-13
6.141167624020661 9.719925759458593e-20 1.584467489047145e-11 1.5341960955082803e-11 5.027139353886411e-13
6.164241091010745 1.0936465776949437e-19 1.789476697885781e-11 1.7377604468600747e-11 5.171625102570664e-13
6.187401249150058 1.230404925084665e-19 2.0208113598487426e-11 1.967613449636787e-11 5.319791021195609e-13
6.1990139391386085 1.296759829131308e-19 2.1337896020718578e-11 2.0798381489891647e-11 5.3951453082693e-13
6.204828454712694 1.3315607632832457e-19 2.1931089211479785e-11 2.1387770733656214e-11 5.433184778235693e-13
6.210648424152782 1.356648424680392e-19 2.2365246702468076e-11 2.1818709892549562e-11 5.465368099185156e-13
6.233982942956859 1.4404596810464229e-19 2.3836152177787833e-11 2.3278490567955595e-11 5.576616098322434e-13
6.239830258556775 1.4503475528042594e-19 2.4022283904504924e-11 2.3463150873305452e-11 5.591330311994683e-13
6.245683058788269 1.4498841890372075e-19 2.4037134239248252e-11 2.3476528184447584e-11 5.606060548006669e-13
6.257405133728602 1.4445431339511977e-19 2.3993534099283165e-11 2.3430392002289358e-11 5.631420969938065e-13
6.269149208991335 1.424234223036734e-19 2.3700606332214327e-11 2.313673684563692e-11 5.638694865774047e-13
6.280915325867298 1.3778169032554603e-19 2.2971210424707203e-11 2.24088473154717e-11 5.623631092355053e-13
6.304513850009849 1.2652413055422115e-19 2.117358505371474e-11 2.0616251608003725e-11 5.573334457110208e-13
6.32820103803542 1.128420516033917e-19 1.8954864065195348e-11 1.8404705778279347e-11 5.501582869160022e-13
6.3519772230701035 1.0036829792138262e-19 1.692290531273194e-11 1.6379235195053202e-11 5.436701176787416e-13
6.375842739491607 8.984927988803806e-20 1.520623263784238e-11 1.4668343795146256e-11 5.378888426961192e-13
6.399797922933955 8.14876938441764e-20 1.3842920390890148e-11 1.3308275348600989e-11 5.346450422891586e-13
6.42384311029221 7.450439914133942e-20 1.2704169375505306e-11 1.217226035996631e-11 5.31909015538996e-13
6.447978639727206 6.941518374455326e-20 1.188084967054392e-11 1.1349703753898475e-11 5.311459166454474e-13
6.472204850670314 6.5151102115111e-20 1.1192921410045445e-11 1.0662148751905313e-11 5.307726581401284e-13
6.496522083828205 6.234519284311202e-20 1.0751110480173938e-11 1.0219117727358929e-11 5.31992752815008e-13
