Dust emission spectrum from A.P. Jones, M. Kohler, N. Ysard, M. Bocchio, and L. Verstraete (2017), A&A, 602A, 46J 
inside the DustPedia framework.

lambda    nu*dP/dnu     j_nu    j_nu(carb.) j_nu(sil)
 (um)   (erg s-1 H-1) (Jy cm2 sr-1 H-1)
0.9927057738263894 3.3795622534844164e-25 8.905338493235293e-18 8.905338493232586e-18 2.7045583051310503e-30
1.0001793341362166 3.43538248017521e-25 9.120578936033878e-18 9.120578936030619e-18 3.258304910265214e-30
1.0077091589558085 3.491122727645176e-25 9.338341572143824e-18 9.338341572139907e-18 3.920408644391859e-30
1.0114953028030835 3.518955993967006e-25 9.448157823990923e-18 9.448157823986627e-18 4.298253877739431e-30
1.0152956718711033 3.546761048998249e-25 9.558591420794585e-18 9.558591420789875e-18 4.710999979916513e-30
1.0229392996569957 3.6022483744212166e-25 9.781218281748169e-18 9.781218281742512e-18 5.6538066553501705e-30
1.0267826658714554 3.629863337031579e-25 9.893232959403341e-18 9.893232959397152e-18 6.1909883237435935e-30
1.0306404723013447 3.6574378783564663e-25 1.0005840697352466e-17 1.0005840697345691e-17 6.777021780616715e-30
1.03451277320114 3.6849693373024204e-25 1.0119036647898359e-17 1.0119036647890941e-17 7.41613375241853e-30
1.0383996230291617 3.712455067555722e-25 1.0232815902810953e-17 1.023281590280284e-17 8.112896526247659e-30
1.0403485208654093 3.726179961616013e-25 1.0289922719316619e-17 1.0289922719308137e-17 8.484426770517914e-30
1.0423010764483396 3.7398924380897604e-25 1.0347173494488457e-17 1.0347173494479587e-17 8.872254426292507e-30
1.0462171883269815 3.76727883366121e-25 1.0462104397119983e-17 1.0462104397110283e-17 9.699552171339899e-30
1.0471985131304309 3.774117162784499e-25 1.0490926108204003e-17 1.0490926108194086e-17 9.917659102063018e-30
1.048180758391296 3.7809521030077374e-25 1.0519783253847399e-17 1.0519783253837258e-17 1.0140465621697216e-29
1.0501480137395462 3.7946116552949567e-25 1.0577603527849122e-17 1.057760352783852e-17 1.0600565235479986e-29
1.0521189612883777 3.808257168270606e-25 1.063556457504575e-17 1.0635564575034667e-17 1.1080645582958561e-29
1.0531058218030118 3.8150640799413437e-25 1.0664568391695082e-17 1.0664568391683754e-17 1.132845127270721e-29
1.0540936079674168 3.821833026749621e-25 1.0693511034981649e-17 1.0693511034970065e-17 1.1581618392062754e-29
1.058054026499678 3.848870294763787e-25 1.0809623137117348e-17 1.08096231371047e-17 1.264959026983599e-29
1.0590464539527713 3.8556197842242347e-25 1.0838736131296698e-17 1.0838736131283768e-17 1.2930977512802113e-29
1.06003981227728 3.8623652638244517e-25 1.0867882946791939e-17 1.0867882946778722e-17 1.3218357534710586e-29
1.0620293250338977 3.87584403634125e-25 1.0926277707859206e-17 1.0926277707845393e-17 1.3811584230147368e-29
1.0660195594769086 3.90275173905454e-25 1.104346940224879e-17 1.1043469402233713e-17 1.507545522802789e-29
1.070024785945596 3.9295909094847626e-25 1.1161192825545954e-17 1.1161192825529505e-17 1.6449676552489142e-29
1.0740450607676866 3.9563590736315413e-25 1.127944253439691e-17 1.1279442534378967e-17 1.7943385289431714e-29
1.07808044048254 3.983053777311738e-25 1.1398213038000274e-17 1.1398213037980703e-17 1.9566430870772867e-29
1.0861967418109137 4.0361658993461837e-25 1.1637158180856136e-17 1.1637158180832895e-17 2.324380961203202e-29
1.0902777775684922 4.062471204547903e-25 1.1757010036252223e-17 1.17570100362269e-17 2.532189555688781e-29
1.0943741465085532 4.088691562592498e-25 1.187735146140012e-17 1.1877351461372542e-17 2.757693125454604e-29
1.1026131145906286 4.140868116045309e-25 1.2119479976503316e-17 1.211947997647064e-17 3.2675977884046093e-29
1.1109141095355224 4.192677142836518e-25 1.2363497250605014e-17 1.2363497250566346e-17 3.866846176581724e-29
1.1192775983109025 4.244052476478356e-25 1.2609213257430568e-17 1.2609213257384865e-17 4.570173055953079e-29
1.1277040513999907 4.294755419164599e-25 1.2855915526042364e-17 1.2855915525988411e-17 5.394582473530416e-29
1.1361939428280308 4.345030965806899e-25 1.3104328715642356e-17 1.3104328715578755e-17 6.359668233541016e-29
1.1447477501889525 4.394862349611936e-25 1.3354403952468046e-17 1.3354403952393169e-17 7.487980881284737e-29
1.1533659546722406 4.444260360755834e-25 1.360617505582094e-17 1.3606175055732887e-17 8.805451499185749e-29
1.1707974979042381 4.541915880919253e-25 1.4115306252390026e-17 1.411530625226871e-17 1.2131385933507037e-28
1.1884924949847024 4.637627525254879e-25 1.463058668587661e-17 1.4630586685710295e-17 1.6631218021631751e-28
1.2064549276569216 4.732144006375626e-25 1.5154390955198204e-17 1.5154390954971308e-17 2.268935501153808e-28
1.2246888378427687 4.824432704601895e-25 1.568344428659603e-17 1.5683444286287983e-17 3.080483246088892e-28
1.2431983285522175 4.914277659001872e-25 1.6216963576870743e-17 1.621696357645451e-17 4.162329171520871e-28
1.2619875648066055 5.001645249242789e-25 1.6754728469066923e-17 1.675472846850716e-17 5.597577656612825e-28
1.3004222497298317 5.167495609009948e-25 1.7837498139155343e-17 1.783749813815706e-17 9.982820052205911e-28
1.3400274889804893 5.321334561158672e-25 1.8927955450386534e-17 1.8927955448638387e-17 1.7481454044165916e-27
1.3808389325824078 5.4625914350257585e-25 2.0022171449285848e-17 2.002217144627857e-17 3.007272034203011e-27
1.4228933163050095 5.591953888457449e-25 2.1120556346680445e-17 2.1120556341595906e-17 5.084534604462489e-27
1.466228494730424 5.71253621582511e-25 2.223310171102607e-17 2.2233101702572708e-17 8.453352323939202e-27
1.5108834753276823 5.821993115236414e-25 2.3349204661691918e-17 2.3349204647865913e-17 1.3826014478336068e-26
1.5568984535646726 5.918426944903431e-25 2.4458848754125242e-17 2.4458848731856004e-17 2.2269246736332352e-26
1.6043148490894465 6.0020138198772185e-25 2.5559716199068818e-17 2.5559716163681584e-17 3.538723009113708e-26
1.6531753430134553 6.073007862013577e-25 2.6649692091811205e-17 2.664969203639612e-17 5.541507809575617e-26
1.7035239163302658 6.132252950936937e-25 2.7729224831725653e-17 2.7729224746188247e-17 8.553740375998606e-26
1.755405889504358 6.18462568971044e-25 2.8817772215718824e-17 2.881777208550711e-17 1.3021171617400176e-25
1.8088679632656115 6.228921735035691e-25 2.9908124113135053e-17 2.990812391758131e-17 1.9555373254198156e-25
1.8639582606462262 6.264325345185754e-25 3.0994163615982536e-17 3.099416332612881e-17 2.898537306357996e-25
1.9207263702978936 6.2914277812416315e-25 3.207629122067403e-17 3.207629079648924e-17 4.241847885006066e-25
1.979223391128241 6.311605557070274e-25 3.315920409838783e-17 3.3159203485240094e-17 6.13147734578815e-25
2.039501978296691 6.326506061165965e-25 3.424975683238545e-17 3.424975595666101e-17 8.757244511027356e-25
2.1016163906111602 6.340743796951797e-25 3.5372282548460746e-17 3.537228131210011e-17 1.236360636282204e-24
2.1656225393682647 6.356994362145111e-25 3.654298521081301e-17 3.654298348476905e-17 1.7260439742239055e-24
2.231578038680979 6.3754491117478675e-25 3.7765244038288517e-17 3.776524165472308e-17 2.3835654236498246e-24
2.299542257339062 6.397709938778569e-25 3.9051289022199497e-17 3.9051285765269296e-17 3.256930204303583e-24
2.369576372248914 6.427319223479513e-25 4.0426860341844464e-17 4.0426855936886855e-17 4.404957603314742e-24
2.4417434235010123 6.468459869341954e-25 4.192473709113585e-17 4.192473119233998e-17 5.89879587560428e-24
2.5161083711144245 6.528295586218071e-25 4.360121441424565e-17 4.360120659041002e-17 7.823835617418566e-24
2.5927381535095444 6.618549641823529e-25 4.555026650116953e-17 4.555025621972801e-17 1.028144152150777e-23
2.6717017477616296 6.753218553457909e-25 4.789257770763558e-17 4.789256431751199e-17 1.339012359848794e-23
2.753070231689431 6.953375466660943e-25 5.081388548513079e-17 5.08138681979115e-17 1.7287219308726188e-23
2.836916847834745 7.266764849341165e-25 5.472139324525374e-17 5.472137111412112e-17 2.2131132637253227e-23
2.9233170693905177 7.798541909660128e-25 6.051440477773022e-17 6.051437667945814e-17 2.8098272080485365e-23
2.967498994190263 8.250144531319887e-25 6.498626397660576e-17 6.498623246058763e-17 3.151601814205914e-23
3.0123486681368425 8.777563047510617e-25 7.018569892262976e-17 7.018566361962822e-17 3.5303001536815034e-23
3.0578761833420214 9.957683347244042e-25 8.082535877986606e-17 8.082531927616162e-17 3.9503704437185214e-23
3.1040917844459814 1.1478406952846817e-24 9.457701556706574e-17 9.457697144325808e-17 4.412380766170097e-23
3.127460860933648 1.3087133153140672e-24 1.0864402267546227e-16 1.0864397605840344e-16 4.661705883325389e-23
3.1510058709225794 1.5230547732755863e-24 1.2738965676079135e-16 1.2738960753041991e-16 4.92303714579087e-23
3.162844764501044 1.7225734690615167e-24 1.446189033217389e-16 1.446188527333137e-16 5.058842519442343e-23
3.1747281389236908 1.954598214846293e-24 1.6471512196462084e-16 1.6471506998658768e-16 5.1978033182037426e-23
3.1986289994194426 2.601784620311796e-24 2.20904542039655e-16 2.2090448717849166e-16 5.48611633549367e-23
3.2227097969389145 4.127361673693517e-24 3.5307190385336655e-16 3.530718459210332e-16 5.79323333036519e-23
3.2348180950136065 5.5740876850894736e-24 4.786224803953738e-16 4.786224208194798e-16 5.957589404840365e-23
3.240889293275058 6.655702847697352e-24 5.725686340478559e-16 5.725685736045826e-16 6.044327334435718e-23
3.2469718861334385 7.906964203514675e-24 6.814872484658952e-16 6.814871871247973e-16 6.134109781111271e-23
3.2714166318528037 1.4581411428554689e-23 1.2662074210309856e-15 1.266207355966001e-15 6.506498476175756e-23
3.2744851364798273 1.4998649499590187e-23 1.3036608177977818e-15 1.3036607522906624e-15 6.550711948357353e-23
3.2775565192852394 1.5427871775306586e-23 1.3422259879011329e-15 1.3422259219493229e-15 6.595180964306947e-23
3.283707930232385 1.5015083649211523e-23 1.3087651163229746e-15 1.308765049569825e-15 6.675314927285259e-23
3.2898708863219004 1.370602220415969e-23 1.1969051017531712e-15 1.1969050342650949e-15 6.748807648009589e-23
3.29141343181113 1.3397313028989513e-23 1.1704950326029196e-15 1.1704949649301224e-15 6.767279689244389e-23
3.292184975758714 1.324562430152192e-23 1.157513578329026e-15 1.1575135105637203e-15 6.776530576889485e-23
3.295272960557952 1.2288150735872891e-23 1.0748487554158902e-15 1.0748486872897157e-15 6.812617444249284e-23
3.3076538914384823 8.971174498485083e-24 7.876600098361616e-16 7.876599402572475e-16 6.957891403893734e-23
3.310756385682612 8.296086453759499e-24 7.290711742989714e-16 7.290711043531668e-16 6.994580460637263e-23
3.313861789986515 7.673213085732992e-24 6.749647358498384e-16 6.749646655356534e-16 7.031418479420941e-23
3.3200813396944477 6.79970135102386e-24 5.992499346172292e-16 5.992498635130804e-16 7.110414907080111e-23
3.345076488085796 5.241428985406032e-24 4.653987278576745e-16 4.653986532370928e-16 7.462058179017085e-23
3.3482140837626964 5.2998586930927594e-24 4.710282364884885e-16 4.710281613914571e-16 7.509703129732865e-23
3.3513546224236106 5.3589343946777555e-24 4.767253632933539e-16 4.767252877173378e-16 7.557601594423958e-23
3.3576445397418455 5.790686797442224e-24 5.16100436095119e-16 5.161003595183266e-16 7.657679231271e-23
3.3702598118196083 7.383182287534374e-24 6.605054506594816e-16 6.605053719817281e-16 7.867775346955462e-23
3.382922481734668 7.745875763333659e-24 6.955558478880988e-16 6.955557671565765e-16 8.073152206291754e-23
3.389271646505754 7.933776049186115e-24 7.137658227219248e-16 7.137657409467717e-16 8.177515347647034e-23
3.395632727569191 8.1362470583027e-24 7.333550235681998e-16 7.333549407172104e-16 8.285098909951606e-23
3.421196662673239 9.108434569871582e-24 8.271632209863148e-16 8.271631336663079e-16 8.732000688316215e-23
3.4276182099114902 8.912500211311045e-24 8.108890346364367e-16 8.108889463059168e-16 8.833051983592367e-23
3.4340518103208963 8.053949975401823e-24 7.34150677685489e-16 7.341505883929577e-16 8.929253124474322e-23
3.4469541582030403 6.831216095062955e-24 6.250330245020289e-16 6.250329333499865e-16 9.115204234847806e-23
3.472904465399547 6.48851605308429e-24 5.981466202575637e-16 5.981465248353142e-16 9.542224954233698e-23
3.4990501388274233 5.9643825589894326e-24 5.539685253697967e-16 5.539684255443545e-16 9.982544234383945e-23
3.5253949054701885 4.0991629373477e-24 3.8359451362504306e-16 3.8359440947235794e-16 1.0415268511227156e-22
3.5519380250092896 2.3460814340040497e-24 2.2119631889014222e-16 2.211962103458009e-16 1.0854434131859456e-22
3.578680990867387 1.6509537865817253e-24 1.5682934772489716e-16 1.5682923435448741e-16 1.1337040971694256e-22
3.605625307711299 1.3697642083344601e-24 1.3109793182780445e-16 1.3109781334440438e-16 1.1848340007176318e-22
3.660119384959845 1.1645736858824165e-24 1.1314403355929868e-16 1.1314390420680868e-16 1.2935249002157557e-22
3.715437065384467 1.0192305107159817e-24 1.0051983295124932e-16 1.0051969195303175e-16 1.4099821754858575e-22
3.8285932144167436 9.452801967831468e-25 9.606589164197252e-17 9.606572494049752e-17 1.6670147501391053e-22
3.94519561050918 9.308567428719607e-25 9.74811902510732e-17 9.748099446706866e-17 1.9578400455539796e-22
4.06534921144712 9.408666458687016e-25 1.0153022839366934e-16 1.0152999987187064e-16 2.2852179868674753e-22
4.189162171576248 9.650156721834379e-25 1.073077213177143e-16 1.0730745600603104e-16 2.653116832506114e-22
4.316745939156006 9.994633613136933e-25 1.1452302222884201e-16 1.1452271580021418e-16 3.0642862783526336e-22
4.448215356677963 1.0429145223571805e-24 1.231413620906414e-16 1.2314101028096973e-16 3.518096716946602e-22
4.58368876423945 1.0955145140002808e-24 1.3329157196674307e-16 1.3329116999468483e-16 4.0197205826522282e-22
4.723288106065518 1.1584734734898655e-24 1.4524458964416063e-16 1.4524413192366366e-16 4.577204969544787e-22
4.867139040275056 1.2342237905256594e-24 1.5945461728588201e-16 1.594540987632722e-16 5.185226097822898e-22
4.940699165968905 1.2799614337016542e-24 1.6786290250582276e-16 1.6786235134546164e-16 5.511603611967935e-22
5.015371051989984 1.3273139859516058e-24 1.767039153518675e-16 1.7670333003039578e-16 5.853214717237684e-22
5.091171501069577 1.3851602590567052e-24 1.8719195624376727e-16 1.8719133458554204e-16 6.21658225186556e-22
5.129500256944802 1.4148436618046356e-24 1.9264287123791713e-16 1.926422307914187e-16 6.404464984856399e-22
5.168117569889187 1.4457918964548273e-24 1.9833876477343354e-16 1.983381049979889e-16 6.597754445495008e-22
5.20702561229733 1.4838249043616567e-24 2.050887333747785e-16 2.0508805279590062e-16 6.805788779371574e-22
5.246226572918644 1.5228261798426365e-24 2.120639323449965e-16 2.1206323045503642e-16 7.018899600761202e-22
5.265937586045735 1.5426995825889878e-24 2.1563859943425516e-16 2.1563788669540936e-16 7.12738845842735e-22
5.285722656980489 1.5628268190200899e-24 2.1927274846359028e-16 2.1927202474534674e-16 7.237182434608562e-22
5.305582063971359 1.5832119911383286e-24 2.229674874437809e-16 2.229667526143984e-16 7.348293825482911e-22
5.3255160863122235 1.605121577424789e-24 2.269023881437668e-16 2.269016420137769e-16 7.461299898828043e-22
5.365609099470188 1.659760673408381e-24 2.3639263032350826e-16 2.363918607439224e-16 7.695795859064567e-22
5.406003951863644 1.7164813996836707e-24 2.463116159865908e-16 2.4631082237415416e-16 7.936124366571629e-22
5.446702915881641 1.7753846164916382e-24 2.566820938458326e-16 2.5668127560539146e-16 8.182404411275911e-22
5.487708281020852 1.839048585861423e-24 2.67888242416562e-16 2.678873988691495e-16 8.435474124840056e-22
5.529022354014368 1.9276688440514785e-24 2.8291124311076207e-16 2.8291037299884214e-16 8.70111919917445e-22
5.570647458961463 2.021524663385479e-24 2.9891943459068087e-16 2.9891853723485226e-16 8.973558285583918e-22
5.612585937458331 2.1209937257402847e-24 3.159888953224699e-16 3.1598797002816643e-16 9.25294303400763e-22
5.654840148729818 2.2303627403842212e-24 3.3478444181093515e-16 3.34783487771809e-16 9.540391261379168e-22
5.67608639626678 2.3049222113312055e-24 3.4727594623249797e-16 3.4727497712743846e-16 9.69105059522453e-22
5.686739436050992 2.3433565892241806e-24 3.537293881720877e-16 3.5372841145952384e-16 9.767125637509443e-22
5.6974124697621304 2.3825853237825756e-24 3.603259639303911e-16 3.603249795602297e-16 9.843701613263791e-22
5.718818669136295 2.463502487062139e-24 3.73963111304137e-16 3.739621114672816e-16 9.998368553886122e-22
5.740305295436557 2.5527193274852357e-24 3.889622828244672e-16 3.8896126722548654e-16 1.0155989807043823e-21
5.7835210386641895 2.784301536577421e-24 4.274428135822054e-16 4.2744176510750407e-16 1.0484747014912275e-21
5.827062130521658 3.0511511580301833e-24 4.719356720748505e-16 4.719345895942298e-16 1.0824806207364535e-21
5.8489554468988025 3.2384465038195648e-24 5.027875018591501e-16 5.027864010608096e-16 1.1007983405287433e-21
5.870931020387893 3.4394579180940246e-24 5.360020009832861e-16 5.360008815905544e-16 1.11939273187498e-21
5.892989160043636 3.6552900301375434e-24 5.717773100465404e-16 5.717761717784425e-16 1.1382680977721366e-21
5.915130176081913 3.90079198977406e-24 6.124724128862169e-16 6.12471255026549e-16 1.1578596680115928e-21
5.95966208400165 4.5874266646422014e-24 7.257051471431593e-16 7.257039453916127e-16 1.2017515465540711e-21
6.004529249263818 5.577366640801103e-24 8.889505285843399e-16 8.88949277445926e-16 1.2511384138035481e-21
6.027089341400364 6.2656123064167014e-24 1.0023988991579561e-15 1.002397619739867e-15 1.2794180891103529e-21
6.049734195844842 7.079010961289065e-24 1.136784940180206e-15 1.1367836307269038e-15 1.3094533019977693e-21
6.095279466722835 9.428853134932809e-24 1.525534124928686e-15 1.5255327427061602e-15 1.3822225261303068e-21
6.141167624020661 1.3045585945343339e-23 2.12659101699952e-15 2.126589541336449e-15 1.4756630715256822e-21
6.164241091010745 1.5355274641471354e-23 2.512503282227065e-15 2.512501748662616e-15 1.5335644492132884e-21
6.187401249150058 1.7986505664514958e-23 2.954095373792047e-15 2.9540937798874973e-15 1.593904548788059e-21
6.1990139391386085 1.9271270081857575e-23 3.1710448454385556e-15 3.1710432207046987e-15 1.6247338572175862e-21
6.204828454712694 1.994805093902146e-23 3.2854864517043655e-15 3.285484811303188e-15 1.6404011783878924e-21
6.210648424152782 2.0442066430657943e-23 3.3700098751643337e-15 3.3700082211847823e-15 1.6539795517942245e-21
6.233982942956859 2.2120419595855863e-23 3.660398792559803e-15 3.660397089946629e-15 1.7026131735093007e-21
6.239830258556775 2.2334935426512933e-23 3.699362671844285e-15 3.699360961612983e-15 1.7102313024143046e-21
6.245683058788269 2.2353473282378925e-23 3.705905906586878e-15 3.705904188704846e-15 1.7178820321862004e-21
6.257405133728602 2.2307217063167513e-23 3.705178202614357e-15 3.705176470822962e-15 1.7317913942090935e-21
6.269149208991335 2.1976923398592412e-23 3.6571681921298295e-15 3.657166452815088e-15 1.739314741743238e-21
6.280915325867298 2.1148855587306626e-23 3.5259751189718893e-15 3.5259733800795126e-15 1.738892377543207e-21
6.304513850009849 1.9106888455335216e-23 3.1975033224789337e-15 3.1975015916842966e-15 1.7307946370594687e-21
6.32820103803542 1.6575889559630615e-23 2.7843674312728054e-15 2.784365716507177e-15 1.7147656284663232e-21
6.3519772230701035 1.425476715672742e-23 2.4034688227680587e-15 2.40346712173596e-15 1.701032098488874e-21
6.375842739491607 1.2302080968353882e-23 2.082023421528473e-15 2.082021731662253e-15 1.6898662197554959e-21
6.399797922933955 1.0736949700421486e-23 1.823965471745259e-15 1.823963783998734e-15 1.6877465257106396e-21
6.42384311029221 9.435705735227357e-24 1.6089359181375187e-15 1.6089342305538536e-15 1.687583664928823e-21
6.447978639727206 8.48735791664552e-24 1.4526652249289558e-15 1.4526635301639e-15 1.69476505585253e-21
6.472204850670314 7.697334229157913e-24 1.322397538902638e-15 1.322395835361894e-15 1.7035407440787187e-21
6.496522083828205 7.183768200901833e-24 1.2388041815222136e-15 1.238802463081548e-15 1.718440665313101e-21
