Dust emission spectrum from A.P. Jones, M. Kohler, N. Ysard, M. Bocchio, and L. Verstraete (2017), A&A, 602A, 46J 
inside the DustPedia framework.

lambda    nu*dP/dnu     j_nu    j_nu(carb.) j_nu(sil)
 (um)   (erg s-1 H-1) (Jy cm2 sr-1 H-1)
0.9927057738263894 6.529671392260348e-23 1.7206054996536993e-15 1.7206054648331816e-15 3.482051797273801e-23
1.0001793341362166 6.639593953629109e-23 1.7627423178277095e-15 1.7627422759171726e-15 4.1910537481914417e-23
1.0077091589558085 6.749901509967057e-23 1.8055190491947714e-15 1.8055189988174316e-15 5.03773398200886e-23
1.0114953028030835 6.805193728581174e-23 1.827148292865837e-15 1.8271482376612862e-15 5.520455057845823e-23
1.0152956718711033 6.860575156167889e-23 1.848938620998576e-15 1.848938560524373e-15 6.04742033894529e-23
1.0229392996569957 6.971542742665297e-23 1.8929894398939914e-15 1.8929893673948154e-15 7.249917649960782e-23
1.0267826658714554 7.02700229009863e-23 1.915217301791263e-15 1.915217222447364e-15 7.934389973733493e-23
1.0306404723013447 7.082539439344129e-23 1.9376066995466962e-15 1.9376066127407175e-15 8.680597912073473e-23
1.03451277320114 7.138152106326416e-23 1.960158040692591e-15 1.9601579457543055e-15 9.493828510729821e-23
1.0383996230291617 7.193838255847858e-23 1.982871743014971e-15 1.9828716392170144e-15 1.0379795691983806e-22
1.0403485208654093 7.221708264245811e-23 1.9942896131165816e-15 1.9942895045969244e-15 1.0851965707210058e-22
1.0423010764483396 7.249595902885329e-23 2.0057482351123924e-15 2.0057481216656682e-15 1.1344672465111936e-22
1.0462171883269815 7.305423113877918e-23 2.028787956962717e-15 2.0287878330114627e-15 1.2395125382216914e-22
1.0471985131304309 7.31939056440839e-23 2.034573444764003e-15 2.0345733180445917e-15 1.2671941069724015e-22
1.048180758391296 7.333362216006047e-23 2.040369169791088e-15 2.040369040244386e-15 1.295467016099377e-22
1.0501480137395462 7.361318008005042e-23 2.0519913604977556e-15 2.051991225114242e-15 1.353835138168796e-22
1.0521189612883777 7.38929026322102e-23 2.06365458753755e-15 2.06365444606597e-15 1.4147157994981362e-22
1.0531058218030118 7.403263726503284e-23 2.069496361756093e-15 2.0694962171428555e-15 1.4461323748958542e-22
1.0540936079674168 7.417179734256297e-23 2.075331203157457e-15 2.075331055335155e-15 1.478223016619242e-22
1.058054026499678 7.472881040892804e-23 2.098772408892464e-15 2.098772247539202e-15 1.613532623462694e-22
1.0590464539527713 7.486815553919224e-23 2.1046582078617902e-15 2.104658042945049e-15 1.6491674152564611e-22
1.06003981227728 7.500753689270645e-23 2.110554221042109e-15 2.1105540524866734e-15 1.6855543594324415e-22
1.0620293250338977 7.528640724336124e-23 2.1223769208847538e-15 2.1223767448202215e-15 1.7606453254910908e-22
1.0660195594769086 7.584457146607929e-23 2.1461452337094536e-15 2.146145041655835e-15 1.9205361787516172e-22
1.070024785945596 7.64032872935839e-23 2.1700778570385214e-15 2.170077647612926e-15 2.0942559565567824e-22
1.0740450607676866 7.696253955066097e-23 2.194175316261438e-15 2.1941750879677754e-15 2.2829366246947673e-22
1.07808044048254 7.75223136822411e-23 2.2184381531128654e-15 2.218437904333147e-15 2.4877971806654906e-22
1.0861967418109137 7.864250498539971e-23 2.2674371992541546e-15 2.267436904113435e-15 2.951407206150287e-22
1.0902777775684922 7.920092363602114e-23 2.292117302952729e-15 2.2921169816438485e-15 3.213088801962796e-22
1.0943741465085532 7.975977807999163e-23 2.316963513233719e-15 2.3169631635509634e-15 3.496827554894721e-22
1.1026131145906286 8.087875059019235e-23 2.36715676721088e-15 2.367156353447684e-15 4.1376319463528585e-22
1.1109141095355224 8.199934200260189e-23 2.418022196468752e-15 2.418021707519114e-15 4.889496382326603e-22
1.1192775983109025 8.312059269790955e-23 2.4695389258750433e-15 2.4695383488253043e-15 5.770497400227171e-22
1.1277040513999907 8.423835181333036e-23 2.5215897746649014e-15 2.5215890945198312e-15 6.801450705143584e-22
1.1361939428280308 8.535742557489762e-23 2.574324030960534e-15 2.5743232303312524e-15 8.006292813800929e-22
1.1447477501889525 8.647778246355005e-23 2.6277483754044727e-15 2.6277474341532566e-15 9.412512155220724e-22
1.1533659546722406 8.759982013494162e-23 2.6818826775750325e-15 2.681881572410122e-15 1.1051649111979665e-21
1.1707974979042381 8.985233707775045e-23 2.7924190773183875e-15 2.7924175594692577e-15 1.5178491294684823e-21
1.1884924949847024 9.211144717534053e-23 2.9058920866791654e-15 2.9058900124744e-15 2.074204765723917e-21
1.2064549276569216 9.439256480745772e-23 3.022862001724448e-15 3.0228591812162513e-15 2.8205081961809184e-21
1.2246888378427687 9.668009799200227e-23 3.1429123864322484e-15 3.14290856987494e-15 3.816557307490579e-21
1.2431983285522175 9.897189321415028e-23 3.26604172323834e-15 3.266036583888144e-15 5.139350196372839e-21
1.2619875648066055 1.012709458915536e-22 3.392418125766571e-15 3.3924112382390353e-15 6.887527534615872e-21
1.3004222497298317 1.0587484686361998e-22 3.654656968881311e-15 3.654644772803684e-15 1.219607762657336e-20
1.3400274889804893 1.1050322628803901e-22 3.930593200380465e-15 3.930571999799047e-15 2.1200581418200963e-20
1.3808389325824078 1.1517069809727909e-22 4.2213800732962695e-15 4.221343878208453e-15 3.619508781682564e-20
1.4228933163050095 1.1991534760449637e-22 4.529148319946504e-15 4.52908759871253e-15 6.072123397326734e-20
1.466228494730424 1.2482133543478796e-22 4.858026875593124e-15 4.857926728658816e-15 1.0014693430821528e-19
1.5108834753276823 1.2987451132765362e-22 5.208639868347679e-15 5.208477413730966e-15 1.6245461671391175e-19
1.5568984535646726 1.3506666987946796e-22 5.581846799934056e-15 5.581587333553144e-15 2.5946638091190923e-19
1.6043148490894465 1.4042691830741076e-22 5.9801131526229375e-15 5.979704368224622e-15 4.0878439831493236e-19
1.6531753430134553 1.4598582621149855e-22 6.406178629604416e-15 6.405544090006888e-15 6.345395975280893e-19
1.7035239163302658 1.5177991099389009e-22 6.863283870646334e-15 6.862313190876531e-15 9.706797698024456e-19
1.755405889504358 1.5792179382424266e-22 7.35849590686839e-15 7.357031834554679e-15 1.4640723137094564e-18
1.8088679632656115 1.6440521001601812e-22 7.893904651824832e-15 7.891726585060372e-15 2.1780667644568414e-18
1.8639582606462262 1.7122053945236825e-22 8.471522664897816e-15 8.46832543791549e-15 3.197226982324041e-18
1.9207263702978936 1.7838180242512345e-22 9.094639312426116e-15 9.090006639475172e-15 4.632672950944382e-18
1.979223391128241 1.8591263581152363e-22 9.767269167253063e-15 9.760640718221828e-15 6.628449031237502e-18
2.039501978296691 1.9383104131869294e-22 1.049341606180299e-14 1.048404761696578e-14 9.368444837211175e-18
2.1016163906111602 2.0221392012905026e-22 1.1280644900800452e-14 1.1267559833465106e-14 1.3085067335347568e-17
2.1656225393682647 2.1108921801394251e-22 1.2134398321918008e-14 1.2116331371488428e-14 1.8066950429579152e-17
2.231578038680979 2.2041586002367795e-22 1.3056427237988488e-14 1.3031759608356947e-14 2.4667629631540658e-17
2.299542257339062 2.3018248318644857e-22 1.4050219164011863e-14 1.4016904574537493e-14 3.331458947437404e-17
2.369576372248914 2.403998476290258e-22 1.5120784775706252e-14 1.5076265898696714e-14 4.451887700953686e-17
2.4417434235010123 2.5108407413846735e-22 1.627378697349389e-14 1.6214904639941616e-14 5.888233355227386e-17
2.5161083711144245 2.6229774108889947e-22 1.7518355133509994e-14 1.744124799309646e-14 7.710714041353318e-17
2.5927381535095444 2.741664784253625e-22 1.8868720239018473e-14 1.8768718735473452e-14 1.0000150354502048e-16
2.6717017477616296 2.8680039241158964e-22 2.0339353704344823e-14 2.0210875412361173e-14 1.2847829198365125e-16
2.753070231689431 3.003797784922196e-22 2.195115701652484e-14 2.1787600703112417e-14 1.6355631341242476e-16
2.836916847834745 3.154383844826106e-22 2.3753662379050915e-14 2.354729723555797e-14 2.0636514349294492e-16
2.9233170693905177 3.3319582462081204e-22 2.5855021662930536e-14 2.55969334013942e-14 2.580882615363332e-16
2.967498994190263 3.443028402302474e-22 2.712068276883672e-14 2.6833545392040365e-14 2.871373767963555e-16
3.0123486681368425 3.562591400164637e-22 2.848660454420994e-14 2.816756779722154e-14 3.190367469884021e-16
3.0578761833420214 3.7641256215535572e-22 3.0552970329063067e-14 3.019885006907133e-14 3.541202599917451e-16
3.1040917844459814 4.0025023580417833e-22 3.2978855809764633e-14 3.2586570055020696e-14 3.9228575474395146e-16
3.127460860933648 4.2266168832487637e-22 3.508764334639413e-14 3.4674928040305695e-14 4.1271530608843664e-16
3.1510058709225794 4.512909769581386e-22 3.774637896331066e-14 3.7312372533304054e-14 4.340064300066063e-16
3.162844764501044 4.772511050731819e-22 4.0067685160839253e-14 3.9622661988352645e-14 4.450231724866134e-16
3.1747281389236908 5.067242212194337e-22 4.270194317513491e-14 4.2245680292766267e-14 4.562628823686276e-16
3.1986289994194426 5.868128476281415e-22 4.98233490798119e-14 4.93438682712359e-14 4.794808085759996e-16
3.2227097969389145 7.725775896116389e-22 6.608954145627936e-14 6.558546190652887e-14 5.040795497504809e-16
3.2348180950136065 9.47073061886938e-22 8.132101316032519e-14 8.080380729063442e-14 5.172058696907531e-16
3.240889293275058 1.0774336208029724e-21 9.268813687405256e-14 9.216400719492869e-14 5.241296791238076e-16
3.2469718861334385 1.2284891114319268e-21 1.0588130194745513e-13 1.0535000814940322e-13 5.312937980518585e-16
3.2714166318528037 2.022861109703592e-21 1.7565938396099053e-13 1.750984874291886e-13 5.60896531801981e-16
3.2744851364798273 2.0725538099770526e-21 1.8014336523554457e-13 1.7957898083471827e-13 5.643844008262969e-16
3.2775565192852394 2.1235885846776223e-21 1.8475236425847508e-13 1.8418447462567817e-13 5.678896327969068e-16
3.283707930232385 2.0747662669335448e-21 1.8084359555525054e-13 1.8026943888727403e-13 5.74156667976482e-16
3.2898708863219004 1.919303095175143e-21 1.676068834711642e-13 1.6702702478435236e-13 5.798586868117972e-16
3.29141343181113 1.8825705671432104e-21 1.6447622688202503e-13 1.6389493642364495e-13 5.812904583800482e-16
3.292184975758714 1.8645109588781628e-21 1.6293658212824054e-13 1.6235457484294166e-13 5.820072852989114e-16
3.295272960557952 1.7516891825029824e-21 1.53220853011864e-13 1.5263605765727425e-13 5.847953545898114e-16
3.3076538914384823 1.3582121685431755e-21 1.1924964899690287e-13 1.1865365610091955e-13 5.959928959833185e-16
3.310756385682612 1.2773922838398145e-21 1.1225894252795558e-13 1.1166012734410756e-13 5.988151838479975e-16
3.313861789986515 1.2025352666778873e-21 1.0577953323523789e-13 1.0517788658682011e-13 6.016466484177503e-16
3.3200813396944477 1.097953653303289e-21 9.676140480135556e-14 9.615366735170815e-14 6.077374496473909e-16
3.345076488085796 9.14956397300349e-22 8.12411165990141e-14 8.060623461244729e-14 6.348819865667906e-16
3.3482140837626964 9.223679076614327e-22 8.197602126742921e-14 8.1337462079529e-14 6.385591879002174e-16
3.3513546224236106 9.298485537219964e-22 8.271838334523482e-14 8.207613046342596e-14 6.422528818088458e-16
3.3576445397418455 9.824268917445673e-22 8.755972564168064e-14 8.690974990233602e-14 6.499757393446241e-16
3.3702598118196083 1.1732183813233295e-21 1.0495706397312023e-13 1.0429088937852365e-13 6.661745945965836e-16
3.382922481734668 1.2186761521866339e-21 1.0943337464147066e-13 1.0875145522287553e-13 6.819194185951548e-16
3.389271646505754 1.24212496278693e-21 1.1174834536424858e-13 1.1105844551598743e-13 6.898998482611519e-16
3.395632727569191 1.2678537747649554e-21 1.142771265684436e-13 1.135790023901413e-13 6.981241783022591e-16
3.421196662673239 1.3924854766303045e-21 1.2645562343238366e-13 1.2572345461204728e-13 7.321688203363705e-16
3.4276182099114902 1.369886849655841e-21 1.2463688064419916e-13 1.238971143883032e-13 7.397662558959785e-16
3.4340518103208963 1.2672828208136346e-21 1.1551804326585607e-13 1.1477109125735908e-13 7.469520084969698e-16
3.4469541582030403 1.1202249636785092e-21 1.0249677179392482e-13 1.0173602785598197e-13 7.607439379428639e-16
3.472904465399547 1.0797570124771566e-21 9.953786080341312e-14 9.874534614164545e-14 7.925146617676724e-16
3.4990501388274233 1.0182240509837739e-21 9.457208192814403e-14 9.374705663701644e-14 8.250252911275704e-16
3.5253949054701885 7.987041633056942e-22 7.47417313574225e-14 7.388512325150027e-14 8.56608105922231e-16
3.5519380250092896 5.899566943394806e-22 5.562306883345151e-14 5.4734718209199046e-14 8.883506242524525e-16
3.578680990867387 5.08652855509467e-22 4.831855149205729e-14 4.7395410508809016e-14 9.231409832482749e-16
3.605625307711299 4.774943093849097e-22 4.5700213247667624e-14 4.474043277800607e-14 9.597804696615648e-16
3.660119384959845 4.581677924115824e-22 4.4513243523209655e-14 4.347649371469967e-14 1.0367498085099733e-15
3.715437065384467 4.453875282755274e-22 4.3925568818947484e-14 4.280769051106925e-14 1.117878307878235e-15
3.8285932144167436 4.458972720245043e-22 4.531515540421705e-14 4.4022960535559166e-14 1.2921948686578864e-15
3.94519561050918 4.529422211606941e-22 4.7433020356584124e-14 4.5950820086144886e-14 1.4822002704392455e-15
4.06534921144712 4.62266687451971e-22 4.988384120307443e-14 4.819619773769799e-14 1.6876434653764564e-15
4.189162171576248 4.726108376117572e-22 5.2553335159238415e-14 5.0644469182361685e-14 1.9088659768767444e-15
4.316745939156006 4.834466519436538e-22 5.539549903483166e-14 5.3250506621458346e-14 2.1449924133733173e-15
4.448215356677963 4.945402106995184e-22 5.839247018680866e-14 5.599978481551961e-14 2.3926853712890645e-15
4.58368876423945 5.058520877850166e-22 6.154717176435921e-14 5.889499308234658e-14 2.6521786820126333e-15
4.723288106065518 5.174754635546759e-22 6.48789230611401e-14 6.195390142297361e-14 2.925021638166453e-15
4.867139040275056 5.295595481403943e-22 6.841604879682931e-14 6.521216901614689e-14 3.2038797806824415e-15
4.940699165968905 5.361314603052047e-22 7.031194900243709e-14 6.696555911267158e-14 3.346389889765504e-15
5.015371051989984 5.4256103730688305e-22 7.223058042348724e-14 6.874008081001077e-14 3.49049961347646e-15
5.091171501069577 5.499692225238682e-22 7.43233961305066e-14 7.068406929854618e-14 3.639326831960418e-15
5.129500256944802 5.53613084617938e-22 7.537908042761967e-14 7.166489588791309e-14 3.714184539706581e-15
5.168117569889187 5.573166322381526e-22 7.645463548166925e-14 7.266456794675794e-14 3.790067534911306e-15
5.20702561229733 5.618453040088925e-22 7.76561583600879e-14 7.378320589468824e-14 3.872952465399671e-15
5.246226572918644 5.663644690431254e-22 7.887011533921915e-14 7.491376770271544e-14 3.956347636503702e-15
5.265937586045735 5.68620910467267e-22 7.948184995060084e-14 7.548362432262894e-14 3.998225627971918e-15
5.285722656980489 5.708755000110509e-22 8.009680816485933e-14 7.605659019097692e-14 4.0402179738824014e-15
5.305582063971359 5.731284296134145e-22 8.071503162480636e-14 7.663271143855499e-14 4.082320186251402e-15
5.3255160863122235 5.755401739493483e-22 8.135922024754245e-14 7.723435257792249e-14 4.124867669619937e-15
5.365609099470188 5.816050025860783e-22 8.283551874277082e-14 7.862261788195222e-14 4.212900860818609e-15
5.406003951863644 5.877400140734368e-22 8.433950561485191e-14 8.003805460053246e-14 4.30145101431946e-15
5.446702915881641 5.93951679512481e-22 8.587252549353751e-14 8.148204318495042e-14 4.390482308587129e-15
5.487708281020852 6.005535844919697e-22 8.748069271435919e-14 8.3000346819964e-14 4.480345894395218e-15
5.529022354014368 6.099827808296457e-22 8.952314985699174e-14 8.494912645546359e-14 4.574023401528167e-15
5.570647458961463 6.1972736985214745e-22 9.163803853193412e-14 8.696980331337253e-14 4.668235218561585e-15
5.612585937458331 6.298149527272548e-22 9.383079674146483e-14 8.906785185762943e-14 4.762944883835409e-15
5.654840148729818 6.407394425536193e-22 9.617699970391811e-14 9.131840668691118e-14 4.858593017006938e-15
5.67608639626678 6.484132069860699e-22 9.769453775868837e-14 9.278588025289558e-14 4.908657505792789e-15
5.686739436050992 6.523338980647427e-22 9.846972147023902e-14 9.353597585088568e-14 4.933745619353365e-15
5.6974124697621304 6.563123586928217e-22 9.925620750067215e-14 9.429733728693367e-14 4.9588702137385215e-15
5.718818669136295 6.6444849879416695e-22 1.0086420826258422e-13 9.585498172888584e-14 5.0092265336984026e-15
5.740305295436557 6.734142822516832e-22 1.0260930517937241e-13 9.754919858879724e-14 5.060106590575204e-15
5.7835210386641895 6.969986924711522e-22 1.0700244864254608e-13 1.0183717949294961e-13 5.165269149596468e-15
5.827062130521658 7.237132520623814e-22 1.1194007845289353e-13 1.0666806071261458e-13 5.272017740278954e-15
5.8489554468988025 7.428908850324252e-22 1.1533809553402994e-13 1.1000835407706638e-13 5.3297414569635594e-15
5.870931020387893 7.632075611718474e-22 1.1893757379662198e-13 1.1354986862829312e-13 5.387705168328838e-15
5.892989160043636 7.847532813873328e-22 1.227547244082738e-13 1.1730881991709329e-13 5.4459044911805015e-15
5.915130176081913 8.092025798813422e-22 1.270547770588465e-13 1.2154851863965022e-13 5.506258419196264e-15
5.95966208400165 8.783376293357947e-22 1.3894808247320982e-13 1.3330379451252178e-13 5.644287960688045e-15
6.004529249263818 9.777317560972528e-22 1.5583611718083267e-13 1.5003622115007984e-13 5.7998960307528314e-15
6.027089341400364 1.0469852832644447e-21 1.6750109072405505e-13 1.6161103097063676e-13 5.890059753418317e-15
6.049734195844842 1.1281822224099022e-21 1.811694553416927e-13 1.7518383372866307e-13 5.985621613029596e-15
6.095279466722835 1.362801026324423e-21 2.2049335602049963e-13 2.142719698831871e-13 6.221386137312465e-15
6.141167624020661 1.721306467369656e-21 2.80594132478819e-13 2.740656733231076e-13 6.5284591557114245e-15
6.164241091010745 1.9499502278792967e-21 3.190601576408338e-13 3.123384479217308e-13 6.721709719103051e-15
6.187401249150058 2.2074411141555756e-21 3.6254910791874474e-13 3.556290444873566e-13 6.920063431388069e-15
6.1990139391386085 2.3326027966472253e-21 3.838246282338836e-13 3.768036528059617e-13 7.020975427921823e-15
6.204828454712694 2.3982824815167563e-21 3.9500222976519794e-13 3.8793029379413184e-13 7.071935971066087e-15
6.210648424152782 2.445823665777569e-21 4.0321021040316367e-13 3.9609497394013155e-13 7.115236463032181e-15
6.233982942956859 2.605323453820628e-21 4.3111853205439987e-13 4.2385282901071664e-13 7.265703043683295e-15
6.239830258556775 2.624557287786009e-21 4.347086335887516e-13 4.274224266779132e-13 7.286206910838328e-15
6.245683058788269 2.6243898591282282e-21 4.350886216772736e-13 4.277818814443891e-13 7.306740232884515e-15
6.257405133728602 2.6157883000957648e-21 4.3447650886812497e-13 4.2713404812735885e-13 7.342460740766128e-15
6.269149208991335 2.579130557470332e-21 4.2919175114086696e-13 4.2183722610868754e-13 7.354525032179474e-15
6.280915325867298 2.4934601335895518e-21 4.1571414372236283e-13 4.0837679459776525e-13 7.33734912459754e-15
6.304513850009849 2.2848033286624964e-21 3.8235771625961943e-13 3.7508115865549697e-13 7.27655760412226e-15
6.32820103803542 2.0300604400752463e-21 3.410033683276313e-13 3.338157319569294e-13 7.187636370701862e-15
6.3519772230701035 1.797499995653348e-21 3.030730106622361e-13 2.9596533020942373e-13 7.10768045281234e-15
6.375842739491607 1.6013640340073645e-21 2.710173533870649e-13 2.639804261990937e-13 7.036927187971258e-15
6.399797922933955 1.4453547120100144e-21 2.4553315072595435e-13 2.3853364411556923e-13 6.9995066103851154e-15
6.42384311029221 1.315102024931195e-21 2.2424553534216374e-13 2.1727680187807453e-13 6.9687334640891845e-15
6.447978639727206 1.2203070000508488e-21 2.088632952823407e-13 2.0189936240750924e-13 6.963932874831422e-15
6.472204850670314 1.1409526124634216e-21 1.9601499451729352e-13 1.8905071699451236e-13 6.964277522781211e-15
6.496522083828205 1.0890041547566534e-21 1.8779321142882194e-13 1.808075635513918e-13 6.985647877430198e-15
6.520930681187647 1.0449474324151134e-21 1.808728825044612e-13 1.7386270109468544e-13 7.010181409775786e-15
6.57002334288761 9.97912797477819e-22 1.7403193051681142e-13 1.669436420496085e-13 7.08828846720293e-15
