Dust emission spectrum from A.P. Jones, M. Kohler, N. Ysard, M. Bocchio, and L. Verstraete (2017), A&A, 602A, 46J 
inside the DustPedia framework.

lambda    nu*dP/dnu     j_nu    j_nu(carb.) j_nu(sil)
 (um)   (erg s-1 H-1) (Jy cm2 sr-1 H-1)
0.9927057738263894 2.0942775362345782e-25 5.518540260567436e-18 5.518540258482848e-18 2.0845874864567696e-27
1.0001793341362166 2.1288565925104623e-25 5.651890206559332e-18 5.6518902040489005e-18 2.5104311720306215e-27
1.0077091589558085 2.1633913470638846e-25 5.786816714613134e-18 5.7868167115938e-18 3.0193354896572675e-27
1.0114953028030835 2.1806379442944155e-25 5.854864763867218e-18 5.854864760557581e-18 3.309637615130896e-27
1.0152956718711033 2.1978684797438235e-25 5.923299174735163e-18 5.923299171108496e-18 3.62666678544072e-27
1.0229392996569957 2.2322578546056464e-25 6.0612703699402345e-18 6.061270365589711e-18 4.350524473505201e-27
1.0267826658714554 2.2493750300287553e-25 6.130696700922588e-18 6.130696696159805e-18 4.7627837138571934e-27
1.0306404723013447 2.266468720829429e-25 6.200494914856138e-18 6.200494909643736e-18 5.212403132151741e-27
1.03451277320114 2.2835373143836366e-25 6.27066215644742e-18 6.270662150744818e-18 5.7026010073102844e-27
1.0383996230291617 2.3005792074606303e-25 6.341195535405902e-18 6.341195529169045e-18 6.2368573134363645e-27
1.0403485208654093 2.309089642957297e-25 6.376598613798656e-18 6.376598607276987e-18 6.521671300592911e-27
1.0423010764483396 2.3175928065403987e-25 6.412092127200471e-18 6.412092120381537e-18 6.818933637789605e-27
1.0462171883269815 2.3345765281244077e-25 6.483348973817945e-18 6.483348966365052e-18 7.452894502183872e-27
1.0471985131304309 2.338817605574327e-25 6.501219125519739e-18 6.5012191178997394e-18 7.619998663331402e-27
1.048180758391296 2.343056692827416e-25 6.519111559337961e-18 6.519111551547272e-18 7.790690216102731e-27
1.0501480137395462 2.35152879903962e-25 6.554963084523298e-18 6.5549630763801696e-18 8.143130177957854e-27
1.0521189612883777 2.3599926517765257e-25 6.590903170544272e-18 6.590903162033455e-18 8.5108180734846e-27
1.0531058218030118 2.364214944016447e-25 6.6088881955342184e-18 6.60888818683363e-18 8.700587468861173e-27
1.0540936079674168 2.3684138751178485e-25 6.626835796255623e-18 6.626835787361175e-18 8.894448024852012e-27
1.058054026499678 2.3851868789852316e-25 6.698841295978209e-18 6.698841286266134e-18 9.712074989835211e-27
1.0590464539527713 2.389374330249899e-25 6.716896201860102e-18 6.716896191932641e-18 9.927459470523238e-27
1.06003981227728 2.3935594139665133e-25 6.7349724224224205e-18 6.734972412275006e-18 1.0147413481514885e-26
1.0620293250338977 2.401922383790567e-25 6.771188611292264e-18 6.771188600690863e-18 1.0601400681297281e-26
1.0660195594769086 2.4186188708660516e-25 6.8438745997667175e-18 6.8438745881983304e-18 1.156838609701097e-26
1.070024785945596 2.4352748335845967e-25 6.916896090947253e-18 6.916896078327796e-18 1.2619458712517276e-26
1.0740450607676866 2.4518887776188507e-25 6.99024988712643e-18 6.990249873364885e-18 1.3761546530806143e-26
1.07808044048254 2.468459221193431e-25 7.063932764113634e-18 7.06393274911152e-18 1.5002114422481504e-26
1.0861967418109137 2.5014345511433815e-25 7.212188566240513e-18 7.21218854842904e-18 1.7811471713837652e-26
1.0902777775684922 2.5177701547371e-25 7.286562165679306e-18 7.286562146281066e-18 1.939824301542672e-26
1.0943741465085532 2.534055301950295e-25 7.361246252775313e-18 7.361246231655775e-18 2.1119538787727613e-26
1.1026131145906286 2.566468612871557e-25 7.511532387012332e-18 7.511532362002677e-18 2.5009654351762063e-26
1.1109141095355224 2.5986633979794752e-25 7.663019756019382e-18 7.663019726441203e-18 2.9578177403539324e-26
1.1192775983109025 2.6305990319519034e-25 7.815592378394833e-18 7.81559234345848e-18 3.4936354001459394e-26
1.1277040513999907 2.662128141418715e-25 7.968811064970098e-18 7.968811023757658e-18 4.121244231911775e-26
1.1361939428280308 2.693402640669635e-25 8.123125898220039e-18 8.123125849665938e-18 4.8554100545288673e-26
1.1447477501889525 2.724412486755327e-25 8.278508400721867e-18 8.27850834359076e-18 5.713110588099674e-26
1.1533659546722406 2.755164601477958e-25 8.434981038989982e-18 8.434980971851483e-18 6.713849981304048e-26
1.1707974979042381 2.8159950044737864e-25 8.751512122964079e-18 8.751512030591723e-18 9.237235598257168e-26
1.1884924949847024 2.875668750065779e-25 9.072035366917815e-18 9.07203524045834e-18 1.2645947516981902e-25
1.2064549276569216 2.934651039565488e-25 9.398033768781315e-18 9.398033596503233e-18 1.722780812265774e-25
1.2246888378427687 2.9923070692192587e-25 9.727502502775665e-18 9.72750226921864e-18 2.335570266427724e-25
1.2431983285522175 3.0485055554403413e-25 1.0059973608920025e-17 1.005997329380955e-17 3.151104757565294e-25
1.2619875648066055 3.1032299826638595e-25 1.0395334564056034e-17 1.0395334140934006e-17 4.231220292701713e-25
1.3004222497298317 3.2073714614308916e-25 1.1071413853763245e-17 1.1071413101519563e-17 7.5224368278321985e-25
1.3400274889804893 3.304359217640405e-25 1.1753586124822254e-17 1.1753584811795362e-17 1.3130268915237257e-24
1.3808389325824078 3.39387260228164e-25 1.2439645162588751e-17 1.2439642911399413e-17 2.2511893373584642e-24
1.4228933163050095 3.4763710434747556e-25 1.313009584310623e-17 1.3130092050069692e-17 3.7930365346782744e-24
1.466228494730424 3.553818074534336e-25 1.3831404428513072e-17 1.3831398144823086e-17 6.283689979748385e-24
1.5108834753276823 3.6248048863778213e-25 1.4537343049966807e-17 1.4537332810297125e-17 1.0239669678980051e-23
1.5568984535646726 3.6881994488122406e-25 1.5242075864639837e-17 1.5242059434032675e-17 1.6430607159757773e-23
1.6043148490894465 3.7441540837729414e-25 1.5944567716569938e-17 1.5944541707956434e-17 2.6008613510002762e-23
1.6531753430134553 3.792872295382189e-25 1.664395652239163e-17 1.66439159552114e-17 4.056718023073797e-23
1.7035239163302658 3.8349200804190706e-25 1.734099391731589e-17 1.7340931553847444e-17 6.236346844509037e-23
1.755405889504358 3.8733635466837164e-25 1.8048256110747128e-17 1.8048161573935192e-17 9.453681192996947e-23
1.8088679632656115 3.907502883399763e-25 1.8761847745143255e-17 1.8761706380438933e-17 1.4136470432674295e-22
1.8639582606462262 3.9368700376050373e-25 1.9478553133285837e-17 1.9478344529090222e-17 2.0860419561332458e-22
1.9207263702978936 3.961867696871841e-25 2.0199234011959404e-17 2.019893012564019e-17 3.038863192179e-22
1.979223391128241 3.9833816983793063e-25 2.0927443190802598e-17 2.0927005997842305e-17 4.371929603025819e-22
2.039501978296691 4.0024558930712653e-25 2.1668064448953482e-17 2.166744305873686e-17 6.213902166222316e-22
2.1016163906111602 4.021977849081999e-25 2.2436884604889898e-17 2.2436011704539984e-17 8.729003499125815e-22
2.1656225393682647 4.043622324409419e-25 2.324463769842709e-17 2.3243425359770187e-17 1.2123386568998892e-21
2.231578038680979 4.0675000083260076e-25 2.409400933921957e-17 2.4092344094681846e-17 1.6652445377233615e-21
2.299542257339062 4.0945986393222293e-25 2.4993217326855657e-17 2.4990954452854188e-17 2.2628740014704515e-21
2.369576372248914 4.1270909419567567e-25 2.595877430812488e-17 2.5955731236022496e-17 3.0430721023774006e-21
2.4417434235010123 4.167537238612461e-25 2.7011515349189383e-17 2.700746432143974e-17 4.051027749637922e-21
2.5161083711144245 4.220333086431268e-25 2.818678250254064e-17 2.818144226705923e-17 5.340235481413429e-21
2.5927381535095444 4.292671903465308e-25 2.954308115622969e-17 2.953610790661214e-17 6.973249617541063e-21
2.6717017477616296 4.393080625619577e-25 3.1154915774295945e-17 3.11458937883982e-17 9.021985897751276e-21
2.753070231689431 4.534390631752356e-25 3.313642523856957e-17 3.312485697039413e-17 1.1568268175433185e-20
2.836916847834745 4.745781973814238e-25 3.573747149240291e-17 3.572276683221112e-17 1.4704660191793892e-20
2.9233170693905177 5.091541186941048e-25 3.9508870747668204e-17 3.949033940514774e-17 1.8531342520469545e-20
2.967498994190263 5.378299291971929e-25 4.236478236307491e-17 4.2344079998701516e-17 2.070236437338796e-20
3.0123486681368425 5.711537507212044e-25 4.5669652236810893e-17 4.564655531776959e-17 2.3096919041309997e-20
3.0578761833420214 6.444610012278659e-25 5.2310150692118976e-17 5.2284409325292134e-17 2.5741366826833716e-20
3.1040917844459814 7.385657922676154e-25 6.08545669443026e-17 6.082593310799445e-17 2.863383630814446e-20
3.127460860933648 8.375540689703845e-25 6.953031057020072e-17 6.950012218394529e-17 3.018838625543854e-20
3.1510058709225794 9.692225175492155e-25 8.106663397921264e-17 8.10348208957543e-17 3.181308345831679e-20
3.162844764501044 1.0916210873790642e-24 9.164720537908536e-17 9.161454985324427e-17 3.265552584110327e-20
3.1747281389236908 1.2338450852313138e-24 1.0397683890001189e-16 1.039433226386456e-16 3.3516261366316946e-20
3.1986289994194426 1.6301855373062597e-24 1.3841091485703084e-16 1.3837561675626543e-16 3.52981007654235e-20
3.2227097969389145 2.5638081678360327e-24 2.1931895057857176e-16 2.1928175985610912e-16 3.7190722462564364e-20
3.2348180950136065 3.448866433887922e-24 2.9613904559760936e-16 2.961008436921997e-16 3.820190540973325e-20
3.240889293275058 4.110533370311089e-24 3.536159186946579e-16 3.5357718338657625e-16 3.8735308081644394e-20
3.2469718861334385 4.876023119986231e-24 4.202558015905071e-16 4.20216514336213e-16 3.928725429426089e-20
3.2714166318528037 8.957529714876283e-24 7.778458659269962e-16 7.778042940318102e-16 4.157189518600163e-20
3.2744851364798273 9.212714932302124e-24 8.007557935873481e-16 8.007139514153124e-16 4.1842172035972654e-20
3.2775565192852394 9.47521662346414e-24 8.243445485048864e-16 8.243024346068503e-16 4.211389803583219e-20
3.283707930232385 9.222958547001308e-24 8.039040406039962e-16 8.038614386838237e-16 4.260192017243628e-20
3.2898708863219004 8.422645585633019e-24 7.355239413404306e-16 7.354808933638354e-16 4.3047976595178605e-20
3.29141343181113 8.233900318564545e-24 7.193785351564872e-16 7.193353751209046e-16 4.316003558251982e-20
3.292184975758714 8.141155857312368e-24 7.114423777706868e-16 7.113991616237244e-16 4.3216146962441055e-20
3.295272960557952 7.555902425518645e-24 6.609173741988374e-16 6.608739394260252e-16 4.3434772811999276e-20
3.3076538914384823 5.527973304796691e-24 4.85350441947759e-16 4.853061280603948e-16 4.431388736419182e-20
3.310756385682612 5.1151189036746574e-24 4.495234911746811e-16 4.49478955489682e-16 4.4535684999077614e-20
3.313861789986515 4.734149806677597e-24 4.164336553716943e-16 4.163888970787225e-16 4.475829297167779e-20
3.3200813396944477 4.1999606489629834e-24 3.7013774787432904e-16 3.700925116559388e-16 4.5236218390204433e-20
3.345076488085796 3.247700636642528e-24 2.883709287990867e-16 2.883235649345324e-16 4.736386455438022e-20
3.3482140837626964 3.283535566728697e-24 2.9182626500196366e-16 2.9177861299255167e-16 4.765200941190961e-20
3.3513546224236106 3.3197647105398e-24 2.953228983829924e-16 2.9527495681935785e-16 4.794156363463522e-20
3.3576445397418455 3.5840499754507644e-24 3.1943184289191316e-16 3.1938329627212935e-16 4.8546619783924105e-20
3.3702598118196083 4.558259772867424e-24 4.077856008762086e-16 4.0773578487729083e-16 4.9815998917735295e-20
3.382922481734668 4.780580496177459e-24 4.292814424104502e-16 4.2923038875725506e-16 5.105365319511434e-20
3.389271646505754 4.895742684993136e-24 4.40447749435459e-16 4.4039606769092143e-16 5.168174453759074e-20
3.395632727569191 5.019906818512605e-24 4.52465842890524e-16 4.524135138241057e-16 5.23290664182278e-20
3.421196662673239 5.616248551105938e-24 5.100277337182438e-16 5.099727206641236e-16 5.501305412021012e-20
3.4276182099114902 5.4966285492835e-24 5.001016227104156e-16 5.000460064857231e-16 5.561622469260294e-20
3.4340518103208963 4.9715714251833914e-24 4.531791905968602e-16 4.531230018422685e-16 5.618875459165117e-20
3.4469541582030403 4.2236681096514566e-24 3.8645125792114007e-16 3.8639396610731392e-16 5.729181382610077e-20
3.472904465399547 4.014439500826168e-24 3.700728178835626e-16 3.7001299087883747e-16 5.982700472508121e-20
3.4990501388274233 3.694316188522295e-24 3.431260270387846e-16 3.430635959977665e-16 6.243104101817013e-20
3.5253949054701885 2.5541471030160694e-24 2.3901387446242833e-16 2.389488982251528e-16 6.497623727550107e-20
3.5519380250092896 1.4820506457759814e-24 1.3973263779463476e-16 1.3966509081743037e-16 6.75469772043783e-20
3.578680990867387 1.0572976718771714e-24 1.004360664600232e-16 1.0036569958832225e-16 7.036687170095194e-20
3.605625307711299 8.858882995150315e-25 8.478694595041814e-17 8.471360124958006e-17 7.334470083810114e-20
3.660119384959845 7.61651837205563e-25 7.399820386976242e-17 7.391856787561642e-17 7.96359941460078e-20
3.715437065384467 6.739364257637655e-25 6.646580555162881e-17 6.637948567090892e-17 8.63198807198916e-20
3.8285932144167436 6.312117152914397e-25 6.414808693833429e-17 6.404721933618513e-17 1.0086760214917115e-19
3.94519561050918 6.249088845243198e-25 6.544171520308822e-17 6.53247043935553e-17 1.1701080953292974e-19
4.06534921144712 6.335511512710941e-25 6.836738593090998e-17 6.823258131681788e-17 1.3480461409211152e-19
4.189162171576248 6.508381245570988e-25 7.237183613287604e-17 7.221747797686741e-17 1.5435815600860983e-19
4.316745939156006 6.744115205275122e-25 7.727711544647418e-17 7.710142634020119e-17 1.7568910627298168e-19
4.448215356677963 7.034709020245677e-25 8.306180728085531e-17 8.286319812602005e-17 1.9860915483526981e-19
4.58368876423945 7.380988840772206e-25 8.980470753080903e-17 8.958147173323435e-17 2.232357975746757e-19
4.723288106065518 7.790322418312127e-25 9.76718249261966e-17 9.742201280938048e-17 2.498121168161499e-19
4.867139040275056 8.277490305993606e-25 1.069404154223657e-16 1.066625953987291e-16 2.778200236366262e-19
4.940699165968905 8.56909679252584e-25 1.123810000498818e-16 1.12088531470845e-16 2.924685790368413e-19
5.015371051989984 8.870324157101491e-25 1.1808969283754958e-16 1.177821694118328e-16 3.07523425716765e-19
5.091171501069577 9.23586230821706e-25 1.2481437593730809e-16 1.244910918307e-16 3.232841066080892e-19
5.129500256944802 9.423143074763941e-25 1.2830402305317604e-16 1.2797270782777448e-16 3.3131522540154367e-19
5.168117569889187 9.618107531767497e-25 1.3194454692867523e-16 1.3160503618429954e-16 3.3951074437570274e-19
5.20702561229733 9.856664691364135e-25 1.362351360264721e-16 1.3588675617448606e-16 3.4837985198602946e-19
5.246226572918644 1.0101019071838946e-24 1.4066358021815243e-16 1.4030620180033666e-16 3.5737841781582005e-19
5.265937586045735 1.0225427838410963e-24 1.4293106464646318e-16 1.425691386596832e-16 3.6192598678000307e-19
5.285722656980489 1.035135607595498e-24 1.452349210722596e-16 1.4486841547210805e-16 3.6650560015153166e-19
5.305582063971359 1.0478828260389277e-24 1.47575815598389e-16 1.4720469845460038e-16 3.7111714378860954e-19
5.3255160863122235 1.0615661244019215e-24 1.500645759094256e-16 1.4968878579531546e-16 3.757901141101165e-19
5.365609099470188 1.0955910960370106e-24 1.5604036479509984e-16 1.55654902497116e-16 3.854622979838383e-19
5.406003951863644 1.130869864580344e-24 1.6227754280742848e-16 1.618822670054742e-16 3.952758019542613e-19
5.446702915881641 1.1674631104027875e-24 1.68789834541955e-16 1.68384604616342e-16 4.0522992561297597e-19
5.487708281020852 1.2069608676351565e-24 1.7581407472435016e-16 1.7539871579951687e-16 4.1535892483328773e-19
5.529022354014368 1.2618151877338028e-24 1.8518829333129821e-16 1.847623570969958e-16 4.2593623430239455e-19
5.570647458961463 1.3198362822617778e-24 1.951619598769773e-16 1.9472529023386254e-16 4.36669643114698e-19
5.612585937458331 1.381252314156344e-24 2.0578108629695814e-16 2.0533352763658676e-16 4.475586603713731e-19
5.654840148729818 1.4487021451917098e-24 2.1745473516328573e-16 2.1699608806337575e-16 4.586470999099842e-19
5.67608639626678 1.4946496746374243e-24 2.2519453259380344e-16 2.247300896550203e-16 4.6444293878315125e-19
5.686739436050992 1.5183233849466944e-24 2.291907277254709e-16 2.287233703946954e-16 4.673573307755728e-19
5.6974124697621304 1.5424786109561717e-24 2.332739511097201e-16 2.3280366840871085e-16 4.702827010092959e-19
5.718818669136295 1.5922799841700264e-24 2.417103210062663e-16 2.412341546415053e-16 4.761663647610398e-19
5.740305295436557 1.6471650395078399e-24 2.5098140130696713e-16 2.5049926964262886e-16 4.82131664338276e-19
5.7835210386641895 1.78956522845637e-24 2.747320239174114e-16 2.7423753325927334e-16 4.944906581379163e-19
5.827062130521658 1.9534627086049e-24 3.021511188759962e-16 3.016439841543989e-16 5.071347215972002e-19
5.8489554468988025 2.0685129324465042e-24 3.2114856572170485e-16 3.206346337273401e-16 5.13931994364788e-19
5.870931020387893 2.1918989219866505e-24 3.415835390679826e-16 3.410627500757809e-16 5.207889922017153e-19
5.892989160043636 2.3242905150730698e-24 3.6357623267042366e-16 3.630485268124147e-16 5.277058580088743e-19
5.915130176081913 2.47483164039246e-24 3.8857906554666603e-16 3.880441967188385e-16 5.348688278276298e-19
5.95966208400165 2.89588218709072e-24 4.581123061627921e-16 4.575613065863948e-16 5.509995763972421e-19
6.004529249263818 3.5026364471917776e-24 5.582689325804612e-16 5.576998758698869e-16 5.690567105744186e-19
6.027089341400364 3.9244385941916626e-24 6.27848123095967e-16 6.272687294314006e-16 5.793936645663579e-19
6.049734195844842 4.422713341024536e-24 7.102226495062882e-16 7.096323226944207e-16 5.903268118675852e-19
6.095279466722835 5.862081106459315e-24 9.484509561265025e-16 9.47834094237057e-16 6.168618894453732e-19
6.141167624020661 8.076672760736085e-24 1.3165970322978874e-15 1.3159461483978293e-15 6.50883900058218e-19
6.164241091010745 9.491055447768376e-24 1.5529717651492388e-15 1.5522997323127055e-15 6.7203283653341e-19
6.187401249150058 1.1101513698371539e-23 1.8233074767351032e-15 1.8226136677480297e-15 6.938089870735973e-19
6.1990139391386085 1.1887848242339492e-23 1.9561191209558727e-15 1.955414218861748e-15 7.049020941249819e-19
6.204828454712694 1.23019958319533e-23 2.026164899937278e-15 2.0254543885638344e-15 7.105113734437757e-19
6.210648424152782 1.2604317118122348e-23 2.0779050543574637e-15 2.0771897146795795e-15 7.153396778835711e-19
6.233982942956859 1.3631188484953614e-23 2.255634693332262e-15 2.254902308785394e-15 7.323845468683448e-19
6.239830258556775 1.3762323199989106e-23 2.2794704238750933e-15 2.2787355165325406e-15 7.349073425525656e-19
6.245683058788269 1.3773499443213207e-23 2.2834613796332025e-15 2.282723943094939e-15 7.374365382636686e-19
6.257405133728602 1.3744841728068655e-23 2.2829870631111725e-15 2.282245106544916e-15 7.4195656625664875e-19
6.269149208991335 1.3542334210465745e-23 2.2535726690879328e-15 2.2528286043082946e-15 7.440647796385561e-19
6.280915325867298 1.30351528482828e-23 2.173244052156964e-15 2.172500869011555e-15 7.431831454087681e-19
6.304513850009849 1.1784661105126198e-23 1.972141781536777e-15 1.971403074873403e-15 7.387066633740644e-19
6.32820103803542 1.023515951745679e-23 1.719270915251178e-15 1.7185395719992845e-15 7.313432518938995e-19
6.3519772230701035 8.814259330445629e-24 1.4861552814996726e-15 1.4854303869748041e-15 7.248945248685408e-19
6.375842739491607 7.618638209889569e-24 1.2893902449468534e-15 1.2886708680807327e-15 7.1937686612051475e-19
6.399797922933955 6.660714062874231e-24 1.131505018354865e-15 1.1307877001503429e-15 7.173182045222434e-19
6.42384311029221 5.864074602592382e-24 9.99916754453719e-16 9.992008067528694e-16 7.15947700849787e-19
6.447978639727206 5.2836496320856355e-24 9.043301998831023e-16 9.036129053985958e-16 7.172944845064156e-19
6.472204850670314 4.800007592830733e-24 8.246385097101017e-16 8.239193186392543e-16 7.191910708472081e-19
6.496522083828205 4.4857023102263444e-24 7.735364816301628e-16 7.728131738777212e-16 7.233077524415458e-19
