Dust emission spectrum from A.P. Jones, M. Kohler, N. Ysard, M. Bocchio, and L. Verstraete (2017), A&A, 602A, 46J 
inside the DustPedia framework.

lambda    nu*dP/dnu     j_nu    j_nu(carb.) j_nu(sil)
 (um)   (erg s-1 H-1) (Jy cm2 sr-1 H-1)
0.9927057738263894 4.163831890031778e-26 1.097193353116365e-18 1.0971933531163275e-18 3.7700017418858493e-32
1.0001793341362166 4.232313345707432e-26 1.1236346512888299e-18 1.1236346512887848e-18 4.543197007431991e-32
1.0077091589558085 4.300688350128625e-26 1.1503834136455663e-18 1.1503834136455114e-18 5.468074637350521e-32
1.0114953028030835 4.3348274996080755e-26 1.1638717399788277e-18 1.1638717399787678e-18 5.996044990460574e-32
1.0152956718711033 4.368929943631991e-26 1.177435290969159e-18 1.1774352909690935e-18 6.572909393644464e-32
1.0229392996569957 4.43697777098207e-26 1.2047766721863847e-18 1.2047766721863061e-18 7.891048114115925e-32
1.0267826658714554 4.470840290099214e-26 1.21853250129271e-18 1.218532501292624e-18 8.642332179964847e-32
1.0306404723013447 4.504651114853232e-26 1.2323605472316836e-18 1.2323605472315893e-18 9.462129857377568e-32
1.03451277320114 4.538406979183268e-26 1.2462602084784788e-18 1.2462602084783756e-18 1.0356390272142115e-31
1.0383996230291617 4.5721046355868814e-26 1.2602308761450591e-18 1.260230876144946e-18 1.1331551098404481e-31
1.0403485208654093 4.5889306261992544e-26 1.2672426451302359e-18 1.2672426451301174e-18 1.1851623734804296e-31
1.0423010764483396 4.605740855740308e-26 1.274271934123869e-18 1.2742719341237452e-18 1.2394576198009453e-31
1.0462171883269815 4.639312431104852e-26 1.2883827592316836e-18 1.2883827592315482e-18 1.355299595262547e-31
1.0471985131304309 4.647694850129019e-26 1.2919212929312e-18 1.2919212929310614e-18 1.385844617979322e-31
1.048180758391296 4.656072979879036e-26 1.295464137814882e-18 1.2954641378147403e-18 1.4170497547354508e-31
1.0501480137395462 4.672816173519402e-26 1.3025627213535574e-18 1.3025627213534089e-18 1.48149504650609e-31
1.0521189612883777 4.689541616784731e-26 1.3096784300238827e-18 1.3096784300237276e-18 1.548747507601704e-31
1.0531058218030118 4.6978846499563774e-26 1.3132390726848448e-18 1.313239072684687e-18 1.58346484480922e-31
1.0540936079674168 4.7061808047692345e-26 1.3167921260866636e-18 1.3167921260865018e-18 1.618935474701548e-31
1.058054026499678 4.739316853823795e-26 1.3310458704446416e-18 1.3310458704444645e-18 1.7685906629791972e-31
1.0590464539527713 4.747588481093072e-26 1.3346196379917428e-18 1.3346196379915621e-18 1.8080278252085504e-31
1.06003981227728 4.755855057701728e-26 1.3381975175447823e-18 1.3381975175445976e-18 1.8483075042382944e-31
1.0620293250338977 4.7723728663394036e-26 1.3453655713221095e-18 1.345365571321916e-18 1.9314633311662585e-31
1.0660195594769086 4.805345762273355e-26 1.359750566807705e-18 1.359750566807494e-18 2.1086621226961777e-31
1.070024785945596 4.8382324853076074e-26 1.3742001889560313e-18 1.3742001889558014e-18 2.301383381329456e-31
1.0740450607676866 4.8710300033485637e-26 1.3887137639319879e-18 1.3887137639317366e-18 2.5109176385568034e-31
1.07808044048254 4.903735309012858e-26 1.4032906121547969e-18 1.4032906121545228e-18 2.7386565447826353e-31
1.0861967418109137 4.9687992792534016e-26 1.432614630408588e-18 1.4326146304082624e-18 3.254865879829029e-31
1.0902777775684922 5.0010199428641457e-26 1.4473220534813505e-18 1.4473220534809961e-18 3.5466955618701928e-31
1.0943741465085532 5.0331343235270194e-26 1.4620888956236684e-18 1.4620888956232817e-18 3.8634636957220976e-31
1.1026131145906286 5.0970328234875206e-26 1.4917979880709935e-18 1.491797988070535e-18 4.580044193439525e-31
1.1109141095355224 5.1604722344200324e-26 1.5217361630404787e-18 1.5217361630399364e-18 5.422668121623614e-31
1.1192775983109025 5.223371237402167e-26 1.5518800066719393e-18 1.551880006671298e-18 6.412221817755916e-31
1.1277040513999907 5.285436163933499e-26 1.5821418034332605e-18 1.582141803432503e-18 7.572827373773286e-31
1.1361939428280308 5.346968756244893e-26 1.6126107446760235e-18 1.61261074467513e-18 8.932302072668682e-31
1.1447477501889525 5.407948518332549e-26 1.6432807975053169e-18 1.6432807975042644e-18 1.0522686780389849e-30
1.1533659546722406 5.468388901442484e-26 1.6741561165800145e-18 1.6741561165787763e-18 1.23808554530991e-30
1.1707974979042381 5.587848750354868e-26 1.7365842624837478e-18 1.7365842624820406e-18 1.7076373710405664e-30
1.1884924949847024 5.70489376798838e-26 1.7997552056896592e-18 1.7997552056873157e-18 2.3437467047677327e-30
1.2064549276569216 5.820446574444913e-26 1.8639610883384607e-18 1.86396108833526e-18 3.201287635782832e-30
1.2246888378427687 5.933237427226014e-26 1.928798769237351e-18 1.9287987692329993e-18 4.3516219488463145e-30
1.2431983285522175 6.043002203507511e-26 1.994171950168874e-18 1.994171950162986e-18 5.887242410829852e-30
1.2619875648066055 6.149700634952031e-26 2.060053425825606e-18 2.0600534258176793e-18 7.927416864581167e-30
1.3004222497298317 6.352117773246655e-26 2.1926654134436953e-18 2.19266541342952e-18 1.417537361937271e-29
1.3400274889804893 6.539702194486025e-26 2.326168189076875e-18 2.3261681890519833e-18 2.489183536093311e-29
1.3808389325824078 6.711764101686264e-26 2.460079491017082e-18 2.4600794909741383e-18 4.294351102718907e-29
1.4228933163050095 6.869160631164177e-26 2.594450831655959e-18 2.594450831583136e-18 7.282299935067402e-29
1.466228494730424 7.015729137282713e-26 2.7305108202922094e-18 2.730510820170763e-18 1.2144683811164174e-28
1.5108834753276823 7.148595985355098e-26 2.866956854843815e-18 2.866956854644546e-18 1.9927015777905888e-28
1.5568984535646726 7.265439898648415e-26 3.0025595866526e-18 3.0025595863305796e-18 3.2202168778193323e-28
1.6043148490894465 7.366487028083826e-26 3.1370357262155747e-18 3.137035725702121e-18 5.134534123665063e-28
1.6531753430134553 7.452058230504724e-26 3.2701267939302784e-18 3.270126793123402e-18 8.068765260776333e-28
1.7035239163302658 7.523197638500527e-26 3.4018890029579595e-18 3.401889001707951e-18 1.2500080694126439e-27
1.755405889504358 7.585898207998652e-26 3.534711679858671e-18 3.534711677948641e-18 1.910028872661668e-27
1.8088679632656115 7.638684850254454e-26 3.667709184360552e-18 3.66770918148085e-18 2.8797023153614985e-27
1.8639582606462262 7.680561104450621e-26 3.8001309704777995e-18 3.800130966192181e-18 4.285619486824269e-27
1.9207263702978936 7.712255762956483e-26 3.932025772567836e-18 3.9320257662697505e-18 6.298084685847583e-27
1.979223391128241 7.735460457485237e-26 4.063969298864498e-18 4.0639692897211196e-18 9.143379341901953e-27
2.039501978296691 7.752197923849998e-26 4.1968013820167365e-18 4.196801368898616e-18 1.3118120420017577e-26
2.1016163906111602 7.768126793102845e-26 4.333503837988157e-18 4.3335038193805125e-18 1.8607644305459084e-26
2.1656225393682647 7.786526485993262e-26 4.476060635127561e-18 4.476060609022442e-18 2.610511764833098e-26
2.231578038680979 7.807630740661481e-26 4.6248832845140105e-18 4.624883248279668e-18 3.6234344190524465e-26
2.299542257339062 7.83340173915376e-26 4.781467716885833e-18 4.781467667109776e-18 4.9776057591821456e-26
2.369576372248914 7.868180454961685e-26 4.948965833767415e-18 4.9489657660687944e-18 6.769861999211485e-26
2.4417434235010123 7.917092981636277e-26 5.131392147215172e-18 5.13139205602588e-18 9.118928995323732e-26
2.5161083711144245 7.988918534491755e-26 5.335643053535608e-18 5.335642931841661e-18 1.2169394817263274e-25
2.5927381535095444 8.098027428671399e-26 5.573234733767644e-18 5.5732345728106465e-18 1.609569980773221e-25
2.6717017477616296 8.261584840797972e-26 5.858963260911248e-18 5.858963049855609e-18 2.110556380775891e-25
2.753070231689431 8.505435798348657e-26 6.215603381848776e-18 6.215603107402353e-18 2.744464219393502e-25
2.836916847834745 8.888138527126124e-26 6.6930929188558435e-18 6.693092564830263e-18 3.5402558027878927e-25
2.9233170693905177 9.538671216633533e-26 7.401729935310463e-18 7.40172948219297e-18 4.531174932413029e-25
2.967498994190263 1.0091706734732494e-25 7.949222166328463e-18 7.949221655869717e-18 5.10458749915416e-25
3.0123486681368425 1.073774297142034e-25 8.585936566008816e-18 8.585935991665453e-18 5.743433653213492e-25
3.0578761833420214 1.2184280068170493e-25 9.889838566284703e-18 9.88983792068967e-18 6.455950342045473e-25
3.1040917844459814 1.404881722989493e-25 1.1575606365141964e-17 1.1575605640670148e-17 7.244718163775694e-25
3.127460860933648 1.6021583593388948e-25 1.330046291153719e-17 1.3300462144287186e-17 7.672500059193047e-25
3.1510058709225794 1.865036284445347e-25 1.559932947197591e-17 1.5599328659728466e-17 8.12247441745105e-25
3.162844764501044 2.1097260048024783e-25 1.771223501370391e-17 1.7712234178000756e-17 8.357031557260714e-25
3.1747281389236908 2.394309424852756e-25 2.0176983992931574e-17 2.0176983133183455e-17 8.597481240287434e-25
3.1986289994194426 3.188174217430885e-25 2.7069195503192895e-17 2.7069194593406633e-17 9.097862610487382e-25
3.2227097969389145 5.059511837192516e-25 4.328119554707227e-17 4.3281194583706253e-17 9.633660087743226e-25
3.2348180950136065 6.83415648373466e-25 5.868190657289065e-17 5.868190558072036e-17 9.92170291726778e-25
3.240889293275058 8.160917981558454e-25 7.020574337831354e-17 7.020574237089263e-17 1.0074209034596097e-24
3.2469718861334385 9.695753982237032e-25 8.356598731305608e-17 8.356598628981447e-17 1.0232416497656316e-24
3.2714166318528037 1.7882985553027374e-24 1.552906529548327e-16 1.552906518656862e-16 1.0891465158011906e-24
3.2744851364798273 1.839473154103964e-24 1.598843333502634e-16 1.5988433225328501e-16 1.0969783756044114e-24
3.2775565192852394 1.892117657576806e-24 1.6461437644504515e-16 1.6461437534018436e-16 1.1048607495697156e-24
3.283707930232385 1.8414656115784442e-24 1.605083269362124e-16 1.6050832581721074e-16 1.1190016088244667e-24
3.2898708863219004 1.680872241029745e-24 1.467854444357464e-16 1.4678544330383028e-16 1.1319161582075015e-24
3.29141343181113 1.643000807877465e-24 1.4354552140581039e-16 1.4354552027064664e-16 1.1351637716078857e-24
3.292184975758714 1.6243921992749769e-24 1.4195299401452098e-16 1.419529928777305e-16 1.1367904338258782e-24
3.295272960557952 1.5069331079895269e-24 1.318119553082195e-16 1.3181195416509997e-16 1.1431195298942645e-24
3.3076538914384823 1.1000358298712458e-24 9.65820286655699e-17 9.658202749695547e-17 1.1686144050742523e-24
3.310756385682612 1.0172258250713192e-24 8.939516613594421e-17 8.939516496088446e-17 1.1750597522154207e-24
3.313861789986515 9.408221631940187e-25 8.275826251230233e-17 8.275826133076842e-17 1.1815339369035808e-24
3.3200813396944477 8.336723742427004e-25 7.347059671700212e-17 7.347059552153305e-17 1.1954691155041432e-24
3.345076488085796 6.425109727043018e-25 5.705005069490893e-17 5.705004943702822e-17 1.257880698776828e-24
3.3482140837626964 6.496742053363784e-25 5.774019892841293e-17 5.77401976620297e-17 1.2663832255766307e-24
3.3513546224236106 6.569166367304684e-25 5.8438637093562e-17 5.843863581862614e-17 1.274935873720867e-24
3.3576445397418455 7.098644283486918e-25 6.32673383753022e-17 6.326733708244152e-17 1.2928607014053756e-24
3.3702598118196083 9.051732554208574e-25 8.097753051636004e-17 8.097752918572682e-17 1.3306332018779108e-24
3.382922481734668 9.496349060773421e-25 8.527429724698881e-17 8.527429587947677e-17 1.3675120537624059e-24
3.389271646505754 9.726690118779229e-25 8.750661642010779e-17 8.750661503382095e-17 1.3862868198741932e-24
3.395632727569191 9.974873699598713e-25 8.990783692580045e-17 8.990783552013558e-17 1.4056648756188264e-24
3.421196662673239 1.1166493432418549e-24 1.0140614837629642e-16 1.0140614688988514e-16 1.4864112821856494e-24
3.4276182099114902 1.092608180976468e-24 9.940914132977635e-17 9.940913982508504e-17 1.5046913051666633e-24
3.4340518103208963 9.873099820009139e-25 8.999736707893519e-17 8.999736555685519e-17 1.5220799648700311e-24
3.4469541582030403 8.37349186155654e-25 7.661460084177845e-17 7.661459928607846e-17 1.555700004038049e-24
3.472904465399547 7.953002308520561e-25 7.331509104429088e-17 7.331508941077411e-17 1.633516766252867e-24
3.4990501388274233 7.310025363705092e-25 6.789510785226438e-17 6.789510613816723e-17 1.7140971362489454e-24
3.5253949054701885 5.0225176876843995e-25 4.70000890188341e-17 4.700008722546063e-17 1.7933734570601666e-24
3.5519380250092896 2.872817057887106e-25 2.7085869605340372e-17 2.7085867731209672e-17 1.8741307084493597e-24
3.578680990867387 2.0204292048588934e-25 1.919269920803853e-17 1.919269724449037e-17 1.9635481596931362e-24
3.605625307711299 1.6755881568786846e-25 1.6036785063106395e-17 1.603678300422465e-17 2.0588817444153045e-24
3.660119384959845 1.4238570786290422e-25 1.3833468422050132e-17 1.3833466158723547e-17 2.2633265852349097e-24
3.715437065384467 1.245566336616844e-25 1.2284180935524806e-17 1.2284178450711416e-17 2.4848133921072578e-24
3.8285932144167436 1.1546703129922078e-25 1.1734555907083993e-17 1.1734552924168535e-17 2.9829154583417858e-24
3.94519561050918 1.1367615584239232e-25 1.1904395665109476e-17 1.1904392103655535e-17 3.561453939812156e-24
4.06534921144712 1.1488142884243782e-25 1.23970147733258e-17 1.239701054174848e-17 4.2315773174771395e-24
4.189162171576248 1.178210488106151e-25 1.3101453826676298e-17 1.3101448818601545e-17 5.008074751579169e-24
4.316745939156006 1.2202464391315681e-25 1.3982134361548534e-17 1.3982128456224406e-17 5.905324124833266e-24
4.448215356677963 1.2733399306677952e-25 1.50348672020058e-17 1.50348602687598e-17 6.933245999021578e-24
4.58368876423945 1.3376756783038911e-25 1.6275539179461687e-17 1.627553106433356e-17 8.115128122886134e-24
4.723288106065518 1.4147436787316184e-25 1.7737468295241178e-17 1.7737458812115266e-17 9.483125914302302e-24
4.867139040275056 1.5075320389603032e-25 1.9476447153578257e-17 1.9476436106495258e-17 1.10470829895363e-23
4.940699165968905 1.5635760966147221e-25 2.0505807046655926e-17 2.050579512981816e-17 1.1916837768421827e-23
5.015371051989984 1.6216198451129568e-25 2.1588454493554625e-17 2.1588441643622665e-17 1.2849931960466793e-23
5.091171501069577 1.6925259794123308e-25 2.2872967009272398e-17 2.2872953144845297e-17 1.3864427105405573e-23
5.129500256944802 1.7289201704041293e-25 2.3540703100933172e-17 2.354068870169991e-17 1.4399233268483422e-23
5.168117569889187 1.7668692326844315e-25 2.4238527134237782e-17 2.4238512178543785e-17 1.495569399983451e-23
5.20702561229733 1.8134913021083777e-25 2.5065399094078976e-17 2.5065383540817876e-17 1.5553261103027865e-23
5.246226572918644 1.8613067640591566e-25 2.5919966238531168e-17 2.5919950065236295e-17 1.6173294887951037e-23
5.265937586045735 1.885673969406134e-25 2.6357957073532556e-17 2.6357940581529403e-17 1.6492003151243253e-23
5.285722656980489 1.9103540739428908e-25 2.680326337083992e-17 2.6803246554187856e-17 1.6816652063510427e-23
5.305582063971359 1.9353521494395603e-25 2.7256021840081974e-17 2.7256004692727747e-17 1.7147354218555078e-23
5.3255160863122235 1.9622169449531723e-25 2.773819236673387e-17 2.773817488115499e-17 1.7485578878571765e-23
5.365609099470188 2.0291861508353793e-25 2.890083246923546e-17 2.890081427743798e-17 1.819179749035672e-23
5.406003951863644 2.098713118569587e-25 3.011610960785235e-17 3.011609068258988e-17 1.892526247260431e-23
5.446702915881641 2.1709217834842356e-25 3.13868185960418e-17 3.1386798908994256e-17 1.9687047529058937e-23
5.487708281020852 2.2489653282638543e-25 3.275994846879962e-17 3.2759927988430646e-17 2.048036897137794e-23
5.529022354014368 2.357539906693465e-25 3.460005839405819e-17 3.4600037070789684e-17 2.1323268495721814e-23
5.570647458961463 2.472534353472002e-25 3.656094750326331e-17 3.6560925303331115e-17 2.219993220301159e-23
5.612585937458331 2.5944116071614937e-25 3.865194167288826e-17 3.865191856113327e-17 2.3111754974725866e-23
5.654840148729818 2.728414470043534e-25 4.0954356833680245e-17 4.0954332770217383e-17 2.4063462846874882e-23
5.67608639626678 2.8197270424662904e-25 4.248400974123524e-17 4.2483985173208235e-17 2.4568027018345367e-23
5.686739436050992 2.8667977982126615e-25 4.327427741206826e-17 4.327425258782934e-17 2.4824238903163932e-23
5.6974124697621304 2.9148416574215517e-25 4.4082078380615605e-17 4.4082053297507197e-17 2.508310840791653e-23
5.718818669136295 3.0139425341078063e-25 4.5752067767991686e-17 4.575204215905624e-17 2.560893544413247e-23
5.740305295436557 3.1231993277386704e-25 4.758873124644765e-17 4.7588705096824084e-17 2.6149623557622792e-23
5.7835210386641895 3.4067277782048514e-25 5.229969841608951e-17 5.2299671119382154e-17 2.729670736114203e-23
5.827062130521658 3.733423870759556e-25 5.774659504987302e-17 5.774656654589896e-17 2.850397404013294e-23
5.8489554468988025 3.9626613519746185e-25 6.152260349285454e-17 6.152257432528478e-17 2.9167569733292695e-23
5.870931020387893 4.20868833145339e-25 6.558781705996601e-17 6.55877872124634e-17 2.9847502611282845e-23
5.892989160043636 4.472857067419556e-25 6.996649133572518e-17 6.996646079151207e-17 3.0544213119291116e-23
5.915130176081913 4.773325925744837e-25 7.494709933001608e-17 7.494706805557386e-17 3.127444221923356e-23
5.95966208400165 5.613558919534506e-25 8.880335097444701e-17 8.880331803477256e-17 3.293967445937954e-23
6.004529249263818 6.824824681159634e-25 1.0877770637185302e-16 1.0877767149459424e-16 3.48772587810875e-23
6.027089341400364 7.666875236160819e-25 1.2265788115933069e-16 1.2265784513872555e-16 3.602060515319896e-23
6.049734195844842 8.662036572058086e-25 1.390995547295031e-16 1.3909951747264102e-16 3.7256862056947255e-23
6.095279466722835 1.1536789003626075e-24 1.8665860063010737e-16 1.8665856027407614e-16 4.035603122581371e-23
6.141167624020661 1.596122299080494e-24 2.601875728294753e-16 2.601875283223587e-16 4.4507116711700807e-23
6.164241091010745 1.8786591477755566e-24 3.0739517105242087e-16 3.07395123921469e-16 4.7130951867359026e-23
6.187401249150058 2.2005285854418212e-24 3.614137973989925e-16 3.6141374745929532e-16 4.9939697157947115e-23
6.1990139391386085 2.3576860596702797e-24 3.8795202365609366e-16 3.879519722748346e-16 5.138125919319356e-23
6.204828454712694 2.4404725079911763e-24 4.0195101693255e-16 4.0195096481062307e-16 5.2121926911118194e-23
6.210648424152782 2.500901067879346e-24 4.1229008447612026e-16 4.1229003171989736e-16 5.2756222953752934e-23
6.233982942956859 2.7061959280934637e-24 4.478105066994007e-16 4.478104516623268e-16 5.503707391970361e-23
6.239830258556775 2.7324340993479312e-24 4.525764018284587e-16 4.525763464398966e-16 5.538856198235272e-23
6.245683058788269 2.734699530443968e-24 4.533764849242308e-16 4.533764291818436e-16 5.574238737061088e-23
6.257405133728602 2.729037090502892e-24 4.532868763156074e-16 4.532868199328149e-16 5.638279245809595e-23
6.269149208991335 2.6886310998956124e-24 4.474136784559683e-16 4.474136217492116e-16 5.670675676316239e-23
6.280915325867298 2.58733788936634e-24 4.3136561146856777e-16 4.313655548322112e-16 5.663635652743027e-23
6.304513850009849 2.337561052031123e-24 3.911866261133586e-16 3.9118656998148147e-16 5.613187708247974e-23
6.32820103803542 2.0279733410658627e-24 3.406527837941941e-16 3.4065272859348997e-16 5.520070412097157e-23
6.3519772230701035 1.7440652602871826e-24 2.9406348289560196e-16 2.9406342853264586e-16 5.436295608645039e-23
6.375842739491607 1.5052310536059396e-24 2.5474765744765624e-16 2.5474760378214523e-16 5.366551106669599e-23
6.399797922933955 1.3138048855591274e-24 2.2318580367159684e-16 2.2318575029618997e-16 5.337540679000767e-23
6.42384311029221 1.1546620075794977e-24 1.9688799433068226e-16 1.9688794113747048e-16 5.319321175994398e-23
6.447978639727206 1.0386855361999679e-24 1.7777762796066115e-16 1.777775745947383e-16 5.336592287283779e-23
6.472204850670314 9.420777201567931e-25 1.6184840381117781e-16 1.6184835018767268e-16 5.362350523740856e-23
6.496522083828205 8.792852000934428e-25 1.51628247482931e-16 1.5162819329739223e-16 5.41855387907906e-23
6.520930681187647 8.263917467409602e-25 1.430424657491816e-16 1.4304241094272932e-16 5.480645226686155e-23
