Dust emission spectrum from A.P. Jones, M. Kohler, N. Ysard, M. Bocchio, and L. Verstraete (2017), A&A, 602A, 46J 
inside the DustPedia framework.

lambda    nu*dP/dnu     j_nu    j_nu(carb.) j_nu(sil)
 (um)   (erg s-1 H-1) (Jy cm2 sr-1 H-1)
0.9927057738263894 7.490410770695472e-25 1.9737657827620847e-17 1.9737657827620656e-17 1.9502491812850748e-31
1.0001793341362166 7.614182598652792e-25 2.0214853462501946e-17 2.0214853462501715e-17 2.350005933073813e-31
1.0077091589558085 7.737778568245569e-25 2.0697645117916097e-17 2.069764511791581e-17 2.828118578769402e-31
1.0114953028030835 7.799495385333622e-25 2.0941115340589254e-17 2.0941115340588943e-17 3.1010221107422706e-31
1.0152956718711033 7.861150020931047e-25 2.1185955329264077e-17 2.118595532926374e-17 3.399176505127425e-31
1.0229392996569957 7.984188179414555e-25 2.1679539906227326e-17 2.1679539906226925e-17 4.080382789795871e-31
1.0267826658714554 8.045422510642894e-25 2.1927888673546887e-17 2.192788867354644e-17 4.46859822898555e-31
1.0306404723013447 8.106567587780177e-25 2.2177553408534957e-17 2.2177553408534467e-17 4.892183637277966e-31
1.03451277320114 8.167617510363952e-25 2.2428523373790656e-17 2.2428523373790126e-17 5.3542064953193195e-31
1.0383996230291617 8.2285664106219605e-25 2.2680787697556322e-17 2.2680787697555733e-17 5.857985804721473e-31
1.0403485208654093 8.259001152916105e-25 2.280740181035071e-17 2.2807401810350094e-17 6.126644823796317e-31
1.0423010764483396 8.289408454597361e-25 2.293433537628917e-17 2.2934335376288528e-17 6.407111429332408e-31
1.0462171883269815 8.350137843249239e-25 2.3189155277236403e-17 2.3189155277235704e-17 7.0054648169142794e-31
1.0471985131304309 8.365301911854598e-25 2.325305772048056e-17 2.3253057720479834e-17 7.163229402534354e-31
1.048180758391296 8.38045848944108e-25 2.3317038797358478e-17 2.331703879735774e-17 7.32440003391358e-31
1.0501480137395462 8.410748813528084e-25 2.344523614101221e-17 2.3445236141011438e-17 7.657241191381352e-31
1.0521189612883777 8.44100810092512e-25 2.3573745881411066e-17 2.3573745881410268e-17 8.004565617362134e-31
1.0531058218030118 8.456102655695283e-25 2.3638052522631094e-17 2.363805252263028e-17 8.183857094755453e-31
1.0540936079674168 8.471113083674941e-25 2.3702223672470746e-17 2.3702223672469914e-17 8.367035022111256e-31
1.058054026499678 8.53106961786085e-25 2.3959666204144477e-17 2.3959666204143565e-17 9.139843837085909e-31
1.0590464539527713 8.54603701847954e-25 2.4024215403861574e-17 2.4024215403860634e-17 9.343483492668598e-31
1.06003981227728 8.560995551087725e-25 2.4088839662228465e-17 2.408883966222751e-17 9.551469013641651e-31
1.0620293250338977 8.590885663884159e-25 2.4218312615249978e-17 2.4218312615248986e-17 9.980832675280411e-31
1.0660195594769086 8.650555650229273e-25 2.4478151064484686e-17 2.4478151064483592e-17 1.0895712496769483e-30
1.070024785945596 8.710074047450193e-25 2.473916960000338e-17 2.4739169600002193e-17 1.1890645273279816e-30
1.0740450607676866 8.769435369079916e-25 2.5001356162005588e-17 2.500135616200429e-17 1.2972277281041201e-30
1.07808044048254 8.828634172514935e-25 2.5264698585318274e-17 2.5264698585316853e-17 1.4147774665079209e-30
1.0861967418109137 8.946418083578922e-25 2.5794500272534537e-17 2.5794500272532855e-17 1.681186226353742e-30
1.0902777775684922 9.004754680917876e-25 2.6060244079766317e-17 2.6060244079764487e-17 1.8317744967254746e-30
1.0943741465085532 9.062903285329464e-25 2.6327074550050673e-17 2.6327074550048682e-17 1.9952156554837685e-30
1.1026131145906286 9.178615842024388e-25 2.6863944417449667e-17 2.6863944417447295e-17 2.364891146823256e-30
1.1109141095355224 9.293514906149615e-25 2.740500689087229e-17 2.740500689086949e-17 2.799505033565183e-30
1.1192775983109025 9.407453788197475e-25 2.794984079066675e-17 2.7949840790663435e-17 3.3098005696918195e-30
1.1277040513999907 9.519903362435917e-25 2.849686687568558e-17 2.849686687568168e-17 3.9081819949031225e-30
1.1361939428280308 9.63140664944521e-25 2.904769142535099e-17 2.9047691425346376e-17 4.6089499290664926e-30
1.1447477501889525 9.74192645555547e-25 2.960220612466067e-17 2.9602206124655234e-17 5.4285717060046604e-30
1.1533659546722406 9.851486665056145e-25 3.016048594012688e-17 3.0160485940120496e-17 6.385993317110043e-30
1.1707974979042381 1.0068081953665419e-24 3.128945226554608e-17 3.1289452265537275e-17 8.804544920758949e-30
1.1884924949847024 1.028037217932451e-24 3.243207340684722e-17 3.243207340683514e-17 1.2079527996122648e-29
1.2064549276569216 1.0490016725199531e-24 3.3593613035879996e-17 3.359361303586351e-17 1.649251201222273e-29
1.2246888378427687 1.069472641614333e-24 3.4766812219803087e-17 3.476681221978068e-17 2.2409446847532848e-29
1.2431983285522175 1.0894022213780554e-24 3.5949934803314035e-17 3.5949934803283725e-17 3.0304348366628064e-29
1.2619875648066055 1.1087829350697807e-24 3.7142492284997044e-17 3.714249228495625e-17 4.0788070245669657e-29
1.3004222497298317 1.1455756000850864e-24 3.954372520249615e-17 3.954372520242329e-17 7.286842144673134e-29
1.3400274889804893 1.1797064652927886e-24 4.1962088951484457e-17 4.1962088951356624e-17 1.2783441283605253e-28
1.3808389325824078 1.2110487604390411e-24 4.4388869647984656e-17 4.4388869647764336e-17 2.203217806562339e-28
1.4228933163050095 1.2397546633736756e-24 4.68249716398619e-17 4.682497163948866e-17 3.7323350965630026e-28
1.466228494730424 1.2665143526366314e-24 4.9292540750356365e-17 4.9292540749734594e-17 6.21775465957799e-28
1.5108834753276823 1.290807656841877e-24 5.1768065612451514e-17 5.176806561143245e-17 1.0190791226508807e-27
1.5568984535646726 1.312213600156083e-24 5.422933201357187e-17 5.422933201192692e-17 1.644950381943023e-27
1.6043148490894465 1.3307709598614944e-24 5.667119250438183e-17 5.667119250176208e-17 2.619731614473398e-27
1.6531753430134553 1.3465358175220886e-24 5.908894857853999e-17 5.908894857442817e-17 4.111820149039546e-27
1.7035239163302658 1.3596950219741257e-24 6.148358404089978e-17 6.148358403453778e-17 6.362001027551216e-27
1.755405889504358 1.3713295719836553e-24 6.389822961129666e-17 6.389822960158804e-17 9.708613447482963e-27
1.8088679632656115 1.3811722549979718e-24 6.631688915234261e-17 6.631688913772477e-17 1.4617855141840705e-26
1.8639582606462262 1.3890419893097516e-24 6.872598773820501e-17 6.872598771648045e-17 2.1724566433624642e-26
1.9207263702978936 1.3950696826604307e-24 7.112640082680565e-17 7.112640079492473e-17 3.188089749635362e-26
1.979223391128241 1.3995603627646421e-24 7.352852978104723e-17 7.352852973483072e-17 4.621652274098999e-26
2.039501978296691 1.4028791442077659e-24 7.594755950567408e-17 7.594755943946527e-17 6.620881722066977e-26
2.1016163906111602 1.4060491105199508e-24 7.843743258990048e-17 7.843743249612775e-17 9.377269508908514e-26
2.1656225393682647 1.4096634398495088e-24 8.103406625841603e-17 8.103406612706267e-17 1.3135335065425738e-25
2.231578038680979 1.4137644612876608e-24 8.374493930914694e-17 8.374493912710996e-17 1.8203698068283113e-25
2.299542257339062 1.4187072994349682e-24 8.659715635485082e-17 8.659715610517225e-17 2.4967853338779967e-25
2.369576372248914 1.4252773979847112e-24 8.964778053379824e-17 8.96477801947468e-17 3.390514112688802e-25
2.4417434235010123 1.4344022508219513e-24 9.296948340619703e-17 9.296948295019651e-17 4.560005412893441e-25
2.5161083711144245 1.4476703754491348e-24 9.668708410563191e-17 9.668708349799247e-17 6.0763940959223065e-25
2.5927381535095444 1.4676813650782839e-24 1.0100895352610343e-16 1.0100895272355228e-16 8.025511416224411e-25
2.6717017477616296 1.4975388598914331e-24 1.0620268787366658e-16 1.0620268682269926e-16 1.0509673303896144e-24
2.753070231689431 1.5419157603714358e-24 1.1268013823055793e-16 1.1268013686554187e-16 1.3650160858798662e-24
2.836916847834745 1.6113991417095363e-24 1.2134424043809052e-16 1.213442386790349e-16 1.7590555881088944e-24
2.9233170693905177 1.729306436189022e-24 1.341891226289983e-16 1.3418912037933804e-16 2.249660239511941e-24
2.967498994190263 1.829440098563377e-24 1.4410472049706878e-16 1.4410471796353795e-16 2.5335308363951286e-24
3.0123486681368425 1.946384688683972e-24 1.5563359557563404e-16 1.5563359272568336e-16 2.8499506746983186e-24
3.0578761833420214 2.2080603850090744e-24 1.7922569598014128e-16 1.7922569277698703e-16 3.2031542310795186e-24
3.1040917844459814 2.545257382172565e-24 2.0971799313686188e-16 2.0971798954239264e-16 3.594469232387915e-24
3.127460860933648 2.901973270566844e-24 2.4090994270612094e-16 2.4090993889920024e-16 3.8069208156674866e-24
3.1510058709225794 3.37724771205844e-24 2.824760043987243e-16 2.8247600036814767e-16 4.030576734551553e-24
3.162844764501044 3.819660073173997e-24 3.2068011075615216e-16 3.206801066087811e-16 4.147370995210311e-24
3.1747281389236908 4.33414776130458e-24 3.65241138405579e-16 3.6524113413842174e-16 4.2671572446816e-24
3.1986289994194426 5.7691992699086396e-24 4.898339058142144e-16 4.898339012974216e-16 4.5167928497215875e-24
3.2227097969389145 9.151979766361724e-24 7.82898901429487e-16 7.828988966437677e-16 4.7857189188172746e-24
3.2348180950136065 1.2359917314048321e-23 1.0612919309030526e-15 1.0612919259715713e-15 4.931481096843821e-24
3.240889293275058 1.4758269693896315e-23 1.2696063079900779e-15 1.269606302980783e-15 5.009294897475513e-24
3.2469718861334385 1.7532795149982314e-23 1.511120578915299e-15 1.5111205738248338e-15 5.090464926659559e-24
3.2714166318528037 3.233259873532494e-23 2.8076689736436214e-15 2.8076689682129215e-15 5.430699044999942e-24
3.2744851364798273 3.325778486807838e-23 2.890718329036651e-15 2.890718323565896e-15 5.470756000883237e-24
3.2775565192852394 3.420954498655843e-23 2.9762329492992664e-15 2.9762329437881705e-15 5.511095500651356e-24
3.283707930232385 3.329426219827221e-23 2.902039705992416e-15 2.9020397004107454e-15 5.581670586056877e-24
3.2898708863219004 3.039159723542199e-23 2.654005461224507e-15 2.6540054555799914e-15 5.6445145342788765e-24
3.29141343181113 2.9707076168266383e-23 2.595444699461131e-15 2.5954446938008164e-15 5.6603142542881384e-24
3.292184975758714 2.9370726728325346e-23 2.566660069734998e-15 2.56666006406677e-15 5.668227463782257e-24
3.295272960557952 2.724765489837397e-23 2.3833617104012953e-15 2.3833617047026675e-15 5.698627360566552e-24
3.3076538914384823 1.9892673943977877e-23 1.7465565692682782e-15 1.746556563447466e-15 5.8208125025945324e-24
3.310756385682612 1.839574560374928e-23 1.6166427295791816e-15 1.616642723727493e-15 5.8516885183658605e-24
3.313861789986515 1.7014595459625756e-23 1.4966679279832766e-15 1.496667922100579e-15 5.8826972316465066e-24
3.3200813396944477 1.507768582964884e-23 1.3287792773774852e-15 1.3287792714269527e-15 5.950532645268739e-24
3.345076488085796 1.1622415078988261e-23 1.0319813942830657e-15 1.0319813880227105e-15 6.260355277841947e-24
3.3482140837626964 1.1751981451824679e-23 1.0444646582205623e-15 1.0444646519173512e-15 6.303211628684335e-24
3.3513546224236106 1.1882980326029772e-23 1.057097866053455e-15 1.0570978597071235e-15 6.346331930926458e-24
3.3576445397418455 1.2840359398703984e-23 1.1444091723655873e-15 1.1444091659279871e-15 6.43760008414029e-24
3.3702598118196083 1.637158585660437e-23 1.4646152936633048e-15 1.4646152870315982e-15 6.631706455797796e-24
3.382922481734668 1.7175857081217966e-23 1.5423392009310681e-15 1.5423391941122381e-15 6.818831036800788e-24
3.389271646505754 1.7592525585528236e-23 1.5827196810778684e-15 1.5827196741636706e-15 6.914197650745413e-24
3.395632727569191 1.804150702543113e-23 1.6261588070066501e-15 1.626158799993739e-15 7.012910910738556e-24
3.421196662673239 2.0197351306447227e-23 1.8341797411921883e-15 1.834179733766724e-15 7.425463867934053e-24
3.4276182099114902 1.9762898472618057e-23 1.7980945059323354e-15 1.798094498415062e-15 7.517272977150831e-24
3.4340518103208963 1.7859136362230317e-23 1.6279337596152381e-15 1.627933752011737e-15 7.603501845251065e-24
3.4469541582030403 1.514782452936395e-23 1.3859743929132899e-15 1.3859743851448328e-15 7.768456931988696e-24
3.472904465399547 1.4387941781506636e-23 1.3263585508091502e-15 1.3263585426483037e-15 8.16084652740579e-24
3.4990501388274233 1.3225740022467643e-23 1.228399356464499e-15 1.2283993478975482e-15 8.566950972572382e-24
3.5253949054701885 9.089749832259376e-24 8.506073603736566e-16 8.506073514134871e-16 8.960169709160771e-24
3.5519380250092896 5.20237768595862e-24 4.904973787061974e-16 4.904973693475851e-16 9.3586124564652e-24
3.578680990867387 3.6609624382373994e-24 3.4776645833490087e-16 3.4776644852755195e-16 9.807348970507388e-24
3.605625307711299 3.0374403442198753e-24 2.907085356404128e-16 2.907085253507615e-16 1.0289651245367459e-23
3.660119384959845 2.5824544386989198e-24 2.508980884761395e-16 2.5089807714634083e-16 1.1329798634974196e-23
3.715437065384467 2.260173340340213e-24 2.2290565698653295e-16 2.2290564452492504e-16 1.2461607996193296e-23
3.8285932144167436 2.0962419437943984e-24 2.1303456066593954e-16 2.1303454563530788e-16 1.5030631668498326e-23
3.94519561050918 2.0643371211197054e-24 2.1618153511501453e-16 2.16181517061371e-16 1.8053643516272957e-23
4.06534921144712 2.0866486674697246e-24 2.2517315999648246e-16 2.2517313838776444e-16 2.1608717966636762e-23
4.189162171576248 2.1403599758628006e-24 2.380035458800468e-16 2.3800352008079783e-16 2.5799248956232608e-23
4.316745939156006 2.2169678773035693e-24 2.5403018391724495e-16 2.5403015318019835e-16 3.07370465718479e-23
4.448215356677963 2.313615913255997e-24 2.731784904758979e-16 2.7317845394934527e-16 3.6526552627515864e-23
4.58368876423945 2.4306450889144086e-24 2.9573730028606674e-16 2.9573725693521124e-16 4.335085566978622e-23
4.723288106065518 2.570760951293732e-24 3.2231132433189606e-16 3.2231127287759554e-16 5.145430059332455e-23
4.867139040275056 2.7393834157552876e-24 3.53912586608393e-16 3.5391252560262885e-16 6.100576400205446e-23
4.940699165968905 2.841193036627099e-24 3.726135000241929e-16 3.7261343358432405e-16 6.643986883037683e-23
5.015371051989984 2.9466297482560824e-24 3.922817201657375e-16 3.922816478043077e-16 7.236142972949513e-23
5.091171501069577 3.0753903078135902e-24 4.156113519491178e-16 4.156112730600561e-16 7.888906165045796e-23
5.129500256944802 3.1414768136027093e-24 4.277385054175219e-16 4.277384230459703e-16 8.237155166414793e-23
5.168117569889187 3.210382756132204e-24 4.4041148097629206e-16 4.404113949550413e-16 8.602125089602722e-23
5.20702561229733 3.2950171516053295e-24 4.554249575435082e-16 4.55424867600254e-16 8.994325413725503e-23
5.246226572918644 3.3818145094233026e-24 4.70940736915739e-16 4.709406428714229e-16 9.404431624610378e-23
5.265937586045735 3.426045933161456e-24 4.788928155308855e-16 4.788927193662912e-16 9.616459439556598e-23
5.285722656980489 3.470844435546826e-24 4.869775650184358e-16 4.869774666856308e-16 9.833280507472874e-23
5.305582063971359 3.516219196730386e-24 4.95197461859082e-16 4.95197361309027e-16 1.0055005488690693e-22
5.3255160863122235 3.564979351707739e-24 5.039508159148191e-16 5.039507130878733e-16 1.028269459157086e-22
5.365609099470188 3.686511409730295e-24 5.250540893189044e-16 5.250539817067956e-16 1.076121086110189e-22
5.406003951863644 3.812678656400515e-24 5.471116909677332e-16 5.471115783461334e-16 1.1262159969200923e-22
5.446702915881641 3.943705510776375e-24 5.701742476612228e-16 5.701741297951205e-16 1.1786610246339544e-22
5.487708281020852 4.085311420168645e-24 5.950940635756281e-16 5.950939402004883e-16 1.2337513990629986e-22
5.529022354014368 4.282292040215476e-24 6.284837606828742e-16 6.284836313731168e-16 1.2930975735471603e-22
5.570647458961463 4.4909065743436604e-24 6.640627632779942e-16 6.640626277429677e-16 1.3553502647545796e-22
5.612585937458331 4.711993512179951e-24 7.020000137721802e-16 7.019998717068372e-16 1.4206534310785835e-22
5.654840148729818 4.955062002479707e-24 7.437703457837407e-16 7.437701968355759e-16 1.4894816464373565e-22
5.67608639626678 5.120689712820677e-24 7.71519471086952e-16 7.715193184279074e-16 1.5265904448608525e-22
5.686739436050992 5.206066889497026e-24 7.858551549828053e-16 7.858550004327016e-16 1.5455010378236044e-22
5.6974124697621304 5.29320751637895e-24 8.005086246375647e-16 8.005084681722461e-16 1.5646531861394766e-22
5.718818669136295 5.472949125400791e-24 8.308013057396641e-16 8.308011453701989e-16 1.6036946544515377e-22
5.740305295436557 5.671106612377494e-24 8.641163759528277e-16 8.641162115346718e-16 1.6441815602398447e-22
5.7835210386641895 6.1853310127445335e-24 9.495650008780143e-16 9.495648276843747e-16 1.7319363949230029e-22
5.827062130521658 6.77780824577768e-24 1.0483549729245863e-15 1.0483547903633567e-15 1.82561229153486e-22
5.8489554468988025 7.193551075144561e-24 1.1168403029978398e-15 1.1168401151129643e-15 1.8788487541124799e-22
5.870931020387893 7.639723767866114e-24 1.1905676196803127e-15 1.190567426302826e-15 1.9337748673763208e-22
5.892989160043636 8.118776455518709e-24 1.2699764243963412e-15 1.2699762253517232e-15 1.9904461803682337e-22
5.915130176081913 8.663648081280334e-24 1.360299513188386e-15 1.3602993081265372e-15 2.0506184921351544e-22
5.95966208400165 1.0187355698256074e-23 1.61158248544541e-15 1.6115822661637383e-15 2.1928167159536377e-22
6.004529249263818 1.2383873393595374e-23 1.9738079828972707e-15 1.9738077462830673e-15 2.366142029250668e-22
6.027089341400364 1.391086558493898e-23 2.225518539408612e-15 2.2255182921017525e-15 2.4730685965785123e-22
6.049734195844842 1.5715470930112577e-23 2.5236732615453675e-15 2.523673002436138e-15 2.5910923013519724e-22
6.095279466722835 2.0928559458814803e-23 3.3861203672516984e-15 3.3861200771022755e-15 2.9014942307309034e-22
6.141167624020661 2.8951877704043084e-23 4.7195122786082194e-15 4.7195119447020035e-15 3.339062150957412e-22
6.164241091010745 3.4075629950944357e-23 5.575617114947213e-15 5.575616752658057e-15 3.6228915480944514e-22
6.187401249150058 3.991259228092286e-23 6.55522570155107e-15 6.555225308273323e-15 3.9327774681016865e-22
6.1990139391386085 4.276266511532609e-23 7.036501912701082e-15 7.03650150348503e-15 4.0921605121828367e-22
6.204828454712694 4.4264000879520195e-23 7.29037516659899e-15 7.290374749129484e-15 4.1746950684390175e-22
6.210648424152782 4.535994513785348e-23 7.477887011570512e-15 7.477886587171002e-15 4.243995123964271e-22
6.233982942956859 4.908337047113697e-23 8.122120343547841e-15 8.122119894439209e-15 4.491086340590528e-22
6.239830258556775 4.9559344061023485e-23 8.208574771288778e-15 8.208574318635757e-15 4.526530214221711e-22
6.245683058788269 4.960060690871641e-23 8.223115029654305e-15 8.223114573428671e-15 4.562256362405264e-22
6.257405133728602 4.949828990177673e-23 8.221553781962777e-15 8.22155331941272e-15 4.625500555242181e-22
6.269149208991335 4.876593235194197e-23 8.115112994774326e-15 8.115112529769677e-15 4.650046455362801e-22
6.280915325867298 4.6929421427119484e-23 7.824157274925292e-15 7.824156812280915e-15 4.62644377985472e-22
6.304513850009849 4.2400529190574776e-23 7.0956520879186375e-15 7.095651634465415e-15 4.534532213844988e-22
6.32820103803542 3.678687114960906e-23 6.1793465478231166e-15 6.17934610903914e-15 4.387839771931752e-22
6.3519772230701035 3.163873251115101e-23 5.334545723993947e-15 5.334545298928168e-15 4.250657776329749e-22
6.375842739491607 2.730778171568525e-23 4.621611682470611e-15 4.621611269325383e-15 4.1314522724999348e-22
6.399797922933955 2.3836558958182932e-23 4.0492934881905126e-15 4.0492930824288446e-15 4.0576166706110046e-22
6.42384311029221 2.0950639986325306e-23 3.572412931034958e-15 3.57241253129772e-15 3.997372377801289e-22
6.447978639727206 1.8847549448506173e-23 3.2258778206204098e-15 3.2258774227736156e-15 3.9784679547484924e-22
6.472204850670314 1.7095632693674933e-23 2.937019743077005e-15 2.9370193461066072e-15 3.9697039766023497e-22
6.496522083828205 1.5956990217055558e-23 2.7517015656095223e-15 2.751701165933319e-15 3.996762034990556e-22
