Dust emission spectrum from A.P. Jones, M. Kohler, N. Ysard, M. Bocchio, and L. Verstraete (2017), A&A, 602A, 46J 
inside the DustPedia framework.

lambda    nu*dP/dnu     j_nu    j_nu(carb.) j_nu(sil)
 (um)   (erg s-1 H-1) (Jy cm2 sr-1 H-1)
0.9927057738263894 2.4238512667335243e-25 6.386985759846343e-18 6.386985759156491e-18 6.898520474166402e-28
1.0001793341362166 2.4638502081393774e-25 6.541263000430915e-18 6.5412629996000594e-18 8.30855830246069e-28
1.0077091589558085 2.503792298747077e-25 6.6973491153015005e-18 6.697349114302117e-18 9.99384022066241e-28
1.0114953028030835 2.523737127286621e-25 6.77606276570364e-18 6.776062764608111e-18 1.0955295256537685e-27
1.0152956718711033 2.5436618816786043e-25 6.855219256025872e-18 6.855219254825337e-18 1.2005338496751581e-27
1.0229392996569957 2.583423847630953e-25 7.014794634201793e-18 7.014794632761481e-18 1.4403101602058323e-27
1.0267826658714554 2.603212804972184e-25 7.09508549805427e-18 7.095085496477385e-18 1.5768839962872949e-27
1.0306404723013447 2.6229729753874937e-25 7.175801918741419e-18 7.175801917015574e-18 1.7258450917908607e-27
1.03451277320114 2.642702461427816e-25 7.25694045428759e-18 7.25694045239933e-18 1.8882616410118926e-27
1.0383996230291617 2.66239937634534e-25 7.338497620077025e-18 7.338497618011737e-18 2.065288811529459e-27
1.0403485208654093 2.672235033040271e-25 7.379432088918653e-18 7.379432086758986e-18 2.159667773577803e-27
1.0423010764483396 2.682061844457695e-25 7.420469889697246e-18 7.42046988743907e-18 2.2581753743909088e-27
1.0462171883269815 2.7016880015041722e-25 7.502853695783803e-18 7.502853693315533e-18 2.4682708023856962e-27
1.0471985131304309 2.706588649809468e-25 7.523513527996982e-18 7.52351352547333e-18 2.5236518837305707e-27
1.048180758391296 2.711486884005206e-25 7.54419879921088e-18 7.544198796630656e-18 2.5802229454145075e-27
1.0501480137395462 2.7212759949939392e-25 7.585645430865989e-18 7.585645428168957e-18 2.697032866552527e-27
1.0521189612883777 2.731055104803884e-25 7.627193133687573e-18 7.627193130868672e-18 2.818901041952929e-27
1.0531058218030118 2.7359333259090812e-25 7.647983744934579e-18 7.647983742052776e-18 2.8818008537065674e-27
1.0540936079674168 2.7407843500117465e-25 7.668730550555186e-18 7.668730547609128e-18 2.946057867204556e-27
1.058054026499678 2.7601610010066037e-25 7.75196302646023e-18 7.751963023243148e-18 3.21708154029871e-27
1.0590464539527713 2.7649981615044357e-25 7.77283216532124e-18 7.77283216203276e-18 3.288479701734414e-27
1.06003981227728 2.7698324649255367e-25 7.793725594256248e-18 7.793725590894856e-18 3.3613940291325125e-27
1.0620293250338977 2.7794923886061747e-25 7.835585085477388e-18 7.835585081965492e-18 3.511894281974953e-27
1.0660195594769086 2.798776722789797e-25 7.919592935558573e-18 7.919592931726097e-18 3.832476210288627e-27
1.070024785945596 2.8180122272737053e-25 8.003982749815555e-18 8.00398274563459e-18 4.180962616834819e-27
1.0740450607676866 2.837197139805881e-25 8.088750667370814e-18 8.08875066281116e-18 4.559655312991571e-27
1.07808044048254 2.8563297124528946e-25 8.17389279420719e-18 8.173892789236155e-18 4.971034741069468e-27
1.0861967418109137 2.89439709233039e-25 8.345186407504962e-18 8.345186401602212e-18 5.9027478786511016e-27
1.0902777775684922 2.9132515552717435e-25 8.43110659716515e-18 8.431106590736091e-18 6.4290582604995455e-27
1.0943741465085532 2.932045492272862e-25 8.517378794515239e-18 8.517378787515202e-18 7.00003555664356e-27
1.1026131145906286 2.969445154379206e-25 8.690962880555023e-18 8.690962872264418e-18 8.29060304256941e-27
1.1109141095355224 3.006582973321342e-25 8.865905734689119e-18 8.865905724882625e-18 9.806491045480576e-27
1.1192775983109025 3.0434116164400413e-25 9.04207153764435e-18 9.04207152605965e-18 1.1584698522705078e-26
1.1277040513999907 3.079760076915324e-25 9.218949980858899e-18 9.218949967191005e-18 1.36678919923392e-26
1.1361939428280308 3.1158040839323833e-25 9.397060976252071e-18 9.397060960146867e-18 1.6105202192702663e-26
1.1447477501889525 3.151531722957946e-25 9.57636994048614e-18 9.576369921533004e-18 1.8953132470039462e-26
1.1533659546722406 3.186950814513025e-25 9.756901521669796e-18 9.756901499393185e-18 2.227660911881525e-26
1.1707974979042381 3.256978028948595e-25 1.0121993348456812e-17 1.0121993317797636e-17 3.065917690634777e-26
1.1884924949847024 3.325621613747052e-25 1.0491527195616472e-17 1.0491527153629514e-17 4.198696185001741e-26
1.2064549276569216 3.3934189278520666e-25 1.0867208825038813e-17 1.0867208767819704e-17 5.721911320153067e-26
1.2246888378427687 3.459630989857047e-25 1.1246696389784434e-17 1.1246696312185589e-17 7.759884932806392e-26
1.2431983285522175 3.5241038224304307e-25 1.162943311206248e-17 1.1629433007330442e-17 1.04732036320765e-25
1.2619875648066055 3.586814600725001e-25 1.2015267318914744e-17 1.201526717823238e-17 1.4068236805713059e-25
1.3004222497298317 3.7059131806742966e-25 1.2792312653133357e-17 1.2792312402836263e-17 2.50297093800119e-25
1.3400274889804893 3.8164707962466624e-25 1.357516397039484e-17 1.3575163533169817e-17 4.372250212099456e-25
1.3808389325824078 3.918088767643863e-25 1.4361067634727215e-17 1.436106688450822e-17 7.502189955780746e-25
1.4228933163050095 4.0112707975018533e-25 1.515038796641471e-17 1.5150386701334683e-17 1.265080024715545e-24
1.466228494730424 4.0982602936308565e-25 1.595036503998664e-17 1.5950362942443672e-17 2.0975429666922158e-24
1.5108834753276823 4.177389726366195e-25 1.6753494162902787e-17 1.6753490741868586e-17 3.421034202083676e-24
1.5568984535646726 4.247312857367615e-25 1.7552701715658507e-17 1.755269622138937e-17 5.494269139820622e-24
1.6043148490894465 4.308170132688559e-25 1.8346443249455366e-17 1.8346434544509867e-17 8.704945495010269e-24
1.6531753430134553 4.360158944053064e-25 1.913333490924288e-17 1.9133321319034483e-17 1.3590208392310042e-23
1.7035239163302658 4.403898996599194e-25 1.9913840213367596e-17 1.991381930142238e-17 2.091194521040057e-23
1.755405889504358 4.4429011267096225e-25 2.0702063321227915e-17 2.0702031589862923e-17 3.1731364992557485e-23
1.8088679632656115 4.476318471935759e-25 2.1493011812229267e-17 2.1492964315514934e-17 4.7496714323776487e-23
1.8639582606462262 4.503581069795313e-25 2.228248388189974e-17 2.2282413721523183e-17 7.016037655820814e-23
1.9207263702978936 4.5251275457311625e-25 2.3070964813478486e-17 2.30708624987077e-17 1.0231477077912786e-22
1.979223391128241 4.541959033103136e-25 2.3862034029752068e-17 2.3861886672618194e-17 1.4735713387065554e-22
2.039501978296691 4.555268769834413e-25 2.4660823235540314e-17 2.4660613560692664e-17 2.096748476528252e-22
2.1016163906111602 4.568378270996873e-25 2.5485017557030683e-17 2.548472267777034e-17 2.9487926033976927e-22
2.1656225393682647 4.583217224217784e-25 2.6346482268393548e-17 2.6346072238472544e-17 4.1002992100993447e-22
2.231578038680979 4.599929137355841e-25 2.7247875935669047e-17 2.724731204260498e-17 5.63893064062565e-22
2.299542257339062 4.619669772032047e-25 2.8198224236653057e-17 2.819745701277933e-17 7.672238737267252e-22
2.369576372248914 4.644981612559486e-25 2.921622785677036e-17 2.9215194777435165e-17 1.0330793352005505e-21
2.4417434235010123 4.678864385637649e-25 3.032563596516415e-17 3.032425887007958e-17 1.3770950845679997e-21
2.5161083711144245 4.726451670568941e-25 3.1567049926798776e-17 3.1565232089848526e-17 1.81783695025029e-21
2.5927381535095444 4.796138406085668e-25 3.300804472224303e-17 3.3005667635005276e-17 2.3770872377580424e-21
2.6717017477616296 4.897929774542173e-25 3.4735212621497606e-17 3.473213264046799e-17 3.0799810296161905e-21
2.753070231689431 5.046881784068833e-25 3.688160868951554e-17 3.68776534573365e-17 3.955232179038321e-21
2.836916847834745 5.277119858909788e-25 3.9738639819605794e-17 3.9733604358205686e-17 5.0354614001129305e-21
2.9233170693905177 5.663793448196194e-25 4.394938095761777e-17 4.39430247557597e-17 6.356201858063591e-21
2.967498994190263 5.989980921784975e-25 4.7182989330694115e-17 4.717588224433307e-17 7.107086361044192e-21
3.0123486681368425 6.370425265659905e-25 5.093814163277634e-17 5.0930205539269946e-17 7.93609350642065e-21
3.0578761833420214 7.217500513472348e-25 5.858361309076212e-17 5.857476062357646e-17 8.852467185629513e-21
3.1040917844459814 8.307950312002447e-25 6.845384984314293e-17 6.844399386732472e-17 9.855975818208418e-21
3.127460860933648 9.459559357942416e-25 7.852938984865006e-17 7.851899406721254e-17 1.0395781437518704e-20
3.1510058709225794 1.0993226370249382e-24 9.194832376171886e-17 9.193736346801359e-17 1.0960293705260208e-20
3.162844764501044 1.242019627478014e-24 1.0427393644220259e-16 1.0426268330122076e-16 1.1253140981803304e-20
3.1747281389236908 1.4079320865555049e-24 1.1864725118104642e-16 1.1863569873912674e-16 1.1552441919688492e-20
3.1986289994194426 1.8706011939960736e-24 1.5882340793028981e-16 1.5881123560331543e-16 1.2172326974373507e-20
3.2227097969389145 2.9609882191182618e-24 2.532954052645265e-16 2.532825741403235e-16 1.2831124203015707e-20
3.2348180950136065 3.994914973995865e-24 3.4302584061194734e-16 3.4301265740853295e-16 1.3183203414525754e-20
3.240889293275058 4.767894974669388e-24 4.101666158179759e-16 4.1015324688698637e-16 1.3368930989618117e-20
3.2469718861334385 5.662123437832063e-24 4.880083964977654e-16 4.879948353785991e-16 1.3561119166287052e-20
3.2714166318528037 1.0431590897754294e-23 9.058490580705743e-16 9.058347011319447e-16 1.4356938629868826e-20
3.2744851364798273 1.0729753938275921e-23 9.326146193578265e-16 9.32600168190864e-16 1.4451166962332515e-20
3.2775565192852394 1.1036477149059739e-23 9.601743299458167e-16 9.60159784037323e-16 1.4545908493830933e-20
3.283707930232385 1.0741556545865092e-23 9.362701421231952e-16 9.362554258971039e-16 1.4716226090966924e-20
3.2898708863219004 9.80618545591433e-24 8.563442570054706e-16 8.563293849589442e-16 1.487204652633812e-20
3.29141343181113 9.585598822255798e-24 8.374735875542249e-16 8.374586763580434e-16 1.4911196181593883e-20
3.292184975758714 9.477209944654192e-24 8.281979728469009e-16 8.281830420466504e-16 1.4930800250533274e-20
3.295272960557952 8.793091509936768e-24 7.691347273371639e-16 7.691197201261601e-16 1.5007211003602964e-20
3.3076538914384823 6.42298729115789e-24 5.639317609734685e-16 5.63916446427033e-16 1.5314546435401488e-20
3.310756385682612 5.9405802311354056e-24 5.220661367587893e-16 5.220507446556364e-16 1.5392103152811513e-20
3.313861789986515 5.495472607989238e-24 4.834024776554408e-16 4.833870077053446e-16 1.546995009620053e-20
3.3200813396944477 4.871282664160318e-24 4.293005923797771e-16 4.292849553628308e-16 1.56370169464073e-20
3.345076488085796 3.75799710292414e-24 3.336813445080448e-16 3.336649638829558e-16 1.63806250888849e-20
3.3482140837626964 3.799783728536321e-24 3.3770814135530594e-16 3.376916600277901e-16 1.6481327515986562e-20
3.3513546224236106 3.84203174810961e-24 3.4178324383317844e-16 3.417666613016376e-16 1.6582531540756636e-20
3.3576445397418455 4.150634292176966e-24 3.699292058430935e-16 3.699124118582843e-16 1.6793984809129987e-20
3.3702598118196083 5.288715018715269e-24 4.731327171406825e-16 4.731154795113481e-16 1.7237629334223307e-20
3.382922481734668 5.548049979652784e-24 4.981978443276915e-16 4.981801738516971e-16 1.767047599443529e-20
3.389271646505754 5.6823987083460114e-24 5.112196215209111e-16 5.112017313216632e-16 1.7890199247956097e-20
3.395632727569191 5.8271841861281535e-24 5.252292322900189e-16 5.252111156353773e-16 1.811665464157208e-20
3.421196662673239 6.522419860523984e-24 5.923197646170489e-16 5.923007086650797e-16 1.9055951969266152e-20
3.4276182099114902 6.3824754718923544e-24 5.806989342255741e-16 5.806796668713208e-16 1.9267354253324747e-20
3.4340518103208963 5.768982810889302e-24 5.25866519298689e-16 5.258470511298877e-16 1.9468168801257052e-20
3.4469541582030403 4.895228921566919e-24 4.478967867358292e-16 4.478769313586181e-16 1.9855377210990952e-20
3.472904465399547 4.650490531715828e-24 4.2870745349599086e-16 4.286867085753054e-16 2.074492068552023e-20
3.4990501388274233 4.276123285218614e-24 3.971639456697371e-16 3.9714228628700987e-16 2.165938272733745e-20
3.5253949054701885 2.943480108654207e-24 2.7544716760509356e-16 2.754246132460244e-16 2.255435906913422e-20
3.5519380250092896 1.6908375677319906e-24 1.5941775950426462e-16 1.5939430021225183e-16 2.3459292012762e-20
3.578680990867387 1.1942824772473615e-24 1.134486885267557e-16 1.1342423637165591e-16 2.4452155099771018e-20
3.605625307711299 9.935726369993012e-25 9.509324089413011e-17 9.506773961924566e-17 2.5501274884466968e-20
3.660119384959845 8.474331019505056e-25 8.233227359391797e-17 8.230455302083424e-17 2.7720573083737324e-20
3.715437065384467 7.440467113625571e-25 7.338031029070323e-17 7.335022775792814e-17 3.008253277510209e-20
3.8285932144167436 6.922123705333703e-25 7.034739414534328e-17 7.031215586931292e-17 3.523827603037791e-20
3.94519561050918 6.829540822902245e-25 7.152032505353824e-17 7.147934258346415e-17 4.0982470074091445e-20
4.06534921144712 6.911946986151825e-25 7.458778130039716e-17 7.454043989090672e-17 4.7341409490431974e-20
4.189162171576248 7.095812809086347e-25 7.890395206922249e-17 7.88495908211515e-17 5.436124807097515e-20
4.316745939156006 7.353717114126175e-25 8.426220921382659e-17 8.420015229215006e-17 6.205692167652172e-20
4.448215356677963 7.676437210660833e-25 9.063896550098227e-17 9.056859469451599e-17 7.037080646625985e-20
4.58368876423945 8.065061246782038e-25 9.81278365419596e-17 9.804848178456446e-17 7.93547573951092e-20
4.723288106065518 8.528306686682362e-25 1.0692436498655549e-16 1.0683525791997571e-16 8.910706657978394e-20
4.867139040275056 9.083616207475047e-25 1.1735509856910798e-16 1.172556432800583e-16 9.945528904967637e-20
4.940699165968905 9.417764072298647e-25 1.2351100358697198e-16 1.2340610802449819e-16 1.0489556247378233e-19
5.015371051989984 9.763608558246139e-25 1.29981894146032e-16 1.2987138719062732e-16 1.1050695540473855e-19
5.091171501069577 1.0184742234834644e-24 1.3763763509036447e-16 1.3752123543719792e-16 1.1639965316654797e-19
5.129500256944802 1.0400798436000924e-24 1.4161562354687366e-16 1.4149621250266198e-16 1.194110442116854e-19
5.168117569889187 1.0625947132094127e-24 1.4577044136816448e-16 1.4564795253193724e-16 1.2248883622723598e-19
5.20702561229733 1.0901888347217315e-24 1.506818268079901e-16 1.5055601217886195e-16 1.2581462912815324e-19
5.246226572918644 1.118478440363608e-24 1.5575575167161602e-16 1.5562655636173772e-16 1.2919530987826369e-19
5.265937586045735 1.1328909751408287e-24 1.583555385301235e-16 1.5822463230011506e-16 1.3090623000846372e-19
5.285722656980489 1.1474858125979376e-24 1.6099824042505867e-16 1.6086560955876331e-16 1.3263086629537214e-19
5.305582063971359 1.162265891982007e-24 1.6368465317806618e-16 1.6355028396329634e-16 1.3436921476986423e-19
5.3255160863122235 1.1781387751970266e-24 1.6654346026913573e-16 1.6640732838389332e-16 1.3613188524244267e-19
5.365609099470188 1.2176376721861252e-24 1.7342293784921438e-16 1.732831565138447e-16 1.3978133536965214e-19
5.406003951863644 1.258626679982549e-24 1.806103879293254e-16 1.8046689660789766e-16 1.434913214277707e-19
5.446702915881641 1.3011777988653148e-24 1.8812207719725593e-16 1.8797481527570222e-16 1.4726192155376021e-19
5.487708281020852 1.3471385721239564e-24 1.962333062608043e-16 1.960822003999757e-16 1.5110586082850693e-19
5.529022354014368 1.4109784337702e-24 2.07079999208486e-16 2.069248767049561e-16 1.551225035299319e-19
5.570647458961463 1.4785588370329503e-24 2.186319957307719e-16 2.1847278907111147e-16 1.5920665966038892e-19
5.612585937458331 1.5501490715826369e-24 2.309435840238451e-16 2.307802254911521e-16 1.6335853269303629e-19
5.654840148729818 1.6288194626193001e-24 2.4449090936205794e-16 2.443233148968249e-16 1.6759446523303413e-19
5.67608639626678 1.6823886216697466e-24 2.5348061537561155e-16 2.5331080685751344e-16 1.6980851809810302e-19
5.686739436050992 1.7099975129608024e-24 2.5812391371288215e-16 2.5795299101085823e-16 1.7092270202388237e-19
5.6974124697621304 1.738173478919515e-24 2.6286950902374894e-16 2.626974673582706e-16 1.7204166547827712e-19
5.718818669136295 1.7962812585434437e-24 2.7267799880458295e-16 2.7250370485018364e-16 1.742939543992787e-19
5.740305295436557 1.8603275854576946e-24 2.834613490993515e-16 2.832847697372082e-16 1.7657936214329993e-19
5.7835210386641895 2.0264652750800953e-24 3.111006503525622e-16 3.109193327061996e-16 1.8131764636253203e-19
5.827062130521658 2.2178016684799247e-24 3.430376493108652e-16 3.4285147520687164e-16 1.8617410399346813e-19
5.8489554468988025 2.352039051653056e-24 3.651676313507181e-16 3.6497884873642245e-16 1.8878261429578986e-19
5.870931020387893 2.4960662047447953e-24 3.8898469241087913e-16 3.8879327559225182e-16 1.9141681862727467e-19
5.892989160043636 2.6506707644553526e-24 4.146301352350579e-16 4.1443605839102397e-16 1.9407684403391918e-19
5.915130176081913 2.82649030282526e-24 4.4379380913134814e-16 4.4359697787641913e-16 1.9683125492903948e-19
5.95966208400165 3.318106331720844e-24 5.249057957171582e-16 5.247027787001122e-16 2.0301701704611103e-19
6.004529249263818 4.026638526572484e-24 6.4178718688297325e-16 6.415772528689313e-16 2.099340140419726e-19
6.027089341400364 4.5191610129619795e-24 7.229943065375114e-16 7.227804216064237e-16 2.138849310876438e-19
6.049734195844842 5.1011321884612224e-24 8.19166728434512e-16 8.189486658559134e-16 2.1806257859871306e-19
6.095279466722835 6.782214880285448e-24 1.0973233005551848e-15 1.0970951310659403e-15 2.281694892443878e-19
6.141167624020661 9.369171800178894e-24 1.5272902781417594e-15 1.527049190124317e-15 2.410880174429012e-19
6.164241091010745 1.1021261617234958e-23 1.8033513977534852e-15 1.803102299658183e-15 2.490980953019068e-19
6.187401249150058 1.2903011551939147e-23 2.1191846512337376e-15 2.118927298600303e-15 2.5735263343466305e-19
6.1990139391386085 1.3821838369321079e-23 2.2743529165097806e-15 2.274091357357557e-15 2.6155915222415095e-19
6.204828454712694 1.4305822376185867e-23 2.356199397180477e-15 2.3559357102589595e-15 2.6368692151790605e-19
6.210648424152782 1.4659138138578065e-23 2.4166558922006285e-15 2.4163903684989643e-15 2.6552370166508936e-19
6.233982942956859 1.58594632509479e-23 2.6243607126372935e-15 2.62408868200489e-15 2.7203063240346533e-19
6.239830258556775 1.6012883054775386e-23 2.652233405211705e-15 2.651960394949501e-15 2.7301026220499613e-19
6.245683058788269 1.6026163882841585e-23 2.6569229149802766e-15 2.656648922349964e-15 2.73992630313111e-19
6.257405133728602 1.599313616011754e-23 2.6564236732942216e-15 2.6561479158095125e-15 2.7575748470903255e-19
6.269149208991335 1.575700262666535e-23 2.622114468180634e-15 2.6218378444460923e-15 2.766237345418155e-19
6.280915325867298 1.516491990736864e-23 2.528322634472773e-15 2.5280462593091866e-15 2.7637516358682254e-19
6.304513850009849 1.3704843365541515e-23 2.293480819643145e-15 2.293205953934457e-15 2.748657086876743e-19
6.32820103803542 1.189516672398795e-23 1.9981138687419054e-15 1.99784158970451e-15 2.7227903739581725e-19
6.3519772230701035 1.023559515766894e-23 1.7258039765541028e-15 1.7255339428367408e-15 2.700337173617394e-19
6.375842739491607 8.839357962338384e-24 1.495986764857497e-15 1.4957186295240412e-15 2.6813533345587746e-19
6.399797922933955 7.720452245874579e-24 1.3115306223499008e-15 1.311263090389515e-15 2.675319603859261e-19
6.42384311029221 6.79013482586863e-24 1.157824556731288e-15 1.1575573700453154e-15 2.6718668597296213e-19
6.447978639727206 6.1122633156761416e-24 1.0461526957497495e-15 1.045884834652226e-15 2.6786109752366108e-19
6.472204850670314 5.547550080959161e-24 9.530658739242624e-16 9.52797130452952e-16 2.687434713102605e-19
6.496522083828205 5.180593271434806e-24 8.933668832206492e-16 8.930964221336334e-16 2.704610870160263e-19
