Dust emission spectrum from A.P. Jones, M. Kohler, N. Ysard, M. Bocchio, and L. Verstraete (2017), A&A, 602A, 46J 
inside the DustPedia framework.

lambda    nu*dP/dnu     j_nu    j_nu(carb.) j_nu(sil)
 (um)   (erg s-1 H-1) (Jy cm2 sr-1 H-1)
0.9927057738263894 5.176939573240783e-25 1.3641529819787002e-17 1.364152976721999e-17 5.256701248717014e-26
1.0001793341362166 5.2631574156384325e-25 1.3973129029770848e-17 1.397312896647729e-17 6.329355701159409e-26
1.0077091589558085 5.349398625844949e-25 1.4309010444726512e-17 1.4309010368617412e-17 7.610909963038412e-26
1.0114953028030835 5.392519372837725e-25 1.4478548237275028e-17 1.4478548153856753e-17 8.341828156731248e-26
1.0152956718711033 5.435635658116226e-25 1.4649145981489135e-17 1.4649145890089784e-17 9.139935078860045e-26
1.0229392996569957 5.521799168638325e-25 1.4993392282425544e-17 1.4993392172807072e-17 1.0961847469491224e-25
1.0267826658714554 5.564744116824687e-25 1.5166772078046662e-17 1.5166771958053874e-17 1.1999278703008914e-25
1.0306404723013447 5.607668976133456e-25 1.5341188100750664e-17 1.5341187969444964e-17 1.3130570227354158e-25
1.03451277320114 5.650570455508983e-25 1.5516636445795908e-17 1.5516636302158e-17 1.4363790842580905e-25
1.0383996230291617 5.693445291081352e-25 1.5693113170719056e-17 1.569311301364242e-17 1.5707663831463003e-25
1.0403485208654093 5.714871705128671e-25 1.5781735933945537e-17 1.578173576970541e-17 1.6424012103010277e-25
1.0423010764483396 5.736290247031162e-25 1.5870614297958303e-17 1.5870614126242137e-17 1.7171616621574962e-25
1.0462171883269815 5.779102116441803e-25 1.6049135817502508e-17 1.6049135629844165e-17 1.8765833933360023e-25
1.0471985131304309 5.789799541032229e-25 1.6093925160889558e-17 1.6093924969029437e-17 1.9186012282558264e-25
1.048180758391296 5.800494649643493e-25 1.61387779630453e-17 1.613877776689334e-17 1.9615195494598012e-25
1.0501480137395462 5.821877722139074e-25 1.6228673689565664e-17 1.6228673484552517e-17 2.0501314637020377e-25
1.0521189612883777 5.8432509415646845e-25 1.6318822487880917e-17 1.6318822273623885e-17 2.1425703404756012e-25
1.0531058218030118 5.853918049569279e-25 1.6363947784586025e-17 1.6363947565558335e-17 2.1902768844637634e-25
1.0540936079674168 5.8645311601406295e-25 1.6408992291662988e-17 1.6408992067761966e-17 2.239010199914853e-25
1.058054026499678 5.906954417917517e-25 1.6589790316573258e-17 1.658979007212037e-17 2.444528883376497e-25
1.0590464539527713 5.917552697034683e-25 1.6635144494442678e-17 1.663514424457638e-17 2.4986629645810983e-25
1.06003981227728 5.928147866797909e-25 1.6680560409721583e-17 1.6680560154327233e-17 2.553943483542295e-25
1.0620293250338977 5.949328688871692e-25 1.6771577189496255e-17 1.6771576922692594e-17 2.6680366074054886e-25
1.0660195594769086 5.9916509449585155e-25 1.6954348701573847e-17 1.6954348410471283e-17 2.911025623981338e-25
1.070024785945596 6.033918192547292e-25 1.713810062977274e-17 1.7138100312262275e-17 3.1751046448396544e-25
1.0740450607676866 6.076127473172759e-25 1.7322828739711395e-17 1.7322828393510663e-17 3.462007314118941e-25
1.07808044048254 6.1182758642729715e-25 1.7508528788508116e-17 1.7508528411147994e-17 3.7736012485982983e-25
1.0861967418109137 6.202307245193478e-25 1.7882622344705535e-17 1.7882621896799302e-17 4.479062287717159e-25
1.0902777775684922 6.2440226027888365e-25 1.8070537047841966e-17 1.807053656009938e-17 4.877425921425122e-25
1.0943741465085532 6.285662915059134e-25 1.825939337001706e-17 1.8259392839067666e-17 5.309493961185159e-25
1.1026131145906286 6.368707586703832e-25 1.863991363892481e-17 1.8639913010352065e-17 6.2857274262514375e-25
1.1109141095355224 6.451420035917081e-25 1.90241488097499e-17 1.902414806656606e-17 7.431838380852534e-25
1.1192775983109025 6.533706922960183e-25 1.9411848559779598e-17 1.941184768221855e-17 8.775610513920225e-25
1.1277040513999907 6.6152139425463325e-25 1.980197318165697e-17 1.9801972146750708e-17 1.0349062596454378e-24
1.1361939428280308 6.696318581562967e-25 2.0195658113375314e-17 2.019565689447118e-17 1.2189041350353047e-24
1.1447477501889525 6.777002567371321e-25 2.0592870190708255e-17 2.0592868756918785e-17 1.433789467477312e-24
1.1533659546722406 6.857287214636065e-25 2.0993695840653528e-17 2.0993694156228417e-17 1.6844251116265727e-24
1.1707974979042381 7.016910929448682e-25 2.1807063211145302e-17 2.1807060895076092e-17 2.3160692184343392e-24
1.1884924949847024 7.174715042623429e-25 2.263448062741862e-17 2.2634477458699084e-17 3.168719534072195e-24
1.2064549276569216 7.331872163858678e-25 2.3479855442892403e-17 2.3479851128902212e-17 4.313990199349197e-24
1.2246888378427687 7.48691030049903e-25 2.4338724937465554e-17 2.433871909289081e-17 5.84457474695664e-24
1.2431983285522175 7.63954973084071e-25 2.521027673350869e-17 2.5210268853475774e-17 7.880032907354159e-24
1.2619875648066055 7.789833278986688e-25 2.6094721817482438e-17 2.6094711243692384e-17 1.0573790057813612e-23
1.3004222497298317 8.081417314537411e-25 2.789596299965067e-17 2.789594422776635e-17 1.877188432001475e-23
1.3400274889804893 8.3612950480228e-25 2.9741076859120255e-17 2.974104414105247e-17 3.271806779470097e-23
1.3808389325824078 8.629275281736632e-25 3.162909604884271e-17 3.1629040038017403e-17 5.601082531390654e-23
1.4228933163050095 8.887093824423752e-25 3.3566150512152226e-17 3.3566056285318736e-17 9.422683349071479e-23
1.466228494730424 9.140216214033258e-25 3.557357871700056e-17 3.557342286517815e-17 1.5585182242113598e-22
1.5108834753276823 9.385931651331797e-25 3.764244215508642e-17 3.764218859863781e-17 2.5355644860098955e-22
1.5568984535646726 9.6221696814586e-25 3.976515974873885e-17 3.976475356983744e-17 4.0617890139929647e-22
1.6043148490894465 9.850005465886472e-25 4.194647860249097e-17 4.194583673859476e-17 6.418638962055563e-22
1.6531753430134553 1.00706654201374e-24 4.419229131663393e-17 4.419129190257855e-17 9.994140553883934e-22
1.7035239163302658 1.0286176649476822e-24 4.65127102965656e-17 4.651117664123428e-17 1.5336553313247962e-21
1.755405889504358 1.0504765176278478e-24 4.894781757500054e-17 4.8945496939927766e-17 2.320635072788281e-21
1.8088679632656115 1.0725295256651734e-24 5.1497430106034356e-17 5.149396643854372e-17 3.4636674906314145e-21
1.8639582606462262 1.0946970938057712e-24 5.416260964388108e-17 5.415750826123728e-17 5.101382643782544e-21
1.9207263702978936 1.1171095810828137e-24 5.695484950976549e-17 5.694743256195409e-17 7.416947811400278e-21
1.979223391128241 1.1400057501172715e-24 5.989234117954154e-17 5.98816920219398e-17 1.064915760174577e-20
2.039501978296691 1.1636391591046625e-24 6.299584297344542e-17 6.298073826372449e-17 1.5104709720949894e-20
2.1016163906111602 1.188727518415955e-24 6.631399564630507e-17 6.629282201235606e-17 2.1173633948993922e-20
2.1656225393682647 1.2156592799538417e-24 6.988179721108075e-17 6.985245362122125e-17 2.934358985952834e-20
2.231578038680979 1.2443812639540363e-24 7.371145355595867e-17 7.367123740079234e-17 4.021615516632416e-20
2.299542257339062 1.2750620938112712e-24 7.782912764591684e-17 7.777460340535369e-17 5.452424056315622e-20
2.369576372248914 1.308127013115595e-24 8.227919950736344e-17 8.220604848941351e-17 7.315101794992002e-20
2.4417434235010123 1.3440774990286571e-24 8.711516638445255e-17 8.701802081976048e-17 9.714556469207372e-20
2.5161083711144245 1.383844153645973e-24 9.242425509408124e-17 9.229651211531946e-17 1.277429787618121e-19
2.5927381535095444 1.4289940624553879e-24 9.834641106582089e-17 9.818003215125667e-17 1.6637891456419576e-19
2.6717017477616296 1.481277240426328e-24 1.0504944387938512e-16 1.0483475100090355e-16 2.1469287848156147e-19
2.753070231689431 1.5433535111050482e-24 1.1278520619572711e-16 1.1251066948567076e-16 2.7453671005634395e-19
2.836916847834745 1.6215771589892943e-24 1.2211068231087679e-16 1.2176269291887596e-16 3.4798939200079157e-19
2.9233170693905177 1.730063773811567e-24 1.3424788981390931e-16 1.3381061547840449e-16 4.372743355048292e-19
2.967498994190263 1.8096779912542513e-24 1.425480622864769e-16 1.4206032557554269e-16 4.877367109342191e-19
3.0123486681368425 1.8994992216524437e-24 1.5188461735114268e-16 1.5134131795953124e-16 5.43299391611455e-19
3.0578761833420214 2.0787942140750138e-24 1.687333110754369e-16 1.6812874990489144e-16 6.045611705454216e-19
3.1040917844459814 2.3031229346795203e-24 1.8976718157917192e-16 1.8909575341963125e-16 6.714281595407018e-19
3.127460860933648 2.531081514301393e-24 2.1012002721712365e-16 2.0941271726918737e-16 7.07309947936248e-19
3.1510058709225794 2.8308437442841543e-24 2.3677429023266004e-16 2.360295202942526e-16 7.447699384074292e-19
3.162844764501044 3.1074601642189686e-24 2.608872649769628e-16 2.6012308696759034e-16 7.641780093723761e-19
3.1747281389236908 3.426884358036635e-24 2.887855267160592e-16 2.880015302750415e-16 7.839964410176337e-19
3.1986289994194426 4.311065964173781e-24 3.660310869254143e-16 3.6520609765395945e-16 8.24989271454821e-19
3.2227097969389145 6.385075919363092e-24 5.462062909258904e-16 5.45337803288521e-16 8.684876373693695e-19
3.2348180950136065 8.346498167239863e-24 7.166772180684956e-16 7.157855016077376e-16 8.917164607577761e-19
3.240889293275058 9.81259376218849e-24 8.441457702437159e-16 8.432418008759622e-16 9.039693677534678e-19
3.2469718861334385 1.1509524251760508e-23 9.919855220790366e-16 9.910688741895085e-16 9.166478895280631e-19
3.2714166318528037 2.0526412724634168e-23 1.7824540680732195e-15 1.7814849759808888e-15 9.690920923308628e-19
3.2744851364798273 2.109059985196498e-23 1.833164289332163e-15 1.832189002610894e-15 9.752867212696784e-19
3.2775565192852394 2.1670732666146954e-23 1.8853553480990357e-15 1.884373834456945e-15 9.815136420906687e-19
3.283707930232385 2.1115322174842438e-23 1.840482392770814e-15 1.8394897146490376e-15 9.926781217757472e-19
3.2898708863219004 1.9349300477291768e-23 1.6897153755957657e-15 1.688712510662857e-15 1.0028649329086226e-18
3.29141343181113 1.893259369921985e-23 1.6541008507657164e-15 1.6530954271704467e-15 1.005423595269917e-18
3.292184975758714 1.8727803606875983e-23 1.6365923171131687e-15 1.6355856123898841e-15 1.0067047232849803e-18
3.295272960557952 1.7438559207804124e-23 1.5253567492491458e-15 1.524345056183814e-15 1.0116930653321628e-18
3.3076538914384823 1.2963507647192227e-23 1.1381828056764295e-15 1.13715106337952e-15 1.031742296909366e-18
3.310756385682612 1.2050310222098019e-23 1.058997380663819e-15 1.0579605819693767e-15 1.0367986944422827e-18
3.313861789986515 1.1206802042046244e-23 9.857925350848764e-16 9.847506623084217e-16 1.0418727764545664e-18
3.3200813396944477 1.0025238148753276e-23 8.835128184354686e-16 8.824600440345141e-16 1.052774400954599e-18
3.345076488085796 7.9295554917793e-24 7.040837620096159e-16 7.029824367334499e-16 1.1013252761661623e-18
3.3482140837626964 8.010207725945132e-24 7.119121919185791e-16 7.10804290870438e-16 1.1079010481409422e-18
3.3513546224236106 8.091713084397546e-24 7.198305811797435e-16 7.187160732344851e-16 1.114507945258318e-18
3.3576445397418455 8.679518877216134e-24 7.735703266848562e-16 7.72442009945665e-16 1.1283167391913423e-18
3.3702598118196083 1.0837011322900494e-23 9.694877857369944e-16 9.683305014052271e-16 1.157284331767169e-18
3.382922481734668 1.1335912317777667e-23 1.0179301017324292e-15 1.0167446075453216e-15 1.185494187107747e-18
3.389271646505754 1.15940773583954e-23 1.0430665187815166e-15 1.041866715366367e-15 1.1998034151495159e-18
3.395632727569191 1.1873729150592919e-23 1.0702303972185413e-15 1.069015846890765e-15 1.2145503277765928e-18
3.421196662673239 1.3219980236140913e-23 1.2005445446874314e-15 1.1992688885971965e-15 1.2756560902346575e-18
3.4276182099114902 1.2958247202898331e-23 1.1789846076640744e-15 1.1776952559508859e-15 1.2893517131884438e-18
3.4340518103208963 1.1796723247212369e-23 1.0753198607962593e-15 1.0740175268335568e-15 1.3023339627024657e-18
3.4469541582030403 1.0139653332606515e-23 9.27743772366012e-16 9.26416462368127e-16 1.3273099978853513e-18
3.472904465399547 9.679831125286274e-24 8.923393615558247e-16 8.90954600931868e-16 1.3847606239569627e-18
3.4990501388274233 8.976078672534012e-24 8.336931805845554e-16 8.322494956960269e-16 1.4436848885283772e-18
3.5253949054701885 6.462407720017667e-24 6.047439889790922e-16 6.032428461067286e-16 1.501142872363729e-18
3.5519380250092896 4.0908058692918686e-24 3.8569471053577574e-16 3.841356436885707e-16 1.55906684720486e-18
3.578680990867387 3.1555382017327053e-24 2.9975460362423506e-16 2.9813202161773905e-16 1.6225820064960079e-18
3.605625307711299 2.783379578108751e-24 2.6639278786930195e-16 2.647032051744266e-16 1.6895826948753402e-18
3.660119384959845 2.524237407936289e-24 2.452420189957968e-16 2.434111972188655e-16 1.8308217769311937e-18
3.715437065384467 2.3441552178421117e-24 2.3118822330363917e-16 2.2920781209536837e-16 1.980411208270779e-18
3.8285932144167436 2.278960343905229e-24 2.3160366439388783e-16 2.2929930522192716e-16 2.3043591719606986e-18
3.94519561050918 2.293217377544423e-24 2.4015033589139907e-16 2.3748901217687535e-16 2.6613237145238075e-18
4.06534921144712 2.33918864062745e-24 2.5242509975417387e-16 2.4937327085091995e-16 3.051828903253866e-18
4.189162171576248 2.4028503488601987e-24 2.6719192551584764e-16 2.6371438212125047e-16 3.477543394597194e-18
4.316745939156006 2.4788121911095424e-24 2.8403348702090467e-16 2.8009549681982463e-16 3.937990201080003e-18
4.448215356677963 2.565139090798312e-24 3.0287690392777165e-16 2.984488186093203e-16 4.428085318451304e-18
4.58368876423945 2.6618859331375457e-24 3.2387244156947173e-16 3.1892297907352913e-16 4.9494624959424696e-18
4.723288106065518 2.770584639883222e-24 3.473643879665179e-16 3.4185800768212255e-16 5.5063802843953865e-18
4.867139040275056 2.8942570144907546e-24 3.7392136508408037e-16 3.678350726085037e-16 6.0862924755766964e-18
4.940699165968905 2.9659326071569147e-24 3.889727010244203e-16 3.825858412909254e-16 6.386859733494825e-18
5.015371051989984 3.038943870883059e-24 4.045714022478291e-16 3.978775915451012e-16 6.6938107027279404e-18
5.091171501069577 3.1257936169168936e-24 4.2242290604223917e-16 4.154094795587276e-16 7.013426483511528e-18
5.129500256944802 3.1698483365869703e-24 4.316015270337119e-16 4.2442605978111096e-16 7.175467252600976e-18
5.168117569889187 3.215401774165489e-24 4.4110000733996744e-16 4.33759622655227e-16 7.340384684740543e-18
5.20702561229733 3.2707393867606096e-24 4.520693756102637e-16 4.445499660961426e-16 7.519409514121009e-18
5.246226572918644 3.327050872705054e-24 4.633145269741782e-16 4.556140755502764e-16 7.700451423901762e-18
5.265937586045735 3.3555823694875945e-24 4.690434162354778e-16 4.612517007746379e-16 7.791715460839788e-18
5.285722656980489 3.384370207821777e-24 4.748447801482435e-16 4.669613125530712e-16 7.883467595172414e-18
5.305582063971359 3.413418903453223e-24 4.807198535357566e-16 4.727441512900568e-16 7.975702245699872e-18
5.3255160863122235 3.444527640563426e-24 4.869235817793858e-16 4.788545205446382e-16 8.069061234747657e-18
5.365609099470188 3.521704175062707e-24 5.01581298136661e-16 4.933190655760945e-16 8.262232560566362e-18
5.406003951863644 3.601211226075863e-24 5.167665415816717e-16 5.083089817100559e-16 8.457559871615618e-18
5.446702915881641 3.6831669675938074e-24 5.325060273947895e-16 5.23851026755205e-16 8.65500063958466e-18
5.487708281020852 3.771200421227585e-24 5.493385332014178e-16 5.404832680299718e-16 8.855265171446055e-18
5.529022354014368 3.893679365385209e-24 5.714496413298026e-16 5.623854388519515e-16 9.064202477851141e-18
5.570647458961463 4.0223969379747464e-24 5.947850353628953e-16 5.855095595400444e-16 9.275475822850906e-18
5.612585937458331 4.157809766706533e-24 6.194368701793373e-16 6.099478264635904e-16 9.489043715746774e-18
5.654840148729818 4.305860055537952e-24 6.463230976325155e-16 6.366172895492885e-16 9.705808083227154e-18
5.67608639626678 4.407185067822644e-24 6.64017795102031e-16 6.541986542645397e-16 9.819140837491462e-18
5.686739436050992 4.459263653645994e-24 6.731252986232237e-16 6.632492465765094e-16 9.876052046714141e-18
5.6974124697621304 4.512316453799188e-24 6.824119831280087e-16 6.724788574563769e-16 9.933125671631802e-18
5.718818669136295 4.6214386631954104e-24 7.015408306937886e-16 6.914930729753557e-16 1.0047757718432934e-17
5.740305295436557 4.741612360423455e-24 7.224877204952665e-16 7.123239018324339e-16 1.0163818662832416e-17
5.7835210386641895 5.054016199164724e-24 7.758868339801111e-16 7.654828197249946e-16 1.040401425511639e-17
5.827062130521658 5.411751646978608e-24 8.370606759017093e-16 8.264116973168593e-16 1.0648978584850019e-17
5.8489554468988025 5.664058549109323e-24 8.793777649041908e-16 8.685968451823802e-16 1.0780919721810555e-17
5.870931020387893 5.933640802223148e-24 9.246931984183487e-16 9.137794211843348e-16 1.0913777234014278e-17
5.892989160043636 6.2218737103321185e-24 9.73254156089256e-16 9.622066078791277e-16 1.1047548210128414e-17
5.915130176081913 6.549295160115959e-24 1.0283200488351549e-15 1.0171339208853008e-15 1.1186127949854312e-17
5.95966208400165 7.467103005355707e-24 1.1812537793794774e-15 1.1697538673070947e-15 1.1499912072382663e-17
6.004529249263818 8.788059880323786e-24 1.4006879911202261e-15 1.3888359906861524e-15 1.1852000434073633e-17
6.027089341400364 9.706698982740092e-24 1.5529183580017716e-15 1.5408639206413367e-15 1.2054437360434557e-17
6.049734195844842 1.0789383784423133e-23 1.7326161898926171e-15 1.7203474971501827e-15 1.2268692742434437e-17
6.095279466722835 1.391705084036732e-23 2.2516986606451247e-15 2.238906789423824e-15 1.2791871221300759e-17
6.141167624020661 1.8720331081976505e-23 3.051644294168221e-15 3.0381776712443508e-15 1.3466622923869869e-17
6.164241091010745 2.1788398534335184e-23 3.565121699884033e-15 3.5512336578867324e-15 1.3888041997299347e-17
6.187401249150058 2.5271312425377045e-23 4.1505486678683896e-15 4.136227282804711e-15 1.4321385063678308e-17
6.1990139391386085 2.6970785594341366e-23 4.437983084305401e-15 4.4234410741495004e-15 1.454201015590015e-17
6.204828454712694 2.7864959269344146e-23 4.589418105888149e-15 4.574764595849605e-15 1.465351003854344e-17
6.210648424152782 2.85169970349795e-23 4.701215600874056e-15 4.686466603753691e-15 1.474899712036625e-17
6.233982942956859 3.072651886923143e-23 5.084501769106205e-15 5.069417765954197e-15 1.508400315200747e-17
6.239830258556775 3.1005792746897995e-23 5.135527374870169e-15 5.120395316806545e-15 1.5132058063623144e-17
6.245683058788269 3.102507706021421e-23 5.143541447780092e-15 5.128361234137763e-15 1.5180213642328304e-17
6.257405133728602 3.095305924393166e-23 5.1412329960338625e-15 5.125967569912247e-15 1.5265426121616912e-17
6.269149208991335 3.050449305424825e-23 5.076236545566122e-15 5.060935357169664e-15 1.530118839645692e-17
6.280915325867298 2.939626233051079e-23 4.900997557066958e-15 4.885721832046883e-15 1.5275725020075377e-17
6.304513850009849 2.666999399054489e-23 4.463175393241407e-15 4.448006085630683e-15 1.5169307610723574e-17
6.32820103803542 2.3301993140502697e-23 3.914197820319206e-15 3.8991939747229026e-15 1.5003845596304283e-17
6.3519772230701035 2.02160850334179e-23 3.408595143086349e-15 3.3937380376872694e-15 1.4857105399078332e-17
6.375842739491607 1.7616895459431672e-23 2.981510937499809e-15 2.9667814497527866e-15 1.472948774702323e-17
6.399797922933955 1.5538810461420527e-23 2.639693259670618e-15 2.6250210224871905e-15 1.4672237183427417e-17
6.42384311029221 1.380814460750835e-23 2.3545053698436222e-15 2.3398763931382945e-15 1.4628976705327432e-17
6.447978639727206 1.254818104529555e-23 2.1477009005198096e-15 2.1330601013729453e-15 1.4640799146864523e-17
6.472204850670314 1.1496769171527143e-23 1.9751382498330793e-15 1.9604746038811357e-15 1.4663645951943612e-17
6.496522083828205 1.0813032753169072e-23 1.8646523405196866e-15 1.8499210238459e-15 1.473131667378646e-17
