Dust emission spectrum from A.P. Jones, M. Kohler, N. Ysard, M. Bocchio, and L. Verstraete (2017), A&A, 602A, 46J 
inside the DustPedia framework.

lambda    nu*dP/dnu     j_nu    j_nu(carb.) j_nu(sil)
 (um)   (erg s-1 H-1) (Jy cm2 sr-1 H-1)
0.9927057738263894 6.150412544038087e-21 1.6206686389998808e-13 1.6206685933127925e-13 4.568708853183178e-21
1.0001793341362166 6.2537290240994306e-21 1.6602992399831985e-13 1.6602991850077272e-13 5.497547192030257e-21
1.0077091589558085 6.357470870873432e-21 1.700548481353897e-13 1.7005484152900182e-13 6.606387879650738e-21
1.0114953028030835 6.4094968236130185e-21 1.7209063615937933e-13 1.7209062892096066e-13 7.238418671705373e-21
1.0152956718711033 6.4616238211991126e-21 1.7414204444125286e-13 1.7414203651299164e-13 7.928261218984215e-21
1.0229392996569957 6.566123415666201e-21 1.7829055555850764e-13 1.7829054605648775e-13 9.502019927442498e-21
1.0267826658714554 6.618377437604602e-21 1.803846143062428e-13 1.8038460390865386e-13 1.0397588896934643e-20
1.0306404723013447 6.670723422348698e-21 1.824944076155095e-13 1.824943962417492e-13 1.1373760260149168e-20
1.03451277320114 6.7231598763940795e-21 1.8461999260138813e-13 1.846199801639693e-13 1.2437418809318885e-20
1.0383996230291617 6.7756853564414884e-21 1.8676142769719083e-13 1.867614141011874e-13 1.359600346796255e-20
1.0403485208654093 6.80198104421684e-21 1.8783810767124884e-13 1.8783809345786943e-13 1.4213379464396945e-20
1.0423010764483396 6.828298470631104e-21 1.8891877271170464e-13 1.8891875785415565e-13 1.4857548944394086e-20
1.0462171883269815 6.880997879767293e-21 1.910920888872031e-13 1.9109207265647278e-13 1.6230730275240616e-20
1.0471985131304309 6.89418606381256e-21 1.9163792074304823e-13 1.916379041504981e-13 1.6592550105950764e-20
1.048180758391296 6.907379541141181e-21 1.9218475570494794e-13 1.921847387428658e-13 1.6962082076609387e-20
1.0501480137395462 6.93378229853307e-21 1.93281438958212e-13 1.9328142123330154e-13 1.772491044097589e-20
1.0521189612883777 6.960205999894327e-21 1.9438214673173794e-13 1.943821282112363e-13 1.8520501578967633e-20
1.0531058218030118 6.973408224579823e-21 1.949335250363184e-13 1.949335061052921e-13 1.8931026255741396e-20
1.0540936079674168 6.986558516318571e-21 1.9548431359477122e-13 1.9548429424443113e-13 1.935034014551783e-20
1.058054026499678 7.039208831711279e-21 1.97697476991588e-13 1.976974558734287e-13 2.1118159269115768e-20
1.0590464539527713 7.052383611720694e-21 1.9825327532782533e-13 1.982532537441522e-13 2.1583673162237436e-20
1.06003981227728 7.06556323862015e-21 1.9881007876102841e-13 1.9881005670203817e-13 2.20589902248711e-20
1.0620293250338977 7.091936967796409e-21 1.9992670517755067e-13 1.9992668213772887e-13 2.303982177251917e-20
1.0660195594769086 7.144741883749736e-21 2.0217206641811696e-13 2.021720412901163e-13 2.512800066979311e-20
1.070024785945596 7.197622599107767e-21 2.0443363078901823e-13 2.0443360339266846e-13 2.739634974674959e-20
1.0740450607676866 7.250578194898969e-21 2.0671147023934324e-13 2.0671144037976905e-13 2.985957419005511e-20
1.07808044048254 7.303607814759786e-21 2.0900565865525884e-13 2.0900562612175302e-13 3.253350588821931e-20
1.0861967418109137 7.409805141067803e-21 2.1364105605742137e-13 2.1364101747447822e-13 3.8582943133953855e-20
1.0902777775684922 7.462787574664807e-21 2.1597708388807339e-13 2.1597704189156774e-13 4.199650570087596e-20
1.0943741465085532 7.51583809241955e-21 2.1832962742252961e-13 2.1832958172547176e-13 4.5697057857240076e-20
1.1026131145906286 7.622141402267734e-21 2.2308459848048428e-13 2.2308454442854414e-13 5.405194011287041e-20
1.1109141095355224 7.728711814892747e-21 2.279066668355457e-13 2.279066029846973e-13 6.385084836942545e-20
1.1192775983109025 7.835464112343026e-21 2.3279410071163615e-13 2.3279402538358993e-13 7.532804624241133e-20
1.1277040513999907 7.942015377163455e-21 2.3773618944569225e-13 2.377361006925387e-13 8.875315354059698e-20
1.1361939428280308 8.04881861747271e-21 2.427470960873974e-13 2.427469916513403e-13 1.044360571263959e-19
1.1447477501889525 8.155875435464896e-21 2.4782768261405677e-13 2.478275598816192e-13 1.2273243752376204e-19
1.1533659546722406 8.263226256891832e-21 2.52980009834539e-13 2.5297986578435093e-13 1.4405018802282201e-19
1.1707974979042381 8.479135060515877e-21 2.6351344074284277e-13 2.6351324305689526e-13 1.9768594746860597e-19
1.1884924949847024 8.69626790897649e-21 2.7434609785505555e-13 2.7434582792420287e-13 2.6993085272465527e-19
1.2064549276569216 8.91608706491784e-21 2.8553203154913727e-13 2.855316647945124e-13 3.667546248236967e-19
1.2246888378427687 9.137192909851889e-21 2.9703524686094156e-13 2.9703475099827756e-13 4.9586266404807405e-19
1.2431983285522175 9.35941348357229e-21 3.088577367742641e-13 3.0885706960884353e-13 6.671654206719657e-19
1.2619875648066055 9.58308232132906e-21 3.2101825337351106e-13 3.2101736002890326e-13 8.933446078269877e-19
1.3004222497298317 1.0033436438623092e-20 3.463406983669646e-13 3.463391192244146e-13 1.5791425499397585e-18
1.3400274889804893 1.0489649793740594e-20 3.7311622057239407e-13 3.731134804153205e-13 2.7401570734156638e-18
1.3808389325824078 1.095341172126339e-20 4.014781080487647e-13 4.014734383803524e-13 4.6696684122478146e-18
1.4228933163050095 1.1428561683686601e-20 4.3165159408780523e-13 4.316437747722077e-13 7.819315597696658e-18
1.466228494730424 1.1923191585061392e-20 4.640487538553504e-13 4.640358819993342e-13 1.2871856016153212e-17
1.5108834753276823 1.2436239792577819e-20 4.987575601538394e-13 4.987367202853863e-13 2.0839868453086753e-17
1.5568984535646726 1.2967114180633808e-20 5.358867947076941e-13 5.358535754789829e-13 3.3219228711079714e-17
1.6043148490894465 1.3518612165811234e-20 5.756932601839339e-13 5.75641027902906e-13 5.22322810278435e-17
1.6531753430134553 1.4093601926424738e-20 6.184582011709189e-13 6.183772867632992e-13 8.091440761966172e-17
1.7035239163302658 1.4695357245953274e-20 6.645043319573227e-13 6.643808080112298e-13 1.2352394609295363e-16
1.755405889504358 1.53341520341924e-20 7.145074295729084e-13 7.14321507371544e-13 1.859222013645075e-16
1.8088679632656115 1.6009079538345982e-20 7.686748335218229e-13 7.683988273782579e-13 2.7600614356498345e-16
1.8639582606462262 1.6718716166825308e-20 8.27196219497106e-13 8.267919369351971e-13 4.0428256190884777e-16
1.9207263702978936 1.7463746820078e-20 8.903737725085837e-13 8.897892625456181e-13 5.845099629656191e-16
1.979223391128241 1.824563908632115e-20 9.58568885362475e-13 9.577344256241721e-13 8.344597383026906e-16
2.039501978296691 1.9065155102074564e-20 1.0321288241956164e-12 1.0309520906906571e-12 1.1767335049593767e-15
2.1016163906111602 1.992852042221739e-20 1.1117264436489621e-12 1.1100866576068685e-12 1.6397860420936129e-15
2.1656225393682647 2.0837249520212285e-20 1.1978228352466116e-12 1.1955640260050555e-12 2.2588092415564836e-15
2.231578038680979 2.1786205077193e-20 1.2905151260517689e-12 1.2874384066202436e-12 3.076719431525176e-15
2.299542257339062 2.2773099290757322e-20 1.3900581471256833e-12 1.3859129768756357e-12 4.145170250047438e-15
2.369576372248914 2.3797530681362215e-20 1.4968284846063172e-12 1.4913028716192112e-12 5.5256129871058915e-15
2.4417434235010123 2.485957882425884e-20 1.6112510975652814e-12 1.6039610598016187e-12 7.290037763662938e-15
2.5161083711144245 2.5963512573041403e-20 1.734052424087536e-12 1.7245304459257673e-12 9.521978161768644e-15
2.5927381535095444 2.711912233866357e-20 1.8663956858433464e-12 1.854078675819437e-12 1.2317010023909323e-14
2.6717017477616296 2.833409828454302e-20 2.0094018772329343e-12 1.9936195064615588e-12 1.578237077137522e-14
2.753070231689431 2.962181254011172e-20 2.1647031682557126e-12 2.1446662891618465e-12 2.0036879093866013e-14
2.836916847834745 3.1026007219410195e-20 2.3363716551765886e-12 2.311160367637218e-12 2.5211287539370993e-14
2.9233170693905177 3.2647669828256355e-20 2.533363710707938e-12 2.501922905742755e-12 3.144080496518268e-14
2.967498994190263 3.3640184735001406e-20 2.6498322751938954e-12 2.6149063153083857e-12 3.492595988550922e-14
3.0123486681368425 3.4700121540818294e-20 2.774633767778227e-12 2.73588657590527e-12 3.874719187295715e-14
3.0578761833420214 3.645012540607272e-20 2.958614329037005e-12 2.91567037822893e-12 4.29439508080745e-14
3.1040917844459814 3.849810049690478e-20 3.1720738469681052e-12 3.1245734219473887e-12 4.750042502071626e-14
3.127460860933648 4.040337613418746e-20 3.3541229095193196e-12 3.304186992015825e-12 4.993591750349402e-14
3.1510058709225794 4.282399335157891e-20 3.581836917428408e-12 3.5293653680971036e-12 5.247154933130469e-14
3.162844764501044 4.501621363900838e-20 3.779342689933188e-12 3.7255601054186645e-12 5.3782584514523956e-14
3.1747281389236908 4.749537476652445e-20 4.002462699495844e-12 3.9473432369143245e-12 5.511946258152011e-14
3.1986289994194426 5.420557633916413e-20 4.602324851840973e-12 4.544445901470625e-12 5.7878950370348e-14
3.2227097969389145 6.974596370686468e-20 5.9663635365479495e-12 5.905563607209549e-12 6.079992933840023e-14
3.2348180950136065 8.432399717207546e-20 7.24053207690137e-12 7.178174115053688e-12 6.235796184768324e-14
3.240889293275058 9.521465228990923e-20 8.191009221788785e-12 8.127829434115613e-12 6.317978767317074e-14
3.2469718861334385 1.0783693937706995e-19 9.294274921138074e-12 9.230244788992392e-12 6.403013214568231e-14
3.2714166318528037 1.7402500805273413e-19 1.511182629480131e-11 1.504428461820057e-11 6.754167660074354e-14
3.2744851364798273 1.7815916181409096e-19 1.548533543603851e-11 1.5417380636956653e-11 6.795479908185798e-14
3.2775565192852394 1.824034978918635e-19 1.5869117835578027e-11 1.580074791362894e-11 6.836992194908852e-14
3.283707930232385 1.7831782119707767e-19 1.5542780143866055e-11 1.5473669274549114e-11 6.911086931694155e-14
3.2898708863219004 1.6534414314597568e-19 1.4438999552792437e-11 1.4369215691054928e-11 6.978386173750943e-14
3.29141343181113 1.6227781279629346e-19 1.4177870843856409e-11 1.4107918023549555e-11 6.99528203068542e-14
3.292184975758714 1.6077010621951227e-19 1.404943826748152e-11 1.397940086122297e-11 7.00374062585503e-14
3.295272960557952 1.5137453885072514e-19 1.3240782781934069e-11 1.3170416600023485e-11 7.036618191058431e-14
3.3076538914384823 1.1857095754393827e-19 1.0410409651613892e-11 1.033872360212997e-11 7.168604948392254e-14
3.310756385682612 1.1182260816882324e-19 9.827120378413203e-12 9.755101779807305e-12 7.201859860589848e-14
3.313861789986515 1.0556805821538526e-19 9.286164183295475e-12 9.213812001556276e-12 7.235218173920122e-14
3.3200813396944477 9.683362584265749e-20 8.533837143630479e-12 8.460766846309177e-12 7.30702973213015e-14
3.345076488085796 8.158666320977545e-20 7.244270479234706e-12 7.167998331049495e-12 7.627214818521014e-14
3.3482140837626964 8.220603906379284e-20 7.306112832666127e-12 7.2294068736499974e-12 7.67059590161293e-14
3.3513546224236106 8.283097937383982e-20 7.36855983405122e-12 7.291418180630953e-12 7.714165342026537e-14
3.3576445397418455 8.721703309979816e-20 7.773300541416024e-12 7.695247719322837e-12 7.805282209318717e-14
3.3702598118196083 1.0309826327992595e-19 9.22325390298043e-12 9.143289984993344e-12 7.996391798708352e-14
3.382922481734668 1.0689144157530177e-19 9.59852307841457e-12 9.516703733976374e-12 8.181934443819501e-14
3.389271646505754 1.088463107082094e-19 9.792408561981183e-12 9.709649182791644e-12 8.275937918953564e-14
3.395632727569191 1.1099851743363044e-19 1.0004774902392944e-11 9.921046759999272e-12 8.372814239366857e-14
3.421196662673239 1.2144256954836292e-19 1.1028550100667258e-11 1.0940814028973545e-11 8.773607169371194e-14
3.4276182099114902 1.1955801254271308e-19 1.0877787273516408e-11 1.0789159091825084e-11 8.862818169132606e-14
3.4340518103208963 1.1100410107868327e-19 1.0118480532121507e-11 1.0029009701149482e-11 8.947083097202695e-14
3.4469541582030403 9.872665363901554e-20 9.033152818508434e-12 8.942066923183772e-12 9.108589532466045e-14
3.472904465399547 9.531744315346029e-20 8.786879158098632e-12 8.692069383728191e-12 9.480977437044183e-14
3.4990501388274233 9.01685510595293e-20 8.374804729769373e-12 8.276189407489487e-12 9.86153222798868e-14
3.5253949054701885 7.192965311975836e-20 6.7310864987339655e-12 6.628782379079107e-12 1.0230411965485838e-13
3.5519380250092896 5.456664334787661e-20 5.144723651873345e-12 5.038718629092697e-12 1.060050227806496e-13
3.578680990867387 4.781332901893455e-20 4.541940097621388e-12 4.431879656648868e-12 1.1006044097252133e-13
3.605625307711299 4.52355780167176e-20 4.329424500175694e-12 4.215097002248763e-12 1.1432749792692956e-13
3.660119384959845 4.3653000698222004e-20 4.241102676316526e-12 4.1178290674054116e-12 1.2327360891111435e-13
3.715437065384467 4.260584766346162e-20 4.201927478474947e-12 4.069250143275487e-12 1.3267733519946117e-13
3.8285932144167436 4.2667720183053374e-20 4.3361879341851124e-12 4.183395320649805e-12 1.5279261353530746e-13
3.94519561050918 4.32524927277517e-20 4.529488027791057e-12 4.354904357907e-12 1.7458366988405682e-13
4.06534921144712 4.400565176628172e-20 4.7487110889318966e-12 4.5507209737047e-12 1.9799011522719536e-13
4.189162171576248 4.4822011771658315e-20 4.984113819840788e-12 4.7610938688960215e-12 2.230199509447656e-13
4.316745939156006 4.5656432667227486e-20 5.231520089306633e-12 4.981981789082606e-12 2.4953830022402866e-13
4.448215356677963 4.648763975774359e-20 5.488993735756071e-12 5.211864578848304e-12 2.771291569077701e-13
4.58368876423945 4.731133076692961e-20 5.756383479334685e-12 5.450596049614986e-12 3.0578742971970096e-13
4.723288106065518 4.813417662657977e-20 6.034863026191067e-12 5.699207136625671e-12 3.3565588956539406e-13
4.867139040275056 4.8964739886554856e-20 6.325962859448742e-12 5.960098716535694e-12 3.6586414291304684e-13
4.940699165968905 4.9411401877512643e-20 6.480149415169221e-12 6.098969175110372e-12 3.811802400588513e-13
5.015371051989984 4.9838378371037497e-20 6.634930910214372e-12 6.238348110268384e-12 3.9658279994598796e-13
5.091171501069577 5.0336345346785534e-20 6.80250454344063e-12 6.390086678989197e-12 4.124178644514311e-13
5.129500256944802 5.0577050940178375e-20 6.886491119050388e-12 6.4661439543904025e-12 4.203471646599854e-13
5.168117569889187 5.082042988453417e-20 6.971723463984933e-12 6.543355576782484e-12 4.283678872024488e-13
5.20702561229733 5.112909959792671e-20 7.066873082065419e-12 6.6297062641776914e-12 4.3716681788772684e-13
5.246226572918644 5.1434380505629554e-20 7.16258830596133e-12 6.7165932456293804e-12 4.45995060331948e-13
5.265937586045735 5.1585780242388e-20 7.210662093732796e-12 6.760243305703793e-12 4.5041878802900217e-13
5.285722656980489 5.1736370216166816e-20 7.258882401277053e-12 6.804034227620709e-12 4.548481736563434e-13
5.305582063971359 5.188616431614655e-20 7.30725118014569e-12 6.847968527132621e-12 4.59282653013067e-13
5.3255160863122235 5.2048007339875285e-20 7.357584203988674e-12 6.893823779137869e-12 4.637604248508053e-13
5.365609099470188 5.2468702755450896e-20 7.472893443458251e-12 6.999865578717897e-12 4.730278647403561e-13
5.406003951863644 5.2891661220326507e-20 7.589846618667006e-12 7.107523891293473e-12 4.823227273735348e-13
5.446702915881641 5.3317354215885947e-20 7.708532557580596e-12 7.216892072728502e-12 4.916404848520946e-13
5.487708281020852 5.377058259110718e-20 7.832586357308836e-12 7.331566094208385e-12 5.010202631004483e-13
5.529022354014368 5.444361626669782e-20 7.990330499446231e-12 7.479533287286022e-12 5.107972121602076e-13
5.570647458961463 5.513671241406984e-20 8.152972456146546e-12 7.632371932009941e-12 5.206005241366043e-13
5.612585937458331 5.585189367807086e-20 8.320900703674554e-12 7.790475114341909e-12 5.304255893326447e-13
5.654840148729818 5.662775966294054e-20 8.500004311628457e-12 7.959683151665676e-12 5.403211599627822e-13
5.67608639626678 5.718696479546359e-20 8.616194166500413e-12 8.070687995199644e-12 5.455061713007692e-13
5.686739436050992 5.747244082710016e-20 8.675457855629749e-12 8.127356361066277e-12 5.481014945634702e-13
5.6974124697621304 5.776197214104382e-20 8.735526943143938e-12 8.184828344497876e-12 5.506985986460634e-13
5.718818669136295 5.835363560899747e-20 8.858163222019971e-12 8.302265366771028e-12 5.558978552489428e-13
5.740305295436557 5.900818105500339e-20 8.991179156027424e-12 8.430033544924838e-12 5.611456111025869e-13
5.7835210386641895 6.075107343027045e-20 9.326435881328581e-12 8.754449131348904e-12 5.719867499796769e-13
5.827062130521658 6.272636044864625e-20 9.702176503851977e-12 9.119212465486047e-12 5.829640383659274e-13
5.8489554468988025 6.416151426726006e-20 9.96144522871924e-12 9.372528687214007e-12 5.889165415052327e-13
5.870931020387893 6.568045273978005e-20 1.0235582156364635e-11 9.640697329836349e-12 5.948848265282891e-13
5.892989160043636 6.72898478961238e-20 1.052578807872019e-11 9.92491977532698e-12 6.00868303393208e-13
5.915130176081913 6.911921959915869e-20 1.0852569251497321e-11 1.0245490567056414e-11 6.070786844409078e-13
5.95966208400165 7.432413657221737e-20 1.1757661192309465e-11 1.1136287664267076e-11 6.21373528042394e-13
6.004529249263818 8.182731809787273e-20 1.3042075653340023e-11 1.240453529165149e-11 6.3754036168853e-13
6.027089341400364 8.706653362712148e-20 1.3929268712005333e-11 1.3282315485828902e-11 6.469532261764241e-13
6.049734195844842 9.320692220113496e-20 1.4967659473648282e-11 1.4310720035619437e-11 6.569394380288462e-13
6.095279466722835 1.10967386334113e-19 1.7953883911889018e-11 1.7272154811077682e-11 6.817291008113376e-13
6.141167624020661 1.3809068387269818e-19 2.251048048629997e-11 2.179627635709046e-11 7.14204129209518e-13
6.164241091010745 1.5537403017915928e-19 2.542303995941935e-11 2.468830878469587e-11 7.347311747234731e-13
6.187401249150058 1.74803246187285e-19 2.870960432878591e-11 2.7953823267946142e-11 7.557810608397686e-13
6.1990139391386085 1.842302668301038e-19 3.031468271286138e-11 2.9548196091822634e-11 7.664866210387445e-13
6.204828454712694 1.8917442475412216e-19 3.1157430439623905e-11 3.038553956288217e-11 7.718908767417289e-13
6.210648424152782 1.927386210297238e-19 3.1774236640851174e-11 3.099777348968144e-11 7.764631511697318e-13
6.233982942956859 2.0464566023375567e-19 3.3863947488707654e-11 3.307167936879586e-11 7.922681199117887e-13
6.239830258556775 2.0605042710839604e-19 3.412838425570411e-11 3.333402569201844e-11 7.943585636856756e-13
6.245683058788269 2.0598459716168917e-19 3.4149482080226585e-11 3.335303079647818e-11 7.964512837484002e-13
6.257405133728602 2.0522579512175478e-19 3.408753949657192e-11 3.328748526554339e-11 8.00054231028526e-13
6.269149208991335 2.0234051444545025e-19 3.3671377926197e-11 3.287029029504252e-11 8.010876311544811e-13
6.280915325867298 1.9574602021703874e-19 3.2635127422085995e-11 3.1836179896550235e-11 7.989475255357647e-13
6.304513850009849 1.7975243995695025e-19 3.00812466315285e-11 2.9289444733366174e-11 7.918018981623276e-13
6.32820103803542 1.6031435281640058e-19 2.6929116602868512e-11 2.61475084305578e-11 7.816081723107165e-13
6.3519772230701035 1.42592929638533e-19 2.40423191038677e-11 2.3269928653474078e-11 7.723904503936202e-13
6.375842739491607 1.276485933355497e-19 2.1603447557648422e-11 2.083927054669625e-11 7.64177010952176e-13
6.399797922933955 1.1576931397033797e-19 1.966659407571252e-11 1.890702552194026e-11 7.595685537722656e-13
6.42384311029221 1.0584816883956423e-19 1.804877403915309e-11 1.729309255010101e-11 7.556814890520823e-13
6.447978639727206 9.861793630580454e-20 1.6879086287234315e-11 1.6124488930414105e-11 7.545973568202071e-13
6.472204850670314 9.255996875676545e-20 1.5901748740647105e-11 1.5147681671028022e-11 7.540670696190869e-13
6.496522083828205 8.857362215449813e-20 1.527406932252995e-11 1.451826886818949e-11 7.558004543404629e-13
6.520930681187647 8.518582472926897e-20 1.474505337717488e-11 1.3987183780855473e-11 7.578695963194084e-13
