Dust emission spectrum from A.P. Jones, M. Kohler, N. Ysard, M. Bocchio, and L. Verstraete (2017), A&A, 602A, 46J 
inside the DustPedia framework.

lambda    nu*dP/dnu     j_nu    j_nu(carb.) j_nu(sil)
 (um)   (erg s-1 H-1) (Jy cm2 sr-1 H-1)
0.9927057738263894 1.1843972369179287e-24 3.120953991698791e-17 3.120953991660173e-17 3.8618607782980673e-28
1.0001793341362166 1.2039468381009633e-24 3.1963521485759587e-17 3.196352148529442e-17 4.651661445381056e-28
1.0077091589558085 1.2234682023831436e-24 3.272633152091178e-17 3.2726331520352214e-17 5.595757366320239e-28
1.0114953028030835 1.2332158931451472e-24 3.31110090875394e-17 3.3111009086925957e-17 6.134418501129555e-28
1.0152956718711033 1.242953649304609e-24 3.3497847541897433e-17 3.3497847541225163e-17 6.722752022334847e-28
1.0229392996569957 1.262385993705442e-24 3.427768348216255e-17 3.427768348135591e-17 8.066347979768333e-28
1.0267826658714554 1.2720569974085785e-24 3.46700551632716e-17 3.467005516238843e-17 8.8317239656929e-28
1.0306404723013447 1.281713793648057e-24 3.5064502707574954e-17 3.5064502706608304e-17 9.666579846701516e-28
1.03451277320114 1.2913554513491864e-24 3.54610091470439e-17 3.5461009145986214e-17 1.0576913611649325e-27
1.0383996230291617 1.300981044638906e-24 3.585955730260644e-17 3.585955730144951e-17 1.1569212262140676e-27
1.0403485208654093 1.3057875292602858e-24 3.605959159876019e-17 3.6059591597550366e-17 1.20982684575142e-27
1.0423010764483396 1.3105896530234833e-24 3.6260129788229856e-17 3.6260129786964813e-17 1.2650489152202459e-27
1.0462171883269815 1.320180361562294e-24 3.666270901500895e-17 3.666270901362613e-17 1.3828323969510824e-27
1.0471985131304309 1.3225751351690134e-24 3.6763665294824084e-17 3.676366529341019e-17 1.413881545156597e-27
1.048180758391296 1.3249687190308982e-24 3.686474560533293e-17 3.6864745603887326e-17 1.4455984580765804e-27
1.0501480137395462 1.3297522610376615e-24 3.706727719525752e-17 3.706727719374642e-17 1.5110905528729973e-27
1.0521189612883777 1.3345308748518065e-24 3.7270301530934126e-17 3.727030152935471e-17 1.5794213102495872e-27
1.0531058218030118 1.3369146263635434e-24 3.7371895118811994e-17 3.7371895117197307e-17 1.6146898722810314e-27
1.0540936079674168 1.3392850724747565e-24 3.747327421490007e-17 3.747327421324935e-17 1.6507201026200912e-27
1.058054026499678 1.3487533393180681e-24 3.7879986038478986e-17 3.78799860366763e-17 1.802696157431049e-27
1.0590464539527713 1.3511169574610308e-24 3.7981961406983105e-17 3.798196140514037e-17 1.8427344974009202e-27
1.06003981227728 1.3534791685985812e-24 3.808405515920984e-17 3.8084055157326226e-17 1.883623872924194e-27
1.0620293250338977 1.3581993149058998e-24 3.828859664666696e-17 3.8288596644698945e-17 1.9680249083142973e-27
1.0660195594769086 1.3676221204422623e-24 3.869908733831369e-17 3.8699087336165876e-17 2.1478191169278226e-27
1.070024785945596 1.3770208838137872e-24 3.9111439239013706e-17 3.9111439236670426e-17 2.343278874452699e-27
1.0740450607676866 1.3863947397333302e-24 3.952563330521554e-17 3.952563330265985e-17 2.5556979985138708e-27
1.07808044048254 1.3957428298796315e-24 3.994165032832364e-17 3.994165032553718e-17 2.786470862315452e-27
1.0861967418109137 1.4143417804096933e-24 4.077859887545124e-17 4.0778598872142046e-17 3.3092027287779094e-27
1.0902777775684922 1.4235533602574943e-24 4.119839944945654e-17 4.1198399445852006e-17 3.604522432734413e-27
1.0943741465085532 1.4327351566699552e-24 4.1619913721452913e-17 4.161991371752798e-17 3.924932400089667e-27
1.1026131145906286 1.4510061400272462e-24 4.246800276420869e-17 4.246800275955943e-17 4.649242031722195e-27
1.1109141095355224 1.4691482913761533e-24 4.332270347168102e-17 4.3322703466180863e-17 5.500156178564411e-27
1.1192775983109025 1.4871384410176046e-24 4.4183350347433995e-17 4.41833503409355e-17 6.498493366878835e-27
1.1277040513999907 1.5048929676991023e-24 4.504744736369208e-17 4.50474473560238e-17 7.668266692047173e-27
1.1361939428280308 1.5224977308451324e-24 4.59175340540044e-17 4.591753404496728e-17 9.037133531435313e-27
1.1447477501889525 1.5399468709385085e-24 4.6793439575343936e-17 4.6793439564707035e-17 1.063690905116665e-26
1.1533659546722406 1.5572441831730475e-24 4.767528281648179e-17 4.767528280397763e-17 1.2504159701561949e-26
1.1707974979042381 1.5914393031532674e-24 4.945854070188557e-17 4.945854068467042e-17 1.7215154153529763e-26
1.1884924949847024 1.6249535899146214e-24 5.126333287506884e-17 5.126333285148504e-17 2.358379541417135e-26
1.2064549276569216 1.6580494847927345e-24 5.309798282081179e-17 5.309798278866092e-17 3.2150878538768613e-26
1.2246888378427687 1.690365341076173e-24 5.4951021755310583e-17 5.4951021711692855e-17 4.36177168324126e-26
1.2431983285522175 1.72182563237541e-24 5.681971085782276e-17 5.68197107989321e-17 5.889066483769839e-26
1.2619875648066055 1.752418745775658e-24 5.870328419237458e-17 5.870328411323948e-17 7.913507574268539e-26
1.3004222497298317 1.810495143287149e-24 6.249585136178126e-17 6.249585122087857e-17 1.4090268079453222e-25
1.3400274889804893 1.8643684540409442e-24 6.63154752545933e-17 6.6315475008265e-17 2.463282960172858e-25
1.3808389325824078 1.913840235387652e-24 7.014845934435593e-17 7.014845892134211e-17 4.230138281450173e-25
1.4228933163050095 1.9591529374781588e-24 7.399631834086219e-17 7.399631762693672e-17 7.139254717809941e-25
1.466228494730424 2.0013990938835124e-24 7.789414007634511e-17 7.78941388915992e-17 1.184745888047562e-24
1.5108834753276823 2.0397588568665412e-24 8.180488376881501e-17 8.18048818347888e-17 1.9340262325827743e-24
1.5568984535646726 2.0735693392100503e-24 8.569357925859736e-17 8.569357614963185e-17 3.1089654983547145e-24
1.6043148490894465 2.10289414168033e-24 8.955223875031527e-17 8.955223381992106e-17 4.930394220787532e-24
1.6531753430134553 2.1278242839368975e-24 9.337360214382381e-17 9.33735944390081e-17 7.704815705584652e-24
1.7035239163302658 2.1486573256285526e-24 9.715940054231661e-17 9.715938867472323e-17 1.1867593376862671e-23
1.755405889504358 2.1671034271174203e-24 1.0097796708129858e-16 1.0097794905523143e-16 1.80260671550639e-23
1.8088679632656115 2.182742759601227e-24 1.0480424082712664e-16 1.0480421381665395e-16 2.701047268357358e-23
1.8639582606462262 2.195291516420373e-24 1.0861700294190871e-16 1.086169629999146e-16 3.9941994165714015e-23
1.9207263702978936 2.2049586883869497e-24 1.1241787949808917e-16 1.1241782118597315e-16 5.83121160294771e-23
1.979223391128241 2.212228267063105e-24 1.1622356301653714e-16 1.1622347893739833e-16 8.40791388081196e-23
2.039501978296691 2.2176788777255676e-24 1.2005830953146953e-16 1.2005818975411004e-16 1.1977735953138623e-22
2.1016163906111602 2.2229284262967452e-24 1.2400761629538428e-16 1.2400744764033575e-16 1.6865504854166716e-22
2.1656225393682647 2.2289154848633256e-24 1.2812851633869885e-16 1.281282815303189e-16 2.348083799354403e-22
2.231578038680979 2.235707976818624e-24 1.324331131234707e-16 1.324327897869547e-16 3.233365160062016e-22
2.299542257339062 2.2438679091937543e-24 1.3696453119644414e-16 1.3696409068419037e-16 4.405122537678912e-22
2.369576372248914 2.2546364504184734e-24 1.4181320350439271e-16 1.4181260953188225e-16 5.939725104459032e-22
2.4417434235010123 2.269478874354136e-24 1.470942188141975e-16 1.4709342592348841e-16 7.928907090922536e-22
2.5161083711144245 2.2909040984335386e-24 1.5300502172289083e-16 1.530039735278129e-16 1.048195077946484e-21
2.5927381535095444 2.3230173001157714e-24 1.5987499200496598e-16 1.5987361925200195e-16 1.3727529640489391e-21
2.6717017477616296 2.3707180346705777e-24 1.6812694095353536e-16 1.6812515948197988e-16 1.7814715554762392e-21
2.753070231689431 2.4413822217428542e-24 1.7841135896642185e-16 1.7840906751173792e-16 2.2914546839459147e-21
2.836916847834745 2.551722678856546e-24 1.9215403698552485e-16 1.9215111476328737e-16 2.922222237457847e-21
2.9233170693905177 2.7385480592418695e-24 2.125033213644067e-16 2.124996261822717e-16 3.695182134997555e-21
2.967498994190263 2.896983186410875e-24 2.281949284320798e-16 2.2819079280269665e-16 4.135629383186044e-21
3.0123486681368425 3.0819660058665557e-24 2.464350720202198e-16 2.4643044959774687e-16 4.622422472897723e-21
3.0578761833420214 3.495439323985827e-24 2.83720748694624e-16 2.83715587625469e-16 5.161069155016166e-21
3.1040917844459814 4.028143021846913e-24 3.3190123581486753e-16 3.318954841187036e-16 5.751696164062643e-21
3.127460860933648 4.591468680161971e-24 3.8116493624998414e-16 3.8115886654128785e-16 6.069708696336635e-21
3.1510058709225794 5.341959300505842e-24 4.468062302565811e-16 4.467998277558291e-16 6.402500751961583e-21
3.162844764501044 6.040476802647402e-24 5.071290986591145e-16 5.071225234316112e-16 6.575227503232027e-21
3.1747281389236908 6.852770863023696e-24 5.774869637785439e-16 5.774802119568057e-16 6.7518217382489405e-21
3.1986289994194426 9.118405220391532e-24 7.741982613077323e-16 7.741911435516948e-16 7.117756037736878e-21
3.2227097969389145 1.4458802290343202e-23 1.2368668548308979e-15 1.2368593479272154e-15 7.506903682462416e-21
3.2348180950136065 1.9523073452722577e-23 1.6763607551202636e-15 1.6763530401792067e-15 7.71494105721096e-21
3.240889293275058 2.330925314543351e-23 2.005219815180582e-15 2.0052119904923318e-15 7.82468825041314e-21
3.2469718861334385 2.768928434735781e-23 2.386490404684381e-15 2.386482466428074e-15 7.938256307944926e-21
3.2714166318528037 5.105262334261529e-23 4.433261543730178e-15 4.4332531350074116e-15 8.408722766366182e-21
3.2744851364798273 5.25131269096399e-23 4.5643646765670736e-15 4.56435621208731e-15 8.464479763292195e-21
3.2775565192852394 5.40155758894087e-23 4.699359105787578e-15 4.6993505852419626e-15 8.520545615465176e-21
3.283707930232385 5.2570661507155783e-23 4.582235406074574e-15 4.582226784638276e-15 8.62143629810878e-21
3.2898708863219004 4.798843409614122e-23 4.190683535985031e-15 4.1906748221526506e-15 8.713832379784412e-21
3.29141343181113 4.6907829026802394e-23 4.098238262198795e-15 4.098229525149315e-15 8.737049480327005e-21
3.292184975758714 4.637685773969271e-23 4.0527982171259275e-15 4.052789468450145e-15 8.748675781486678e-21
3.295272960557952 4.3025364202360075e-23 3.763443349471336e-15 3.7634345554625065e-15 8.794008829748525e-21
3.3076538914384823 3.1414698383117314e-23 2.7581786132489832e-15 2.75816963685195e-15 8.976397033467822e-21
3.310756385682612 2.9051610407528113e-23 2.5530943816881736e-15 2.5530853592540755e-15 9.022434098216281e-21
3.313861789986515 2.687128499575323e-23 2.363699479795136e-15 2.363690411147242e-15 9.068647893511596e-21
3.3200813396944477 2.3813639187348118e-23 2.0986688957843577e-15 2.0986597279975864e-15 9.16778677088219e-21
3.345076488085796 1.8359255475903734e-23 1.6301611958666546e-15 1.630151586898898e-15 9.608967756591796e-21
3.3482140837626964 1.856381047238682e-23 1.6498701976169572e-15 1.6498605289038212e-15 9.668713135485859e-21
3.3513546224236106 1.8770626376159601e-23 1.6698158662486455e-15 1.6698061374866548e-15 9.728761990692494e-21
3.3576445397418455 2.028199293155187e-23 1.807651797274826e-15 1.8076419430621746e-15 9.854212651571154e-21
3.3702598118196083 2.5856419948877658e-23 2.3131362122277466e-15 2.313126094790825e-15 1.0117436921887244e-20
3.382922481734668 2.712610244734723e-23 2.4358406672331868e-15 2.4358302927944367e-15 1.0374438750700673e-20
3.389271646505754 2.778388035341758e-23 2.4995896148214324e-15 2.4995791098833606e-15 1.0504938071549821e-20
3.395632727569191 2.8492681478166006e-23 2.5681682165266727e-15 2.568157577087045e-15 1.0639439627647146e-20
3.421196662673239 3.189609137150246e-23 2.896576077188393e-15 2.896564879632108e-15 1.119755628524969e-20
3.4276182099114902 3.121029830098508e-23 2.839617173627887e-15 2.839605850258792e-15 1.1323369095007982e-20
3.4340518103208963 2.820507246504465e-23 2.571008403034905e-15 2.5709969600581512e-15 1.1442976753583936e-20
3.4469541582030403 2.392505301598888e-23 2.189060928516433e-15 2.189049254715359e-15 1.1673801074017815e-20
3.472904465399547 2.2725599331272313e-23 2.094969068754418e-15 2.0949568649045255e-15 1.2203849892873713e-20
3.4990501388274233 2.0891091152336847e-23 1.9403528939610654e-15 1.940340144717091e-15 1.2749243974570948e-20
3.5253949054701885 1.4362392427520515e-23 1.3440146249203411e-15 1.3440013411469463e-15 1.328377339475927e-20
3.5519380250092896 8.226135202751994e-24 7.755872405655865e-16 7.755734156836863e-16 1.3824881900311568e-20
3.578680990867387 5.793152545817105e-24 5.503099737954718e-16 5.502955550630321e-16 1.441873243964522e-20
3.605625307711299 4.809130702899329e-24 4.60274173615839e-16 4.6025912695134e-16 1.5046664498830955e-20
3.660119384959845 4.091388749911255e-24 3.9749844225042495e-16 3.974820654114489e-16 1.6376838975999863e-20
3.715437065384467 3.5831273538350984e-24 3.5337969111378215e-16 3.5336189583928227e-16 1.779527449996366e-20
3.8285932144167436 3.325286273314653e-24 3.379385201317903e-16 3.3791761881796353e-16 2.0901313826697602e-20
3.94519561050918 3.2758328945389602e-24 3.430518090657484e-16 3.4302743187687975e-16 2.437718886866071e-20
4.06534921144712 3.311926519484522e-24 3.573945972288609e-16 3.573663538145948e-16 2.82434142661449e-20
4.189162171576248 3.3975335807127496e-24 3.7779861732379943e-16 3.7776608428662794e-16 3.2533037171375217e-20
4.316745939156006 3.519208748772326e-24 4.032468196071198e-16 4.0320955839667944e-16 3.7261210440121876e-20
4.448215356677963 3.6724164010430325e-24 4.336178546697524e-16 4.335754548529401e-16 4.239981681216948e-20
4.58368876423945 3.85766342001052e-24 4.693630388284135e-16 4.693150512508771e-16 4.798757753654004e-20
4.723288106065518 4.0791846862961095e-24 5.114312234176555e-16 5.113771307349134e-16 5.40926827420516e-20
4.867139040275056 4.345491936244576e-24 5.614125727698485e-16 5.613519529606082e-16 6.061980924049615e-20
4.940699165968905 4.506173665588973e-24 5.909704548780816e-16 5.909063840918573e-16 6.407078622423642e-20
5.015371051989984 4.672506986058352e-24 6.220459421690808e-16 6.219782976849137e-16 6.76444841671233e-20
5.091171501069577 4.875581393913616e-24 6.588909932876157e-16 6.588195830518315e-16 7.141023578404039e-20
5.129500256944802 4.9797780160178265e-24 6.780386844363565e-16 6.779653436557117e-16 7.33407806447544e-20
5.168117569889187 5.088401976239751e-24 6.980446944769708e-16 6.979693771755367e-16 7.531730143422839e-20
5.20702561229733 5.221834394161759e-24 7.217424364852592e-16 7.216649864406976e-16 7.745004456158445e-20
5.246226572918644 5.358653746398769e-24 7.462290841716418e-16 7.461494616880536e-16 7.962248358845102e-20
5.265937586045735 5.428367297352064e-24 7.587773630243983e-16 7.586966393652101e-16 8.072365918793925e-20
5.285722656980489 5.498968702933433e-24 7.715339707079713e-16 7.714521358656281e-16 8.183484234313439e-20
5.305582063971359 5.570472298731914e-24 7.845027824924542e-16 7.844198264321111e-16 8.29560603430018e-20
5.3255160863122235 5.647313548710944e-24 7.983126940795276e-16 7.982286002580593e-16 8.409382146842557e-20
5.365609099470188 5.838884280554564e-24 8.316073728873478e-16 8.315209224898981e-16 8.645039744960815e-20
5.406003951863644 6.037736564536663e-24 8.664030093110366e-16 8.663141580910361e-16 8.885122000053839e-20
5.446702915881641 6.244223056860711e-24 9.027791689683044e-16 9.026878723644266e-16 9.129660387739622e-20
5.487708281020852 6.46737323893124e-24 9.420812823265716e-16 9.419874876525608e-16 9.379467401052933e-20
5.529022354014368 6.777914140880076e-24 9.947497575694528e-16 9.946533504454347e-16 9.640712401818569e-20
5.570647458961463 7.10677019368137e-24 1.0508660945563006e-15 1.0507670251306423e-15 9.906942565827422e-20
5.612585937458331 7.45526226885821e-24 1.110696396734302e-15 1.1105946147182048e-15 1.0178201609703944e-19
5.654840148729818 7.838401654775699e-24 1.1765686698262948e-15 1.176464114444348e-15 1.0455538194696119e-19
5.67608639626678 8.099566330483087e-24 1.2203381735242485e-15 1.2202321683563435e-15 1.0600516790488346e-19
5.686739436050992 8.234188068166439e-24 1.2429496734898221e-15 1.2428429381129175e-15 1.0673537690455646e-19
5.6974124697621304 8.37158876444777e-24 1.2660620213967821e-15 1.2659545522544566e-15 1.0746914232542816e-19
5.718818669136295 8.654995038795816e-24 1.3138403107073106e-15 1.3137313633275444e-15 1.0894737976609884e-19
5.740305295436557 8.9674564878062e-24 1.3663869384584162e-15 1.3662764896980838e-15 1.1044876033249295e-19
5.7835210386641895 9.778467029383154e-24 1.5011791663550457e-15 1.5010656020193326e-15 1.135643357130815e-19
5.827062130521658 1.0712898160889339e-23 1.657013543928369e-15 1.6568967796772442e-15 1.167642511248761e-19
5.8489554468988025 1.1368741720112718e-23 1.76506273671515e-15 1.7649442548737042e-15 1.184818414465116e-19
5.870931020387893 1.2072574475020665e-23 1.8813790515037562e-15 1.881258833092515e-15 1.2021841124162548e-19
5.892989160043636 1.2828260484554294e-23 2.006655617463761e-15 2.0065336433608303e-15 1.219741029307912e-19
5.915130176081913 1.3687802432654677e-23 2.1491536603374277e-15 2.149029868200508e-15 1.2379213692024544e-19
5.95966208400165 1.609179109681009e-23 2.5456310213557104e-15 2.545503157016171e-15 1.2786433953972446e-19
6.004529249263818 1.9557533168254068e-23 3.1171842497390542e-15 3.1170518354113244e-15 1.3241432772951366e-19
6.027089341400364 2.1967025989771662e-23 3.514376822736162e-15 3.5142418147455677e-15 1.350079905937485e-19
6.049734195844842 2.4814564375751485e-23 3.984853708200755e-15 3.984715958009257e-15 1.3775019149875343e-19
6.095279466722835 3.304080177152335e-23 5.345811404222518e-15 5.345667039933116e-15 1.4436428940327471e-19
6.141167624020661 4.570176444259093e-23 7.449949901202701e-15 7.449797107054286e-15 1.5279414841568171e-19
6.164241091010745 5.378728479724258e-23 8.800932106428584e-15 8.80077409843245e-15 1.5800799613439065e-19
6.187401249150058 6.299806865367067e-23 1.0346773666816116e-14 1.0346610279660013e-14 1.6338715610732022e-19
6.1990139391386085 6.74954800293475e-23 1.1106231874097253e-14 1.1106065744478874e-14 1.6612961838041817e-19
6.204828454712694 6.986456837600018e-23 1.150684312744099e-14 1.1506675609958249e-14 1.675174827415423e-19
6.210648424152782 7.159390676193572e-23 1.1802729122701147e-14 1.1802560403600663e-14 1.6871910048041423e-19
6.233982942956859 7.746905894182739e-23 1.2819270836278976e-14 1.2819097844290999e-14 1.7299198797698228e-19
6.239830258556775 7.821996250877276e-23 1.295566805868266e-14 1.2955494411994106e-14 1.7364668855541035e-19
6.245683058788269 7.828483754194185e-23 1.2978575551906424e-14 1.2978401248491404e-14 1.7430341501985567e-19
6.257405133728602 7.812288027215657e-23 1.2976033374767547e-14 1.2975857885245142e-14 1.7548952240307198e-19
6.269149208991335 7.696664175013515e-23 1.280797812134497e-14 1.2807802020696836e-14 1.7610064813864674e-19
6.280915325867298 7.406792251441566e-23 1.2348736829831802e-14 1.2348560832015154e-14 1.759978166481304e-19
6.304513850009849 6.691985313329897e-23 1.1198916727531167e-14 1.1198741584132869e-14 1.7514339829778327e-19
6.32820103803542 5.806000518305172e-23 9.752742796074836e-15 9.75256919796642e-15 1.7359810841717304e-19
6.3519772230701035 4.9934861137426315e-23 8.419420716838262e-15 8.419248445386207e-15 1.722714520556921e-19
6.375842739491607 4.309930380390638e-23 7.294193576041093e-15 7.294022408847982e-15 1.7116719311250073e-19
6.399797922933955 3.762060450533473e-23 6.390891785701578e-15 6.390720890139992e-15 1.708955615850359e-19
6.42384311029221 3.306552667682988e-23 5.638191250906367e-15 5.638020460253166e-15 1.7079065320263812e-19
6.447978639727206 2.9745876670389544e-23 5.0911957582647485e-15 5.09102441478578e-15 1.713434789697359e-19
6.472204850670314 2.698038101981444e-23 4.635213750249391e-15 4.6350417183577606e-15 1.7203189162980114e-19
6.496522083828205 2.5182705476996906e-23 4.342629101399706e-15 4.342455840617367e-15 1.7326078233912066e-19
