Dust emission spectrum from A.P. Jones, M. Kohler, N. Ysard, M. Bocchio, and L. Verstraete (2017), A&A, 602A, 46J 
inside the DustPedia framework.

lambda    nu*dP/dnu     j_nu    j_nu(carb.) j_nu(sil)
 (um)   (erg s-1 H-1) (Jy cm2 sr-1 H-1)
0.9927057738263894 9.590162745282276e-26 2.527062354418828e-18 2.5270623544113774e-18 7.45114170073302e-30
1.0001793341362166 9.748513818312114e-26 2.5881278227977103e-18 2.588127822788735e-18 8.97586336282021e-30
1.0077091589558085 9.906636786392566e-26 2.649908506794308e-18 2.6499085067835102e-18 1.0798696583987674e-29
1.0114953028030835 9.985593257119503e-26 2.6810639638913663e-18 2.6810639638795277e-18 1.1838832991746323e-29
1.0152956718711033 1.0064469394760475e-25 2.712394477174564e-18 2.712394477161589e-18 1.2974964313512346e-29
1.0229392996569957 1.0221872425583315e-25 2.7755544607297522e-18 2.7755544607141815e-18 1.556986353725435e-29
1.0267826658714554 1.0300208332438139e-25 2.8073332547701753e-18 2.807333254753128e-18 1.7048197022207667e-29
1.0306404723013447 1.0378429272478025e-25 2.8392802131698623e-18 2.839280213151202e-18 1.8660850494299475e-29
1.03451277320114 1.0456527697805849e-25 2.8713939601277603e-18 2.871393960107342e-18 2.041943228986611e-29
1.0383996230291617 1.053449610253504e-25 2.9036731026914335e-18 2.9036731026690958e-18 2.2336498463415397e-29
1.0403485208654093 1.0573429213427654e-25 2.9198742574191116e-18 2.9198742573957524e-18 2.3358663835343941e-29
1.0423010764483396 1.061232702422869e-25 2.9361162310868367e-18 2.93611623106241e-18 2.4425625274794716e-29
1.0462171883269815 1.0690013045306978e-25 2.9687219190485294e-18 2.9687219190218283e-18 2.67014868151813e-29
1.0471985131304309 1.0709411044990448e-25 2.9768985722872185e-18 2.976898572259917e-18 2.730146031889296e-29
1.048180758391296 1.0728799412726423e-25 2.985085272730741e-18 2.9850852727028278e-18 2.791434928245932e-29
1.0501480137395462 1.07675467944226e-25 3.0014887241501366e-18 3.001488724120957e-18 2.9179938104597636e-29
1.0521189612883777 1.0806254276421373e-25 3.0179320905325233e-18 3.0179320905020228e-18 3.050043426671532e-29
1.0531058218030118 1.0825563033092167e-25 3.0261603717752622e-18 3.026160371744081e-18 3.118202147525075e-29
1.0540936079674168 1.0844764045292564e-25 3.0343712867209386e-18 3.0343712866890594e-18 3.1878341677375194e-29
1.058054026499678 1.0921458641949158e-25 3.0673117820492626e-18 3.0673117820144464e-18 3.4815579180548497e-29
1.0590464539527713 1.094060436726699e-25 3.075570997402649e-18 3.0755709973670603e-18 3.558943767770268e-29
1.06003981227728 1.0959738699439262e-25 3.0838398022198355e-18 3.083839802183456e-18 3.6379760902977424e-29
1.0620293250338977 1.099797273878957e-25 3.1004060855068832e-18 3.100406085468872e-18 3.8011141500522136e-29
1.0660195594769086 1.1074299210357998e-25 3.13365268041784e-18 3.1336526803763534e-18 4.148658287208533e-29
1.070024785945596 1.1150430985203677e-25 3.1670500360079058e-18 3.167050035962641e-18 4.526515164263723e-29
1.0740450607676866 1.1226361047043682e-25 3.200596607736368e-18 3.200596607686996e-18 4.937191459525371e-29
1.07808044048254 1.1302082435893682e-25 3.23429083762719e-18 3.2342908375733562e-18 5.383388969121072e-29
1.0861967418109137 1.1452737743950207e-25 3.3020773688167657e-18 3.302077368752822e-18 6.394217215524445e-29
1.0902777775684922 1.1527353548646515e-25 3.3360780800401284e-18 3.336078079970475e-18 6.965361652418425e-29
1.0943741465085532 1.1601728104593782e-25 3.3702175903552625e-18 3.370217590279412e-18 7.585084073361062e-29
1.1026131145906286 1.1749727037954273e-25 3.43890647021776e-18 3.4389064701278984e-18 8.986197626805806e-29
1.1109141095355224 1.1896682319839843e-25 3.5081308229031066e-18 3.508130822796781e-18 1.0632508952251365e-28
1.1192775983109025 1.2042406238349688e-25 3.577836731132084e-18 3.57783673100644e-18 1.2564396276897414e-28
1.1277040513999907 1.2186221532582956e-25 3.647822036743571e-18 3.647822036595287e-18 1.4828444927008765e-28
1.1361939428280308 1.23288234112095e-25 3.7182923649795785e-18 3.718292364804796e-18 1.7478322488888685e-28
1.1447477501889525 1.2470164336199908e-25 3.789233851976702e-18 3.789233851770943e-18 2.0575779538419145e-28
1.1533659546722406 1.2610274963724206e-25 3.860656098673919e-18 3.860656098432001e-18 2.4191805765591465e-28
1.1707974979042381 1.288725839006273e-25 4.005085160066888e-18 4.005085159733712e-18 3.331760544602241e-28
1.1884924949847024 1.3158724121726186e-25 4.1512573592867345e-18 4.1512573588301405e-18 4.565935198817055e-28
1.2064549276569216 1.3426796874657615e-25 4.299846514401351e-18 4.29984651377867e-18 6.226815177887367e-28
1.2246888378427687 1.3688547002953952e-25 4.449923492154811e-18 4.449923491309732e-18 8.450780935559288e-28
1.2431983285522175 1.39433621204007e-25 4.601266174520221e-18 4.6012661733788026e-18 1.1414180519387862e-27
1.2619875648066055 1.4191147193831086e-25 4.753812116786916e-18 4.753812115252529e-18 1.53438761363318e-27
1.3004222497298317 1.4661507006689697e-25 5.060954546203216e-18 5.060954543469012e-18 2.7342032556349473e-27
1.3400274889804893 1.5097787731043593e-25 5.3702741349598885e-18 5.370274130175966e-18 4.7839210062728834e-27
1.3808389325824078 1.5498373762490813e-25 5.680657254870117e-18 5.680657246647792e-18 8.222326552313841e-27
1.4228933163050095 1.5865219801369248e-25 5.992221600019711e-18 5.992221586130566e-18 1.3889147942433786e-26
1.466228494730424 1.6207165150996078e-25 6.307803358012439e-18 6.307803334942706e-18 2.3069733935423793e-26
1.5108834753276823 1.6517559523142956e-25 6.62439597889978e-18 6.6243959412045385e-18 3.7695242644608885e-26
1.5568984535646726 1.6791023220008017e-25 6.939159698825718e-18 6.939159638171869e-18 6.065384774144843e-26
1.6043148490894465 1.702806011588035e-25 7.251439217637257e-18 7.251439121353736e-18 9.628352102892336e-26
1.6531753430134553 1.722939549153844e-25 7.560637088082089e-18 7.5606369374656e-18 1.5061648902565996e-25
1.7035239163302658 1.7397427714023496e-25 7.866883320625979e-18 7.866883088392068e-18 2.3223391086192256e-25
1.755405889504358 1.7545995835634437e-25 8.175701112041557e-18 8.17570075891539e-18 3.53126168139767e-25
1.8088679632656115 1.7671687255256281e-25 8.485048266795783e-18 8.485047737082558e-18 5.297132239899016e-25
1.8639582606462262 1.777219196374666e-25 8.793193124337642e-18 8.793192340127599e-18 7.842100424737926e-25
1.9207263702978936 1.7849191410949948e-25 9.100253259812394e-18 9.100252113585786e-18 1.1462266078758547e-24
1.979223391128241 1.7906594722438837e-25 9.407565535259457e-18 9.40756388053893e-18 1.6547205245430187e-24
2.039501978296691 1.7949079108518816e-25 9.717079046293076e-18 9.717076686073785e-18 2.3602192903122866e-24
2.1016163906111602 1.7989738844135994e-25 1.003570157926435e-17 1.0035698251630371e-17 3.327633981076325e-24
2.1656225393682647 1.8036167598605937e-25 1.0368035084951622e-17 1.0368030445926893e-17 4.6390247314222116e-24
2.231578038680979 1.808891115948739e-25 1.0715043479308343e-17 1.0715037082489751e-17 6.3968185950235244e-24
2.299542257339062 1.8152516839682089e-25 1.108020195304612e-17 1.1080193225667488e-17 8.727378630515124e-24
2.369576372248914 1.8237036163825758e-25 1.1470818367801907e-17 1.1470806582784114e-17 1.1785017791769956e-23
2.4417434235010123 1.8354337598698109e-25 1.1896197763466226e-17 1.189618200775266e-17 1.575571357219942e-23
2.5161083711144245 1.8524745215781747e-25 1.2372316440874939e-17 1.2372295579071843e-17 2.0861803092275187e-23
2.5927381535095444 1.8781517193313638e-25 1.2925839643865348e-17 1.2925812277777951e-17 2.736608740239851e-23
2.6717017477616296 1.9164359180406313e-25 1.3591009294296923e-17 1.3590973719952658e-17 3.557434426247846e-23
2.753070231689431 1.9733049743535811e-25 1.4420520432818332e-17 1.4420474593754885e-17 4.583906344320326e-23
2.836916847834745 2.0623024460520665e-25 1.5529890602046312e-17 1.5529832037520775e-17 5.856452553147854e-23
2.9233170693905177 2.213256921442472e-25 1.7174226512186535e-17 1.7174152314843e-17 7.419734353566484e-23
2.967498994190263 2.3414169613557256e-25 1.8443306072072198e-17 1.8443222945076025e-17 8.31269961731437e-23
3.0123486681368425 2.491085598438743e-25 1.99188069463205e-17 1.9918713938359926e-17 9.300796057670532e-23
3.0578761833420214 2.8259005083351746e-25 2.2937506094287604e-17 2.2937402140361668e-17 1.0395392593289962e-22
3.1040917844459814 3.257334785205517e-25 2.683900335238778e-17 2.6838887379144878e-17 1.1597324289777446e-22
3.127460860933648 3.7136973969532086e-25 3.082959571688654e-17 3.082947326524939e-17 1.2245163715034412e-22
3.1510058709225794 4.321730561555728e-25 3.6147339052368355e-17 3.614720981621349e-17 1.2923615486945805e-22
3.162844764501044 4.88769865564622e-25 4.103474435443371e-17 4.103461159498093e-17 1.3275945278913421e-22
3.1747281389236908 5.545873475463889e-25 4.673539651130939e-17 4.673526014829458e-17 1.3636301481843762e-22
3.1986289994194426 7.381708965118059e-25 6.267440531699371e-17 6.267426148249258e-17 1.438345011347718e-22
3.2227097969389145 1.17091687724244e-24 1.0016516210271084e-16 1.001650103170951e-16 1.5178561571837543e-22
3.2348180950136065 1.581294161640103e-24 1.3577879944433644e-16 1.3577864340641719e-16 1.560379192488353e-22
3.240889293275058 1.8881037762199845e-24 1.624274738264327e-16 1.624273155450884e-16 1.5828134431718994e-22
3.2469718861334385 2.2430349199305713e-24 1.9332320931931573e-16 1.9332304871630444e-16 1.6060301136412878e-22
3.2714166318528037 4.136292722393352e-24 3.5918364736588836e-16 3.5918347714037697e-16 1.7022551145381472e-22
3.2744851364798273 4.254644984104705e-24 3.698075589784748e-16 3.6980738761145117e-16 1.7136702367051188e-22
3.2775565192852394 4.376396575780175e-24 3.8074682645312217e-16 3.8074665393814316e-16 1.7251497901920722e-22
3.283707930232385 4.259305230498429e-24 3.712553480007456e-16 3.712551734180099e-16 1.7458273565864618e-22
3.2898708863219004 3.8879795908416036e-24 3.3952539536804513e-16 3.3952521888978624e-16 1.7647825883847052e-22
3.29141343181113 3.800411802119891e-24 3.320339777536987e-16 3.320338007990756e-16 1.769546230635992e-22
3.292184975758714 3.757384101585293e-24 3.2835168940152263e-16 3.283515122083441e-16 1.7719317857261802e-22
3.295272960557952 3.485789862473328e-24 3.0490323368047744e-16 3.049030555567948e-16 1.7812368268898895e-22
3.3076538914384823 2.5449059834472023e-24 2.2344016073844324e-16 2.2343997886993323e-16 1.818685100887442e-22
3.310756385682612 2.353412424267551e-24 2.0682103173997052e-16 2.0682084892597147e-16 1.828139990562792e-22
3.313861789986515 2.1767299012972467e-24 1.9147336408228946e-16 1.914731803190717e-16 1.8376321766634118e-22
3.3200813396944477 1.9289522760980462e-24 1.6999636684888487e-16 1.6999618105012986e-16 1.8579875500231806e-22
3.345076488085796 1.4869403489093773e-24 1.3202890828235899e-16 1.32028713426171e-16 1.9485618797136219e-22
3.3482140837626964 1.5035146338390827e-24 1.3362579787926128e-16 1.3362560179643517e-16 1.9608282608582396e-22
3.3513546224236106 1.5202721524563716e-24 1.3524186728322764e-16 1.352416699673981e-16 1.973158295278491e-22
3.3576445397418455 1.6427420261369788e-24 1.4641093634274273e-16 1.4641073645118291e-16 1.9989155981394616e-22
3.3702598118196083 2.094463470995516e-24 1.873723937624335e-16 1.8737218846571122e-16 2.052967223002064e-22
3.382922481734668 2.1973441780383298e-24 1.9731475685321963e-16 1.9731454627527347e-16 2.1057794610506517e-22
3.389271646505754 2.250643395822351e-24 2.0248017149886694e-16 2.02479958238344e-16 2.1326052291658564e-22
3.395632727569191 2.3080757553206317e-24 2.080368181805744e-16 2.0803660215507096e-16 2.1602550335417733e-22
3.421196662673239 2.5838432534945658e-24 2.3464626019863435e-16 2.3464603269444825e-16 2.2750418615149205e-22
3.4276182099114902 2.528265819955504e-24 2.300300680437726e-16 2.3002983794771844e-16 2.3009605415515983e-22
3.4340518103208963 2.2847344440256046e-24 2.0826294495690506e-16 2.082627123948065e-16 2.325620985580826e-22
3.4469541582030403 1.9379010190814183e-24 1.7731134812400635e-16 1.7731111079860182e-16 2.373254044684921e-22
3.472904465399547 1.8406948536371668e-24 1.6968524029546077e-16 1.6968499203555922e-16 2.4825990154159374e-22
3.4990501388274233 1.692025015607261e-24 1.5715433970143866e-16 1.5715408017919237e-16 2.595222463440817e-22
3.5253949054701885 1.1629532328594103e-24 1.088277013004076e-16 1.0882743072383974e-16 2.7057656787707192e-22
3.5519380250092896 6.656911311165257e-25 6.276356207699153e-17 6.276328029594385e-17 2.8178104767828954e-22
3.578680990867387 4.685219616264944e-25 4.450639032653209e-17 4.450609624401985e-17 2.940825122368372e-22
3.605625307711299 3.887678237355902e-25 3.720834384693427e-17 3.7208036746491083e-17 3.0710044319585613e-22
3.660119384959845 3.305774196366408e-25 3.211721432034049e-17 3.2116879600270053e-17 3.3472007044320552e-22
3.715437065384467 2.893639615404693e-25 2.853801644509936e-17 2.853765220876748e-17 3.642363318916577e-22
3.8285932144167436 2.684170147915373e-25 2.72783878743849e-17 2.7277958774188217e-17 4.291001966770077e-22
3.94519561050918 2.643593819394911e-25 2.7684246155849494e-17 2.7683744107684725e-17 5.020481647687138e-22
4.06534921144712 2.672378179145292e-25 2.883800462842038e-17 2.8837421004645406e-17 5.836237749742502e-22
4.189162171576248 2.7413370042352005e-25 3.0483093256177827e-17 3.048241860753691e-17 6.746486409131618e-22
4.316745939156006 2.839592849569147e-25 3.253733629661296e-17 3.2536560700601074e-17 7.755960118828094e-22
4.448215356677963 2.963491306189225e-25 3.499120475982148e-17 3.499031870842542e-17 8.860513960533832e-22
4.58368876423945 3.113467857703654e-25 3.788165466707287e-17 3.788064764524598e-17 1.007021826894116e-21
4.723288106065518 3.292982450055046e-25 4.128604543898967e-17 4.1284905267168774e-17 1.1401718208918975e-21
4.867139040275056 3.5089663185412675e-25 4.5333827275663393e-17 4.533254352326825e-17 1.2837523951536332e-21
4.940699165968905 3.6393419333804634e-25 4.772882088967645e-17 4.7727460730706e-17 1.3601589704500791e-21
5.015371051989984 3.774358833830507e-25 5.024764230165176e-17 5.024620265837038e-17 1.4396432813670875e-21
5.091171501069577 3.9392087858970565e-25 5.323486534235879e-17 5.323334161045511e-17 1.5237319036765955e-21
5.129500256944802 4.023816675148049e-25 5.4787650293942136e-17 5.478608329667872e-17 1.5669972634239924e-21
5.168117569889187 4.1120310786742103e-25 5.64102736261044e-17 5.640866224376957e-17 1.6113823348492733e-21
5.20702561229733 4.22036276946577e-25 5.833227709196369e-17 5.833061788030697e-17 1.6592116567240229e-21
5.246226572918644 4.331461066684621e-25 6.031854973069303e-17 6.031684168296006e-17 1.7080477329770987e-21
5.265937586045735 4.388075354469661e-25 6.133653203313992e-17 6.133479918621494e-17 1.7328469249982607e-21
5.285722656980489 4.445414970468284e-25 6.237148907176773e-17 6.236973116960434e-17 1.7579021633847312e-21
5.305582063971359 4.503491652724093e-25 6.342373757603747e-17 6.3421954361123e-17 1.783214914479821e-21
5.3255160863122235 4.565898377614701e-25 6.454422272265984e-17 6.454241379822927e-17 1.8089244305703334e-21
5.365609099470188 4.721423366332787e-25 6.724521832092256e-17 6.724335611355472e-17 1.862207367842903e-21
5.406003951863644 4.882876293301373e-25 7.0068289157536e-17 7.006637253139905e-17 1.9166261369222375e-21
5.446702915881641 5.050544115619929e-25 7.30199094109464e-17 7.301793721544992e-17 1.972195496469375e-21
5.487708281020852 5.231742234238182e-25 7.620909217306409e-17 7.62070630740531e-17 2.029099010996532e-21
5.529022354014368 5.483765763305248e-25 8.048161352051681e-17 8.047952484103694e-17 2.088679479861858e-21
5.570647458961463 5.750666781722994e-25 8.503413755206107e-17 8.503198799644896e-17 2.149555612108021e-21
5.612585937458331 6.033517450429455e-25 8.988826751029729e-17 8.988605576389312e-17 2.211746404177755e-21
5.654840148729818 6.344480138188093e-25 9.523263652072851e-17 9.523036102994787e-17 2.275490780665818e-21
5.67608639626678 6.556357372381808e-25 9.878273544933671e-17 9.87804266184604e-17 2.3088308763355507e-21
5.686739436050992 6.6655738821977125e-25 1.006167555551692e-16 1.0061442991484424e-16 2.325640324972994e-21
5.6974124697621304 6.777045430746609e-25 1.0249141565083632e-16 1.0248907310762317e-16 2.3425432131821796e-21
5.718818669136295 7.006971026776477e-25 1.0636679685743621e-16 1.0636442022659948e-16 2.3766308367446393e-21
5.740305295436557 7.260449496638752e-25 1.106287314918564e-16 1.1062632019798489e-16 2.4112938715131806e-21
5.7835210386641895 7.918210020586736e-25 1.2155946205075458e-16 1.2155697872285357e-16 2.4833279009663828e-21
5.827062130521658 8.676043395535707e-25 1.3419637896491941e-16 1.341938214597655e-16 2.5575051539312803e-21
5.8489554468988025 9.207805637505086e-25 1.4295649437548116e-16 1.4295389705230997e-16 2.5973231711324417e-21
5.870931020387893 9.778480311377783e-25 1.523869498708278e-16 1.5238431222994277e-16 2.637640885037927e-21
5.892989160043636 1.0391200386090397e-24 1.6254394469184628e-16 1.6254126622828854e-16 2.6784635576739203e-21
5.915130176081913 1.108809628825763e-24 1.7409677588004923e-16 1.7409405512760784e-16 2.7207524414027747e-21
5.95966208400165 1.3036907333583567e-24 2.0623655583926173e-16 2.0623374053870312e-16 2.8153005586616714e-21
6.004529249263818 1.5846185064792909e-24 2.525649736982259e-16 2.5256205270504874e-16 2.9209931771841452e-21
6.027089341400364 1.7799144899217846e-24 2.847581749457564e-16 2.847551937525247e-16 2.9811932316413146e-21
6.049734195844842 2.010713372946913e-24 3.228909651199027e-16 3.2288792024059694e-16 3.044879305739989e-21
6.095279466722835 2.6774341193664626e-24 4.3319341789398127e-16 4.3319021964846046e-16 3.1982455207390203e-21
6.141167624020661 3.703553940445793e-24 6.03724859406299e-16 6.037214658919495e-16 3.393514349589254e-21
6.164241091010745 4.3588421113781514e-24 7.1321453814764e-16 7.132110240521327e-16 3.5140955075008676e-21
6.187401249150058 5.105335331253157e-24 8.384979142149979e-16 8.384942754192675e-16 3.638795730311891e-21
6.1990139391386085 5.469833017888363e-24 9.000489185771717e-16 9.000452161623281e-16 3.7024148438189054e-21
6.204828454712694 5.661839025481697e-24 9.325169394651481e-16 9.325132048230645e-16 3.734642083544749e-21
6.210648424152782 5.801999817547975e-24 9.564980500950765e-16 9.564942874834066e-16 3.76261166988419e-21
6.233982942956859 6.27818842203004e-24 1.0388895753029471e-15 1.038885712841597e-15 3.862461350310407e-21
6.239830258556775 6.339059863474369e-24 1.0499462382902729e-15 1.0499423602782009e-15 3.8780120718325104e-21
6.245683058788269 6.344335958921937e-24 1.0518057666713604e-15 1.051801873054156e-15 3.893617204641784e-21
6.257405133728602 6.331248542303827e-24 1.0516060352956947e-15 1.0516021133574111e-15 3.921938283529868e-21
6.269149208991335 6.237585174678654e-24 1.0379932478627298e-15 1.0379893107254502e-15 3.9371372794856156e-21
6.280915325867298 6.0027114209683214e-24 1.0007828097046542e-15 1.0007788736785508e-15 3.936026103544122e-21
6.304513850009849 5.423506827231055e-24 9.076140858882838e-16 9.07610166922044e-16 3.9189662399958e-21
6.32820103803542 4.705574775349875e-24 7.904281156537228e-16 7.904242296201005e-16 3.886033622295707e-21
6.3519772230701035 4.047179723363694e-24 6.8238717464094e-16 6.823833165840759e-16 3.858056864400135e-21
6.375842739491607 3.493292475048183e-24 5.912102814157209e-16 5.912064462202823e-16 3.835195438580017e-21
6.399797922933955 3.0493614482572886e-24 5.180177003412873e-16 5.180138689902663e-16 3.8313510210102585e-21
6.42384311029221 2.6802824770726847e-24 4.570302284880375e-16 4.570263971129918e-16 3.831375045838184e-21
6.447978639727206 2.4113220987489273e-24 4.1271309556598856e-16 4.1270924904482285e-16 3.846521165723294e-21
6.472204850670314 2.1872720516681543e-24 3.7577206496760416e-16 3.7576820013011257e-16 3.8648374916328524e-21
6.496522083828205 2.0416553514454564e-24 3.5207305078138863e-16 3.520691551422501e-16 3.8956391385743685e-21
