Dust emission spectrum from A.P. Jones, M. Kohler, N. Ysard, M. Bocchio, and L. Verstraete (2017), A&A, 602A, 46J 
inside the DustPedia framework.

lambda    nu*dP/dnu     j_nu    j_nu(carb.) j_nu(sil)
 (um)   (erg s-1 H-1) (Jy cm2 sr-1 H-1)
0.9927057738263894 2.2308101109893974e-22 5.878311349941812e-15 5.8783110380488674e-15 3.118929469228598e-22
1.0001793341362166 2.268346187598832e-22 6.022220401261262e-15 6.022220025894835e-15 3.753664275297171e-22
1.0077091589558085 2.3060241082215184e-22 6.1683425293662645e-15 6.168342078209189e-15 4.511570746059133e-22
1.0114953028030835 2.324914410191274e-22 6.2422372750376286e-15 6.24223678067339e-15 4.943642365083121e-22
1.0152956718711033 2.3438379820414937e-22 6.316689880532568e-15 6.31668933900372e-15 5.41528847741439e-22
1.0229392996569957 2.3817637216775574e-22 6.46722503164991e-15 6.467224382504399e-15 6.491455105978642e-22
1.0267826658714554 2.400722741456297e-22 6.543196574333717e-15 6.543195863937162e-15 7.103965527016976e-22
1.0306404723013447 2.41971136381732e-22 6.619728685811427e-15 6.6197279086433616e-15 7.771680634105847e-22
1.03451277320114 2.4387289530082153e-22 6.696823064434545e-15 6.69682221450215e-15 8.499323946342313e-22
1.0383996230291617 2.4577748908490674e-22 6.7744814498639855e-15 6.774480520663993e-15 9.291999949576682e-22
1.0403485208654093 2.467308302250203e-22 6.81352270057084e-15 6.813521729127684e-15 9.714431557364014e-22
1.0423010764483396 2.47684857719233e-22 6.852705625105152e-15 6.85270460958287e-15 1.0155222805191144e-21
1.0462171883269815 2.495949430380183e-22 6.931497418573599e-15 6.931496309078892e-15 1.1094947056922496e-21
1.0471985131304309 2.5007288221309074e-22 6.951284276049218e-15 6.951283141791836e-15 1.1342573826653236e-21
1.048180758391296 2.505509867940491e-22 6.971106756454949e-15 6.9711055969063035e-15 1.1595486452158805e-21
1.0501480137395462 2.515076887699166e-22 7.0108587061909985e-15 7.010857494430952e-15 1.2117600462059733e-21
1.0521189612883777 2.5246504223511905e-22 7.0507535100435804e-15 7.0507522438263564e-15 1.266217225226755e-21
1.0531058218030118 2.5294332370896383e-22 7.070736738341726e-15 7.070735444023339e-15 1.2943183900232405e-21
1.0540936079674168 2.534196770484374e-22 7.090697301613137e-15 7.090695978591094e-15 1.3230220444930975e-21
1.058054026499678 2.553265937245178e-22 7.170894427907173e-15 7.170892983861611e-15 1.4440455632111478e-21
1.0590464539527713 2.558036948399602e-22 7.191032583465505e-15 7.191031107548772e-15 1.4759167341524554e-21
1.06003981227728 2.562809432091911e-22 7.21120635165673e-15 7.21120484319664e-15 1.5084600902527568e-21
1.0620293250338977 2.572358787251565e-22 7.25166085379806e-15 7.251659278180578e-15 1.57561748219062e-21
1.0660195594769086 2.5914748444558953e-22 7.332998628905659e-15 7.332996910297298e-15 1.718608361438464e-21
1.070024785945596 2.6106136542012746e-22 7.414909861791189e-15 7.414907987834905e-15 1.873956284967241e-21
1.0740450607676866 2.629774783653115e-22 7.497396722232866e-15 7.497394679561128e-15 2.0426717366477197e-21
1.07808044048254 2.648957822226573e-22 7.58046144352939e-15 7.58045921768659e-15 2.2258427996695305e-21
1.0861967418109137 2.6873585832160557e-22 7.74824863532805e-15 7.748245995002043e-15 2.6403260083779985e-21
1.0902777775684922 2.706508490776304e-22 7.83278105544136e-15 7.832778181186549e-15 2.8742548105304446e-21
1.0943741465085532 2.7256777337684066e-22 7.917895473130976e-15 7.91789234524684e-15 3.127884137548444e-21
1.1026131145906286 2.7640731012370273e-22 8.089880591518705e-15 8.089876890890274e-15 3.7006284308806436e-21
1.1109141095355224 2.8025426874557267e-22 8.264225369764688e-15 8.264220997221237e-15 4.372543448598765e-21
1.1192775983109025 2.841054594890506e-22 8.440862468482745e-15 8.440857308730327e-15 5.159752418095938e-21
1.1277040513999907 2.8794683349064673e-22 8.619396929632855e-15 8.619390848814466e-15 6.080818388011628e-21
1.1361939428280308 2.917948301949076e-22 8.800340900882427e-15 8.800333743798625e-15 7.157083800061928e-21
1.1447477501889525 2.956494256472916e-22 8.983721318957182e-15 8.983712905903599e-15 8.413053581152271e-21
1.1533659546722406 2.995120391361836e-22 9.169609575078399e-15 9.169599698238696e-15 9.876839700315123e-21
1.1707974979042381 3.0727307928541384e-22 9.549392218930103e-15 9.549378657569964e-15 1.3561360139084884e-20
1.1884924949847024 3.1506689892404053e-22 9.939594224538672e-15 9.939575697430898e-15 1.8527107770585737e-20
1.2064549276569216 3.2294652256485292e-22 1.0342157495578638e-14 1.0342132309388249e-14 2.5186190385512164e-20
1.2246888378427687 3.308599622896379e-22 1.0755718035584024e-14 1.0755683964658912e-14 3.4070925112291766e-20
1.2431983285522175 3.3880061104101748e-22 1.1180314891262515e-14 1.1180269024787434e-14 4.5866475079677325e-20
1.2619875648066055 3.467798319194827e-22 1.161658141036536e-14 1.1616519960118568e-14 6.145024679395901e-20
1.3004222497298317 3.628037831159173e-22 1.2523497446084108e-14 1.2523388698069397e-14 1.087480147128927e-19
1.3400274889804893 3.789799540554818e-22 1.3480294472200542e-14 1.3480105549962682e-14 1.8892223785981904e-19
1.3808389325824078 3.9536894457052138e-22 1.449155568025168e-14 1.449123334132166e-14 3.2233893002263643e-19
1.4228933163050095 4.1211280989585866e-22 1.556531401405264e-14 1.556477360144948e-14 5.404126031622403e-19
1.466228494730424 4.295125532250375e-22 1.6716561473274548e-14 1.6715670758975456e-14 8.907142990919862e-19
1.5108834753276823 4.475383119354529e-22 1.7948601849050243e-14 1.7947157929587193e-14 1.4439194630479192e-18
1.5568984535646726 4.661834962356199e-22 1.9265780810077037e-14 1.9263476201774483e-14 2.3046083025528376e-18
1.6043148490894465 4.855726167142159e-22 2.06782234258642e-14 2.0674595052428035e-14 3.628373436161279e-18
1.6531753430134553 5.058405162414454e-22 2.2197392645771624e-14 2.2191764400689132e-14 5.628245082486672e-18
1.7035239163302658 5.27147804860817e-22 2.3836916248379583e-14 2.3828312621064784e-14 8.603627314802694e-18
1.755405889504358 5.499219641018947e-22 2.5624066342891442e-14 2.5611098905504392e-14 1.2967437387046238e-17
1.8088679632656115 5.741945381623111e-22 2.7569910560682712e-14 2.7550633383925987e-14 1.9277176756729464e-17
1.8639582606462262 5.999941765894116e-22 2.968606618131758e-14 2.9657789994721685e-14 2.827618659590677e-17
1.9207263702978936 6.274415501944364e-22 3.198955561088231e-14 3.194861554819728e-14 4.0940062685023345e-17
1.979223391128241 6.567028223063945e-22 3.450111500147821e-14 3.4442583116372507e-14 5.853188510570796e-17
2.039501978296691 6.879371531803151e-22 3.724280034602056e-14 3.7160138354272444e-14 8.266199174811176e-17
2.1016163906111602 7.215205347951913e-22 4.025052744373804e-14 4.013516460344256e-14 1.1536284029549142e-16
2.1656225393682647 7.576766628878361e-22 4.355480830904083e-14 4.3395653390445585e-14 1.5915491859523497e-16
2.231578038680979 7.964052806470644e-22 4.7175405606480336e-14 4.695828489435585e-14 2.1712071212448339e-16
2.299542257339062 8.378241156271265e-22 5.1140348659461183e-14 5.084736724709262e-14 2.929814123685573e-16
2.369576372248914 8.821380351325817e-22 5.548514070727584e-14 5.509396270058292e-14 3.911780066929262e-16
2.4417434235010123 9.295810189304602e-22 6.024995224641387e-14 5.97330214253123e-14 5.169308211015754e-16
2.5161083711144245 9.805553425176762e-22 6.548938106357235e-14 6.481306230135762e-14 6.763187622147382e-16
2.5927381535095444 1.0356782275426141e-21 7.127757866454152e-14 7.04012547444886e-14 8.763239200529301e-16
2.6717017477616296 1.095504309549978e-21 7.769114068921564e-14 7.656632661459448e-14 1.1248140746211538e-15
2.753070231689431 1.1608071075538146e-21 8.482947557826976e-14 8.339892794393925e-14 1.4305476343305276e-15
2.836916847834745 1.2335228280183714e-21 9.288877395710782e-14 9.10855644384329e-14 1.803209518674902e-15
2.9233170693905177 1.3177859897202988e-21 1.0225633934668616e-13 1.000034387121951e-13 2.2529006344910544e-15
2.967498994190263 1.3679981751363174e-21 1.0775700982137942e-13 1.0525189373907117e-13 2.5051160823082515e-15
3.0123486681368425 1.4217487873087792e-21 1.1368352672552792e-13 1.1090160062757701e-13 2.7819260979509055e-15
3.0578761833420214 1.5032543223150855e-21 1.2201740676171298e-13 1.1893119379412692e-13 3.086212967586044e-15
3.1040917844459814 1.5974171038797289e-21 1.3162013066914336e-13 1.282031312650626e-13 3.4169994040807773e-15
3.127460860933648 1.6790974094480814e-21 1.3939179413224575e-13 1.357978198790696e-13 3.593974253176172e-15
3.1510058709225794 1.7811841191584566e-21 1.4897982498644617e-13 1.4520147891465933e-13 3.778346071786852e-15
3.162844764501044 1.8704269842902072e-21 1.5703196645586843e-13 1.5315824575477197e-13 3.873720701096466e-15
3.1747281389236908 1.9710553733700262e-21 1.661019762310569e-13 1.621309685282918e-13 3.971007702765051e-15
3.1986289994194426 2.2411306789510478e-21 1.9028321653518452e-13 1.861112972656094e-13 4.171919269575157e-15
3.2227097969389145 2.8559132819337535e-21 2.443068525153297e-13 2.399221412576865e-13 4.384711257643187e-15
3.2348180950136065 3.4292430978732634e-21 2.9445407573570855e-13 2.8995583204916313e-13 4.498243686545389e-15
3.240889293275058 3.856465557677341e-21 3.3175928480278277e-13 3.2720115559176474e-13 4.558129211018026e-15
3.2469718861334385 4.351190851359722e-21 3.7502143737099943e-13 3.704013443311261e-13 4.620093039873367e-15
3.2714166318528037 6.94637062304743e-21 6.032026512131757e-13 5.983265744113973e-13 4.876076801778456e-15
3.2744851364798273 7.109208883295323e-21 6.179221047165125e-13 6.130158832009748e-13 4.9062215155378446e-15
3.2775565192852394 7.276390201230346e-21 6.330464868027097e-13 6.281099719726461e-13 4.936514830063589e-15
3.283707930232385 7.119581000555157e-21 6.205665898405907e-13 6.155759456949145e-13 4.990644145676256e-15
3.2898708863219004 6.6155916406195975e-21 5.777194336785839e-13 5.726795701332472e-13 5.039863545336737e-15
3.29141343181113 6.496521919719843e-21 5.675874423307102e-13 5.625352206023963e-13 5.0522217283141194e-15
3.292184975758714 6.437982948430137e-21 5.626048655934156e-13 5.57546456764986e-13 5.058408828429537e-15
3.295272960557952 6.0720826666016306e-21 5.311271514538063e-13 5.260446837758818e-13 5.0824676779245294e-15
3.3076538914384823 4.795853600741138e-21 4.2107107547294335e-13 4.1589199672436336e-13 5.179078748579888e-15
3.310756385682612 4.533714241557636e-21 3.984288717881554e-13 3.932254457371453e-13 5.203426051009978e-15
3.313861789986515 4.29091911360489e-21 3.7744541350641804e-13 3.7221756222303213e-13 5.227851283385776e-15
3.3200813396944477 3.9525704937115966e-21 3.483355352908283e-13 3.4305512866591e-13 5.280406624918262e-15
3.345076488085796 3.367265752325397e-21 2.989873948219785e-13 2.9347273060381136e-13 5.514664218167193e-15
3.3482140837626964 3.3927919482633886e-21 3.0153649384004e-13 2.9599009376130884e-13 5.546400078731099e-15
3.3513546224236106 3.418544458095969e-21 3.0411024444315493e-13 2.985319677885222e-13 5.578276654632657e-15
3.3576445397418455 3.592623876293069e-21 3.201959999113714e-13 3.145510696462412e-13 5.644930265130271e-15
3.3702598118196083 4.219247312485346e-21 3.774572723583138e-13 3.7167253753186637e-13 5.784734826447394e-15
3.382922481734668 4.3729875903213426e-21 3.926808516072857e-13 3.867602854499152e-13 5.9205661573704424e-15
3.389271646505754 4.452199285050522e-21 4.0054416281917217e-13 3.9455475978745504e-13 5.9894030317170505e-15
3.395632727569191 4.5390607637334445e-21 4.0912511499615634e-13 4.030647713888888e-13 6.0603436072675415e-15
3.421196662673239 4.9581523494404604e-21 4.502641190473914e-13 4.439101762824463e-13 6.353942764945207e-15
3.4276182099114902 4.887109641602132e-21 4.4464555685639906e-13 4.382261540693422e-13 6.419402787056981e-15
3.4340518103208963 4.5551356507930566e-21 4.1521935636460284e-13 4.087380697355691e-13 6.48128662903363e-15
3.4469541582030403 4.080364625533433e-21 3.7333947681898744e-13 3.667394728651617e-13 6.600003953825714e-15
3.472904465399547 3.958613237553074e-21 3.6492644998908263e-13 3.5805288337527137e-13 6.8735666138113326e-15
3.4990501388274233 3.768596946663281e-21 3.5002518242389537e-13 3.4287181495651505e-13 7.153367467380301e-15
3.5253949054701885 3.0647040981222876e-21 2.8679115611943723e-13 2.793661860814546e-13 7.424970037982575e-15
3.5519380250092896 2.395443710873845e-21 2.2585035765340874e-13 2.1815258350713412e-13 7.697774146274588e-15
3.578680990867387 2.142216832978546e-21 2.0349598597603723e-13 1.954992373933524e-13 7.996748582684876e-15
3.605625307711299 2.0527854357036564e-21 1.9646879621290032e-13 1.881572863240861e-13 8.31150988881428e-15
3.660119384959845 2.0145326370050165e-21 1.9572170576298913e-13 1.8674944005226521e-13 8.97226571072393e-15
3.715437065384467 1.9981122829500348e-21 1.9706034188368767e-13 1.8739229901485125e-13 9.66804286883643e-15
3.8285932144167436 2.0520033404639747e-21 2.0853872875451775e-13 1.973780970936526e-13 1.1160631660865155e-14
3.94519561050918 2.1292440329900794e-21 2.2297871746675246e-13 2.101947538051696e-13 1.2783963661582893e-14
4.06534921144712 2.21566212638594e-21 2.390951817911084e-13 2.24560150690903e-13 1.4535031100205412e-14
4.189162171576248 2.306825308473092e-21 2.5651414216952367e-13 2.400982510742331e-13 1.6415891095290585e-14
4.316745939156006 2.4005884428174484e-21 2.750702569404104e-13 2.5665215082811675e-13 1.8418106112293645e-14
4.448215356677963 2.4956321030117055e-21 2.9466991767206683e-13 2.7415769148546983e-13 2.0512226186596946e-14
4.58368876423945 2.5914267149445972e-21 3.152996478433601e-13 2.926003082363057e-13 2.2699339607054413e-14
4.723288106065518 2.6879012715998064e-21 3.3699789087224776e-13 3.1200621057495234e-13 2.4991680297295384e-14
4.867139040275056 2.784789863640759e-21 3.597788386005099e-13 3.3245311203961107e-13 2.732572656089881e-14
4.940699165968905 2.834469982434833e-21 3.71731792684657e-13 3.4321665101101217e-13 2.851514167364484e-14
5.015371051989984 2.883230588903374e-21 3.838414567418508e-13 3.541259438217864e-13 2.9715512920064395e-14
5.091171501069577 2.9348550559980112e-21 3.9661927609611586e-13 3.656661241285692e-13 3.095315196754679e-14
5.129500256944802 2.9602500254261465e-21 4.030629530847444e-13 3.7148828819234673e-13 3.15746648923977e-14
5.168117569889187 2.9857171098391486e-21 4.095910656163406e-13 3.773868667484042e-13 3.220419886793639e-14
5.20702561229733 3.0140109550603544e-21 4.1658533114926983e-13 3.836924882019293e-13 3.2892842947340573e-14
5.246226572918644 3.042102786868211e-21 4.236335624645027e-13 3.9004853975781215e-13 3.3585022706690464e-14
5.265937586045735 3.0560717841371865e-21 4.2717781656226955e-13 3.9324547566474007e-13 3.3932340897529494e-14
5.285722656980489 3.0699889450952897e-21 4.307354503718872e-13 3.9645502511481333e-13 3.428042525707379e-14
5.305582063971359 3.0838538926325202e-21 4.343064339663148e-13 3.996771981099053e-13 3.462923585640935e-14
5.3255160863122235 3.0982100568485057e-21 4.3796760990393054e-13 4.02985979619912e-13 3.498163028401852e-14
5.365609099470188 3.1309773525959124e-21 4.459317440890902e-13 4.1022093402064825e-13 3.57108100684419e-14
5.406003951863644 3.163761511507125e-21 4.539933905716138e-13 4.1754988791912774e-13 3.6443502652485946e-14
5.446702915881641 3.1965748943227344e-21 4.621553715110976e-13 4.249759830443018e-13 3.7179388466795796e-14
5.487708281020852 3.2304596166104435e-21 4.705705741243872e-13 4.3264914047732144e-13 3.79214336470658e-14
5.529022354014368 3.273551807512388e-21 4.804376094518025e-13 4.4174268963158267e-13 3.869491982021991e-14
5.570647458961463 3.3173953661939935e-21 4.905376447476768e-13 4.510656701442384e-13 3.9471974603438366e-14
5.612585937458331 3.362068219087769e-21 5.008860750766859e-13 4.606338026529603e-13 4.025227242372563e-14
5.654840148729818 3.409200919487709e-21 5.117317493635146e-13 4.706922234855398e-13 4.1039525877974784e-14
5.67608639626678 3.439990929526764e-21 5.182934587595745e-13 4.768417257097982e-13 4.145173304977633e-14
5.686739436050992 3.455623135492149e-21 5.216258861719532e-13 4.799676751371897e-13 4.165821103476336e-14
5.6974124697621304 3.47141919512887e-21 5.24993776804368e-13 4.831288450471697e-13 4.1864931757198363e-14
5.718818669136295 3.503520715460498e-21 5.318393280108168e-13 4.895602473025594e-13 4.2279080708257274e-14
5.740305295436557 3.5382587679207806e-21 5.391306411073169e-13 4.964332674202917e-13 4.269737368702533e-14
5.7835210386641895 3.626044679591664e-21 5.566662660843416e-13 5.131045055741221e-13 4.356176051021933e-14
5.827062130521658 3.723537494264397e-21 5.759367788864524e-13 5.314983936119759e-13 4.443838527447669e-14
5.8489554468988025 3.791294359354192e-21 5.886203207322117e-13 5.437074523511666e-13 4.491286838104516e-14
5.870931020387893 3.8625354106071176e-21 6.0193401351498e-13 5.565449495373563e-13 4.5389063977623734e-14
5.892989160043636 3.9375390918307954e-21 6.15928008876875e-13 5.700610770834655e-13 4.5866931793409586e-14
5.915130176081913 4.0218583537270185e-21 6.314813239596639e-13 5.851186906177538e-13 4.636263334191007e-14
5.95966208400165 4.2562844348982635e-21 6.733203052417396e-13 6.258214504250051e-13 4.749885481673458e-14
6.004529249263818 4.588221818289117e-21 7.312953358297544e-13 6.825141445930849e-13 4.878119123666947e-14
6.027089341400364 4.81746793502549e-21 7.70718697333512e-13 7.211932193562493e-13 4.9525477977262326e-14
6.049734195844842 5.0848049439195914e-21 8.165448133377474e-13 7.66230221386657e-13 5.031459195109041e-14
6.095279466722835 5.8524979251649816e-21 9.469004525943476e-13 8.946347341108779e-13 5.2265718483469614e-14
6.141167624020661 7.017634413353295e-21 1.1439607516710164e-12 1.0891485158833626e-12 5.481223578765399e-14
6.164241091010745 7.759279650496472e-21 1.2696103485467857e-12 1.2131929932244704e-12 5.641735532231511e-14
6.187401249150058 8.590841585800168e-21 1.41095584984361e-12 1.3528915471199451e-12 5.806430272366485e-14
6.1990139391386085 8.994682980260992e-21 1.4800551795370413e-12 1.4211531014247607e-12 5.890207811228054e-14
6.204828454712694 9.206288884303841e-21 1.5162953760404085e-12 1.4569702809460634e-12 5.932509509434497e-14
6.210648424152782 9.35947724390837e-21 1.5429717365091196e-12 1.4832877691055814e-12 5.968396740353813e-14
6.233982942956859 9.87235084235284e-21 1.6336372348852323e-12 1.5727085869901967e-12 6.092864789503618e-14
6.239830258556775 9.93365800408871e-21 1.6453239247591743e-12 1.5842274675361677e-12 6.10964572230061e-14
6.245683058788269 9.932740008234514e-21 1.6467150048724188e-12 1.5854505186314231e-12 6.126448624099602e-14
6.257405133728602 9.904219820046097e-21 1.6450684676273601e-12 1.5835127448868876e-12 6.155572274047202e-14
6.269149208991335 9.785278713922568e-21 1.628363052217526e-12 1.5667141921855208e-12 6.164886003200475e-14
6.280915325867298 9.508715489882682e-21 1.5853100936029778e-12 1.523812882030253e-12 6.149721157272512e-14
6.304513850009849 8.835732694802997e-21 1.4786439306542055e-12 1.4176712440324384e-12 6.097268662176665e-14
6.32820103803542 8.016699704934771e-21 1.34662079428165e-12 1.2864079897077927e-12 6.021280457385727e-14
6.3519772230701035 7.270223218196674e-21 1.2258183278183935e-12 1.1662902773860792e-12 5.952805043231426e-14
6.375842739491607 6.639945694761413e-21 1.123754793171406e-12 1.064834310223494e-12 5.892048294791198e-14
6.399797922933955 6.1415706057776016e-21 1.0433142596154863e-12 9.84722674379928e-13 5.859158523555809e-14
6.42384311029221 5.725136371403665e-21 9.762256054464492e-13 9.179072819619197e-13 5.831832348452954e-14
6.447978639727206 5.4238447510554885e-21 9.283254851099535e-13 8.700634621028748e-13 5.826202300707901e-14
6.472204850670314 5.171736086777955e-21 8.88501248536446e-13 8.302525955409203e-13 5.824865299552553e-14
6.496522083828205 5.008348974039342e-21 8.636642327606761e-13 8.052534702308344e-13 5.841076252984181e-14
