Dust emission spectrum from A.P. Jones, M. Kohler, N. Ysard, M. Bocchio, and L. Verstraete (2017), A&A, 602A, 46J 
inside the DustPedia framework.

lambda    nu*dP/dnu     j_nu    j_nu(carb.) j_nu(sil)
 (um)   (erg s-1 H-1) (Jy cm2 sr-1 H-1)
0.9927057738263894 7.094544184258553e-26 1.8694526887586336e-18 1.869452688693534e-18 6.509944854293883e-29
1.0001793341362166 7.21120140200255e-26 1.9144980796213427e-18 1.9144980795429215e-18 7.842070095875731e-29
1.0077091589558085 7.327677663447586e-26 1.960067356268465e-18 1.9600673561741188e-18 9.434650699584941e-29
1.0114953028030835 7.385833586092181e-26 1.983046150698356e-18 1.9830461505949223e-18 1.0343401455805085e-28
1.0152956718711033 7.44392709749122e-26 2.0061531269831826e-18 2.0061531268698223e-18 1.133602145267726e-28
1.0229392996569957 7.559846932279278e-26 2.05273221986279e-18 2.0527322197267586e-18 1.3603143932262436e-28
1.0267826658714554 7.617532081626863e-26 2.0761668542841783e-18 2.0761668541352303e-18 1.4894740555888952e-28
1.0306404723013447 7.675129315271241e-26 2.0997245562156653e-18 2.0997245560526288e-18 1.6303690431422281e-28
1.03451277320114 7.732633077059587e-26 2.1234043035157946e-18 2.123404303337393e-18 1.7840135579027302e-28
1.0383996230291617 7.790037842574533e-26 2.1472050615680436e-18 2.1472050613728934e-18 1.9515046025270907e-28
1.0403485208654093 7.818701384287684e-26 2.159150492957995e-18 2.1591504927539146e-18 2.040809577120276e-28
1.0423010764483396 7.8473381201927e-26 2.1711257835270924e-18 2.1711257833136893e-18 2.1340283134016056e-28
1.0462171883269815 7.904528452119711e-26 2.195165410565377e-18 2.195165410332091e-18 2.3328667427023824e-28
1.0471985131304309 7.918808219805049e-26 2.201193771041306e-18 2.2011937708027777e-18 2.38528548039029e-28
1.048180758391296 7.933080692387801e-26 2.2072294793899565e-18 2.2072294791460736e-18 2.438832621412656e-28
1.0501480137395462 7.961603415401571e-26 2.219322872119867e-18 2.219322871864926e-18 2.5494051184940397e-28
1.0521189612883777 7.990095948897637e-26 2.231445453141567e-18 2.2314454528750897e-18 2.6647747831726475e-28
1.0531058218030118 8.004308693689667e-26 2.2375114992408046e-18 2.237511498968372e-18 2.7243239813858327e-28
1.0540936079674168 8.018441590171199e-26 2.2435646201104674e-18 2.2435646198319514e-18 2.7851603779859957e-28
1.058054026499678 8.074890564698681e-26 2.267847892837719e-18 2.2678478925335406e-18 3.0417821808658356e-28
1.0590464539527713 8.088981743137097e-26 2.2739363213009294e-18 2.2739363209899903e-18 3.109392975872305e-28
1.06003981227728 8.103064331099371e-26 2.280031758920547e-18 2.2800317586027035e-18 3.1784422681773737e-28
1.0620293250338977 8.1312034080423e-26 2.292243591391485e-18 2.292243591059388e-18 3.320973415102832e-28
1.0660195594769086 8.187374881952119e-26 2.3167505913528197e-18 2.3167505909903585e-18 3.624617240156567e-28
1.070024785945596 8.243399788730742e-26 2.3413677581046773e-18 2.341367757709203e-18 3.954744827430273e-28
1.0740450607676866 8.299272972087147e-26 2.3660939470795997e-18 2.3660939466482457e-18 4.3135462221808635e-28
1.07808044048254 8.354989317966786e-26 2.390928004006926e-18 2.3909280035365878e-18 4.703381941023562e-28
1.0861967418109137 8.465832274754967e-26 2.4408865188093385e-18 2.440886518250686e-18 5.586526619287565e-28
1.0902777775684922 8.520723803240624e-26 2.4659432701623705e-18 2.4659432695538186e-18 6.085526495621936e-28
1.0943741465085532 8.575434563464622e-26 2.491101338539851e-18 2.491101337877154e-18 6.626968189579539e-28
1.1026131145906286 8.68429437714299e-26 2.5417165885099915e-18 2.541716587724882e-18 7.851098978049098e-28
1.1109141095355224 8.792373390963862e-26 2.592722514568136e-18 2.59272251363919e-18 9.289455188248751e-28
1.1192775983109025 8.899533153292003e-26 2.644079262529464e-18 2.6440792614317325e-18 1.0977314639687901e-27
1.1277040513999907 9.005273452417698e-26 2.6956374343597237e-18 2.695637433064186e-18 1.2955378196307342e-27
1.1361939428280308 9.11010843717911e-26 2.747549017151181e-18 2.7475490156241276e-18 1.527053438079826e-27
1.1447477501889525 9.214003283751096e-26 2.7998037727266763e-18 2.799803770929003e-18 1.797673369619412e-27
1.1533659546722406 9.31698098721809e-26 2.852408815272138e-18 2.852408813158538e-18 2.113599871360999e-27
1.1707974979042381 9.520521204222514e-26 2.958775019249701e-18 2.9587750163387937e-18 2.9109065796139865e-27
1.1884924949847024 9.71995575071688e-26 3.0664095902340177e-18 3.0664095862448317e-18 3.989185486828983e-27
1.2064549276569216 9.916857084364004e-26 3.1758105649532492e-18 3.1758105595129786e-18 5.440270097975297e-27
1.2246888378427687 1.0109063210051769e-25 3.2862916606400767e-18 3.286291653256763e-18 7.383313861415018e-27
1.2431983285522175 1.0296125022364114e-25 3.397689264967165e-18 3.397689254994775e-18 9.972389280659688e-27
1.2619875648066055 1.0477975170340175e-25 3.509957626667998e-18 3.5099576132622966e-18 1.3405702281875568e-26
1.3004222497298317 1.0823011552464657e-25 3.735957667589252e-18 3.73595764370095e-18 2.388830204818213e-26
1.3400274889804893 1.114284231686061e-25 3.963502398509134e-18 3.963502356712771e-18 4.179636224437929e-26
1.3808389325824078 1.1436303816991467e-25 4.191776714284793e-18 4.1917766424476245e-18 7.18371681774565e-26
1.4228933163050095 1.17048688400861e-25 4.420875901316434e-18 4.4208757799691424e-18 1.2134729079240082e-25
1.466228494730424 1.19550884553315e-25 4.6529017506334935e-18 4.652901549076875e-18 2.0155661818269703e-25
1.5108834753276823 1.218208369151447e-25 4.885645855104732e-18 4.88564552576736e-18 3.2933737130760946e-25
1.5568984535646726 1.2381917848801672e-25 5.117026175521803e-18 5.117025645598741e-18 5.299230615341487e-25
1.6043148490894465 1.255499531332907e-25 5.34657411195189e-18 5.34657327073804e-18 8.412138500073491e-25
1.6531753430134553 1.2701883835854084e-25 5.573865552336549e-18 5.573864236424231e-18 1.3159123174671757e-24
1.7035239163302658 1.2824384219818045e-25 5.79901442756754e-18 5.799012398576908e-18 2.0289906321487424e-24
1.755405889504358 1.2932730220235154e-25 6.026112044810411e-18 6.026108959603679e-18 3.085206730629627e-24
1.8088679632656115 1.3024435008647233e-25 6.25367335330391e-18 6.253668725284945e-18 4.628018964646205e-24
1.8639582606462262 1.30978269705066e-25 6.480445535123665e-18 6.480438683608243e-18 6.851515424140812e-24
1.9207263702978936 1.3154175293364037e-25 6.7065405842498516e-18 6.706530569857041e-18 1.0014392812796195e-23
1.979223391128241 1.319639098443717e-25 6.932971619636418e-18 6.9329571626208455e-18 1.4457015572187794e-23
2.039501978296691 1.32279489123383e-25 7.161204450902039e-18 7.161183830071262e-18 2.0620830776031426e-23
2.1016163906111602 1.3258522147944965e-25 7.396359269674167e-18 7.396330196724623e-18 2.9072949542084013e-23
2.1656225393682647 1.3293730530574632e-25 7.641859824009594e-18 7.641819293703183e-18 4.0530306411991446e-23
2.231578038680979 1.3334000972447466e-25 7.89845220163949e-18 7.89839631386977e-18 5.588776972154378e-23
2.299542257339062 1.3382708528566594e-25 8.168735745288942e-18 8.168659495970556e-18 7.624931838727412e-23
2.369576372248914 1.3447279295092872e-25 8.458134147975217e-18 8.458031184873656e-18 1.0296310156013301e-22
2.4417434235010123 1.3536477799747438e-25 8.77354554805551e-18 8.773407894176595e-18 1.3765387891435174e-22
2.5161083711144245 1.3665293452354228e-25 9.126783277208383e-18 9.126601013188845e-18 1.8226401953430404e-22
2.5927381535095444 1.3858239744484575e-25 9.537535377984298e-18 9.537296288655731e-18 2.3908932856473914e-22
2.6717017477616296 1.414457607844775e-25 1.0031071904695824e-17 1.0030761103740946e-17 3.108009548782523e-22
2.753070231689431 1.45683341948112e-25 1.0646248991351187e-17 1.0645848513391163e-17 4.0047796002228045e-22
2.836916847834745 1.5229248677561243e-25 1.146818044882993e-17 1.1467668797237052e-17 5.116515928797067e-22
2.9233170693905177 1.6346936823342025e-25 1.2684744959546092e-17 1.268409673702697e-17 6.482225191236385e-22
2.967498994190263 1.7293850896678165e-25 1.3622340254489917e-17 1.3621614022286702e-17 7.262322032163948e-22
3.0123486681368425 1.839930406445175e-25 1.471214742023152e-17 1.4711334868630056e-17 8.125516014659676e-22
3.0578761833420214 2.0867860135120973e-25 1.693819961503422e-17 1.6937291441493262e-17 9.081735409540674e-22
3.1040917844459814 2.4048144823381e-25 1.9814611702330958e-17 1.9813598531780854e-17 1.013170550106227e-21
3.127460860933648 2.740982430995701e-25 2.275451421648263e-17 2.275344445344975e-17 1.0697630328908763e-21
3.1510058709225794 3.1888306760808323e-25 2.667166358177428e-17 2.6670534552677887e-17 1.1290290963934223e-21
3.162844764501044 3.605578691326081e-25 3.0270687755564564e-17 3.0269527949160884e-17 1.1598064036906835e-21
3.1747281389236908 4.0902273077449046e-25 3.446858207179962e-17 3.446739078712363e-17 1.191284675991318e-21
3.1986289994194426 5.442025128119747e-25 4.6205518293498116e-17 4.6204261743761865e-17 1.256549736254557e-21
3.2227097969389145 8.628144236317696e-25 7.38087803560961e-17 7.380745435421176e-17 1.326001884328965e-21
3.2348180950136065 1.1649475833809455e-24 1.0002894345919042e-16 1.0002758031559958e-16 1.3631435908552706e-21
3.240889293275058 1.390826016863277e-24 1.1964827320215096e-16 1.1964689046425973e-16 1.3827378912329234e-21
3.2469718861334385 1.652130236079226e-24 1.4239418058734503e-16 1.4239277757239542e-16 1.4030149496221606e-21
3.2714166318528037 3.0459363706622364e-24 2.645002684011775e-16 2.644987813481045e-16 1.4870530729529154e-21
3.2744851364798273 3.13306012898329e-24 2.723210333084709e-16 2.7231953628557535e-16 1.4970228954613345e-21
3.2775565192852394 3.222685899921281e-24 2.8037391214517874e-16 2.803724050962291e-16 1.5070489495551042e-21
3.283707930232385 3.136469023094616e-24 2.7338517331998943e-16 2.733836482093171e-16 1.5251106722932829e-21
3.2898708863219004 2.8630896128253694e-24 2.500248805468279e-16 2.5002333887685175e-16 1.5416699761040156e-21
3.29141343181113 2.798620360868848e-24 2.4450956870606536e-16 2.445080228745673e-16 1.5458314980434708e-21
3.292184975758714 2.7669425168037824e-24 2.4179860916697364e-16 2.4179706125145253e-16 1.5479155211158563e-21
3.295272960557952 2.5669930533594014e-24 2.2453576196049105e-16 2.24534205915582e-16 1.5560449090229597e-21
3.3076538914384823 1.8743204251904005e-24 1.6456342977063813e-16 1.645618410086015e-16 1.5887620366034227e-21
3.310756385682612 1.7333465021837248e-24 1.5232880911473903e-16 1.5232721209232407e-16 1.5970224149816084e-21
3.313861789986515 1.6032769655661402e-24 1.4103028307262316e-16 1.410286777572445e-16 1.6053153786685602e-21
3.3200813396944477 1.4208694197145008e-24 1.2521960346616221e-16 1.2521798036846296e-16 1.623097699283691e-21
3.345076488085796 1.0954797060428788e-24 9.727020303161854e-17 9.726850081671424e-17 1.7022149043255503e-21
3.3482140837626964 1.107680857527179e-24 9.844582490342107e-17 9.844411197463443e-17 1.7129287866430356e-21
3.3513546224236106 1.120016835199327e-24 9.963556060424188e-17 9.963383690600131e-17 1.7236982405548082e-21
3.3576445397418455 1.2101706699843178e-24 1.078576052160694e-16 1.0785585902175213e-16 1.746194317258388e-21
3.3702598118196083 1.5426922757224256e-24 1.3801049698113636e-16 1.3800870358132427e-16 1.793399812134242e-21
3.382922481734668 1.6184154873263567e-24 1.4532873892080578e-16 1.4532689939497818e-16 1.8395258275799386e-21
3.389271646505754 1.6576446086879747e-24 1.4913076201868732e-16 1.4912889906354048e-16 1.8629551468615833e-21
3.395632727569191 1.6999147703944442e-24 1.532206467642109e-16 1.5321875966043396e-16 1.8871037769267433e-21
3.421196662673239 1.9028716661321315e-24 1.7280526575749888e-16 1.728032784039315e-16 1.9873535674435853e-21
3.4276182099114902 1.8619571290956473e-24 1.6940707805320773e-16 1.6940506806158863e-16 2.0099916190815257e-21
3.4340518103208963 1.6826990948180115e-24 1.5338494584326846e-16 1.533829143112406e-16 2.031532027876008e-21
3.4469541582030403 1.4274062316326212e-24 1.306028124033688e-16 1.3060073926275158e-16 2.073140617233956e-21
3.472904465399547 1.355858404827116e-24 1.2499038543792222e-16 1.2498821679579764e-16 2.1686421245980264e-21
3.4990501388274233 1.2464349708344866e-24 1.1576818487637678e-16 1.1576591786992838e-16 2.2670064484173497e-21
3.5253949054701885 8.570370278264535e-25 8.020044747488292e-17 8.019808391376382e-17 2.363561119086684e-21
3.5519380250092896 4.910783763928403e-25 4.6300493908796035e-17 4.629803247966563e-17 2.461429130394451e-21
3.578680990867387 3.459968154456136e-25 3.286733724605145e-17 3.2864768377542255e-17 2.568868509187251e-21
3.605625307711299 2.873318474463896e-25 2.7500069515092936e-17 2.74973869557323e-17 2.6825593606319773e-21
3.660119384959845 2.445694796735014e-25 2.376112198928113e-17 2.375819822798868e-17 2.923761292450389e-21
3.715437065384467 2.14310087417313e-25 2.113595890278342e-17 2.1132777388462624e-17 3.18151432079201e-21
3.8285932144167436 1.9904047409981415e-25 2.0227865433243667e-17 2.0224117542694523e-17 3.747890549145132e-21
3.94519561050918 1.9621331419267838e-25 2.0547852886146012e-17 2.0543468117953834e-17 4.384768192172674e-21
4.06534921144712 1.985051190224801e-25 2.1420963491650294e-17 2.141586663867204e-17 5.0968529782551226e-21
4.189162171576248 2.037699673702707e-25 2.265879353235236e-17 2.2652902265023485e-17 5.891267328869741e-21
4.316745939156006 2.1120950269738196e-25 2.4201337946557445e-17 2.4194565872636238e-17 6.7720739212131435e-21
4.448215356677963 2.2055733860764446e-25 2.6042144886280905e-17 2.6034409326708116e-17 7.735559572789054e-21
4.58368876423945 2.318485455423403e-25 2.820908048100368e-17 2.820029007502193e-17 8.79040598175059e-21
4.723288106065518 2.4534124836282876e-25 3.075986611406593e-17 3.0749915105953095e-17 9.951008112818626e-21
4.867139040275056 2.6154922126155663e-25 3.379065555033548e-17 3.377945365207421e-17 1.1201898261274735e-20
4.940699165968905 2.7131338094199785e-25 3.5581893652748483e-17 3.5570026367878603e-17 1.1867284869873089e-20
5.015371051989984 2.8142904547826084e-25 3.746635291731237e-17 3.745379365616562e-17 1.2559261146750186e-20
5.091171501069577 2.9374980533652865e-25 3.9697645342941904e-17 3.968435423147458e-17 1.3291111467325524e-20
5.129500256944802 3.0007498115073204e-25 4.085773397875462e-17 4.0844066414160404e-17 1.366756459421396e-20
5.168117569889187 3.066684093136702e-25 4.2069839820967244e-17 4.20557861231014e-17 1.40536978658378e-20
5.20702561229733 3.1474481768294237e-25 4.350285253005643e-17 4.348838273090842e-17 1.446979914800966e-20
5.246226572918644 3.230277950764705e-25 4.498382375310152e-17 4.4968929172002376e-17 1.48945810991393e-20
5.265937586045735 3.2724881210136446e-25 4.574284993947708e-17 4.572773968257572e-17 1.5110256901368286e-20
5.285722656980489 3.315239850917041e-25 4.6514543075374374e-17 4.6499214936943855e-17 1.5328138430507574e-20
5.305582063971359 3.3585418994636204e-25 4.729913953340178e-17 4.728359129578541e-17 1.5548237616365142e-20
5.3255160863122235 3.4050378788640806e-25 4.813412499717322e-17 4.811835323131805e-17 1.577176585518249e-20
5.365609099470188 3.5206491791118395e-25 5.0143103956516816e-17 5.012686898811079e-17 1.6234968406037987e-20
5.406003951863644 3.64065361133454e-25 5.224264442483833e-17 5.22259364798653e-17 1.670794497303919e-20
5.446702915881641 3.7652631423846233e-25 5.443753529743262e-17 5.4420344481486883e-17 1.719081594573777e-20
5.487708281020852 3.8998616174593282e-25 5.680801923346863e-17 5.679033406897225e-17 1.768516449638439e-20
5.529022354014368 4.086606368631418e-25 5.997642652271849e-17 5.995822390565486e-17 1.8202617063633687e-20
5.570647458961463 4.284325139424936e-25 6.335159157221396e-17 6.333286038466757e-17 1.873118754637991e-20
5.612585937458331 4.493806782306535e-25 6.69494220421632e-17 6.693015101198403e-17 1.9271030179166203e-20
5.654840148729818 4.724001090596245e-25 7.090873782966203e-17 7.0888913632724e-17 1.9824196938059657e-20
5.67608639626678 4.880605713151089e-25 7.353467110039182e-17 7.351455768791108e-17 2.0113412480750735e-20
5.686739436050992 4.961320892479762e-25 7.489107769139315e-17 7.487081847902789e-17 2.025921236524837e-20
5.6974124697621304 5.043695932339921e-25 7.627741934156311e-17 7.625701353049376e-17 2.0405811069314344e-20
5.718818669136295 5.2135853539307475e-25 7.914295237147225e-17 7.912225095422476e-17 2.0701417247478804e-20
5.740305295436557 5.400809349597271e-25 8.2293071200607e-17 8.227206925828934e-17 2.1001942317630448e-20
5.7835210386641895 5.886227551410246e-25 9.036469767756168e-17 9.034307154832617e-17 2.162612923553165e-20
5.827062130521658 6.445258452602799e-25 9.969179571847099e-17 9.966952712707179e-17 2.2268591399226885e-20
5.8489554468988025 6.837244835359591e-25 1.0615217037907758e-16 1.0612955720764565e-16 2.261317143193832e-20
5.870931020387893 7.257835526219841e-25 1.1310545026284775e-16 1.1308248827855698e-16 2.2961984290779652e-20
5.892989160043636 7.709331867059425e-25 1.205929215153809e-16 1.2056960644432117e-16 2.3315071059693472e-20
5.915130176081913 8.222739893819744e-25 1.291071494328832e-16 1.2908346873513977e-16 2.3680697743441033e-20
5.95966208400165 9.657844053244378e-25 1.5278167155816645e-16 1.5275717418671584e-16 2.4497371450533652e-20
6.004529249263818 1.1725802885899016e-24 1.8689211853568427e-16 1.8686670964083473e-16 2.5408894849466383e-20
6.027089341400364 1.3163092537957438e-24 2.105886675441121e-16 2.1056274028619483e-16 2.5927257917265695e-20
6.049734195844842 1.486141174620124e-24 2.386523930430869e-16 2.386259178847506e-16 2.6475158336391878e-20
6.095279466722835 1.9766669722147477e-24 3.198133300603742e-16 3.1978553810126133e-16 2.77919591127086e-20
6.141167624020661 2.731483743192419e-24 4.452654572734367e-16 4.45235992966718e-16 2.9464306718813714e-20
6.164241091010745 3.2135074649040964e-24 5.258094199908799e-16 5.257789243663681e-16 3.049562451192275e-20
6.187401249150058 3.762557562307945e-24 6.179607143130945e-16 6.179291537176975e-16 3.156059539697445e-20
6.1990139391386085 4.030652092531926e-24 6.632348821581917e-16 6.63202778360118e-16 3.210379807368874e-20
6.204828454712694 4.1718700343611456e-24 6.871158750328189e-16 6.870834962403709e-16 3.237879244759276e-20
6.210648424152782 4.274966759585386e-24 7.047565491811356e-16 7.047239314827598e-16 3.2617698375688546e-20
6.233982942956859 4.625240620478193e-24 7.653663669955297e-16 7.653328963255572e-16 3.34706699725576e-20
6.239830258556775 4.670025465455569e-24 7.735020296033966e-16 7.734684257494354e-16 3.360385396096118e-20
6.245683058788269 4.673927060094023e-24 7.748743866400756e-16 7.74840649150767e-16 3.3737489308723755e-20
6.257405133728602 4.66434648018192e-24 7.747373802331692e-16 7.747034000353112e-16 3.3980197857755106e-20
6.269149208991335 4.595513692494501e-24 7.647370015297239e-16 7.647028900519354e-16 3.4111477788445224e-20
6.280915325867298 4.422838391893751e-24 7.373835459168245e-16 7.373494416579094e-16 3.410425891504269e-20
6.304513850009849 3.9969929660742395e-24 6.688895640346209e-16 6.688556001189865e-16 3.3963915634399897e-20
6.32820103803542 3.469148663678657e-24 5.827370240759304e-16 5.827033345139594e-16 3.36895619712858e-20
6.3519772230701035 2.9850910151543593e-24 5.033104440897567e-16 5.03276986294158e-16 3.3457795598725744e-20
6.375842739491607 2.5778603622689964e-24 4.362811190627446e-16 4.362478498745293e-16 3.326918821538317e-20
6.399797922933955 2.251528400656625e-24 3.824838688859926e-16 3.8245062574923235e-16 3.32431367602445e-20
6.42384311029221 1.980219562966283e-24 3.3765851437696034e-16 3.3762526464654347e-16 3.3249730416995e-20
6.447978639727206 1.7825558313597105e-24 3.0509575454949277e-16 3.0506236946897364e-16 3.338508051902008e-20
6.472204850670314 1.6179080253570544e-24 2.779556567517087e-16 2.779221094646677e-16 3.3547287040970323e-20
6.496522083828205 1.5109536263070463e-24 2.6055624541453647e-16 2.6052242977294783e-16 3.381564158855606e-20
6.520930681187647 1.4208758201461993e-24 2.4594338174194297e-16 2.4590927935451567e-16 3.410238742726746e-20
6.57002334288761 1.328881277377428e-24 2.3175148641660806e-16 2.317166563596113e-16 3.4830056996731857e-20
