Dust emission spectrum from A.P. Jones, M. Kohler, N. Ysard, M. Bocchio, and L. Verstraete (2017), A&A, 602A, 46J 
inside the DustPedia framework.

lambda    nu*dP/dnu     j_nu    j_nu(carb.) j_nu(sil)
 (um)   (erg s-1 H-1) (Jy cm2 sr-1 H-1)
0.9927057738263894 5.057765878634033e-26 1.3327500365567497e-18 1.3327500365566353e-18 1.1464738203119762e-31
1.0001793341362166 5.1409320160190083e-26 1.3648633457108907e-18 1.3648633457107528e-18 1.3816058414450147e-31
1.0077091589558085 5.223968167199381e-26 1.3973498760445784e-18 1.3973498760444125e-18 1.662865124909725e-31
1.0114953028030835 5.26542725149082e-26 1.4137314524000402e-18 1.4137314523998574e-18 1.8234231905064699e-31
1.0152956718711033 5.306841576988001e-26 1.4302043376629673e-18 1.4302043376627666e-18 1.9988501479594875e-31
1.0229392996569957 5.389478925769062e-26 1.4634101904841254e-18 1.4634101904838852e-18 2.399701827994975e-31
1.0267826658714554 5.430601294582508e-26 1.4801164321761546e-18 1.4801164321758918e-18 2.6281705583438685e-31
1.0306404723013447 5.471660694736325e-26 1.4969103258179966e-18 1.4969103258177089e-18 2.877474573927026e-31
1.03451277320114 5.512653158159313e-26 1.5137911398579628e-18 1.5137911398576479e-18 3.149423029585096e-31
1.0383996230291617 5.553574739340638e-26 1.5307581337971605e-18 1.5307581337968158e-18 3.4459736498222335e-31
1.0403485208654093 5.574007722473172e-26 1.5392737144195292e-18 1.5392737144191687e-18 3.604129985380144e-31
1.0423010764483396 5.59442151608337e-26 1.5478105583640977e-18 1.5478105583637206e-18 3.7692441750917383e-31
1.0462171883269815 5.635189590241149e-26 1.5649476556894694e-18 1.5649476556890569e-18 4.1215246269688925e-31
1.0471985131304309 5.645368857036057e-26 1.5692450705220224e-18 1.5692450705216012e-18 4.214413360610484e-31
1.048180758391296 5.655542902433761e-26 1.5735477174944908e-18 1.5735477174940598e-18 4.309309529555259e-31
1.0501480137395462 5.675875088437977e-26 1.5821686594810648e-18 1.5821686594806147e-18 4.505290445857164e-31
1.0521189612883777 5.696185668067477e-26 1.5908103845752919e-18 1.5908103845748206e-18 4.709808085310387e-31
1.0531058218030118 5.70631702582208e-26 1.5951346271360483e-18 1.5951346271355664e-18 4.815385007510283e-31
1.0540936079674168 5.716391430539533e-26 1.5994496466722206e-18 1.5994496466717277e-18 4.923252725296452e-31
1.058054026499678 5.756629938763566e-26 1.6167601247186239e-18 1.616760124718086e-18 5.378360617643681e-31
1.0590464539527713 5.766674493609636e-26 1.6211002819068108e-18 1.621100281906261e-18 5.498290731558087e-31
1.06003981227728 5.77671290213544e-26 1.62544542914272e-18 1.625445429142158e-18 5.620782975444444e-31
1.0620293250338977 5.796771046238457e-26 1.6341506434781218e-18 1.634150643477534e-18 5.873663437166118e-31
1.0660195594769086 5.836811011009515e-26 1.6516203980324868e-18 1.6516203980318459e-18 6.412532616385359e-31
1.070024785945596 5.876746119958254e-26 1.6691685761313323e-18 1.6691685761306324e-18 6.998606288296278e-31
1.0740450607676866 5.916572689409476e-26 1.6867943583674706e-18 1.686794358366707e-18 7.635809014838615e-31
1.07808044048254 5.956287065721325e-26 1.7044969183518917e-18 1.7044969183510586e-18 8.328372864923442e-31
1.0861967418109137 6.03529420574174e-26 1.740108684620675e-18 1.7401086846196855e-18 9.898187746963382e-31
1.0902777775684922 6.0744193455452e-26 1.7579696104683476e-18 1.757969610467269e-18 1.0785654412816278e-30
1.0943741465085532 6.113415199455946e-26 1.775902629039681e-18 1.7759026290385064e-18 1.1748959986925448e-30
1.1026131145906286 6.191005184950637e-26 1.811981479987238e-18 1.811981479985845e-18 1.3928112222177867e-30
1.1109141095355224 6.268036773615294e-26 1.8483382520805165e-18 1.8483382520788675e-18 1.6490567967549206e-30
1.1192775983109025 6.344411188147173e-26 1.8849444983903025e-18 1.8849444983883527e-18 1.9499843474865607e-30
1.1277040513999907 6.419771726989811e-26 1.921693669687713e-18 1.9216936696854106e-18 2.30292950640653e-30
1.1361939428280308 6.49448489301127e-26 1.9586940932419423e-18 1.958694093239226e-18 2.7163516289419522e-30
1.1447477501889525 6.56852578734356e-26 1.995938433524196e-18 1.9959384335209955e-18 3.1999944801703356e-30
1.1533659546722406 6.641910745537039e-26 2.0334317293135763e-18 2.0334317293098115e-18 3.76507158855429e-30
1.1707974979042381 6.786952393491696e-26 2.109240110698341e-18 2.109240110693148e-18 5.192998935207683e-30
1.1884924949847024 6.929057708174746e-26 2.1859491496208625e-18 2.185949149613735e-18 7.127434824897046e-30
1.2064549276569216 7.069347280938754e-26 2.263913616091873e-18 2.2639136160821374e-18 9.735253707254337e-30
1.2246888378427687 7.206278841028643e-26 2.342643780876922e-18 2.342643780863689e-18 1.3233469806927109e-29
1.2431983285522175 7.339531588730079e-26 2.4220226186792788e-18 2.4220226186613765e-18 1.7903357545717403e-29
1.2619875648066055 7.469056580818224e-26 2.502017010315802e-18 2.502017010291694e-18 2.410761545429257e-29
1.3004222497298317 7.714760497732478e-26 2.6630313102229732e-18 2.6630313101798648e-18 4.310791839928318e-29
1.3400274889804893 7.942435125412393e-26 2.8251194600449453e-18 2.825119459969247e-18 7.56971316437841e-29
1.3808389325824078 8.151242599650399e-26 2.9876951039841625e-18 2.9876951038535686e-18 1.3059303003041862e-28
1.4228933163050095 8.342223791996627e-26 3.15082010992916e-18 3.1508201097077024e-18 2.214577725310346e-28
1.466228494730424 8.520038850296542e-26 3.315985810571814e-18 3.3159858102024885e-18 3.6932478020323703e-28
1.5108834753276823 8.68119722615101e-26 3.481609248410818e-18 3.48160924780483e-18 6.059883901753407e-28
1.5568984535646726 8.822879307550643e-26 3.6461964060418676e-18 3.646196405062588e-18 9.792799598915363e-28
1.6043148490894465 8.945359188727917e-26 3.809402127756102e-18 3.809402126194673e-18 1.5614294188046667e-27
1.6531753430134553 9.049025785881823e-26 3.970911225605645e-18 3.970911223151909e-18 2.453735606297803e-27
1.7035239163302658 9.135146287135805e-26 4.130790547835925e-18 4.130790544034621e-18 3.801303935302462e-27
1.755405889504358 9.210997257705914e-26 4.291939951900429e-18 4.291939946092002e-18 5.808425489700987e-27
1.8088679632656115 9.274786012903405e-26 4.453282012462059e-18 4.453282003704879e-18 8.757179940166476e-27
1.8639582606462262 9.325301332078651e-26 4.6139033228360375e-18 4.613903309803538e-18 1.3032500934112418e-26
1.9207263702978936 9.363427017086384e-26 4.77386091467327e-18 4.773860895521045e-18 1.9152222684987235e-26
1.979223391128241 9.391216085739988e-26 4.933851586626455e-18 4.9338515588221084e-18 2.7804346939584777e-26
2.039501978296691 9.411123788430102e-26 5.0948927916431096e-18 5.094892751752451e-18 3.989065814643952e-26
2.1016163906111602 9.430020005976416e-26 5.260602584974166e-18 5.260602528391619e-18 5.658254453842018e-26
2.1656225393682647 9.451885829919855e-26 5.4333872962646795e-18 5.433387216885707e-18 7.937897237650939e-26
2.231578038680979 9.477004950819968e-26 5.613744199766089e-18 5.6137440895904774e-18 1.1017560971536117e-25
2.299542257339062 9.507760062661658e-26 5.803487337089428e-18 5.803487185745019e-18 1.513444084745867e-25
2.369576372248914 9.549422741052232e-26 6.006441660583293e-18 6.006441454756926e-18 2.0582636757586955e-25
2.4417434235010123 9.60821848309008e-26 6.227479832208087e-18 6.227479554982379e-18 2.772257070567009e-25
2.5161083711144245 9.694808747431885e-26 6.474973893557428e-18 6.474973523628145e-18 3.699292796634572e-25
2.5927381535095444 9.82664456552855e-26 6.762905817667497e-18 6.7629053284416804e-18 4.892258172174806e-25
2.6717017477616296 1.0024573337887416e-25 7.10924211574396e-18 7.109241474336824e-18 6.414071370543099e-25
2.753070231689431 1.0319983887208974e-25 7.541639049514054e-18 7.541638215608629e-18 8.33905425452857e-25
2.836916847834745 1.0783989575376513e-25 8.120737997465231e-18 8.120736921994975e-18 1.075470253740356e-24
2.9233170693905177 1.1573216783571877e-25 8.980477801292113e-18 8.980476425167375e-18 1.3761247362288731e-24
2.967498994190263 1.2244411855678227e-25 9.644904741615294e-18 9.644903191589101e-18 1.5500261899856335e-24
3.0123486681368425 1.3028540928077755e-25 1.0417666566787693e-17 1.0417664823075656e-17 1.7437120360463004e-24
3.0578761833420214 1.4784715694393576e-25 1.2000581950503659e-17 1.2000579990846435e-17 1.9596572259893186e-24
3.1040917844459814 1.7048501283459565e-25 1.4047213850359233e-17 1.4047211651740874e-17 2.198618362408799e-24
3.127460860933648 1.9443865138867153e-25 1.6141500971423687e-17 1.6141498643252843e-17 2.3281708455850465e-24
3.1510058709225794 2.263584989001088e-25 1.8932826307852818e-17 1.893282384344426e-17 2.4644085600182563e-24
3.162844764501044 2.560701391784452e-25 2.1498405360676828e-17 2.1498402825277872e-17 2.535398956046557e-24
3.1747281389236908 2.906264647670655e-25 2.449126026343898e-17 2.4491257655276653e-17 2.6081623271768603e-24
3.1986289994194426 3.8702521190711135e-25 3.2860378421291126e-17 3.286037566175443e-17 2.7595366994868675e-24
3.2227097969389145 6.142625471590757e-25 5.254660583141757e-17 5.25466029099553e-17 2.921462261591534e-24
3.2348180950136065 8.29759334013554e-25 7.124779748964528e-17 7.124779448124183e-17 3.0084034492788268e-24
3.240889293275058 9.908690809081688e-25 8.524126890252098e-17 8.524126584814197e-17 3.054379013112606e-24
3.2469718861334385 1.17724503104834e-24 1.0146466536710323e-16 1.0146466226506911e-16 3.1020341264735412e-24
3.2714166318528037 2.1714320903217753e-24 1.8856085643711842e-16 1.8856085313676664e-16 3.3003517478898448e-24
3.2744851364798273 2.233573377692695e-24 1.9413895206056878e-16 1.941389487366217e-16 3.323947060077716e-24
3.2775565192852394 2.297499615952085e-24 1.998826368689131e-16 1.998826335212211e-16 3.347691992800518e-24
3.283707930232385 2.2359899098394773e-24 1.9489638971153731e-16 1.9489638632110024e-16 3.3904370508506305e-24
3.2898708863219004 2.0409769584075896e-24 1.7823229071796804e-16 1.782322872883611e-16 3.429606951350955e-24
3.29141343181113 1.9949887290125115e-24 1.7429796499903704e-16 1.7429796155958002e-16 3.4394570443690394e-24
3.292184975758714 1.9723918437849182e-24 1.7236411731111391e-16 1.7236411386672317e-16 3.444390761223117e-24
3.295272960557952 1.829757833764964e-24 1.6004954468806334e-16 1.600495412244439e-16 3.463619369248014e-24
3.3076538914384823 1.3356539300855892e-24 1.1726905857048884e-16 1.1726905502939392e-16 3.5410949263757565e-24
3.310756385682612 1.2350968663106604e-24 1.0854196466166641e-16 1.0854196110098476e-16 3.560681645192933e-24
3.313861789986515 1.1423194232759841e-24 1.0048272075503836e-16 1.0048271717468228e-16 3.5803560605207085e-24
3.3200813396944477 1.01220636611071e-24 8.920459405465701e-17 8.920459043204458e-17 3.622612406329945e-24
3.345076488085796 7.800737784353827e-25 6.926457367443146e-17 6.92645698630805e-17 3.811350979752451e-24
3.3482140837626964 7.887715267720396e-25 7.010255985352622e-17 7.010255601651904e-17 3.8370071931309166e-24
3.3513546224236106 7.975654460213387e-25 7.095061237964864e-17 7.095060851683553e-17 3.862813124680069e-24
3.3576445397418455 8.618585704555714e-25 7.681396000573009e-17 7.681395608890882e-17 3.916821272853201e-24
3.3702598118196083 1.0990200976018494e-24 9.831922558324854e-17 9.83192215527736e-17 4.0304749205382284e-24
3.382922481734668 1.1530063050649895e-24 1.0353642411050596e-16 1.0353641996887583e-16 4.141630103930454e-24
3.389271646505754 1.1809748037045729e-24 1.0624694308916514e-16 1.0624693889095921e-16 4.198205915582582e-24
3.395632727569191 1.211109330064614e-24 1.0916250513642623e-16 1.0916250087985153e-16 4.2565746962470614e-24
3.421196662673239 1.355794784522794e-24 1.231236358300076e-16 1.2312363133034376e-16 4.499663867280553e-24
3.4276182099114902 1.326600117005374e-24 1.2069850914133449e-16 1.2069850458651835e-16 4.554816146538095e-24
3.4340518103208963 1.1987371765365209e-24 1.0926982576362096e-16 1.0926982115625482e-16 4.607366175180506e-24
3.4469541582030403 1.0166417348100148e-24 9.301925886995922e-17 9.30192541608553e-17 4.7091039039884404e-24
3.472904465399547 9.655797894886682e-25 8.901238479592215e-17 8.901237985223474e-17 4.943687452549337e-24
3.4990501388274233 8.875015944822511e-25 8.243065308037145e-17 8.243064789379715e-17 5.186574291850114e-24
3.5253949054701885 6.097316122149348e-25 5.705791762957733e-17 5.705791220357111e-17 5.4260062184479225e-24
3.5519380250092896 3.4870048357612775e-25 3.287663516036281e-17 3.287662949032775e-17 5.670035060704604e-24
3.578680990867387 2.4519784028076637e-25 2.32921222067669e-17 2.3292116267205817e-17 5.9395610870579626e-24
3.605625307711299 2.0332432776939572e-25 1.945984476646353e-17 1.945983853992103e-17 6.226542503424637e-24
3.660119384959845 1.7275599971213492e-25 1.678409092181181e-17 1.6784084080514347e-17 6.841297460795527e-24
3.715437065384467 1.5110677936163174e-25 1.490264278741272e-17 1.490263528081385e-17 7.506598871460208e-24
3.8285932144167436 1.400704622273542e-25 1.423492620745223e-17 1.4234917207676302e-17 8.999775926874048e-24
3.94519561050918 1.3790003662429298e-25 1.444116917961855e-17 1.444115845046324e-17 1.0729155309252811e-23
4.06534921144712 1.3937200374802933e-25 1.5039826774978973e-17 1.503981404917068e-17 1.2725808292323562e-23
4.189162171576248 1.4295537056217472e-25 1.5896337756305817e-17 1.589632272527105e-17 1.5031034771005595e-23
4.316745939156006 1.4808039887271905e-25 1.696772034691278e-17 1.696770266309186e-17 1.7683820918614428e-23
4.448215356677963 1.5455665607568535e-25 1.824916303429942e-17 1.8249142326006535e-17 2.0708292888260785e-23
4.58368876423945 1.6240857582442776e-25 1.9760299015547694e-17 1.9760274847953e-17 2.4167594691370588e-23
4.723288106065518 1.7181939191399797e-25 2.1542001299588815e-17 2.15419731497998e-17 2.8149789013603833e-23
4.867139040275056 1.8315462007344918e-25 2.3662523824398594e-17 2.3662491151914647e-17 3.2672483954595316e-23
4.940699165968905 1.9000065398421106e-25 2.4917986133032483e-17 2.4917950957952978e-17 3.517507949983955e-23
5.015371051989984 1.9709474188654928e-25 2.623901575304338e-17 2.623897790250144e-17 3.7850541938420153e-23
5.091171501069577 2.0575590569994074e-25 2.780606088346003e-17 2.7806020133158504e-17 4.075030151550902e-23
5.129500256944802 2.1020308115319093e-25 2.8620918472898455e-17 2.8620876198139255e-17 4.2274759194969904e-23
5.168117569889187 2.148406467090103e-25 2.947258771879698e-17 2.947254386048477e-17 4.385831220451524e-23
5.20702561229733 2.2053267283508155e-25 3.0481201930600276e-17 3.048115637188423e-17 4.5558716061091176e-23
5.246226572918644 2.263713861861222e-25 3.1523759546856214e-17 3.152371222700178e-17 4.7319854435575636e-23
5.265937586045735 2.2934722468235186e-25 3.205816276402799e-17 3.2058114540154863e-17 4.8223873125635944e-23
5.285722656980489 2.323615294671633e-25 3.2601533697390087e-17 3.260148455349528e-17 4.9143894795390817e-23
5.305582063971359 2.354149258347373e-25 3.3154040528959876e-17 3.315399044875621e-17 5.008020366979059e-23
5.3255160863122235 2.386954071485644e-25 3.374233994651774e-17 3.374228890959367e-17 5.103692406282182e-23
5.365609099470188 2.468649610599149e-25 3.515992300252862e-17 3.515986997075804e-17 5.303177058452957e-23
5.406003951863644 2.553471906118997e-25 3.6641806412142825e-17 3.6641751312524013e-17 5.509961880262546e-23
5.446702915881641 2.6415722870200986e-25 3.819140367552221e-17 3.819134643235308e-17 5.724316913666321e-23
5.487708281020852 2.736778990539451e-25 3.9865771861311283e-17 3.986571239046529e-17 5.94708459934844e-23
5.529022354014368 2.869069895097231e-25 4.2107446675729186e-17 4.210738484514228e-17 6.183058689816046e-23
5.570647458961463 3.0091808127466116e-25 4.4496247976560986e-17 4.449618369687473e-17 6.427968624376182e-23
5.612585937458331 3.157674858636434e-25 4.704352390386289e-17 4.7043457082251777e-17 6.682161110309668e-23
5.654840148729818 3.3209172488292613e-25 4.984800935376477e-17 4.984793988536626e-17 6.946839851682308e-23
5.67608639626678 3.4320605190573895e-25 5.170986068091594e-17 5.170978981449852e-17 7.086641740693091e-23
5.686739436050992 3.489352308248277e-25 5.2671730064017367e-17 5.26716584883411e-17 7.15756762702739e-23
5.6974124697621304 3.547827468687551e-25 5.365492432749577e-17 5.365485203563537e-17 7.229186039134107e-23
5.718818669136295 3.668441931190149e-25 5.568745984350295e-17 5.568738609821712e-17 7.374528581624337e-23
5.740305295436557 3.8013933707194136e-25 5.792249180976093e-17 5.79224165729947e-17 7.523676620622599e-23
5.7835210386641895 4.146246050456614e-25 6.365269904601804e-17 6.365262066084435e-17 7.838517368391456e-23
5.827062130521658 4.54354182452452e-25 7.027706440940478e-17 7.027698272243578e-17 8.168696899857863e-23
5.8489554468988025 4.82219190340119e-25 7.486731115480523e-17 7.486722766730879e-17 8.348749644636905e-23
5.870931020387893 5.121235698044976e-25 7.98088724161591e-17 7.980878708721275e-17 8.532894641627375e-23
5.892989160043636 5.442315317981829e-25 8.513120401621427e-17 8.513111680387842e-17 8.721233585492341e-23
5.915130176081913 5.807475377220749e-25 9.118452012791659e-17 9.118443094804123e-17 8.917987536146611e-23
5.95966208400165 6.828339990902339e-25 1.0802050561450874e-16 1.0802041198794555e-16 9.362656319299565e-23
6.004529249263818 8.299707370720998e-25 1.322851755938719e-16 1.322850768580567e-16 9.87358151948174e-23
6.027089341400364 9.322438002769006e-25 1.491442677018781e-16 1.4914416598896206e-16 1.0171291599853907e-22
6.049734195844842 1.0531069906861869e-24 1.69113478416278e-16 1.6911337350421141e-16 1.0491206657871767e-22
6.095279466722835 1.4022149203335879e-24 2.2687029703833545e-16 2.268701842239345e-16 1.1281440094008884e-22
6.141167624020661 1.939473563533047e-24 3.1615805339810483e-16 3.161579301764175e-16 1.2322168727824384e-22
6.164241091010745 2.2825501654584296e-24 3.734817459450346e-16 3.7348161620348813e-16 1.2974154649243104e-22
6.187401249150058 2.673377785880083e-24 4.390743314443421e-16 4.390741947742164e-16 1.3667012561086457e-22
6.1990139391386085 2.8642069662075782e-24 4.712989179167932e-16 4.712987776936435e-16 1.4022314967122276e-22
6.204828454712694 2.9647298180171538e-24 4.882973118443985e-16 4.882971698011165e-16 1.4204328199120108e-22
6.210648424152782 3.0381088936747483e-24 5.008523481830285e-16 5.008522045701032e-16 1.436129255502926e-22
6.233982942956859 3.2874093066720113e-24 5.439873780263393e-16 5.439872287539085e-16 1.4927243096976705e-22
6.239830258556775 3.319278264096883e-24 5.497761185863078e-16 5.497759684214704e-16 1.501648374272889e-22
6.245683058788269 3.322042148087087e-24 5.507500093165078e-16 5.507498582537391e-16 1.5106276866522107e-22
6.257405133728602 3.315194464568043e-24 5.50646287825251e-16 5.506461351263881e-16 1.5269886278955133e-22
6.269149208991335 3.266165312898803e-24 5.435208411991065e-16 5.435206876148917e-16 1.5358421482485657e-22
6.280915325867298 3.1432133332863616e-24 5.24042162046833e-16 5.240420085134275e-16 1.535334056740164e-22
6.304513850009849 2.8400144339353195e-24 4.752712933675308e-16 4.752711407965346e-16 1.525709962824804e-22
6.32820103803542 2.4642013874986653e-24 4.139290421045398e-16 4.1392889148655153e-16 1.506179882925864e-22
6.3519772230701035 2.1195659002981773e-24 3.573759222552268e-16 3.5737577335289794e-16 1.4890232893336887e-22
6.375842739491607 1.8296494433207717e-24 3.096527330603404e-16 3.0965258554778515e-16 1.4751255518534646e-22
6.399797922933955 1.5972979915920056e-24 2.713448852831544e-16 2.7134473815797165e-16 1.4712518271455936e-22
6.42384311029221 1.4041383577191849e-24 2.39427627478316e-16 2.394274804881643e-16 1.4699015171731924e-22
6.447978639727206 1.2633911211953735e-24 2.1623741631599385e-16 2.1623726860282642e-16 1.4771316731480088e-22
6.472204850670314 1.1461582561878411e-24 1.9690932107823454e-16 1.9690917243929445e-16 1.4863894007520722e-22
6.496522083828205 1.0699842548080508e-24 1.8451332670404692e-16 1.8451317640654655e-16 1.502975003809717e-22
6.520930681187647 1.0058288901758422e-24 1.7410174428764538e-16 1.7410159218817987e-16 1.5209946549679241e-22
6.57002334288761 9.402700593739879e-25 1.6397927158925852e-16 1.6397911474908353e-16 1.568401749819503e-22
