Dust emission spectrum from A.P. Jones, M. Kohler, N. Ysard, M. Bocchio, and L. Verstraete (2017), A&A, 602A, 46J 
inside the DustPedia framework.

lambda    nu*dP/dnu     j_nu    j_nu(carb.) j_nu(sil)
 (um)   (erg s-1 H-1) (Jy cm2 sr-1 H-1)
0.9927057738263894 1.189528362465492e-19 3.134474798958734e-12 3.1344746665198925e-12 1.324388414674776e-19
1.0001793341362166 1.209456315287043e-19 3.2109792306728996e-12 3.210979071347824e-12 1.593250767084299e-19
1.0077091589558085 1.2294717938379963e-19 3.2886920512015034e-12 3.288691859789716e-12 1.9141178759707015e-19
1.0114953028030835 1.239511599803231e-19 3.328004453504459e-12 3.328004243807731e-12 2.0969672838979978e-19
1.0152956718711033 1.2495723976398475e-19 3.367622412317708e-12 3.367622182666693e-12 2.296510143579047e-19
1.0229392996569957 1.2697460185662943e-19 3.447753091698763e-12 3.4477528165365733e-12 2.751621902662347e-19
1.0267826658714554 1.2798359881878622e-19 3.488207242349011e-12 3.488206941294226e-12 3.0105478414573573e-19
1.0306404723013447 1.2899453825907488e-19 3.5289698515093837e-12 3.5289695222362952e-12 3.292730888109423e-19
1.03451277320114 1.3000739607690102e-19 3.5700422038329535e-12 3.570041843817675e-12 3.600152778656359e-19
1.0383996230291617 1.3102214918974953e-19 3.611425613110708e-12 3.6114252196152797e-12 3.9349542880290345e-19
1.0403485208654093 1.3153022955276253e-19 3.632234382917264e-12 3.632233971583486e-12 4.113337794160246e-19
1.0423010764483396 1.3203877555698155e-19 3.653121423421856e-12 3.653120993477142e-12 4.2994471428960027e-19
1.0462171883269815 1.3305725420342433e-19 3.695131010298731e-12 3.6951305406860555e-12 4.696126757476223e-19
1.0471985131304309 1.3331216092897536e-19 3.705682598891642e-12 3.705682118827957e-12 4.800636855725975e-19
1.048180758391296 1.3356718187370212e-19 3.716253908693553e-12 3.716253417956555e-12 4.907369974280651e-19
1.0501480137395462 1.3407756524273816e-19 3.737455781906011e-12 3.737455269137427e-12 5.127685843862876e-19
1.0521189612883777 1.3458840199866492e-19 3.758736811251249e-12 3.7587362755068316e-12 5.357444168197523e-19
1.0531058218030118 1.3484365511354337e-19 3.7693977139346975e-12 3.769397166335524e-12 5.475991723333821e-19
1.0540936079674168 1.350979246490849e-19 3.780047788395317e-12 3.78004722868809e-12 5.597072279634073e-19
1.058054026499678 1.3611607883627175e-19 3.8228451530933e-12 3.822844542344378e-12 6.107489208745723e-19
1.0590464539527713 1.363708851309454e-19 3.8335938776263096e-12 3.833593253438207e-12 6.241881016623984e-19
1.06003981227728 1.366257980356102e-19 3.844362402671335e-12 3.844361764761643e-12 6.379096920665153e-19
1.0620293250338977 1.3713594273391986e-19 3.865958949819723e-12 3.865958283596979e-12 6.662227418810899e-19
1.0660195594769086 1.381575013636178e-19 3.909390709463565e-12 3.909389982970729e-12 7.264928347359024e-19
1.070024785945596 1.391807409598215e-19 3.953142001895079e-12 3.953141209943643e-12 7.919514361936878e-19
1.0740450607676866 1.4020564899144852e-19 3.997214437225645e-12 3.997213574204754e-12 8.630208914356596e-19
1.07808044048254 1.4123221418314467e-19 4.041609667079255e-12 4.041608726923454e-12 9.401558021826534e-19
1.0861967418109137 1.4328872252324033e-19 4.131330503054556e-12 4.131329388438877e-12 1.1146156785362833e-18
1.0902777775684922 1.4431511499523633e-19 4.176557001763924e-12 4.176555788731141e-12 1.2130327828905467e-18
1.0943741465085532 1.4534307225422326e-19 4.222110485019077e-12 4.2221091653146436e-12 1.3197044334900436e-18
1.1026131145906286 1.4740366493260372e-19 4.314205899704021e-12 4.314204339230929e-12 1.5604730936584002e-18
1.1109141095355224 1.4947048212293432e-19 4.407632240252281e-12 4.407630397503029e-12 1.842749251627722e-18
1.1192775983109025 1.515419298142443e-19 4.50235834985705e-12 4.50235617661078e-12 2.1732462713408267e-18
1.1277040513999907 1.5361068995551458e-19 4.598180481135087e-12 4.59817792144809e-12 2.559686996793199e-18
1.1361939428280308 1.5568552206285734e-19 4.695373343557297e-12 4.695370332613721e-12 3.0109435760525286e-18
1.1447477501889525 1.577665040553315e-19 4.793955891495945e-12 4.793952354301684e-12 3.537194260916148e-18
1.1533659546722406 1.5985444843918134e-19 4.893969822563006e-12 4.893965672457236e-12 4.150105770777715e-18
1.1707974979042381 1.6405756503440692e-19 5.098559361723274e-12 5.098553670468232e-12 5.691255042522102e-18
1.1884924949847024 1.6829007353161315e-19 5.3091424349382074e-12 5.3091346695010296e-12 7.765437177555775e-18
1.2064549276569216 1.725803385652828e-19 5.526775851020383e-12 5.5267653080090515e-12 1.0543011331772615e-17
1.2246888378427687 1.769020090892881e-19 5.750795945588171e-12 5.750781701944005e-12 1.4243644166424306e-17
1.2431983285522175 1.8125208083930115e-19 5.981262348534015e-12 5.981243198963467e-12 1.9149570547998783e-17
1.2619875648066055 1.8563751050041054e-19 6.21856594603309e-12 6.218540324457742e-12 2.5621575346455135e-17
1.3004222497298317 1.9449056360309418e-19 6.713552035350723e-12 6.7135068166623445e-12 4.5218688379282836e-17
1.3400274889804893 2.0349129019768475e-19 7.238173114536869e-12 7.238094777682651e-12 7.833685421806813e-17
1.3808389325824078 2.1267541703007966e-19 7.795244644366383e-12 7.795111367097213e-12 1.3327726917050437e-16
1.4228933163050095 2.2211956473482546e-19 8.389355270553056e-12 8.389132476125501e-12 2.2279442755261644e-16
1.466228494730424 2.3198155120130467e-19 9.02868573270873e-12 9.02831960795682e-12 3.6612475191054075e-16
1.5108834753276823 2.422436037802289e-19 9.715221867658785e-12 9.714630139124509e-12 5.917285342748966e-16
1.5568984535646726 2.5289631626948973e-19 1.0451345953399785e-11 1.045040439772956e-11 9.415556702208998e-16
1.6043148490894465 2.639947228000171e-19 1.1242277001218756e-11 1.124079919354123e-11 1.4778076775250103e-15
1.6531753430134553 2.7559490511916922e-19 1.2093709625237703e-11 1.2091424463972986e-11 2.2851612647173638e-15
1.7035239163302658 2.877597532493358e-19 1.3012109838283132e-11 1.300862772108059e-11 3.482117202541147e-15
1.755405889504358 3.0068611590291107e-19 1.401071694756844e-11 1.4005485595883667e-11 5.2313516847777785e-15
1.8088679632656115 3.14356284964128e-19 1.509379502004181e-11 1.5086043604708755e-11 7.751415333057394e-15
1.8639582606462262 3.287417794439194e-19 1.6265241567193777e-11 1.6253909320278423e-11 1.1332246915352992e-14
1.9207263702978936 3.438549178453961e-19 1.7531140570913692e-11 1.7514788202323454e-11 1.635236859023628e-14
1.979223391128241 3.5972344335905032e-19 1.889874607888903e-11 1.8875446894690543e-11 2.329918419848935e-14
2.039501978296691 3.7636146143206653e-19 2.037505126922116e-11 2.0342260727569245e-11 3.279054165191342e-14
2.1016163906111602 3.938891838215118e-19 2.1973383484781455e-11 2.1927781779609837e-11 4.560170517161954e-14
2.1656225393682647 4.123370965482473e-19 2.370307029177167e-11 2.364038223527557e-11 6.268805649609865e-14
2.231578038680979 4.3160822498697286e-19 2.556649682220877e-11 2.5481286523735083e-11 8.521029847369058e-14
2.299542257339062 4.516629230627437e-19 2.7569270126213402e-11 2.7454710202016878e-11 1.1455992419651864e-13
2.369576372248914 4.724977599766958e-19 2.971939044918221e-11 2.956700492528141e-11 1.52385523900793e-13
2.4417434235010123 4.941198271981467e-19 3.2025929301942515e-11 3.1825319480946034e-11 2.006098209964856e-13
2.5161083711144245 5.1661627700931e-19 3.4503794698458704e-11 3.4242341177035415e-11 2.6145352142330287e-13
2.5927381535095444 5.401768337417272e-19 3.717611873636178e-11 3.683867402164393e-11 3.374447147178343e-13
2.6717017477616296 5.649453342624747e-19 4.006487885376913e-11 3.9633474796841526e-11 4.314040569276119e-13
2.753070231689431 5.911653551311576e-19 4.32011888361847e-11 4.2654751062380926e-11 5.464377738037707e-13
2.836916847834745 6.196351018353537e-19 4.666078616699619e-11 4.597484356660567e-11 6.85942600390521e-13
2.9233170693905177 6.52176671070631e-19 5.0607002587078193e-11 4.9753611877143065e-11 8.533907099351245e-13
2.967498994190263 6.717284394345817e-19 5.291194780887721e-11 5.196518687219871e-11 9.46760936678507e-13
3.0123486681368425 6.925293491102937e-19 5.53748872308297e-11 5.4325879831394026e-11 1.0490073994356796e-12
3.0578761833420214 7.258813459911969e-19 5.891894547700032e-11 5.775776938939509e-11 1.1611760876052239e-12
3.1040917844459814 7.645639255523163e-19 6.299669857152458e-11 6.17139373055111e-11 1.282761266013508e-12
3.127460860933648 7.998250294388476e-19 6.639820013896851e-11 6.505052806439047e-11 1.347672074578012e-12
3.1510058709225794 8.443322280913562e-19 7.062069901616728e-11 6.920550373458297e-11 1.4151952815843021e-12
3.162844764501044 8.843319118929983e-19 7.424421284048861e-11 7.279412664933189e-11 1.4500861911567033e-12
3.1747281389236908 9.294369637767852e-19 7.832419045719792e-11 7.683854073925718e-11 1.4856497179406996e-12
3.1986289994194426 1.0510342949118347e-18 8.923807442510229e-11 8.767906311099452e-11 1.5590113141077889e-12
3.2227097969389145 1.3314537188525215e-18 1.1389815978671432e-10 1.1226155048271619e-10 1.6366093039981341e-12
3.2348180950136065 1.5939949973180242e-18 1.3686936454102868e-10 1.3519137883336959e-10 1.677985707659132e-12
3.240889293275058 1.7900259314241206e-18 1.5399015339459377e-10 1.5229034234696665e-10 1.6998110476271153e-12
3.2469718861334385 2.0172035838308164e-18 1.7385920620828752e-10 1.721368124256631e-10 1.722393782624356e-12
3.2714166318528037 3.206412624402071e-18 2.7843556021982216e-10 2.7661995649943937e-10 1.815603720382712e-12
3.2744851364798273 3.2806505498228525e-18 2.851493782028616e-10 2.83322822270926e-10 1.8265559319356153e-12
3.2775565192852394 3.35685048126917e-18 2.9204624066616385e-10 2.902086807117834e-10 1.8375599543803887e-12
3.283707930232385 3.2834360495151315e-18 2.86195312905125e-10 2.8433813999489475e-10 1.8571729102302474e-12
3.2898708863219004 3.050413756462955e-18 2.6638332648115047e-10 2.6450836510179156e-10 1.8749613793589126e-12
3.29141343181113 2.995334915200658e-18 2.616961051546691e-10 2.598166785111855e-10 1.8794266434835304e-12
3.292184975758714 2.9682521991324393e-18 2.593907350977801e-10 2.5750907309831864e-10 1.8816619994614358e-12
3.295272960557952 2.799655970438508e-18 2.448868670396186e-10 2.429965213501414e-10 1.8903456894772107e-12
3.3076538914384823 2.210806396194776e-18 1.941065562894448e-10 1.9218136246037254e-10 1.925193829072288e-12
3.310756385682612 2.0896033192305886e-18 1.8363713472152766e-10 1.817031632149174e-10 1.933971506610266e-12
3.313861789986515 1.9772441410688062e-18 1.7392584494604336e-10 1.7198306949030398e-10 1.9427754557393876e-12
3.3200813396944477 1.8204301540900537e-18 1.6043243585241244e-10 1.5847069560864517e-10 1.9617402437672525e-12
3.345076488085796 1.5474922681822458e-18 1.3740545469315628e-10 1.3535912194245347e-10 2.046332750702806e-12
3.3482140837626964 1.558729231480679e-18 1.3853302957384168e-10 1.3647523396782943e-10 2.057795606012265e-12
3.3513546224236106 1.570064355929926e-18 1.3967133115456769e-10 1.37602024263377e-10 2.069306891190733e-12
3.3576445397418455 1.6490449568973624e-18 1.469726910063775e-10 1.448793057598425e-10 2.0933852465350025e-12
3.3702598118196083 1.93436865770225e-18 1.7305018246053338e-10 1.7090629669337057e-10 2.143885767162826e-12
3.382922481734668 2.002877014242744e-18 1.79852202955761e-10 1.7765933382574257e-10 2.1928691300184462e-12
3.389271646505754 2.0381603206944693e-18 1.8336403361031448e-10 1.8114635629166485e-10 2.2176773186496617e-12
3.395632727569191 2.0770523112305327e-18 1.8721367919874943e-10 1.8497043535286125e-10 2.2432438458882026e-12
3.421196662673239 2.265762554160935e-18 2.0576043423413004e-10 2.034114658966881e-10 2.3489683374419084e-12
3.4276182099114902 2.2320807500370873e-18 2.03082161202204e-10 2.007097107064803e-10 2.372450495723673e-12
3.4340518103208963 2.0786909178704475e-18 1.8948122979583347e-10 1.870866237603304e-10 2.394606035503114e-12
3.4469541582030403 1.8584890425982194e-18 1.700454225329757e-10 1.6760840199068664e-10 2.437020542289108e-12
3.472904465399547 1.797728978582059e-18 1.657244127749054e-10 1.631895167538147e-10 2.5348960210906876e-12
3.4990501388274233 1.7059201888852182e-18 1.584449156452883e-10 1.5581010593310932e-10 2.634809712178992e-12
3.5253949054701885 1.37997296687312e-18 1.2913613514126617e-10 1.2640465361507704e-10 2.7314815261891594e-12
3.5519380250092896 1.0696765395430525e-18 1.0085264284549995e-10 9.802431320807385e-11 2.8283296374261157e-12
3.578680990867387 9.496908654801476e-19 9.021415389338147e-11 8.727971288168107e-11 2.934441011700373e-12
3.605625307711299 9.045963224347249e-19 8.657746076927238e-11 8.353145228993526e-11 3.0460084793371145e-12
3.660119384959845 8.78436343594847e-19 8.534439026423107e-11 8.206485158786585e-11 3.2795386763652568e-12
3.715437065384467 8.618510280822166e-19 8.499855573478612e-11 8.147408441282078e-11 3.524471321965342e-12
3.8285932144167436 8.672865655266129e-19 8.813964103971541e-11 8.409312684708861e-11 4.046514192626791e-12
3.94519561050918 8.820140804922153e-19 9.236628841438557e-11 8.775703785061097e-11 4.609250563774584e-12
4.06534921144712 8.996383206449976e-19 9.708122247489082e-11 9.187071811059972e-11 5.210504364291081e-12
4.189162171576248 9.182320752996463e-19 1.0210548334235847e-10 9.62555884999619e-11 5.849894842396566e-12
4.316745939156006 9.369283908274387e-19 1.0735748310826433e-10 1.0083418107597139e-10 6.523302032292947e-12
4.448215356677963 9.552688363252585e-19 1.1279266243408103e-10 1.0557326824872214e-10 7.219394185358874e-12
4.58368876423945 9.731271800482804e-19 1.1840066917832348e-10 1.1046317275571006e-10 7.937496422613445e-12
4.723288106065518 9.905781265757734e-19 1.2419456879884984e-10 1.1551385299034823e-10 8.680715808501582e-12
4.867139040275056 1.0076637441674229e-18 1.301843619548467e-10 1.207582340996526e-10 9.426127855194065e-12
4.940699165968905 1.0165598525476882e-18 1.3331861642584554e-10 1.2351692778863112e-10 9.80168863721441e-12
5.015371051989984 1.0249650432183566e-18 1.364525185091233e-10 1.2627480588119137e-10 1.017771262793194e-11
5.091171501069577 1.0344833322339169e-18 1.3980112221405455e-10 1.2923818914587888e-10 1.056293306817567e-11
5.129500256944802 1.0390361542289768e-18 1.4147351645577943e-10 1.3071837124077156e-10 1.0755145215007878e-11
5.168117569889187 1.0435993233504769e-18 1.431645876694065e-10 1.3221533173559986e-10 1.0949255933806636e-11
5.20702561229733 1.049306569201319e-18 1.450312328407189e-10 1.338681837299575e-10 1.1163049110761393e-11
5.246226572918644 1.0549095311758343e-18 1.469033474801972e-10 1.3552626665057383e-10 1.1377080829623359e-11
5.265937586045735 1.0576722404074647e-18 1.4784146126441334e-10 1.3635731237548805e-10 1.1484148888925327e-11
5.285722656980489 1.060409306666003e-18 1.4878095278324994e-10 1.3718972104233214e-10 1.1591231740917811e-11
5.305582063971359 1.0631209003931428e-18 1.497218296326801e-10 1.380235153316037e-10 1.1698314301076456e-11
5.3255160863122235 1.0660327144900472e-18 1.5069597976824166e-10 1.3888960054511218e-10 1.1806379223129478e-11
5.365609099470188 1.0735230501850933e-18 1.5289730719130577e-10 1.4086717849373034e-10 1.2030128697575447e-11
5.406003951863644 1.0809996946738993e-18 1.551212740931587e-10 1.4286724330693993e-10 1.2254030786218735e-11
5.446702915881641 1.0884700668132127e-18 1.5736915440341974e-10 1.448911900859745e-10 1.2477964317445264e-11
5.487708281020852 1.096365376397138e-18 1.5970398824010895e-10 1.4700106573173808e-10 1.2702922508370899e-11
5.529022354014368 1.1080266439125484e-18 1.6261776300243688e-10 1.4968032206131726e-10 1.2937440941119659e-11
5.570647458961463 1.1199672238418687e-18 1.6560766008674098e-10 1.524356176056677e-10 1.31720424810733e-11
5.612585937458331 1.1322204895378677e-18 1.686799434664361e-10 1.5527333926288133e-10 1.3406604203554767e-11
5.654840148729818 1.145452840147806e-18 1.7193606347798483e-10 1.5829370684940554e-10 1.3642356628579277e-11
5.67608639626678 1.1550029841225302e-18 1.7402095057292755e-10 1.602549324934234e-10 1.3766018079504164e-11
5.686739436050992 1.1598706889935597e-18 1.7508233747398295e-10 1.6125447646831242e-10 1.3827861005670541e-11
5.6974124697621304 1.1648024745074873e-18 1.7615678659057995e-10 1.6226707713195062e-10 1.3889709458629326e-11
5.718818669136295 1.1748655317851044e-18 1.7834622531853153e-10 1.6433281021642482e-10 1.4013415102106688e-11
5.740305295436557 1.1859886891040844e-18 1.807111588614672e-10 1.6657298280342706e-10 1.4138176058040142e-11
5.7835210386641895 1.215623402796915e-18 1.8662112588086042e-10 1.7222527389083737e-10 1.4395851990023061e-11
5.827062130521658 1.2491260650432354e-18 1.932081101458694e-10 1.785518367174561e-10 1.4656273428413323e-11
5.8489554468988025 1.273520729290078e-18 1.9772143998376738e-10 1.829235922379848e-10 1.4797847745782555e-11
5.870931020387893 1.2993031998175368e-18 2.024822316686788e-10 1.8754259793070922e-10 1.4939633737969614e-11
5.892989160043636 1.3265851435147475e-18 2.0751056103693757e-10 1.9242894576587452e-10 1.5081615271063028e-11
5.915130176081913 1.357591582564104e-18 2.1315860842280279e-10 1.979295019840357e-10 1.522910643876708e-11
5.95966208400165 1.4459394486866678e-18 2.2873950410084632e-10 2.131690181726173e-10 1.557048592822904e-11
6.004529249263818 1.5732699049993294e-18 2.507561728906003e-10 2.34798510786552e-10 1.5957662104048354e-11
6.027089341400364 1.6621996760358823e-18 2.659256659932045e-10 2.497416580723567e-10 1.6184007920847743e-11
6.049734195844842 1.766349520378303e-18 2.836497280256989e-10 2.6722537698246437e-10 1.6424351043234538e-11
6.095279466722835 2.0675574246200384e-18 3.345188817102108e-10 3.174948836877471e-10 1.702399802246345e-11
6.141167624020661 2.527085875829116e-18 4.1194609005989916e-10 3.941328382316533e-10 1.7813251828245766e-11
6.164241091010745 2.8196970632910088e-18 4.613722835846221e-10 4.430584120722477e-10 1.8313871512374355e-11
6.187401249150058 3.148153660581008e-18 5.170513015797416e-10 4.982243978056522e-10 1.8826903774089295e-11
6.1990139391386085 3.307335273617174e-18 5.442147002762538e-10 5.25126934703878e-10 1.9087765572375962e-11
6.204828454712694 3.3907817770516576e-18 5.584689764049579e-10 5.392495620564727e-10 1.9219414348485383e-11
6.210648424152782 3.450791360489581e-18 5.68885782727953e-10 5.495553551436566e-10 1.9330427584296407e-11
6.233982942956859 3.650707996740235e-18 6.04104595997802e-10 5.843919924674413e-10 1.9712603530360707e-11
6.239830258556775 3.673946809748754e-18 6.085203035864738e-10 5.887583499704056e-10 1.976195361606821e-11
6.245683058788269 3.672294006480353e-18 6.088170673712324e-10 5.89005722834592e-10 1.981134453664038e-11
6.257405133728602 3.658350472168177e-18 6.076437230434495e-10 5.877480755133696e-10 1.9895647530079872e-11
6.269149208991335 3.608357282553014e-18 6.0046482577439e-10 5.805486128708168e-10 1.9916212903573267e-11
6.280915325867298 3.495572024763293e-18 5.827880347949943e-10 5.629299298312598e-10 1.985810496373434e-11
6.304513850009849 3.2227056576173207e-18 5.393139794420939e-10 5.196430411883946e-10 1.967093825369938e-11
6.32820103803542 2.892052557471014e-18 4.857981782264578e-10 4.663898690674535e-10 1.9408309159004435e-11
6.3519772230701035 2.590880137059691e-18 4.3684330753962367e-10 4.176733580231081e-10 1.9169949516515553e-11
6.375842739491607 2.336850549927693e-18 3.954922415221411e-10 3.7653563520517824e-10 1.895660631696281e-11
6.399797922933955 2.1351377467021928e-18 3.6271172316769787e-10 3.438792949640662e-10 1.8832428203631672e-11
6.42384311029221 1.9666048897651155e-18 3.353369989183676e-10 3.1661084547996927e-10 1.872615343839819e-11
6.447978639727206 1.8437580988912416e-18 3.1557091143612415e-10 2.968818092481632e-10 1.868910218796091e-11
6.472204850670314 1.7407633808144287e-18 2.9906213528844935e-10 2.803964147824421e-10 1.8665720506007312e-11
6.496522083828205 1.6728514502314877e-18 2.8847469930225623e-10 2.6977654617395953e-10 1.869815312829669e-11
6.520930681187647 1.6150691815023607e-18 2.795568554365374e-10 2.6081805886408997e-10 1.873879657244737e-11
