Dust emission spectrum from A.P. Jones, M. Kohler, N. Ysard, M. Bocchio, and L. Verstraete (2017), A&A, 602A, 46J 
inside the DustPedia framework.

lambda    nu*dP/dnu     j_nu    j_nu(carb.) j_nu(sil)
 (um)   (erg s-1 H-1) (Jy cm2 sr-1 H-1)
0.9927057738263894 1.5733443865442568e-24 4.1458518227212296e-17 4.145851820826159e-17 1.8950698103589395e-26
1.0001793341362166 1.5993222084161918e-24 4.2460321464025034e-17 4.2460321441203054e-17 2.2821984474182928e-26
1.0077091589558085 1.6252667485972623e-24 4.3473968772464775e-17 4.347396874501641e-17 2.744836362574737e-26
1.0114953028030835 1.6382234076488023e-24 4.3985185756679934e-17 4.398518572659247e-17 3.0087460317262095e-26
1.0152956718711033 1.6511680002573758e-24 4.4499305319732287e-17 4.4499305286762764e-17 3.296952889706768e-26
1.0229392996569957 1.6770033235604387e-24 4.5535826134135866e-17 4.553582609458585e-17 3.9550019572365884e-26
1.0267826658714554 1.6898627538336207e-24 4.6057397595488115e-17 4.605739755219029e-17 4.3297811619993017e-26
1.0306404723013447 1.7027045412210988e-24 4.658176286448042e-17 4.6581762817095177e-17 4.738523990638946e-26
1.03451277320114 1.7155274742341277e-24 4.7108900490769466e-17 4.7108900438927924e-17 5.184156136255456e-26
1.0383996230291617 1.7283303484413048e-24 4.7638788761112805e-17 4.76387887044144e-17 5.669841195439187e-26
1.0403485208654093 1.7347238890964237e-24 4.790475753192851e-17 4.7904757472640873e-17 5.928761673536149e-26
1.0423010764483396 1.741111966707077e-24 4.817140570505294e-17 4.8171405643062944e-17 6.198998775427087e-26
1.0462171883269815 1.7538711394252314e-24 4.8706729100617146e-17 4.870672903286391e-17 6.775323877092492e-26
1.0471985131304309 1.757057286816416e-24 4.8840980204951214e-17 4.884098013567885e-17 6.927235971467724e-26
1.048180758391296 1.7602419390671312e-24 4.897539870602371e-17 4.897539863519961e-17 7.082409314223439e-26
1.0501480137395462 1.766606684747314e-24 4.924473648002993e-17 4.9244736406001833e-17 7.402807635721063e-26
1.0521189612883777 1.7729652299835223e-24 4.951473957669627e-17 4.9514739499325594e-17 7.73706764398366e-26
1.0531058218030118 1.776137264897977e-24 4.96498536790867e-17 4.964985359999084e-17 7.909584391035364e-26
1.0540936079674168 1.7792917495657956e-24 4.9784686628802187e-17 4.9784686547943975e-17 8.085820355927432e-26
1.058054026499678 1.791892619373042e-24 5.032563436589749e-17 5.0325634277606345e-17 8.829113783304151e-26
1.0590464539527713 1.795038479783693e-24 5.0461273457268617e-17 5.046127336701945e-17 9.02491685207604e-26
1.06003981227728 1.7981825615679337e-24 5.059707267751312e-17 5.0597072585264384e-17 9.224874017992888e-26
1.0620293250338977 1.8044653179147806e-24 5.086915002996118e-17 5.086914993358533e-17 9.637587536704141e-26
1.0660195594769086 1.817008704293042e-24 5.1415210013694156e-17 5.1415209908527565e-17 1.0516660677208863e-25
1.070024785945596 1.8295216466563834e-24 5.196379049930065e-17 5.196379038457888e-17 1.1472176334422475e-25
1.0740450607676866 1.842003022394525e-24 5.251486746427563e-17 5.251486733917128e-17 1.2510432660568185e-25
1.07808044048254 1.8544517183278863e-24 5.306841668719096e-17 5.306841655080879e-17 1.3638215866832477e-25
1.0861967418109137 1.8792247348616018e-24 5.4182201728884364e-17 5.4182201566962744e-17 1.6192163937589635e-25
1.0902777775684922 1.891497006204279e-24 5.474094009722233e-17 5.4740939920875557e-17 1.7634675901765615e-25
1.0943741465085532 1.9037313721246234e-24 5.530201104355405e-17 5.530201085155922e-17 1.9199482211876567e-25
1.1026131145906286 1.9280821699499383e-24 5.643104923147871e-17 5.64310490041194e-17 2.2735932762455087e-25
1.1109141095355224 1.9522688001329316e-24 5.756911186000807e-17 5.756911159111692e-17 2.68891142286202e-25
1.1192775983109025 1.9762607427620947e-24 5.871532761643143e-17 5.871532729882984e-17 3.1760158871869663e-25
1.1277040513999907 1.9999472825442312e-24 5.98663970623218e-17 5.986639668766515e-17 3.746566443362312e-25
1.1361939428280308 2.02344254668908e-24 6.102570149141858e-17 6.102570105001993e-17 4.41398649422514e-25
1.1447477501889525 2.0467389906407116e-24 6.219302697545525e-17 6.219302645608422e-17 5.193710251591412e-25
1.1533659546722406 2.069841814794432e-24 6.336854230826734e-17 6.336854169792046e-17 6.103468668745695e-25
1.1707974979042381 2.1155412560274026e-24 6.574651204757424e-17 6.574651120782986e-17 8.397443823854155e-25
1.1884924949847024 2.1603717657459134e-24 6.815447385617451e-17 6.81544727065488e-17 1.1496256942206768e-24
1.2064549276569216 2.2046828346950457e-24 7.060356904643884e-17 7.060356748028252e-17 1.5661563395162529e-24
1.2246888378427687 2.247997565992232e-24 7.307873638492792e-17 7.307873426169311e-17 2.1232348033530006e-24
1.2431983285522175 2.2902173377778203e-24 7.557646052381233e-17 7.557645765918633e-17 2.8646259915387115e-24
1.2619875648066055 2.33132974988087e-24 7.809589641933359e-17 7.809589257278943e-17 3.846544167501611e-24
1.3004222497298317 2.4095675185090207e-24 8.317502206026754e-17 8.31750152217237e-17 6.83854384878209e-24
1.3400274889804893 2.4824312794565857e-24 8.829993327081698e-17 8.829992133427012e-17 1.1936546863501751e-23
1.3808389325824078 2.549680271501799e-24 9.345406139939509e-17 9.345404093414248e-17 2.0465252613989744e-23
1.4228933163050095 2.6116598228339814e-24 9.864120761149995e-17 9.864117312952654e-17 3.448197340316498e-23
1.466228494730424 2.6698452990629087e-24 1.0390996195758342e-16 1.0390990483342215e-16 5.712416128198365e-23
1.5108834753276823 2.723178647667025e-24 1.0921355335911424e-16 1.0921346027168566e-16 9.308742858121025e-23
1.5568984535646726 2.7708098553741476e-24 1.1450816206728004e-16 1.1450801269889037e-16 1.4936838965319257e-22
1.6043148490894465 2.812853926373499e-24 1.1978604219377454e-16 1.197858057530466e-16 2.3644072792491083e-22
1.6531753430134553 2.8494644794244938e-24 1.2504075859707176e-16 1.2504038980641635e-16 3.6879065544681265e-22
1.7035239163302658 2.8810676640599875e-24 1.3027801307499522e-16 1.302774461372817e-16 5.669377135158873e-22
1.755405889504358 2.909968109222854e-24 1.3559235810521043e-16 1.3559149868405678e-16 8.594211536814835e-22
1.8088679632656115 2.9356415506083374e-24 1.4095462358023561e-16 1.4095333845315334e-16 1.2851270822664225e-21
1.8639582606462262 2.957738171393807e-24 1.4634077217568002e-16 1.4633887578363128e-16 1.896392048735539e-21
1.9207263702978936 2.976562695142631e-24 1.517574311679482e-16 1.5175466857921987e-16 2.762588728332966e-21
1.979223391128241 2.99278326502839e-24 1.5723148446142824e-16 1.572275100003622e-16 3.974461066055426e-21
2.039501978296691 3.0071872225919242e-24 1.627998616099454e-16 1.6279421263695856e-16 5.648972986855804e-21
2.1016163906111602 3.021947581072167e-24 1.685814584334873e-16 1.68573523016474e-16 7.935417013285393e-21
2.1656225393682647 3.038326824669891e-24 1.7465727652786902e-16 1.7464625532389684e-16 1.1021203972240812e-20
2.231578038680979 3.056413010580213e-24 1.8104792494330968e-16 1.8103278643427223e-16 1.5138509037433558e-20
2.299542257339062 3.07695375731936e-24 1.8781565846975776e-16 1.8779508699346956e-16 2.0571476288201897e-20
2.369576372248914 3.101587612522012e-24 1.9508514341620336e-16 1.9505747926629642e-16 2.7664149907006135e-20
2.4417434235010123 3.1322449813831684e-24 2.0301362302936924e-16 2.0297679569331763e-16 3.682733605157494e-20
2.5161083711144245 3.172235771758592e-24 2.118674472231015e-16 2.1181889987689136e-16 4.854734621013998e-20
2.5927381535095444 3.226972473869176e-24 2.2208710991277097e-16 2.2202371705967098e-16 6.339285309997058e-20
2.6717017477616296 3.3028700035275516e-24 2.3423343558334275e-16 2.3415141795052385e-16 8.201763281891939e-20
2.753070231689431 3.4095775083341776e-24 2.491651456071423e-16 2.4905998007237903e-16 1.0516553476324515e-19
2.836916847834745 3.569026943928346e-24 2.6876076349066953e-16 2.686270854474975e-16 1.3367804317208444e-19
2.9233170693905177 3.82952431231711e-24 2.971598883820273e-16 2.969914224961667e-16 1.6846588586048804e-19
2.967498994190263 4.0453616051214836e-24 3.1865252318093847e-16 3.1846432083403795e-16 1.8820234690050077e-19
3.0123486681368425 4.296148295940568e-24 3.43521509550842e-16 3.433115386368273e-16 2.099709140146891e-19
3.0578761833420214 4.84734965650054e-24 3.9345373964572876e-16 3.932197284206408e-16 2.340112250881024e-19
3.1040917844459814 5.554827146169494e-24 4.576932806388561e-16 4.574329743715737e-16 2.603062672824386e-19
3.127460860933648 6.298752873952645e-24 5.228966818455725e-16 5.22622243378548e-16 2.744384670243617e-19
3.1510058709225794 7.288200576144497e-24 6.095915827124717e-16 6.093023743466537e-16 2.8920836581801957e-19
3.162844764501044 8.207874033180662e-24 6.890932448461937e-16 6.88796377952552e-16 2.9686689364166635e-19
3.1747281389236908 9.276490094184213e-24 7.81735185093939e-16 7.814304933720321e-16 3.046917219068902e-19
3.1986289994194426 1.225433277060751e-23 1.0404542126812092e-15 1.040133322502418e-15 3.208901787914914e-19
3.2227097969389145 1.9268576062365204e-23 1.6483151641989755e-15 1.6479770684566668e-15 3.380957423093762e-19
3.2348180950136065 2.591782717750753e-23 2.225450231674668e-15 2.225102943407274e-15 3.4728826739349576e-19
3.240889293275058 3.088875053708896e-23 2.6572595122068484e-15 2.6569073748491344e-15 3.5213735771410264e-19
3.2469718861334385 3.6639654445216074e-23 3.1579069602354456e-15 3.1575498052106328e-15 3.5715502481259097e-19
3.2714166318528037 6.730271877894648e-23 5.844372637794122e-15 5.843994713413217e-15 3.779243809061962e-19
3.2744851364798273 6.921986451035629e-23 6.016490029844912e-15 6.01610964841434e-15 3.80381430572601e-19
3.2775565192852394 7.119197607474886e-23 6.19370719495526e-15 6.193324343300999e-15 3.82851654261311e-19
3.283707930232385 6.929694243129409e-23 6.040154223628424e-15 6.039766935432047e-15 3.872881963775512e-19
3.2898708863219004 6.328458932158536e-23 5.5264501029606885e-15 5.526058759726726e-15 3.913432339614738e-19
3.29141343181113 6.186664106519824e-23 5.4051581756692136e-15 5.4047658137224126e-15 3.9236194680163696e-19
3.292184975758714 6.116989873389396e-23 5.34553802506374e-15 5.3451451530161e-15 3.9287204763835966e-19
3.295272960557952 5.677316451143858e-23 4.9659681532061374e-15 4.965573293660973e-15 3.9485954516462605e-19
3.3076538914384823 4.1538303784260464e-23 3.6470208859289276e-15 3.646618034474291e-15 4.0285145463607267e-19
3.310756385682612 3.8436732811388494e-23 3.3778714919630223e-15 3.3774666241765967e-15 4.048677864264718e-19
3.313861789986515 3.557470308743135e-23 3.1292849298021018e-15 3.128878038317216e-15 4.0689148488556997e-19
3.3200813396944477 3.156163527364306e-23 2.781490965231228e-15 2.781079728992102e-15 4.112362391265754e-19
3.345076488085796 2.440804291906576e-23 2.1672471678348525e-15 2.166816589457105e-15 4.305783777465712e-19
3.3482140837626964 2.467730396751791e-23 2.193210733006783e-15 2.1927775351437712e-15 4.3319786301193795e-19
3.3513546224236106 2.4949526780730933e-23 2.21948457334239e-15 2.2190487431817674e-15 4.358301606224446e-19
3.3576445397418455 2.693509533368774e-23 2.400615839578836e-15 2.400174508935986e-15 4.413306428499301e-19
3.3702598118196083 3.4254148141401825e-23 3.0644037589716535e-15 3.063950888577701e-15 4.528703939518326e-19
3.382922481734668 3.592455393037097e-23 3.225914581192148e-15 3.2254504594533998e-15 4.641217387476765e-19
3.389271646505754 3.67898221273269e-23 3.3098133216400247e-15 3.3093434900092766e-15 4.6983163074793e-19
3.395632727569191 3.772272189789018e-23 3.4001115512162062e-15 3.3996358348712813e-15 4.757163449254345e-19
3.421196662673239 4.2203235166938593e-23 3.832597541206249e-15 3.832097425098309e-15 5.001161079406427e-19
3.4276182099114902 4.130467009457048e-23 3.758036831960512e-15 3.757531232511865e-15 5.055994486479277e-19
3.4340518103208963 3.736020391410196e-23 3.4055363027801257e-15 3.4050254985409178e-15 5.108042392084733e-19
3.4469541582030403 3.174166712977045e-23 2.9042545181955952e-15 2.903733686196613e-15 5.20831998982644e-19
3.472904465399547 3.017020419843321e-23 2.7812531441908344e-15 2.780709265120106e-15 5.438790707288179e-19
3.4990501388274233 2.776564013940949e-23 2.5788571695144963e-15 2.5782896175080133e-15 5.675520064831226e-19
3.5253949054701885 1.9200380635482636e-23 1.7967474784130366e-15 1.7961567883774715e-15 5.906900355658199e-19
3.5519380250092896 1.1146526861341239e-23 1.0509314273591903e-15 1.0503173670805372e-15 6.140602786530033e-19
3.578680990867387 7.95595263066716e-24 7.557612282904113e-16 7.551215327387673e-16 6.396955516438106e-19
3.605625307711299 6.668671994511972e-24 6.382478832481296e-16 6.375811166614014e-16 6.66766586728122e-19
3.660119384959845 5.736275261925122e-24 5.573072177471138e-16 5.565832578782934e-16 7.239598688205516e-19
3.715437065384467 5.078293830717698e-24 5.008378793355707e-16 5.000531571732781e-16 7.847221622926289e-19
3.8285932144167436 4.759451391173793e-24 4.836882684897993e-16 4.827712949930375e-16 9.169734967616813e-19
3.94519561050918 4.71443889428578e-24 4.937055226812114e-16 4.926417935066283e-16 1.0637291745832118e-18
4.06534921144712 4.7819210168153395e-24 5.160237480301774e-16 5.14798257825891e-16 1.2254902042862556e-18
4.189162171576248 4.9145782230757805e-24 5.464908037842479e-16 5.450875550199957e-16 1.4032487642521316e-18
4.316745939156006 5.094706319306544e-24 5.837744410044852e-16 5.8217727550546e-16 1.5971654990253419e-18
4.448215356677963 5.316303298606426e-24 6.277185861768604e-16 6.259130576690166e-16 1.8055285078438436e-18
4.58368876423945 5.5800076065284555e-24 6.789211607472783e-16 6.768917548176945e-16 2.029405929583855e-18
4.723288106065518 5.8913753832512094e-24 7.386361617778701e-16 7.363651541856446e-16 2.2710075922254367e-18
4.867139040275056 6.261525152001657e-24 8.089530475774691e-16 8.064274239568368e-16 2.52562362063232e-18
4.940699165968905 6.482803479654611e-24 8.501992168018118e-16 8.475404251789503e-16 2.6587916228613963e-18
5.015371051989984 6.711394802824077e-24 8.934809334363695e-16 8.90685280273141e-16 2.7956531632287873e-18
5.091171501069577 6.988398558644818e-24 9.444192386047177e-16 9.414803072593933e-16 2.938931345324259e-18
5.129500256944802 7.130324059273936e-24 9.708536262467995e-16 9.678416851052075e-16 3.011941141592157e-18
5.168117569889187 7.278046687935248e-24 9.984277775992901e-16 9.953413321220006e-16 3.0864454772895348e-18
5.20702561229733 7.458554382612713e-24 1.0308935148888125e-15 1.0277264415741864e-15 3.1670733146259423e-18
5.246226572918644 7.643442041049679e-24 1.064401438149401e-15 1.0611525601105723e-15 3.24887803882847e-18
5.265937586045735 7.737571783449385e-24 1.0815580435984154e-15 1.0782678242356536e-15 3.2902193627620445e-18
5.285722656980489 7.832849399265236e-24 1.0989895970400491e-15 1.0956577450420537e-15 3.3318519979950776e-18
5.305582063971359 7.929293334324963e-24 1.1167011252156974e-15 1.113327350308817e-15 3.3737749068801998e-18
5.3255160863122235 8.032777629255242e-24 1.1355254661955626e-15 1.1321092099582583e-15 3.416256237304202e-18
5.365609099470188 8.28979921006359e-24 1.1806807279608955e-15 1.1771765432304077e-15 3.504184730487694e-18
5.406003951863644 8.556267400788533e-24 1.2278071004381415e-15 1.2242137024929099e-15 3.593397945231665e-18
5.446702915881641 8.832638587800318e-24 1.2770078921717195e-15 1.2733240026574998e-15 3.683889514219606e-18
5.487708281020852 9.130861501655412e-24 1.33006297834256e-15 1.3262870074896766e-15 3.775970852883825e-18
5.529022354014368 9.54450673497078e-24 1.4007843067040382e-15 1.396912178985683e-15 3.872127718354598e-18
5.570647458961463 9.981973625241434e-24 1.4760175654543988e-15 1.4720478617929159e-15 3.969703661482848e-18
5.612585937458331 1.0444976889056649e-23 1.5561086620799765e-15 1.5520399678604014e-15 4.068694219574881e-18
5.654840148729818 1.095334651906415e-23 1.6441316625092703e-15 1.639962164811069e-15 4.169497698201386e-18
5.67608639626678 1.1299387523150315e-23 1.7024459544269833e-15 1.6982237675548056e-15 4.222186872177542e-18
5.686739436050992 1.1477669763705015e-23 1.7325528354610308e-15 1.7283041542521259e-15 4.2486812089049366e-18
5.6974124697621304 1.1659571672917135e-23 1.763314144565232e-15 1.7590388692179185e-15 4.2752753473139414e-18
5.718818669136295 1.2034582934539215e-23 1.8268664639405483e-15 1.822537701015367e-15 4.328762925180894e-18
5.740305295436557 1.2447801151283269e-23 1.896693106765446e-15 1.8923101141223376e-15 4.3829926431083595e-18
5.7835210386641895 1.3519450951838432e-23 2.0754907746249266e-15 2.0709954280691694e-15 4.495346555756666e-18
5.827062130521658 1.475265503211656e-23 2.2818614374927272e-15 2.2772511454952578e-15 4.6102919974693536e-18
5.8489554468988025 1.561800734826721e-23 2.4247857389002708e-15 2.4201136538310382e-15 4.672085069232081e-18
5.870931020387893 1.654599534997181e-23 2.5785129014631524e-15 2.5737784803697676e-15 4.7344210933849686e-18
5.892989160043636 1.7541651417943005e-23 2.743945946513065e-15 2.7391486451440446e-15 4.797301369020369e-18
5.915130176081913 1.867369046051396e-23 2.9319995231285766e-15 2.9271371041862026e-15 4.862418942373496e-18
5.95966208400165 2.1839262637005542e-23 3.4548487559794804e-15 3.4498396946206515e-15 5.009061358829337e-18
6.004529249263818 2.6400247766688578e-23 4.207812704166148e-15 4.20263948788428e-15 5.173216281868483e-18
6.027089341400364 2.957061514916106e-23 4.730830862705357e-15 4.725563674596598e-15 5.267188108757312e-18
6.049734195844842 3.3315580519074087e-23 5.349991745251935e-15 5.344625165404921e-15 5.3665798470142665e-18
6.095279466722835 4.4132900737874505e-23 7.140449124006607e-15 7.134841317419244e-15 5.607806587364082e-18
6.141167624020661 6.077520792825348e-23 9.907106647259176e-15 9.901189551253069e-15 5.917096006105157e-18
6.164241091010745 7.140390070840487e-23 1.1683446833907769e-14 1.167733747582921e-14 6.109358078556999e-18
6.187401249150058 8.350571669626031e-23 1.3714940299064712e-14 1.3708632976996907e-14 6.307322067800186e-18
6.1990139391386085 8.941466853771785e-23 1.4712985836883495e-14 1.4706577668905355e-14 6.408167978143293e-18
6.204828454712694 9.252677158378477e-23 1.5239356235240375e-14 1.5232897074075507e-14 6.45916116487198e-18
6.210648424152782 9.479863798484436e-23 1.5628182563868704e-14 1.5621679509252308e-14 6.503054616399073e-18
6.233982942956859 1.0251543359124943e-22 1.696384499896442e-14 1.6957186991788607e-14 6.6580071758115456e-18
6.239830258556775 1.0350099567950298e-22 1.7142996503180337e-14 1.7136315561615973e-14 6.680941564365306e-18
6.245683058788269 1.0358520731472307e-22 1.717303735188509e-14 1.7166333417750407e-14 6.7039341346831265e-18
6.257405133728602 1.0337034292257774e-22 1.7169579706376938e-14 1.71628346812895e-14 6.7450250874357666e-18
6.269149208991335 1.0184918783514828e-22 1.6948669447008098e-14 1.6941905256442795e-14 6.764190565305145e-18
6.280915325867298 9.803873718977099e-23 1.634519402714312e-14 1.633843785139333e-14 6.756175749791262e-18
6.304513850009849 8.864354860096543e-23 1.4834337983941357e-14 1.4827622503273997e-14 6.7154806673555496e-18
6.32820103803542 7.700171862412114e-23 1.2934514115682452e-14 1.2927865574776027e-14 6.648540906429378e-18
6.3519772230701035 6.632621092361184e-23 1.1183134619775646e-14 1.117654470335958e-14 6.589916416066657e-18
6.375842739491607 5.734328526956132e-23 9.704867274547835e-15 9.698327518408486e-15 6.539756139344376e-18
6.399797922933955 5.014662012383092e-23 8.518779186141016e-15 8.512258145011093e-15 6.5210411299241664e-18
6.42384311029221 4.416172618720624e-23 7.53026741860749e-15 7.52375883653794e-15 6.508582069551157e-18
6.447978639727206 3.9801563440393686e-23 6.812290429542212e-15 6.8057696040476905e-15 6.52082549452297e-18
6.472204850670314 3.616857151529967e-23 6.213739527676565e-15 6.207201460576494e-15 6.538067100070955e-18
6.496522083828205 3.3808050478349154e-23 5.830025848611777e-15 5.8234503573255836e-15 6.575491286193984e-18
