# acs_f435w
# energy
# HST ACS WFC F435W filter at -81 C3581.780029296875 0.0020375032909214497
3582.22998046875 0.002091873437166214
3582.679931640625 0.0021459246054291725
3583.1298828125 0.0022003441117703915
3583.580078125 0.0022551296278834343
3584.030029296875 0.002309807576239109
3584.47998046875 0.0023648885544389486
3584.929931640625 0.002419860102236271
3585.3701171875 0.002474953420460224
3585.820068359375 0.002530412981286645
3586.27001953125 0.0025857980363070965
3586.719970703125 0.0026415586471557617
3587.169921875 0.002696932526305318
3587.6201171875 0.0027527380734682083
3588.070068359375 0.0028088882099837065
3588.52001953125 0.0028649535961449146
3588.969970703125 0.002921148668974638
3589.419921875 0.002977474359795451
3589.8701171875 0.003034176304936409
3590.320068359375 0.0031359721906483173
3590.77001953125 0.0032556625083088875
3591.219970703125 0.0033751234877854586
3591.669921875 0.0034959136974066496
3592.1201171875 0.00361654139123857
3592.570068359375 0.003738513682037592
3593.02001953125 0.0038596668746322393
3593.469970703125 0.003980708308517933
3593.919921875 0.00410302821546793
3594.3701171875 0.004225177690386772
3594.820068359375 0.004347618203610182
3595.27001953125 0.004470352083444595
3595.719970703125 0.004593379329890013
3596.169921875 0.004717302042990923
3596.6201171875 0.00484045222401619
3597.080078125 0.004965504165738821
3597.530029296875 0.005089230369776487
3597.97998046875 0.005214396398514509
3598.429931640625 0.005339789669960737
3598.8798828125 0.005464459769427776
3599.330078125 0.005590587854385376
3599.780029296875 0.005716393701732159
3600.22998046875 0.005871342495083809
3600.679931640625 0.0060547227039933205
3601.139892578125 0.006237798370420933
3601.590087890625 0.006421357858926058
3602.0400390625 0.006606303155422211
3602.489990234375 0.006790952291339636
3602.93994140625 0.006976888980716467
3603.389892578125 0.00716168899089098
3603.840087890625 0.007348685059696436
3604.300048828125 0.007535265292972326
3604.75 0.007722435984760523
3605.199951171875 0.007910194806754589
3605.64990234375 0.008098331280052662
3606.10009765625 0.008287884294986725
3606.56005859375 0.008477936498820782
3607.010009765625 0.008667664602398872
3607.4599609375 0.008857876062393188
3607.909912109375 0.009048675186932087
3608.360107421875 0.009239967912435532
3608.820068359375 0.009432575665414333
3609.27001953125 0.009625682607293129
3609.719970703125 0.009818551130592823
3610.169921875 0.010009360499680042
3610.6201171875 0.010196533054113388
3611.080078125 0.010384169407188892
3611.530029296875 0.010572267696261406
3611.97998046875 0.010761745274066925
3612.429931640625 0.010950886644423008
3612.889892578125 0.011140499264001846
3613.340087890625 0.011331489309668541
3613.7900390625 0.011521191336214542
3614.25 0.011713950894773006
3614.699951171875 0.011905645951628685
3615.14990234375 0.012096868827939034
3615.610107421875 0.012290216982364655
3616.06005859375 0.012483305297791958
3616.510009765625 0.012677705846726894
3616.969970703125 0.012871846556663513
3617.419921875 0.01306634396314621
3617.8701171875 0.013262265361845493
3618.330078125 0.013457824476063251
3618.780029296875 0.013653861358761787
3619.22998046875 0.013851309195160866
3619.679931640625 0.014047423377633095
3620.139892578125 0.014250109903514385
3620.590087890625 0.014462055638432503
3621.050048828125 0.014675531536340714
3621.5 0.014887559227645397
3621.949951171875 0.015101117081940174
3622.409912109375 0.0153170395642519
3622.860107421875 0.01553173828870058
3623.320068359375 0.015746794641017914
3623.77001953125 0.01596246287226677
3624.219970703125 0.016178643330931664
3624.679931640625 0.016396280378103256
3625.1298828125 0.016613595187664032
3625.590087890625 0.01683127135038376
3626.0400390625 0.01705050654709339
3626.5 0.017269326373934746
3626.949951171875 0.017489708960056305
3627.409912109375 0.01770860329270363
3627.860107421875 0.017929065972566605
3628.320068359375 0.01815096288919449
3628.77001953125 0.018372541293501854
3629.22998046875 0.018595466390252113
3629.679931640625 0.018817109987139702
3630.1298828125 0.01908554509282112
3630.590087890625 0.019468531012535095
3631.050048828125 0.019848953932523727
3631.5 0.020232118666172028
3631.949951171875 0.020612899214029312
3632.409912109375 0.0209962148219347
3632.860107421875 0.02138206921517849
3633.320068359375 0.021767446771264076
3633.780029296875 0.022153742611408234
3634.22998046875 0.022542551159858704
3634.68994140625 0.0229308120906353
3635.139892578125 0.023321418091654778
3635.60009765625 0.023711539804935455
3636.050048828125 0.024100858718156815
3636.510009765625 0.024494415149092674
3636.9599609375 0.02488742396235466
3637.419921875 0.02528306096792221
3637.8798828125 0.02567620947957039
3638.330078125 0.026073621585965157
3638.7900390625 0.026472153142094612
3639.239990234375 0.02686968632042408
3639.699951171875 0.02726837992668152
3640.159912109375 0.02773117832839489
3640.610107421875 0.028316626325249672
3641.070068359375 0.028905721381306648
3641.530029296875 0.029494116082787514
3641.97998046875 0.030086781829595566
3642.43994140625 0.03067801520228386
3642.889892578125 0.03127068281173706
3643.35009765625 0.031867705285549164
3643.81005859375 0.03246109560132027
3644.260009765625 0.03306135535240173
3644.719970703125 0.0336601585149765
3645.179931640625 0.034260768443346024
3645.639892578125 0.03486543148756027
3646.090087890625 0.035466358065605164
3646.550048828125 0.03607422858476639
3647.010009765625 0.03668322041630745
3647.4599609375 0.03729137405753136
3647.919921875 0.03790392726659775
3648.3798828125 0.03851240873336792
3648.840087890625 0.03912794589996338
3649.2900390625 0.03974197059869766
3649.75 0.040357768535614014
3650.2099609375 0.040921419858932495
3650.659912109375 0.04141560569405556
3651.1201171875 0.041911229491233826
3651.580078125 0.04241013526916504
3652.0400390625 0.04290829598903656
3652.489990234375 0.04340723529458046
3652.949951171875 0.04390754923224449
3653.409912109375 0.04440903663635254
3653.8701171875 0.04491377994418144
3654.320068359375 0.045415397733449936
3654.780029296875 0.04592275619506836
3655.239990234375 0.04643118381500244
3655.699951171875 0.046938538551330566
3656.159912109375 0.04744729772210121
3656.6201171875 0.047956958413124084
3657.080078125 0.04847021400928497
3657.530029296875 0.048982471227645874
3657.989990234375 0.04949614405632019
3658.449951171875 0.05001281574368477
3658.909912109375 0.05052869766950607
3659.3701171875 0.0510479211807251
3659.830078125 0.051566075533628464
3660.280029296875 0.05191968381404877
3660.739990234375 0.05217336490750313
3661.199951171875 0.0524275004863739
3661.659912109375 0.052683234214782715
3662.1201171875 0.052938301116228104
3662.580078125 0.0531928613781929
3663.0400390625 0.053450100123882294
3663.5 0.05370786413550377
3663.9599609375 0.05396512895822525
3664.419921875 0.05422385782003403
3664.8701171875 0.05448104813694954
3665.330078125 0.054740794003009796
3665.7900390625 0.054999906569719315
3666.25 0.055260833352804184
3666.7099609375 0.055521201342344284
3667.169921875 0.0557820163667202
3667.6298828125 0.05604439228773117
3668.090087890625 0.056306250393390656
3668.550048828125 0.05656852573156357
3669.010009765625 0.05683125555515289
3669.469970703125 0.05709449574351311
3669.929931640625 0.05735934525728226
3670.389892578125 0.05777989327907562
3670.85009765625 0.05822693929076195
3671.31005859375 0.05867879465222359
3671.77001953125 0.05913181230425835
3672.22998046875 0.059585556387901306
3672.68994140625 0.06003653630614281
3673.14990234375 0.06049042567610741
3673.610107421875 0.06094742566347122
3674.070068359375 0.06140318140387535
3674.530029296875 0.06186194345355034
3674.989990234375 0.06231969594955444
3675.449951171875 0.06277848035097122
3675.919921875 0.06324039399623871
3676.3798828125 0.06370113044977188
3676.840087890625 0.06416472792625427
3677.300048828125 0.06462546437978745
3677.760009765625 0.0650891363620758
3678.219970703125 0.06555593758821487
3678.679931640625 0.0660216435790062
3679.139892578125 0.06648831069469452
3679.60009765625 0.06695614010095596
3680.06005859375 0.06746337562799454
3680.530029296875 0.06820566207170486
3680.989990234375 0.06894607096910477
3681.449951171875 0.06968493014574051
3681.909912109375 0.07043176144361496
3682.3701171875 0.07117746025323868
3682.830078125 0.07192835956811905
3683.2900390625 0.072677381336689
3683.75 0.07342803478240967
3684.219970703125 0.07418394088745117
3684.679931640625 0.07493831217288971
3685.139892578125 0.07569433748722076
3685.60009765625 0.07645238935947418
3686.06005859375 0.07721204310655594
3686.530029296875 0.0779765248298645
3686.989990234375 0.07873944193124771
3687.449951171875 0.0795040875673294
3687.909912109375 0.08027081191539764
3688.3701171875 0.08103923499584198
3688.840087890625 0.08181582391262054
3689.300048828125 0.08258426934480667
3689.760009765625 0.08336128294467926
3690.219970703125 0.08415347337722778
3690.679931640625 0.08496524393558502
3691.14990234375 0.08578266948461533
3691.610107421875 0.08659807592630386
3692.070068359375 0.08741553127765656
3692.5400390625 0.08823791146278381
3693.0 0.08905896544456482
3693.4599609375 0.08988483995199203
3693.919921875 0.09070584177970886
3694.389892578125 0.09153538197278976
3694.85009765625 0.0923631489276886
3695.31005859375 0.09319289028644562
3695.780029296875 0.09402389824390411
3696.239990234375 0.09485704451799393
3696.699951171875 0.09569548070430756
3697.169921875 0.09653598070144653
3697.6298828125 0.09737450629472733
3698.090087890625 0.09821467846632004
3698.56005859375 0.09905662387609482
3699.02001953125 0.09990019351243973
3699.489990234375 0.100749671459198
3699.949951171875 0.10159724950790405
3700.409912109375 0.10215458273887634
3700.8798828125 0.10267333686351776
3701.340087890625 0.10319356620311737
3701.800048828125 0.10371488332748413
3702.27001953125 0.10423693805932999
3702.72998046875 0.10476276278495789
3703.199951171875 0.105287104845047
3703.659912109375 0.10581259429454803
3704.1201171875 0.10633905977010727
3704.590087890625 0.10686642676591873
3705.050048828125 0.10739731788635254
3705.52001953125 0.10792948305606842
3705.97998046875 0.10845823585987091
3706.449951171875 0.10899224877357483
3706.909912109375 0.10952501744031906
3707.3798828125 0.11006132513284683
3707.840087890625 0.11059638112783432
3708.300048828125 0.11113244295120239
3708.77001953125 0.1116720661520958
3709.22998046875 0.11221007257699966
3709.699951171875 0.11274928599596024
3710.159912109375 0.11331559717655182
3710.6298828125 0.11392037570476532
3711.090087890625 0.11453205347061157
3711.56005859375 0.11514221876859665
3712.02001953125 0.11575359851121902
3712.489990234375 0.11636617034673691
3712.949951171875 0.11698027700185776
3713.419921875 0.11759832501411438
3713.889892578125 0.11821754276752472
3714.35009765625 0.11883537471294403
3714.820068359375 0.11945465207099915
3715.280029296875 0.12007489800453186
3715.75 0.12069935351610184
3716.2099609375 0.12131964415311813
3716.679931640625 0.12194398045539856
3717.139892578125 0.1225748211145401
3717.610107421875 0.1232016384601593
3718.080078125 0.12383236736059189
3718.5400390625 0.12445885688066483
3719.010009765625 0.1250896453857422
3719.469970703125 0.12572458386421204
3719.93994140625 0.12635815143585205
3720.409912109375 0.12697193026542664
3720.8701171875 0.12758047878742218
3721.340087890625 0.12818779051303864
3721.800048828125 0.12880218029022217
3722.27001953125 0.1294173151254654
3722.739990234375 0.1300339549779892
3723.199951171875 0.1306466907262802
3723.669921875 0.13126318156719208
3724.139892578125 0.13188330829143524
3724.610107421875 0.1325022131204605
3725.070068359375 0.1331220120191574
3725.5400390625 0.13374634087085724
3726.010009765625 0.1343688815832138
3726.469970703125 0.1349949836730957
3726.93994140625 0.13561996817588806
3727.409912109375 0.13624368607997894
3727.8701171875 0.13687387108802795
3728.340087890625 0.13750231266021729
3728.81005859375 0.1381322741508484
3729.27001953125 0.13876348733901978
3729.739990234375 0.1393984854221344
3730.2099609375 0.14034436643123627
3730.679931640625 0.14168040454387665
3731.14990234375 0.143014594912529
3731.610107421875 0.14435161650180817
3732.080078125 0.1456923484802246
3732.550048828125 0.14704099297523499
3733.010009765625 0.1483820527791977
3733.489990234375 0.14974379539489746
3733.949951171875 0.15109647810459137
3734.419921875 0.15245231986045837
3734.889892578125 0.1538175344467163
3735.360107421875 0.15517409145832062
3735.820068359375 0.156545028090477
3736.2900390625 0.15791413187980652
3736.760009765625 0.15928645431995392
3737.22998046875 0.16066744923591614
3737.699951171875 0.1620457023382187
3738.169921875 0.1634269803762436
3738.6298828125 0.16481201350688934
3739.10009765625 0.16620582342147827
3739.570068359375 0.1676035076379776
3740.0400390625 0.1689658910036087
3740.510009765625 0.17006149888038635
3740.97998046875 0.17115475237369537
3741.449951171875 0.17225030064582825
3741.909912109375 0.17334794998168945
3742.389892578125 0.17445294559001923
3742.85009765625 0.17555557191371918
3743.320068359375 0.176665261387825
3743.7900390625 0.17777276039123535
3744.260009765625 0.17888280749320984
3744.72998046875 0.17999492585659027
3745.199951171875 0.18110935389995575
3745.669921875 0.18222619593143463
3746.139892578125 0.18334518373012543
3746.610107421875 0.18447139859199524
3747.080078125 0.18559530377388
3747.550048828125 0.18672701716423035
3748.02001953125 0.18785569071769714
3748.489990234375 0.1889871209859848
3748.9599609375 0.19012558460235596
3749.429931640625 0.1912619024515152
3749.889892578125 0.19239504635334015
3750.3701171875 0.1933974027633667
3750.840087890625 0.19435107707977295
3751.31005859375 0.19531042873859406
3751.780029296875 0.19626379013061523
3752.239990234375 0.19722330570220947
3752.719970703125 0.1981886625289917
3753.18994140625 0.19915209710597992
3753.659912109375 0.20012204349040985
3754.1298828125 0.20108993351459503
3754.60009765625 0.2020590603351593
3755.070068359375 0.20303130149841309
3755.5400390625 0.20400483906269073
3756.010009765625 0.2049802541732788
3756.47998046875 0.20596638321876526
3756.949951171875 0.20694175362586975
3757.419921875 0.20792746543884277
3757.889892578125 0.20891158282756805
3758.360107421875 0.20989729464054108
3758.830078125 0.21088428795337677
3759.31005859375 0.2118787318468094
3759.780029296875 0.21287524700164795
3760.25 0.21364560723304749
3760.719970703125 0.214220330119133
3761.18994140625 0.21479593217372894
3761.659912109375 0.21537254750728607
3762.139892578125 0.21595264971256256
3762.60009765625 0.21652905642986298
3763.070068359375 0.21710877120494843
3763.550048828125 0.2176920473575592
3764.02001953125 0.21827378869056702
3764.489990234375 0.21885904669761658
3764.9599609375 0.21944275498390198
3765.429931640625 0.22002723813056946
3765.909912109375 0.22061555087566376
3766.3798828125 0.2212022840976715
3766.85009765625 0.22179262340068817
3767.320068359375 0.22238117456436157
3767.800048828125 0.22297102212905884
3768.27001953125 0.22356417775154114
3768.739990234375 0.22415325045585632
3769.219970703125 0.22475120425224304
3769.68994140625 0.2253446727991104
3770.159912109375 0.226022407412529
3770.6298828125 0.22687779366970062
3771.10009765625 0.22773130238056183
3771.580078125 0.2285863310098648
3772.050048828125 0.22944310307502747
3772.52001953125 0.23030182719230652
3773.0 0.23116932809352875
3773.469970703125 0.2320307344198227
3773.93994140625 0.23289039731025696
3774.409912109375 0.23375862836837769
3774.889892578125 0.23462480306625366
3775.360107421875 0.23549310863018036
3775.830078125 0.23636235296726227
3776.31005859375 0.2372378408908844
3776.780029296875 0.2381148487329483
3777.25 0.23898926377296448
3777.72998046875 0.23986569046974182
3778.199951171875 0.24074366688728333
3778.669921875 0.2416229397058487
3779.14990234375 0.24250802397727966
3779.6201171875 0.24338693916797638
3780.090087890625 0.24427741765975952
3780.570068359375 0.245150625705719
3781.0400390625 0.24603036046028137
3781.510009765625 0.24691499769687653
3781.989990234375 0.24779817461967468
3782.4599609375 0.24868614971637726
3782.93994140625 0.24957239627838135
3783.409912109375 0.2504611015319824
3783.889892578125 0.25135537981987
3784.360107421875 0.2522476017475128
3784.830078125 0.2531417906284332
3785.31005859375 0.2540416121482849
3785.780029296875 0.2549353837966919
3786.260009765625 0.25584301352500916
3786.72998046875 0.2567405700683594
3787.2099609375 0.25764787197113037
3787.679931640625 0.25855323672294617
3788.159912109375 0.2594606876373291
3788.6298828125 0.26037001609802246
3789.10009765625 0.2612811326980591
3789.580078125 0.2621982991695404
3790.050048828125 0.2631097137928009
3790.530029296875 0.2640020251274109
3791.010009765625 0.26489296555519104
3791.47998046875 0.2657857835292816
3791.949951171875 0.26668044924736023
3792.429931640625 0.26757723093032837
3792.89990234375 0.26847583055496216
3793.3798828125 0.2693837583065033
3793.860107421875 0.2702856659889221
3794.330078125 0.2711895704269409
3794.81005859375 0.2720952033996582
3795.280029296875 0.2730032801628113
3795.760009765625 0.27391722798347473
3796.239990234375 0.27482861280441284
3796.7099609375 0.27573806047439575
3797.18994140625 0.2766607403755188
3797.659912109375 0.2775740325450897
3798.139892578125 0.27849680185317993
3798.610107421875 0.27941858768463135
3799.090087890625 0.28034165501594543
3799.570068359375 0.28127044439315796
3800.0400390625 0.28212714195251465
3800.52001953125 0.2822784185409546
3801.0 0.28242892026901245
3801.469970703125 0.282579243183136
3801.949951171875 0.2827301621437073
3802.429931640625 0.2828805446624756
3802.89990234375 0.2830307185649872
3803.3798828125 0.28318172693252563
3803.85009765625 0.28333139419555664
3804.330078125 0.28348201513290405
3804.81005859375 0.2836323082447052
3805.280029296875 0.28378286957740784
3805.760009765625 0.28393352031707764
3806.239990234375 0.28408390283584595
3806.719970703125 0.2842347323894501
3807.18994140625 0.28438496589660645
3807.669921875 0.28453564643859863
3808.14990234375 0.2846861481666565
3808.6201171875 0.2848363220691681
3809.10009765625 0.28498730063438416
3809.580078125 0.28513649106025696
3810.050048828125 0.2854275107383728
3810.5400390625 0.2868272364139557
3811.010009765625 0.2882171869277954
3811.489990234375 0.2896153926849365
3811.969970703125 0.29100432991981506
3812.43994140625 0.2924012541770935
3812.919921875 0.29380691051483154
3813.39990234375 0.2952096164226532
3813.8798828125 0.29662156105041504
3814.360107421875 0.2980296015739441
3814.830078125 0.29943349957466125
3815.31005859375 0.3008521497249603
3815.7900390625 0.30226749181747437
3816.27001953125 0.3036983609199524
3816.75 0.3051128685474396
3817.219970703125 0.30653613805770874
3817.699951171875 0.3079683482646942
3818.179931640625 0.30939629673957825
3818.659912109375 0.31082791090011597
3819.139892578125 0.3122616708278656
3819.6201171875 0.3137036859989166
3820.10009765625 0.3149760067462921
3820.580078125 0.3155832886695862
3821.050048828125 0.3161885440349579
3821.530029296875 0.3167998790740967
3822.010009765625 0.31740957498550415
3822.489990234375 0.31801971793174744
3822.969970703125 0.3186303675174713
3823.449951171875 0.31924518942832947
3823.929931640625 0.3198581039905548
3824.409912109375 0.3204721510410309
3824.889892578125 0.32109007239341736
3825.3701171875 0.32170549035072327
3825.840087890625 0.32232165336608887
3826.330078125 0.3229420781135559
3826.800048828125 0.32355815172195435
3827.280029296875 0.32417988777160645
3827.760009765625 0.32480013370513916
3828.239990234375 0.3254239559173584
3828.72998046875 0.3260485827922821
3829.199951171875 0.32666900753974915
3829.679931640625 0.32729557156562805
3830.159912109375 0.3281812071800232
3830.639892578125 0.3295702338218689
3831.1201171875 0.33096837997436523
3831.60009765625 0.3323568105697632
