Dust emission spectrum from A.P. Jones, M. Kohler, N. Ysard, M. Bocchio, and L. Verstraete (2017), A&A, 602A, 46J 
inside the DustPedia framework.

lambda    nu*dP/dnu     j_nu    j_nu(carb.) j_nu(sil)
 (um)   (erg s-1 H-1) (Jy cm2 sr-1 H-1)
0.9927057738263894 3.211421207065421e-25 8.462277285700462e-18 8.462277284545933e-18 1.1545291438712702e-27
1.0001793341362166 3.2644168073730523e-25 8.666683067628365e-18 8.66668306623785e-18 1.3905115944304863e-27
1.0077091589558085 3.317337084913846e-25 8.873485473184975e-18 8.873485471512418e-18 1.6725586069006894e-27
1.0114953028030835 3.3437624885531183e-25 8.977775161710851e-18 8.977775159877384e-18 1.833466712283088e-27
1.0152956718711033 3.370161295536011e-25 9.082651580179903e-18 9.082651578170703e-18 2.0092008465357605e-27
1.0229392996569957 3.422842922087964e-25 9.294077000023181e-18 9.294076997612692e-18 2.4104879624532376e-27
1.0267826658714554 3.4490618084467246e-25 9.400456379233534e-18 9.400456376594476e-18 2.6390565006446102e-27
1.0306404723013447 3.4752425543949777e-25 9.507399589671811e-18 9.507399586783456e-18 2.8883562261522595e-27
1.03451277320114 3.501382645961884e-25 9.614902071000839e-18 9.614902067840667e-18 3.1601748577340456e-27
1.0383996230291617 3.5274795833553795e-25 9.722959206389937e-18 9.722959202933494e-18 3.45644567172231e-27
1.0403485208654093 3.540511092048048e-25 9.77719431142495e-18 9.777194307810549e-18 3.614397311731468e-27
1.0423010764483396 3.55353088144471e-25 9.83156632363244e-18 9.83156631985318e-18 3.7792585982311796e-27
1.0462171883269815 3.579534070232428e-25 9.940718696265021e-18 9.940718692134151e-18 4.130872100753113e-27
1.0471985131304309 3.5860270623765126e-25 9.96809142662008e-18 9.96809142239652e-18 4.223557297051653e-27
1.048180758391296 3.5925168560157568e-25 9.995497861772758e-18 9.995497857454525e-18 4.318234031952173e-27
1.0501480137395462 3.605486695315775e-25 1.00504115446883e-17 1.0050411540174573e-17 4.5137258895934945e-27
1.0521189612883777 3.6184432838427714e-25 1.0105459139443228e-17 1.0105459134725546e-17 4.717683188462251e-27
1.0531058218030118 3.6249065616863597e-25 1.0133005142394045e-17 1.0133005137571096e-17 4.8229516530345304e-27
1.0540936079674168 3.631333805551003e-25 1.0160493106206423e-17 1.0160493101275932e-17 4.930491516197032e-27
1.058054026499678 3.657006417996643e-25 1.0270769904182814e-17 1.0270769898798742e-17 5.384073890037927e-27
1.0590464539527713 3.663415293677755e-25 1.0298419950534398e-17 1.0298419945030832e-17 5.503565103414815e-27
1.06003981227728 3.6698203839575896e-25 1.0326102179448053e-17 1.0326102173822459e-17 5.6255937562283e-27
1.0620293250338977 3.682619060013429e-25 1.0381562871127727e-17 1.0381562865250257e-17 5.877469399298834e-27
1.0660195594769086 3.7081693599691107e-25 1.049286698289857e-17 1.0492866976484577e-17 6.4139919487681305e-27
1.070024785945596 3.7336549644324156e-25 1.0604677169194447e-17 1.0604677162197234e-17 6.997215140041133e-27
1.0740450607676866 3.759073538563753e-25 1.0716988314683657e-17 1.0716988307052666e-17 7.63099126047367e-27
1.07808044048254 3.784422766495281e-25 1.0829795260129498e-17 1.082979525181003e-17 8.319471552274814e-27
1.0861967418109137 3.834859198735905e-25 1.1056746479184622e-17 1.105674646930584e-17 9.878776877371678e-27
1.0902777775684922 3.8598399529157594e-25 1.1170584301977366e-17 1.117058429121776e-17 1.0759604406755027e-26
1.0943741465085532 3.8847405150459366e-25 1.1284888509488121e-17 1.1284888497772934e-17 1.1715186014950135e-26
1.1026131145906286 3.9342922735737787e-25 1.1514874440586358e-17 1.1514874426711293e-17 1.3875066209861228e-26
1.1109141095355224 3.983497110889482e-25 1.1746660641977197e-17 1.1746660625565157e-17 1.641204045638217e-26
1.1192775983109025 4.032292314932392e-25 1.1980067163889176e-17 1.1980067144501145e-17 1.9388029821048906e-26
1.1277040513999907 4.0804513146709472e-25 1.2214417886395525e-17 1.2214417863521083e-17 2.2874440540596035e-26
1.1361939428280308 4.1282069383007474e-25 1.2450401654535108e-17 1.2450401627581611e-17 2.695349730285689e-26
1.1447477501889525 4.175543400182653e-25 1.2687972648796345e-17 1.268797261707658e-17 3.171976351488264e-26
1.1533659546722406 4.222471062169555e-25 1.2927163526991557e-17 1.2927163489709658e-17 3.7281899141436583e-26
1.1707974979042381 4.315251921697435e-25 1.3410882990339721e-17 1.3410882939028846e-17 5.1310876582939725e-26
1.1884924949847024 4.40619958887211e-25 1.3900487844099623e-17 1.3900487773830682e-17 7.026893853542402e-26
1.2064549276569216 4.496026027155342e-25 1.4398238106968178e-17 1.4398238011206873e-17 9.576130711653667e-26
1.2246888378427687 4.58375214536761e-25 1.490103102212722e-17 1.4901030892258598e-17 1.2986861953316328e-25
1.2431983285522175 4.669173939685745e-25 1.5408128919060113e-17 1.5408128743781676e-17 1.7527843641562697e-25
1.2619875648066055 4.752261174410957e-25 1.591933086485871e-17 1.5919330629414172e-17 2.3544453417079782e-25
1.3004222497298317 4.910058292339607e-25 1.6948859230773925e-17 1.6948858811879336e-17 4.188945883406072e-25
1.3400274889804893 5.056539491305715e-25 1.7986080958554652e-17 1.798608022681944e-17 7.317352051167377e-25
1.3808389325824078 5.191176648533837e-25 1.902734812163075e-17 1.902734686607211e-17 1.2555586345279095e-24
1.4228933163050095 5.314637268279106e-25 2.0073144043364157e-17 2.0073141926139504e-17 2.117224647419743e-24
1.466228494730424 5.4298938837389295e-25 2.113306216997154e-17 2.1133058659545654e-17 3.510425887169665e-24
1.5108834753276823 5.534737393587209e-25 2.2197160593230844e-17 2.219715486782392e-17 5.725406923523366e-24
1.5568984535646726 5.6273844657873335e-25 2.3256069021605885e-17 2.3256059826454738e-17 9.195151148640973e-24
1.6043148490894465 5.708021619502937e-25 2.430774353925576e-17 2.4307728970750374e-17 1.4568505388127738e-23
1.6531753430134553 5.776910949942183e-25 2.5350353820672788e-17 2.535033107624271e-17 2.27444300831793e-23
1.7035239163302658 5.834874246057744e-25 2.638451823959092e-17 2.6384483241578968e-17 3.4998011951778843e-23
1.755405889504358 5.886564024403392e-25 2.7428929364429222e-17 2.7428876259149916e-17 5.310527930722861e-23
1.8088679632656115 5.930859403278705e-25 2.8476979913409885e-17 2.847690042340746e-17 7.949000242918643e-23
1.8639582606462262 5.967006640673894e-25 2.952311221524158e-17 2.952299479557198e-17 1.1741966960128803e-22
1.9207263702978936 5.995588609036803e-25 3.056798121981561e-17 3.056780998688943e-17 1.7123292618376362e-22
1.979223391128241 6.017933823518273e-25 3.161634454185713e-17 3.161609792650498e-17 2.4661535215863796e-22
2.039501978296691 6.035625721771415e-25 3.2675020193352025e-17 3.2674669283728343e-17 3.509096236772524e-22
2.1016163906111602 6.053068011509942e-25 3.3767463068151274e-17 3.376696956131707e-17 4.935068341978153e-22
2.1656225393682647 6.072820837828683e-25 3.4909422507306746e-17 3.490873628553581e-17 6.862217709405402e-22
2.231578038680979 6.095078297821246e-25 3.6104455594437275e-17 3.610351186892551e-17 9.437255117602145e-22
2.299542257339062 6.121376229649459e-25 3.736456242079977e-17 3.7363278402979693e-17 1.2840178200650354e-21
2.369576372248914 6.155088395705727e-25 3.871456984054932e-17 3.871284088982013e-17 1.7289507291986655e-21
2.4417434235010123 6.200194994046591e-25 4.018600258636593e-17 4.018369789449038e-17 2.3046918755542948e-21
2.5161083711144245 6.26350414676827e-25 4.183272397535059e-17 4.182968166251592e-17 3.042312834656964e-21
2.5927381535095444 6.356145723129007e-25 4.3744346915410636e-17 4.3740368647166315e-17 3.978268244319074e-21
2.6717017477616296 6.49138374222571e-25 4.603569362425563e-17 4.603053900034086e-17 5.154623914763729e-21
2.753070231689431 6.689174852548311e-25 4.8883159923856406e-17 4.887654048880717e-17 6.619435049265412e-21
2.836916847834745 6.994742194057564e-25 5.2672963304281926e-17 5.266453600894947e-17 8.42729533244113e-21
2.9233170693905177 7.507663158366515e-25 5.825727072614319e-17 5.824663305344664e-17 1.0637672696550038e-20
2.967498994190263 7.940173171163669e-25 6.254462425019519e-17 6.25327299050779e-17 1.1894345117279717e-20
3.0123486681368425 8.44459654592749e-25 6.752328721394228e-17 6.751000545117017e-17 1.3281762772121575e-20
3.0578761833420214 9.567302209843087e-25 7.765668044465294e-17 7.764186504851223e-17 1.4815396140733157e-20
3.1040917844459814 1.1012490569200698e-24 9.073806986231172e-17 9.072157500465924e-17 1.649485765248398e-20
3.127460860933648 1.2538511078482325e-24 1.0408958677097721e-16 1.0407218850030762e-16 1.7398270669598373e-20
3.1510058709225794 1.4570738311379781e-24 1.218709520371349e-16 1.2185260900466076e-16 1.8343032474134708e-20
3.162844764501044 1.6461487662687231e-24 1.3820265640798303e-16 1.3818382326938145e-16 1.8833138601583996e-20
3.1747281389236908 1.865982674945238e-24 1.5724743916828165e-16 1.5722810512277275e-16 1.9334045508899088e-20
3.1986289994194426 2.4790100313336456e-24 2.1048036467286168e-16 2.1045999319423332e-16 2.0371478628310914e-20
3.2227097969389145 3.923718448714346e-24 3.3565140455268553e-16 3.356299305179319e-16 2.147403475352261e-20
3.2348180950136065 5.293608664692326e-24 4.545389761475943e-16 4.545169128767689e-16 2.206327082546264e-20
3.240889293275058 6.3177571095867776e-24 5.434962529515139e-16 5.434738788489688e-16 2.2374102545202635e-20
3.2469718861334385 7.502550911013365e-24 6.466315826431961e-16 6.466088868965362e-16 2.2695746659912013e-20
3.2714166318528037 1.3821771033815538e-23 1.2002424553041423e-15 1.2002184276823834e-15 2.402762175893632e-20
3.2744851364798273 1.421681853276801e-23 1.2357052063532398e-15 1.2356810210319332e-15 2.418532130685403e-20
3.2775565192852394 1.462320763329583e-23 1.2722201479078493e-15 1.27219580402811e-15 2.4343879739288255e-20
3.283707930232385 1.4232466612425312e-23 1.2405495871181384e-15 1.2405249581966569e-15 2.4628921481708228e-20
3.2898708863219004 1.299317593747713e-23 1.1346544121913885e-15 1.134629522490462e-15 2.488970092640285e-20
3.29141343181113 1.27009166651812e-23 1.109652348491817e-15 1.1096273932704386e-15 2.495522137841072e-20
3.292184975758714 1.2557310269182834e-23 1.0973629338255914e-15 1.0973379457950491e-15 2.4988030542366594e-20
3.295272960557952 1.1650907529051842e-23 1.0191088737631297e-15 1.0190837578523531e-15 2.5115910776475444e-20
3.3076538914384823 8.510708774520665e-24 7.472315869213836e-16 7.47205956657255e-16 2.5630264128450568e-20
3.310756385682612 7.871558522916308e-24 6.917630918931647e-16 6.917373318309279e-16 2.5760062236448042e-20
3.313861789986515 7.281827238814785e-24 6.40536962004786e-16 6.405110716587223e-16 2.5890346063596908e-20
3.3200813396944477 6.454828860649464e-24 5.688567148801569e-16 5.688305449327669e-16 2.6169947390085386e-20
3.345076488085796 4.979838833146765e-24 4.4217152695110217e-16 4.4214411250893185e-16 2.7414442170271e-20
3.3482140837626964 5.03520714355849e-24 4.4750716547889e-16 4.474795825021951e-16 2.758297669500399e-20
3.3513546224236106 5.091186785861852e-24 4.5290680783381e-16 4.528790554831217e-16 2.7752350688328603e-20
3.3576445397418455 5.50007090376007e-24 4.901990197844005e-16 4.901709135477422e-16 2.810623665825229e-20
3.3702598118196083 7.007961344309158e-24 6.269378820217295e-16 6.269090333062518e-16 2.8848715477670536e-20
3.382922481734668 7.351578357216415e-24 6.601491521171451e-16 6.601195789940414e-16 2.9573123103789034e-20
3.389271646505754 7.52958928913367e-24 6.7740297437158155e-16 6.773730335219475e-16 2.994084963402978e-20
3.395632727569191 7.721428455486442e-24 6.95965634570429e-16 6.959353147274257e-16 3.031984300325376e-20
3.421196662673239 8.642602536638373e-24 7.84859670130021e-16 7.848277782888719e-16 3.189184114929716e-20
3.4276182099114902 8.457194776148753e-24 7.694638255447263e-16 7.694315799029338e-16 3.224564179240694e-20
3.4340518103208963 7.644369425099784e-24 6.968157253342316e-16 6.967831436113202e-16 3.258172291149529e-20
3.4469541582030403 6.486724730912009e-24 5.935132370653952e-16 5.934800073145545e-16 3.322975084076495e-20
3.472904465399547 6.162499105641063e-24 5.68092608883552e-16 5.680578904020917e-16 3.4718481460512316e-20
3.4990501388274233 5.66652562172396e-24 5.263037391700203e-16 5.262674902544875e-16 3.6248915532855327e-20
3.5253949054701885 3.9009060667275756e-24 3.6504188494920985e-16 3.6500413821066784e-16 3.774673854222245e-20
3.5519380250092896 2.2412819030841288e-24 2.113154724178453e-16 2.1127621119302945e-16 3.9261224815880627e-20
3.578680990867387 1.58342190016345e-24 1.5041427918470592e-16 1.5037335631465164e-16 4.0922870054332166e-20
3.605625307711299 1.3175373556269113e-24 1.2609938365858316e-16 1.2605670499267178e-16 4.26786659113993e-20
3.660119384959845 1.1240003000850348e-24 1.0920213054369439e-16 1.0915573768361685e-16 4.6392860077516164e-20
3.715437065384467 9.871135720422298e-25 9.735235584332483e-17 9.730201003230581e-17 5.0345811019013994e-20
3.8285932144167436 9.186407362086263e-25 9.335860596978621e-17 9.329963156098476e-17 5.897440880142898e-20
3.94519561050918 9.066050396168273e-25 9.494150311121072e-17 9.487291527956543e-17 6.858783164528946e-20
4.06534921144712 9.177847344043518e-25 9.903942722325043e-17 9.896019713735981e-17 7.923008589063043e-20
4.189162171576248 9.424420400152024e-25 1.047975807058454e-16 1.0470660229180697e-16 9.097841403846911e-20
4.316745939156006 9.769488177893501e-25 1.119432042301897e-16 1.1183934641760112e-16 1.0385781258863144e-19
4.448215356677963 1.0200887322444042e-24 1.2044622377870241e-16 1.2032845193581633e-16 1.1777184288612153e-19
4.58368876423945 1.0720129008811092e-24 1.3043212381121839e-16 1.3029931652237932e-16 1.3280728883907322e-19
4.723288106065518 1.1338844363648887e-24 1.421617183582058e-16 1.4201258970710375e-16 1.4912865110206058e-19
4.867139040275056 1.2080230054973502e-24 1.5606962650758932e-16 1.559031791800066e-16 1.6644732758275625e-19
4.940699165968905 1.2526067202272788e-24 1.6427541816440463e-16 1.640998660523362e-16 1.7555211206847262e-19
5.015371051989984 1.2987613517050024e-24 1.7290273317614635e-16 1.7271778989578204e-16 1.8494328036428753e-19
5.091171501069577 1.3549150457214649e-24 1.8310458756984258e-16 1.8290978233237097e-16 1.948052374716281e-19
5.129500256944802 1.3837282014883111e-24 1.8840623946223332e-16 1.8820639439232485e-16 1.9984506990848728e-19
5.168117569889187 1.4137524608280704e-24 1.939434834733855e-16 1.9373848744307323e-16 2.0499603031229303e-19
5.20702561229733 1.4505140921984397e-24 2.0048463739677073e-16 2.002740753543766e-16 2.10562042394113e-19
5.246226572918644 1.4882039664026832e-24 2.072425529743562e-16 2.070263330601521e-16 2.1621991420408055e-19
5.265937586045735 1.5074062390531157e-24 2.1070529469020696e-16 2.1048621139803575e-16 2.1908329217121e-19
5.285722656980489 1.5268518270018328e-24 2.1422526957482574e-16 2.1400329994947154e-16 2.2196962535420216e-19
5.305582063971359 1.5465446530038778e-24 2.178035395322875e-16 2.1757866062517707e-16 2.248789071103714e-19
5.3255160863122235 1.5676873956927069e-24 2.2161063619632585e-16 2.2138280730241862e-16 2.2782889390718405e-19
5.365609099470188 1.6202523902963389e-24 2.3076563414625666e-16 2.305316975709318e-16 2.3393657532488275e-19
5.406003951863644 1.674799510798838e-24 2.4033034907016003e-16 2.40090203501119e-16 2.401455690409905e-19
5.446702915881641 1.731424402867461e-24 2.5032640078972064e-16 2.5007994478389587e-16 2.4645600582470616e-19
5.487708281020852 1.792575611202054e-24 2.611186749363552e-16 2.6086578575411736e-16 2.528891822378019e-19
5.529022354014368 1.877427753973319e-24 2.755376896640103e-16 2.7527807827071766e-16 2.5961139329259093e-19
5.570647458961463 1.967245045742545e-24 2.9089319928942486e-16 2.9062675269531145e-16 2.664465941133914e-19
5.612585937458331 2.0623845674033465e-24 3.072572131048786e-16 3.0698381797964795e-16 2.7339512523074494e-19
5.654840148729818 2.166915315968618e-24 3.252607844332747e-16 3.249803000958177e-16 2.8048433745706807e-19
5.67608639626678 2.2380466919558196e-24 3.3720000564035817e-16 3.369158158872712e-16 2.841897530869357e-19
5.686739436050992 2.2747055451751735e-24 3.433665215386018e-16 3.4308046709899435e-16 2.8605443960741833e-19
5.6974124697621304 2.3121164129498072e-24 3.4966872619393497e-16 3.493807990688381e-16 2.8792712509681185e-19
5.718818669136295 2.3892665861895188e-24 3.6269399807750584e-16 3.624023015453175e-16 2.91696532188452e-19
5.740305295436557 2.474288739834834e-24 3.7701167780208993e-16 3.767161564354955e-16 2.9552136659458667e-19
5.7835210386641895 2.6947569063194847e-24 4.136960235180516e-16 4.133925722087346e-16 3.0345130931713807e-19
5.827062130521658 2.9486263160482065e-24 4.56077680222238e-16 4.55766101196417e-16 3.1157902582082686e-19
5.8489554468988025 3.126677102595486e-24 4.854346575371993e-16 4.851187129359229e-16 3.159446012763129e-19
5.870931020387893 3.317702388318682e-24 5.170277297043607e-16 5.1670737652637145e-16 3.203531779892474e-19
5.892989160043636 3.522745801454243e-24 5.510441310336895e-16 5.50719326065107e-16 3.2480496858247633e-19
5.915130176081913 3.75590496154169e-24 5.897233639725545e-16 5.89393949250816e-16 3.2941472173827497e-19
5.95966208400165 4.4077272178282145e-24 6.972777033876394e-16 6.969379362393657e-16 3.3976714827372995e-19
6.004529249263818 5.347009914153575e-24 8.522350413115031e-16 8.518836979496777e-16 3.5134336182516846e-19
6.027089341400364 5.9998707340406115e-24 9.598844493989926e-16 9.5952649382388e-16 3.5795557511253485e-19
6.049734195844842 6.771264316826252e-24 1.0873653598561469e-15 1.0870004126140202e-15 3.649472421263716e-19
6.095279466722835 8.999363052396365e-24 1.4560451035332482e-15 1.4556632414715771e-15 3.8186206167156465e-19
6.141167624020661 1.2427899340258644e-23 2.0259005005905637e-15 2.0254970182157296e-15 4.0348237483430656e-19
6.164241091010745 1.461741356917132e-23 2.391770933944966e-15 2.3913540459879234e-15 4.168879570421603e-19
6.187401249150058 1.711123604474201e-23 2.810341496145145e-15 2.8099107934797473e-15 4.307026653975998e-19
6.1990139391386085 1.8328937462770823e-23 3.0159860983113086e-15 3.0155483556602286e-15 4.377426510798816e-19
6.204828454712694 1.8970345247983122e-23 3.124456243215321e-15 3.1240149395518907e-15 4.413036634306806e-19
6.210648424152782 1.9438602460160966e-23 3.2045822017235144e-15 3.204137824044113e-15 4.44377679400842e-19
6.233982942956859 2.1029456009936122e-23 3.4798704904033874e-15 3.4794152227930186e-15 4.55267610368996e-19
6.239830258556775 2.1232819196199027e-23 3.5168178126539957e-15 3.516360905545475e-15 4.569071085198062e-19
6.245683058788269 2.1250477552950348e-23 3.5230440158644344e-15 3.5225854646749624e-15 4.585511894717661e-19
6.257405133728602 2.1206829480094937e-23 3.522406318713162e-15 3.5219448138819026e-15 4.615048312597568e-19
6.269149208991335 2.0894036026642934e-23 3.476965477649497e-15 3.4765025230716125e-15 4.629545778852352e-19
6.280915325867298 2.0109553598010044e-23 3.3527008280661837e-15 3.352238289494039e-15 4.625385721446796e-19
6.304513850009849 1.8174953913321485e-23 3.0415457576777563e-15 3.041085745313483e-15 4.6001236427307575e-19
6.32820103803542 1.5777089509069178e-23 2.6501874322518727e-15 2.649731748913516e-15 4.556833383562179e-19
6.3519772230701035 1.3578135743491767e-23 2.289383303984268e-15 2.288931378389947e-15 4.519255943205677e-19
6.375842739491607 1.1728109174555622e-23 1.984883537547967e-15 1.9844347890690204e-15 4.487484789466534e-19
6.399797922933955 1.0245631109606199e-23 1.7405015299109744e-15 1.7400537912308633e-15 4.47738680111534e-19
6.42384311029221 9.013039399292075e-24 1.536864674252181e-15 1.5364175134197024e-15 4.471608324789979e-19
6.447978639727206 8.11500123369871e-24 1.3889340131786077e-15 1.3884857236580375e-15 4.482895205696706e-19
6.472204850670314 7.366906142736447e-24 1.2656301860426258e-15 1.2651804197905508e-15 4.497662520749725e-19
6.496522083828205 6.88088944463313e-24 1.1865742850017758e-15 1.1861216441660884e-15 4.526408356870726e-19
