Dust emission spectrum from A.P. Jones, M. Kohler, N. Ysard, M. Bocchio, and L. Verstraete (2017), A&A, 602A, 46J 
inside the DustPedia framework.

lambda    nu*dP/dnu     j_nu    j_nu(carb.) j_nu(sil)
 (um)   (erg s-1 H-1) (Jy cm2 sr-1 H-1)
0.9927057738263894 2.8960108504089975e-21 7.631153080960177e-14 7.631153080960172e-14 4.393923323181758e-29
1.0001793341362166 2.9438756816985567e-21 7.815680113567107e-14 7.815680113567102e-14 5.295573599092636e-29
1.0077091589558085 2.991672825877914e-21 8.002371987361468e-14 8.002371987361462e-14 6.374257939037099e-29
1.0114953028030835 3.0155401296425033e-21 8.096520422047526e-14 8.09652042204752e-14 6.990095887448249e-29
1.0152956718711033 3.0393834674014326e-21 8.191198768299821e-14 8.191198768299814e-14 7.663015486726029e-29
1.0229392996569957 3.0869655462342773e-21 8.382066059174736e-14 8.382066059174726e-14 9.200820104025953e-29
1.0267826658714554 3.1106466031293974e-21 8.478101967415219e-14 8.478101967415209e-14 1.0077404659812458e-28
1.0306404723013447 3.1342932250432124e-21 8.574646993776476e-14 8.574646993776466e-14 1.1034006438265604e-28
1.03451277320114 3.157903130244895e-21 8.67169698862505e-14 8.671696988625036e-14 1.2077582109904718e-28
1.0383996230291617 3.1814740496289548e-21 8.769247750345976e-14 8.769247750345962e-14 1.3215660532119182e-28
1.0403485208654093 3.1932441841034464e-21 8.818209591809781e-14 8.818209591809767e-14 1.3822658305832188e-28
1.0423010764483396 3.2050037271504432e-21 8.867295026336759e-14 8.867295026336744e-14 1.4456386919027972e-28
1.0462171883269815 3.2284899202505816e-21 8.965834514002606e-14 8.965834514002589e-14 1.5808570179218132e-28
1.0471985131304309 3.2343544126027683e-21 8.990545785103566e-14 8.990545785103552e-14 1.6165130686852645e-28
1.048180758391296 3.2402160131332218e-21 9.015287479228163e-14 9.015287479228148e-14 1.6529404807289082e-28
1.0501480137395462 3.251930400272739e-21 9.064861861752488e-14 9.064861861752469e-14 1.728173362957359e-28
1.0521189612883777 3.2636328053259455e-21 9.11455711013457e-14 9.114557110134552e-14 1.806686759658304e-28
1.0531058218030118 3.2694704479345082e-21 9.139424781866206e-14 9.13942478186619e-14 1.8472185878756491e-28
1.0540936079674168 3.2752755687139118e-21 9.164240088854763e-14 9.164240088854745e-14 1.888630746532893e-28
1.058054026499678 3.298463162892856e-21 9.263794566172594e-14 9.263794566172574e-14 2.063363863534872e-28
1.0590464539527713 3.3042516696259146e-21 9.288756143696814e-14 9.288756143696794e-14 2.10941212355026e-28
1.06003981227728 3.3100367520192445e-21 9.313746762237747e-14 9.313746762237724e-14 2.1564451995747385e-28
1.0620293250338977 3.321596509055095e-21 9.363814836484364e-14 9.363814836484342e-14 2.253546468312226e-28
1.0660195594769086 3.3446734525375707e-21 9.464296323024789e-14 9.464296323024764e-14 2.4604762347726908e-28
1.070024785945596 3.3676918549302956e-21 9.565234406251701e-14 9.565234406251676e-14 2.685553669555174e-28
1.0740450607676866 3.3906495944281164e-21 9.666624424846097e-14 9.666624424846067e-14 2.9302897353892685e-28
1.07808044048254 3.413544566172843e-21 9.768461676710392e-14 9.768461676710359e-14 3.1963139973951113e-28
1.0861967418109137 3.459097432657611e-21 9.973342273505337e-14 9.973342273505302e-14 3.7993917329491477e-28
1.0902777775684922 3.48165924122788e-21 1.007610899397916e-13 1.0076108993979117e-13 4.140380077145334e-28
1.0943741465085532 3.504148429780754e-21 1.0179296196905981e-13 1.0179296196905936e-13 4.510544329162159e-28
1.1026131145906286 3.548900951295823e-21 1.0386912312218317e-13 1.0386912312218268e-13 5.348042994731802e-28
1.1109141095355224 3.593339199015789e-21 1.0596150811046415e-13 1.0596150811046353e-13 6.333054712558527e-28
1.1192775983109025 3.637406451011038e-21 1.0806848854708254e-13 1.0806848854708181e-13 7.490064825525103e-28
1.1277040513999907 3.6808981160381306e-21 1.101839583893219e-13 1.1018395838932103e-13 8.847360064486157e-28
1.1361939428280308 3.724024145805537e-21 1.1231412833570534e-13 1.1231412833570433e-13 1.0437569405326963e-27
1.1447477501889525 3.766770154132832e-21 1.1445857966139005e-13 1.1445857966138882e-13 1.2298287001616072e-27
1.1533659546722406 3.809145369470899e-21 1.166176022623401e-13 1.1661760226233864e-13 1.447279052658834e-27
1.1707974979042381 3.892920134747031e-21 1.2098365834756128e-13 1.209836583475593e-13 1.996959906315063e-27
1.1884924949847024 3.975031226060044e-21 1.254025654609715e-13 1.2540256546096875e-13 2.741969224535507e-27
1.2064549276569216 4.056120202467629e-21 1.298946761270497e-13 1.2989467612704594e-13 3.746802346855394e-27
1.2246888378427687 4.1353019068576786e-21 1.3443192399096495e-13 1.344319239909599e-13 5.095387793588142e-27
1.2431983285522175 4.2123910533918746e-21 1.3900759587578317e-13 1.390075958757763e-13 6.896580117501121e-27
1.2619875648066055 4.287358689403444e-21 1.436198033063708e-13 1.436198033063615e-13 9.290842268868724e-27
1.3004222497298317 4.4296834901643274e-21 1.529067017978403e-13 1.5290670179782366e-13 1.662947631312781e-26
1.3400274889804893 4.561718370578575e-21 1.622600516903423e-13 1.6226005169031307e-13 2.9231181614776154e-26
1.3808389325824078 4.6829726548269414e-21 1.7164615458161238e-13 1.716461545815619e-13 5.048471600260327e-26
1.4228933163050095 4.7940342781707305e-21 1.8106850149287115e-13 1.8106850149278544e-13 8.571087567604451e-26
1.466228494730424 4.897571596872908e-21 1.9061272145402072e-13 1.9061272145387764e-13 1.431190994235968e-25
1.5108834753276823 4.991572795201395e-21 2.0018789523106169e-13 2.0018789523082644e-13 2.3515092328272576e-25
1.5568984535646726 5.0744095288707596e-21 2.0970811389337337e-13 2.0970811389299274e-13 3.8057870488609546e-25
1.6043148490894465 5.146231270795014e-21 2.1915346202749096e-13 2.191534620268831e-13 6.078454985965761e-25
1.6531753430134553 5.20725443854179e-21 2.285057595575787e-13 2.285057595566217e-13 9.570600608495039e-25
1.7035239163302658 5.2582011536155236e-21 2.3776879911120854e-13 2.377687991097225e-13 1.4860310321884463e-24
1.755405889504358 5.303251326714491e-21 2.471093585990685e-13 2.471093585967918e-13 2.2768173061872665e-24
1.8088679632656115 5.341371365047221e-21 2.5646557223802156e-13 2.564655722345776e-13 3.4439841706888104e-24
1.8639582606462262 5.371860683113999e-21 2.657849325508842e-13 2.6578493254573796e-13 5.14617262229004e-24
1.9207263702978936 5.395225256322176e-21 2.7507081467089823e-13 2.7507081466329725e-13 7.600989751037746e-24
1.979223391128241 5.412644437639664e-21 2.843634317715633e-13 2.843634317604582e-13 1.1105062381393719e-23
2.039501978296691 5.425530009412099e-21 2.9372149763644963e-13 2.9372149762038913e-13 1.6060484478989314e-23
2.1016163906111602 5.437838430711742e-21 3.0335361841379317e-13 3.0335361839078065e-13 2.3012532695846997e-23
2.1656225393682647 5.451863682532885e-21 3.1339869531509273e-13 3.1339869528239415e-13 3.2698562213839645e-23
2.231578038680979 5.4677694899113774e-21 3.238856518376328e-13 3.2388565179151544e-13 4.6117321126856157e-23
2.299542257339062 5.486929385686143e-21 3.3491931852999456e-13 3.34919318465367e-13 6.462763482687532e-23
2.369576372248914 5.512381253107247e-21 3.467203966722015e-13 3.4672039658211095e-13 9.009047936402407e-23
2.4417434235010123 5.547712560879144e-21 3.5956996761226167e-13 3.59569967487194e-13 1.2506777926095372e-22
2.5161083711144245 5.599067577863667e-21 3.7395081573460174e-13 3.7395081556148617e-13 1.7311557786492926e-22
2.5927381535095444 5.676501227329775e-21 3.9066888924602454e-13 3.9066888900682606e-13 2.391985989541586e-22
2.6717017477616296 5.7920182644305396e-21 4.1075922927334754e-13 4.107592289430893e-13 3.30258031295193e-22
2.753070231689431 5.963693341388818e-21 4.3581485275854017e-13 4.3581485230252227e-13 4.560179149513715e-22
2.836916847834745 6.232474384655492e-21 4.693280830803616e-13 4.69328082450188e-13 6.301735866652612e-22
2.9233170693905177 6.6885430657106694e-21 5.190113833334978e-13 5.190113824615952e-13 8.719025817732962e-22
2.967498994190263 7.075841875811715e-21 5.573629967966825e-13 5.573629957713207e-13 1.0253616996739303e-21
3.0123486681368425 7.528161308563761e-21 6.019543923340955e-13 6.019543911273077e-13 1.2067879176002357e-21
3.0578761833420214 8.540206260836036e-21 6.931986196138417e-13 6.931986181914541e-13 1.4223877431015475e-21
3.1040917844459814 9.84431469290679e-21 8.111281537436917e-13 8.111281520663006e-13 1.6773909557722607e-21
3.127460860933648 1.1223874526588195e-20 9.317601221781377e-13 9.317601203544262e-13 1.823711633108978e-21
3.1510058709225794 1.3061926458409059e-20 1.0925111541411047e-12 1.092511152157284e-12 1.9838207890373078e-21
3.162844764501044 1.4772878271689775e-20 1.2402591198164005e-12 1.2402591177446336e-12 2.071766981752103e-21
3.1747281389236908 1.676255536779593e-20 1.4125902351048356e-12 1.4125902329411008e-12 2.1637347262179678e-21
3.1986289994194426 2.2312282440532333e-20 1.894424502284343e-12 1.8944244999209325e-12 2.3634098691119427e-21
3.2227097969389145 3.539433584605876e-20 3.0277805849784576e-12 3.0277805823731517e-12 2.6053050403568014e-21
3.2348180950136065 4.780019428093217e-20 4.1043931926867915e-12 4.104393189932592e-12 2.754198651295095e-21
3.240889293275058 5.707519327066418e-20 4.909994661241157e-12 4.9099946583984835e-12 2.8426729062113196e-21
3.2469718861334385 6.780494882205051e-20 5.843988516423324e-12 5.843988513482116e-12 2.9412058998911194e-21
3.2714166318528037 1.2503927919192538e-19 1.0858047865183552e-11 1.0858047861797354e-11 3.3861988949491887e-21
3.2744851364798273 1.2861722126555123e-19 1.1179221960117688e-11 1.1179221956683432e-11 3.4342566766279425e-21
3.2775565192852394 1.3229793191173882e-19 1.150992988169178e-11 1.1509929878208713e-11 3.483066803975513e-21
3.283707930232385 1.2875841018671502e-19 1.1223015443835136e-11 1.1223015440289787e-11 3.545346829965068e-21
3.2898708863219004 1.1753322161297319e-19 1.0263817647352084e-11 1.0263817643772511e-11 3.579569990259731e-21
3.29141343181113 1.1488603970055366e-19 1.0037351407251734e-11 1.0037351403663571e-11 3.5881659395006156e-21
3.292184975758714 1.1358530793707345e-19 9.926035439548105e-12 9.926035435955634e-12 3.592469957990171e-21
3.295272960557952 1.0537494867185444e-19 9.217182867175372e-12 9.217182863571705e-12 3.60366691518104e-21
3.3076538914384823 7.693165635537695e-20 6.754521296160382e-12 6.7545212925148395e-12 3.645542636991634e-21
3.310756385682612 7.114270076315912e-20 6.25211570266266e-12 6.252115699006553e-12 3.656105205179131e-21
3.313861789986515 6.58014810522705e-20 5.788146214726323e-12 5.788146211059617e-12 3.666705765965028e-21
3.3200813396944477 5.831102855507925e-20 5.138884525249501e-12 5.138884521544271e-12 3.705229217937551e-21
3.345076488085796 4.4948854147253613e-20 3.9911137968363546e-12 3.991113792869929e-12 3.96642658227269e-21
3.3482140837626964 4.544994590202725e-20 4.039392200141139e-12 4.03939219612945e-12 4.011688411992967e-21
3.3513546224236106 4.5956577816996905e-20 4.088250506907829e-12 4.088250502850349e-12 4.057480159887869e-21
3.3576445397418455 4.965906231864139e-20 4.425910883324929e-12 4.425910879158317e-12 4.166610509224679e-21
3.3702598118196083 6.331532676201392e-20 5.664240270378351e-12 5.664240265954885e-12 4.423465243461181e-21
3.382922481734668 6.64257996950972e-20 5.964832749742377e-12 5.964832745100866e-12 4.641509710113712e-21
3.389271646505754 6.803724195616671e-20 6.121001863363133e-12 6.121001858608456e-12 4.754675612981257e-21
3.395632727569191 6.977365861495376e-20 6.289000652431423e-12 6.289000647555647e-12 4.875776069288741e-21
3.421196662673239 7.81113030530355e-20 7.0935127801766644e-12 7.093512774774271e-12 5.402391033146325e-21
3.4276182099114902 7.643123406440945e-20 6.953968935440121e-12 6.953968929939077e-12 5.501042627502899e-21
3.4340518103208963 6.90689141668688e-20 6.2959157056445145e-12 6.2959157000645876e-12 5.579927350314983e-21
3.4469541582030403 5.858360970935006e-20 5.360200914935929e-12 5.36020090922667e-12 5.70925746587876e-21
3.472904465399547 5.564516714151329e-20 5.1296734703371836e-12 5.129673464174142e-12 6.163043628452221e-21
3.4990501388274233 5.11508498624504e-20 4.750862405196655e-12 4.750862398558826e-12 6.637830549423278e-21
3.5253949054701885 3.515600665264904e-20 3.289854899412066e-12 3.2898548923887862e-12 7.02328036212101e-21
3.5519380250092896 2.0122542759297305e-20 1.8972199006193424e-12 1.8972198932246062e-12 7.39473652455098e-21
3.578680990867387 1.4161630669600918e-20 1.3452583098845382e-12 1.3452583019629358e-12 7.921602811693401e-21
3.605625307711299 1.1750529978039578e-20 1.1246243467514105e-12 1.1246243382031174e-12 8.548292995330896e-21
3.660119384959845 9.991547717510793e-21 9.707277641283718e-13 9.707277541183856e-13 1.0009986154701533e-20
3.715437065384467 8.745854262483033e-21 8.62544635622417e-13 8.625446239083732e-13 1.1714043758741588e-20
3.8285932144167436 8.11361355259857e-21 8.24561355480911e-13 8.245613394135666e-13 1.6067344201068238e-20
3.94519561050918 7.992574934515567e-21 8.36998521795786e-13 8.369984998231812e-13 2.19726048132567e-20
4.06534921144712 8.08200327478416e-21 8.72140214524865e-13 8.721401845936528e-13 2.9931212104797035e-20
4.189162171576248 8.293884322604811e-21 9.222625633817259e-13 9.222625227879076e-13 4.059381815188637e-20
4.316745939156006 8.595607798366601e-21 9.849235310325519e-13 9.849234762397575e-13 5.479279415356337e-20
4.448215356677963 8.976457278953766e-21 1.0598885645781116e-12 1.0598884909999805e-12 7.357813086669256e-20
4.58368876423945 9.438145955641242e-21 1.1483419843387466e-12 1.1483418860420193e-12 9.829672699373389e-20
4.723288106065518 9.991601879677315e-21 1.252705519902654e-12 1.2527053892448616e-12 1.3065779292893749e-19
4.867139040275056 1.0658331427158439e-20 1.376995137891327e-12 1.3769949651052314e-12 1.7278609616951614e-19
4.940699165968905 1.1060705501394414e-20 1.4505766192162953e-12 1.4505764208451619e-12 1.983711333744262e-19
5.015371051989984 1.1478101161042759e-20 1.5280675389756813e-12 1.5280673115493397e-12 2.274263410711964e-19
5.091171501069577 1.1986813509165491e-20 1.6199100827784052e-12 1.6199098222039704e-12 2.6057443458093086e-19
5.129500256944802 1.224820650477741e-20 1.6676963909819326e-12 1.667696112215241e-12 2.78766692011875e-19
5.168117569889187 1.2520815160623781e-20 1.7176490053678976e-12 1.7176487072223756e-12 2.9814552141127584e-19
5.20702561229733 1.2854600870090635e-20 1.776714895898966e-12 1.7767145769228977e-12 3.189760684354869e-19
5.246226572918644 1.3197089726456911e-20 1.8377847583309913e-12 1.8377844171946115e-12 3.4113638011743725e-19
5.265937586045735 1.3371685817580635e-20 1.8690946923955985e-12 1.8690943396567964e-12 3.5273880160930444e-19
5.285722656980489 1.3548564779365951e-20 1.900934256280113e-12 1.900933891577654e-12 3.64702458443113e-19
5.305582063971359 1.372776390365375e-20 1.933313443146903e-12 1.933313066109456e-12 3.770374464968978e-19
5.3255160863122235 1.3920155499276887e-20 1.9677740119760575e-12 1.9677736221714788e-12 3.8980457780788094e-19
5.365609099470188 1.439814130876989e-20 2.050665828080035e-12 2.0506654111390326e-12 4.1694100283907153e-19
5.406003951863644 1.4894455879960558e-20 2.1373243530108527e-12 2.1373239072094678e-12 4.458013847288277e-19
5.446702915881641 1.540998291866041e-20 2.227949169406863e-12 2.2279486929231884e-12 4.764836745548796e-19
5.487708281020852 1.596687384497643e-20 2.3258427232982395e-12 2.3258422140740065e-12 5.092242331878815e-19
5.529022354014368 1.6738517007597572e-20 2.456601749342585e-12 2.4566012041094754e-12 5.45233109971915e-19
5.570647458961463 1.7555638832178608e-20 2.5959226363355805e-12 2.595922052768779e-12 5.835668022453442e-19
5.612585937458331 1.8421500646986825e-20 2.7444633942006813e-12 2.7444627698411494e-12 6.243595312910412e-19
5.654840148729818 1.937292668244512e-20 2.9079370490690992e-12 2.9079363810520772e-12 6.680170217030418e-19
5.67608639626678 2.001950074617746e-20 3.0162801289140634e-12 3.016279436859193e-12 6.9205486949059e-19
5.686739436050992 2.035275586026945e-20 3.0722459873051126e-12 3.072245282935007e-12 7.043701051159887e-19
5.6974124697621304 2.069286786778884e-20 3.129448287336822e-12 3.129447570450048e-12 7.168867746778676e-19
5.718818669136295 2.1394321445535382e-20 3.247687816038898e-12 3.2476870735025775e-12 7.425363215835683e-19
5.740305295436557 2.2167191712887675e-20 3.377653547578381e-12 3.3776527781513318e-12 7.694270488958388e-19
5.7835210386641895 2.4169758072939778e-20 3.7105138429073054e-12 3.710513013729555e-12 8.291777501736701e-19
5.827062130521658 2.647574801655441e-20 4.0951264905353454e-12 4.095125596458015e-12 8.940773294319376e-19
5.8489554468988025 2.8091603228129157e-20 4.36138345766432e-12 4.361382525458835e-12 9.32205485132998e-19
5.870931020387893 2.98253563297653e-20 4.647956466829694e-12 4.647955494976254e-12 9.718534399173677e-19
5.892989160043636 3.168648797371648e-20 4.956546459803607e-12 4.956545446726756e-12 1.0130768507456995e-18
5.915130176081913 3.3802541875956165e-20 5.307415632191508e-12 5.307414574804746e-12 1.0573867615480932e-18
5.95966208400165 3.9715083513797346e-20 6.2827032740001525e-12 6.282702108709195e-12 1.1652909588130454e-18
6.004529249263818 4.823271451432769e-20 7.687588036423336e-12 7.687586734524342e-12 1.3018989935026156e-18
6.027089341400364 5.415153396315266e-20 8.663389207274842e-12 8.663387818303198e-12 1.3889716460887533e-18
6.049734195844842 6.114501967507292e-20 9.818989956894764e-12 9.818988470379417e-12 1.4865153468634003e-18
6.095279466722835 8.134159390338694e-20 1.3160601347789708e-11 1.3160599596643946e-11 1.7511457659914388e-18
6.141167624020661 1.1241756917927252e-19 1.8325446919070615e-11 1.8325444783189086e-11 2.1358815347505005e-18
6.164241091010745 1.3226209713168432e-19 2.1641355229172873e-11 2.164135284012811e-11 2.389044773421919e-18
6.187401249150058 1.5486659032824873e-19 2.543521718875042e-11 2.5435214520032952e-11 2.6687174682158456e-18
6.1990139391386085 1.659045070092776e-19 2.7299219488500067e-11 2.7299216675734123e-11 2.8127659379987197e-18
6.204828454712694 1.717187277581023e-19 2.8282439987634746e-11 2.828243709993602e-11 2.8876987360869737e-18
6.210648424152782 1.7596395548805674e-19 2.9008822062058156e-11 2.9008819112055833e-11 2.9500023264981186e-18
6.233982942956859 1.9038887823191522e-19 3.150479207580121e-11 3.1504788904381676e-11 3.1714195354133628e-18
6.239830258556775 1.9223427913716166e-19 3.183999876913629e-11 3.183999556706342e-11 3.2020728723530767e-18
6.245683058788269 1.923969406173623e-19 3.189683095938314e-11 3.1896827726383315e-11 3.232999818914347e-18
6.257405133728602 1.9200677121969147e-19 3.189188958277634e-11 3.1891886295664565e-11 3.2871117703603583e-18
6.269149208991335 1.8917777860444822e-19 3.148097402088043e-11 3.1480970716270144e-11 3.304610278913839e-18
6.280915325867298 1.820744974796341e-19 3.0355786641137084e-11 3.0355783364562434e-11 3.276574666881456e-18
6.304513850009849 1.645542810859911e-19 2.7537862155345782e-11 2.753785897726193e-11 3.178083853216242e-18
6.32820103803542 1.4283495206283267e-19 2.399298011370356e-11 2.399297708718333e-11 3.026520234809787e-18
6.3519772230701035 1.229173212958338e-19 2.0724852694158257e-11 2.0724849811069963e-11 2.8830882921538295e-18
6.375842739491607 1.0616157238808002e-19 1.796695053030924e-11 1.796694777322143e-11 2.75708780735918e-18
6.399797922933955 9.27354743955631e-20 1.5753664497169407e-11 1.5753661825107166e-11 2.6720622371232318e-18
6.42384311029221 8.157410020504591e-20 1.39096643634876e-11 1.3909661763336087e-11 2.600151517767623e-18
6.447978639727206 7.344411351713242e-20 1.2570426595634865e-11 1.2570424029078065e-11 2.5665568016080776e-18
6.472204850670314 6.667313996802269e-20 1.1454406626990122e-11 1.1454404084448366e-11 2.5425417542536553e-18
6.496522083828205 6.22771458395301e-20 1.0739376121517045e-11 1.0739373569564927e-11 2.5519521168415097e-18
