Dust emission spectrum from A.P. Jones, M. Kohler, N. Ysard, M. Bocchio, and L. Verstraete (2017), A&A, 602A, 46J 
inside the DustPedia framework.

lambda    nu*dP/dnu     j_nu    j_nu(carb.) j_nu(sil)
 (um)   (erg s-1 H-1) (Jy cm2 sr-1 H-1)
0.9927057738263894 1.5460916511113916e-20 4.074039316931161e-13 4.074038751588158e-13 5.653430021975027e-20
1.0001793341362166 1.5720185580095785e-20 4.1735438280820687e-13 4.173543147914849e-13 6.80167219311643e-20
1.0077091589558085 1.5980578416155888e-20 4.274616259943188e-13 4.274615442728095e-13 8.172150940374998e-20
1.0114953028030835 1.6111186186510724e-20 4.325744058261249e-13 4.325743162942119e-13 8.953191294476071e-20
1.0152956718711033 1.6242063051346582e-20 4.3772682284997894e-13 4.377267247941608e-13 9.805581813786665e-20
1.0229392996569957 1.6504481401307328e-20 4.4814770785809e-13 4.481475903596387e-13 1.1749845136626536e-19
1.0267826658714554 1.663572571902829e-20 4.53408557584086e-13 4.5340842902331414e-13 1.2856077190459302e-19
1.0306404723013447 1.6767218408071762e-20 4.587094078116573e-13 4.587092671942834e-13 1.4061737368097696e-19
1.03451277320114 1.6898956258080888e-20 4.640504222266695e-13 4.640502684736233e-13 1.5375304609695926e-19
1.0383996230291617 1.703093619480141e-20 4.694317683652525e-13 4.694316003058629e-13 1.680593895344443e-19
1.0403485208654093 1.7097016023023918e-20 4.721376192778839e-13 4.721374435957087e-13 1.7568217536290405e-19
1.0423010764483396 1.7163155283471208e-20 4.748536177731124e-13 4.748534341377864e-13 1.8363532611598488e-19
1.0462171883269815 1.7295610732197455e-20 4.803161461673512e-13 4.803159455797054e-13 2.0058764579918912e-19
1.0471985131304309 1.7328761212338517e-20 4.816881553598326e-13 4.816879503057365e-13 2.0505409600099615e-19
1.048180758391296 1.7361926259009058e-20 4.830627210769592e-13 4.830625114613439e-13 2.0961561535091784e-19
1.0501480137395462 1.7428299895319866e-20 4.858195336007797e-13 4.858193145691898e-13 2.1903159002221206e-19
1.0521189612883777 1.7494731333820474e-20 4.885866069502332e-13 4.885863780988353e-13 2.288513978282241e-19
1.0531058218030118 1.752792505423805e-20 4.899727805051741e-13 4.8997254658698e-13 2.3391819396477486e-19
1.0540936079674168 1.7560990340354597e-20 4.913575309947485e-13 4.913572919014258e-13 2.390933225446458e-19
1.058054026499678 1.7693388460629843e-20 4.969220748701986e-13 4.969218139602606e-13 2.6090993817208316e-19
1.0590464539527713 1.7726522066965783e-20 4.983196112738802e-13 4.98319344619466e-13 2.6665441405665593e-19
1.06003981227728 1.775966923892205e-20 4.99719713902022e-13 4.997194413823343e-13 2.7251968762347393e-19
1.0620293250338977 1.7826004154969446e-20 5.025276300914073e-13 5.025273454690873e-13 2.8462231994673914e-19
1.0660195594769086 1.7958835438269915e-20 5.081743931542028e-13 5.081740827678457e-13 3.103863569669996e-19
1.070024785945596 1.809188048967605e-20 5.138625657816459e-13 5.138622274116689e-13 3.3836997713143704e-19
1.0740450607676866 1.822513765581745e-20 5.19592355103335e-13 5.195919863493233e-13 3.687540118793073e-19
1.07808044048254 1.8358605454022003e-20 5.253639738370995e-13 5.253635721039815e-13 4.01733117949254e-19
1.0861967418109137 1.8625965452061452e-20 5.370277427692266e-13 5.370272664389211e-13 4.763303056032462e-19
1.0902777775684922 1.8759395355139688e-20 5.429069853282696e-13 5.429064669121485e-13 5.184161211707942e-19
1.0943741465085532 1.8893023865160536e-20 5.488285951138074e-13 5.488280310792676e-13 5.640345396574426e-19
1.1026131145906286 1.916087472230022e-20 5.607998879012478e-13 5.607992208918874e-13 6.670093602904452e-19
1.1109141095355224 1.9429515981337345e-20 5.729436329870466e-13 5.729428452357268e-13 7.877513198185212e-19
1.1192775983109025 1.969874067474769e-20 5.852557748692626e-13 5.852548457323857e-13 9.291368768889198e-19
1.1277040513999907 1.996759684792212e-20 5.977097955088889e-13 5.977087010333515e-13 1.094475537535377e-18
1.1361939428280308 2.0237225791105963e-20 6.103414708578022e-13 6.103401832879115e-13 1.287569890647937e-18
1.1447477501889525 2.050763888758446e-20 6.23153291343306e-13 6.231517785602958e-13 1.5127830102778825e-18
1.1533659546722406 2.0778943901025943e-20 6.361507320519799e-13 6.361489569351674e-13 1.7751168125542456e-18
1.1707974979042381 2.1325066757649952e-20 6.627376112390013e-13 6.627351763599837e-13 2.4348790175031848e-18
1.1884924949847024 2.1874983796195164e-20 6.901025253527453e-13 6.900992022891808e-13 3.323063564415251e-18
1.2064549276569216 2.243241962111886e-20 7.183840063858569e-13 7.183794936227711e-13 4.512763085985242e-18
1.2246888378427687 2.2993971578814073e-20 7.47496533302067e-13 7.474904350454044e-13 6.098256662568656e-18
1.2431983285522175 2.3559295981861022e-20 7.774494469898488e-13 7.774412462720058e-13 8.200717843038754e-18
1.2619875648066055 2.412934849766783e-20 8.082953949505264e-13 8.082844198545206e-13 1.0975096005895128e-17
1.3004222497298317 2.5280815895993884e-20 8.726596800873094e-13 8.726403005314643e-13 1.9379555845040257e-17
1.3400274889804893 2.6453038116188808e-20 9.409329957287546e-13 9.408994049327266e-13 3.359079602785584e-17
1.3808389325824078 2.765174045651914e-20 1.0135260798412048e-12 1.0134688999727779e-12 5.717986842688783e-17
1.4228933163050095 2.8888420962790465e-20 1.0911025642944788e-12 1.0910069267099904e-12 9.563758448763873e-17
1.466228494730424 3.018572673615839e-20 1.1748237689716123e-12 1.1746665175172368e-12 1.572514543754712e-16
1.5108834753276823 3.1544123638029893e-20 1.2650825655745653e-12 1.26482827320554e-12 2.542923690249949e-16
1.5568984535646726 3.296605791593881e-20 1.3623752258698141e-12 1.361970365448713e-12 4.0486042110121547e-16
1.6043148490894465 3.446348196796814e-20 1.4676354383186194e-12 1.4669996279189918e-12 6.3581039962760815e-16
1.6531753430134553 3.604974898942067e-20 1.5819421485757911e-12 1.5809584090958941e-12 9.83739479896966e-16
1.7035239163302658 3.7740672530136174e-20 1.7065825598873612e-12 1.7050826559387214e-12 1.499903948639591e-15
1.755405889504358 3.957134676411066e-20 1.8438594581635124e-12 1.84160473072518e-12 2.2547274383326186e-15
1.8088679632656115 4.1550902250634224e-20 1.995063663322125e-12 1.9917207550219726e-12 3.3429083001519887e-15
1.8639582606462262 4.368935860287769e-20 2.161629631602048e-12 2.1567394380879603e-12 4.890193514087229e-15
1.9207263702978936 4.600453272542302e-20 2.3455006406836207e-12 2.338439733017879e-12 7.060907665741796e-15
1.979223391128241 4.851899245661218e-20 2.5490363093344833e-12 2.538969456047636e-12 1.006685328684758e-14
2.039501978296691 5.1256324954546333e-20 2.7748596916564137e-12 2.760682893291961e-12 1.4176798364453014e-14
2.1016163906111602 5.425697149171375e-20 3.0267630853517482e-12 3.007034739843488e-12 1.9728345508260806e-14
2.1656225393682647 5.755266452142796e-20 3.308397095604373e-12 3.2812590879078755e-12 2.713800769649675e-14
2.231578038680979 6.11610258813023e-20 3.6228993872499535e-12 3.5859869715157493e-12 3.691241573420474e-14
2.299542257339062 6.510968639838775e-20 3.9742614248210815e-12 3.9246017256623655e-12 4.9659699158716735e-14
2.369576372248914 6.943333109749685e-20 4.367250920249081e-12 4.301149627691682e-12 6.610129255739817e-14
2.4417434235010123 7.416953945061348e-20 4.807231558126584e-12 4.72015177684555e-12 8.707978128103376e-14
2.5161083711144245 7.936801898930776e-20 5.300835367951632e-12 5.187265607620824e-12 1.1356976033080753e-13
2.5927381535095444 8.509224552493106e-20 5.856229341169766e-12 5.7095468519517874e-12 1.4668248921797871e-13
2.6717017477616296 9.139913952679703e-20 6.481858031910998e-12 6.294198001410124e-12 1.87660030500875e-13
2.753070231689431 9.835666806253348e-20 7.187709755631268e-12 6.949836918116059e-12 2.3787283751520924e-13
2.836916847834745 1.0610479207646195e-19 7.990078353709727e-12 7.691255840917965e-12 2.9882251279176127e-13
2.9233170693905177 1.14911446151759e-19 8.916792198562345e-12 8.544742506688168e-12 3.7204969187417857e-13
2.967498994190263 1.1990227855767963e-19 9.444684388455547e-12 9.031759766642428e-12 4.1292462181311964e-13
3.0123486681368425 1.252071303312254e-19 1.0011605618584676e-11 9.553902916458364e-12 4.577027021263091e-13
3.0578761833420214 1.3235166898171735e-19 1.074283119629633e-11 1.0235987976843246e-11 5.068432194530823e-13
3.1040917844459814 1.403485231781061e-19 1.1564099892919668e-11 1.1003963683724491e-11 5.601362091951755e-13
3.127460860933648 1.4652025874742509e-19 1.2163512151589658e-11 1.1574913640928528e-11 5.885985106611296e-13
3.1510058709225794 1.5395962100564224e-19 1.287731972550765e-11 1.2259105658662394e-11 6.182140668452544e-13
3.162844764501044 1.6005487123915065e-19 1.3437429732688785e-11 1.2803909608791067e-11 6.335201238977176e-13
3.1747281389236908 1.6683920332241312e-19 1.405963615181779e-11 1.3410512824728526e-11 6.491233270892618e-13
3.1986289994194426 1.8461559180585888e-19 1.567478815996914e-11 1.499347171330634e-11 6.813164466627998e-13
3.2227097969389145 2.235758413631659e-19 1.9125619271225738e-11 1.8410242863320038e-11 7.153764079057023e-13
3.2348180950136065 2.593623915190787e-19 2.2270311872236875e-11 2.1536772293723443e-11 7.335395785134398e-13
3.240889293275058 2.858835509909953e-19 2.4593639174305272e-11 2.3850518879847262e-11 7.431202944580041e-13
3.2469718861334385 3.165496400646192e-19 2.7282853147939693e-11 2.6529819670954755e-11 7.530334769849372e-13
3.2714166318528037 4.765346608399084e-19 4.138088599244637e-11 4.058692957933353e-11 7.939564131128272e-13
3.2744851364798273 4.866311747718353e-19 4.229727451703436e-11 4.149850775519956e-11 7.987667618348012e-13
3.2775565192852394 4.969895103574678e-19 4.323812423588776e-11 4.2434524201682734e-11 8.036000342050171e-13
3.283707930232385 4.876565556978842e-19 4.2505783101455944e-11 4.1693564638274206e-11 8.122184631817463e-13
3.2898708863219004 4.570799384305477e-19 3.991539646349855e-11 3.909535773445476e-11 8.200387290437933e-13
3.29141343181113 4.498579219546379e-19 3.9303139509063995e-11 3.848113764889094e-11 8.220018601730684e-13
3.292184975758714 4.463076036596111e-19 3.90020960573471e-11 3.817911142098654e-11 8.229846363605647e-13
3.295272960557952 4.2409468300576805e-19 3.709570723904908e-11 3.626890413387845e-11 8.268031051706338e-13
3.3076538914384823 3.4661149204688473e-19 3.043213698285303e-11 2.959000842816602e-11 8.421285546870097e-13
3.310756385682612 3.306977787626518e-19 2.9062163134918737e-11 2.821617400126579e-11 8.459891336529538e-13
3.313861789986515 3.1595956600187185e-19 2.779299396783413e-11 2.6943132560155093e-11 8.498614076790416e-13
3.3200813396944477 2.955330929126382e-19 2.6044994840613055e-11 2.5186793784855673e-11 8.582010557573815e-13
3.345076488085796 2.610801602296401e-19 2.3181917522505506e-11 2.2286522302299672e-11 8.953952202058365e-13
3.3482140837626964 2.6282263116313143e-19 2.3358524752249948e-11 2.2458089705837244e-11 9.004350464127013e-13
3.3513546224236106 2.64578975264289e-19 2.3536677035628473e-11 2.263118068592688e-11 9.054963497015974e-13
3.3576445397418455 2.75601956028979e-19 2.4563284921237888e-11 2.3647202423407455e-11 9.160824978304342e-13
3.3702598118196083 3.1463051996625583e-19 2.814710043559538e-11 2.7208814961246433e-11 9.382854743489493e-13
3.382922481734668 3.2476520106272487e-19 2.916291736294429e-11 2.820308958419344e-11 9.598277787508431e-13
3.389271646505754 3.2997422933414315e-19 2.968628378436256e-11 2.8715544451710322e-11 9.707393326522393e-13
3.395632727569191 3.356801074141605e-19 3.025629523293279e-11 2.927431083399313e-11 9.81984398939665e-13
3.421196662673239 3.629963965621054e-19 3.29647500109308e-11 3.193625761274968e-11 1.0284923981811217e-12
3.4276182099114902 3.5896595624821156e-19 3.265992155153498e-11 3.162109239261693e-11 1.0388291589180469e-12
3.4340518103208963 3.3892509385157813e-19 3.089441678874346e-11 2.9845831416822543e-11 1.0485853719209076e-12
3.4469541582030403 3.1039386268665805e-19 2.8399982094274737e-11 2.7332712536208083e-11 1.0672695580666588e-12
3.472904465399547 3.0420234568977136e-19 2.8043023005586466e-11 2.6932649129946044e-11 1.110373875640421e-12
3.4990501388274233 2.938783386704407e-19 2.7295256181383083e-11 2.614086547715196e-11 1.1543907042311144e-12
3.5253949054701885 2.5222069437054405e-19 2.360249545138608e-11 2.2405491739058462e-11 1.1970037123276142e-12
3.5519380250092896 2.126411302430511e-19 2.004850921740042e-11 1.880879534770402e-11 1.239713869696396e-12
3.578680990867387 1.9862656649428427e-19 1.886816888353435e-11 1.7581657996268627e-11 1.2865108872657195e-12
3.605625307711299 1.9468168377595016e-19 1.8632671194420504e-11 1.7296945921428814e-11 1.335725272991691e-12
3.660119384959845 1.9544267220797516e-19 1.8988212194115178e-11 1.7549420828828122e-11 1.4387913652870556e-12
3.715437065384467 1.9757973392015244e-19 1.948595694437603e-11 1.7938992590913662e-11 1.5469643534623759e-12
3.8285932144167436 2.072911815304154e-19 2.1066359213918506e-11 1.92885789688502e-11 1.77778024506831e-12
3.94519561050918 2.1855640060032817e-19 2.2887665831133034e-11 2.086069382681605e-11 2.02697200431699e-12
4.06534921144712 2.3045338558682557e-19 2.4868545372996405e-11 2.2574886244544137e-11 2.293659128452269e-12
4.189162171576248 2.426550137206723e-19 2.6982729233577034e-11 2.4404977977806136e-11 2.5777512557709026e-12
4.316745939156006 2.549618171262266e-19 2.921467557537444e-11 2.6337167330280778e-11 2.8775082450936656e-12
4.448215356677963 2.6720767231629425e-19 3.1550348590149434e-11 2.836235969286649e-11 3.1879888972829453e-12
4.58368876423945 2.7930070602954492e-19 3.398259875367538e-11 3.047363452941623e-11 3.5089642242591528e-12
4.723288106065518 2.911835607793575e-19 3.650738473028427e-11 3.2665500746198056e-11 3.841883984086214e-12
4.867139040275056 3.027335943209853e-19 3.9111439750705876e-11 3.4934787843545424e-11 4.17665190716047e-12
4.940699165968905 3.08438397831364e-19 4.0450722452225654e-11 3.6105075058392604e-11 4.345647393833035e-12
5.015371051989984 3.1397549487861586e-19 4.179922750517487e-11 3.7284145989534984e-11 4.515081515639872e-12
5.091171501069577 3.1959059039785936e-19 4.318979513202071e-11 3.850094711638364e-11 4.688848015637066e-12
5.129500256944802 3.2232471518971727e-19 4.3887222511843145e-11 3.9111575430403184e-11 4.775647081439973e-12
5.168117569889187 3.250348680027407e-19 4.4589414552700684e-11 3.972606733016292e-11 4.863347222537778e-12
5.20702561229733 3.27924377125011e-19 4.532448198543633e-11 4.03646659685478e-11 4.959816016888531e-12
5.246226572918644 3.307667907411293e-19 4.606153168508494e-11 4.100507344097926e-11 5.05645824410567e-12
5.265937586045735 3.3216998618517245e-19 4.6430731818088576e-11 4.1325903763586794e-11 5.1048280545017906e-12
5.285722656980489 3.3356099408558164e-19 4.68003460544995e-11 4.164712450922118e-11 5.153221545278323e-12
5.305582063971359 3.349396839541437e-19 4.717034749261475e-11 4.1968715404240166e-11 5.20163208837458e-12
5.3255160863122235 3.363412986392341e-19 4.754570928830097e-11 4.2295214014970924e-11 5.250495273330046e-12
5.365609099470188 3.393795176811629e-19 4.8336376531819425e-11 4.298472437114469e-11 5.351652160674721e-12
5.406003951863644 3.4237907558655267e-19 4.913070622452441e-11 4.367775736302394e-11 5.4529488615004615e-12
5.446702915881641 3.4533980471626248e-19 4.99286426949271e-11 4.437431055744613e-11 5.554332137480967e-12
5.487708281020852 3.483265869381172e-19 5.073960409703028e-11 4.508336018195451e-11 5.656243915075764e-12
5.529022354014368 3.518491400606096e-19 5.163857781338993e-11 4.5876098352141854e-11 5.76247946124807e-12
5.570647458961463 3.5536954427933294e-19 5.2547893760952843e-11 4.667906470767916e-11 5.868829053273674e-12
5.612585937458331 3.588912344689435e-19 5.346816605088133e-11 4.749292744017267e-11 5.975238610708656e-12
5.654840148729818 3.625140838639623e-19 5.4414500842177794e-11 4.833224421815379e-11 6.082256624024e-12
5.67608639626678 3.6475280226702205e-19 5.495624708092741e-11 4.8817875426635895e-11 6.138371654291516e-12
5.686739436050992 3.658807700818685e-19 5.522965712522645e-11 4.9063214763858706e-11 6.166442361367737e-12
5.6974124697621304 3.670147702194687e-19 5.5504812161803256e-11 4.931029144533727e-11 6.194520716465999e-12
5.718818669136295 3.6930178443989834e-19 5.6060525631541836e-11 4.9809828711915816e-11 6.2506969196260154e-12
5.740305295436557 3.717341658977048e-19 5.664178126228284e-11 5.033441537768175e-11 6.3073658846010895e-12
5.7835210386641895 3.7766318971901535e-19 5.7978424491465785e-11 5.15540098030965e-11 6.424414688369298e-12
5.827062130521658 3.8409842624475147e-19 5.941028141317539e-11 5.286750310303353e-11 6.5427783101418575e-12
5.8489554468988025 3.884447140618391e-19 6.030828274087363e-11 5.3701210321380587e-11 6.607072419493043e-12
5.870931020387893 3.9296869293293972e-19 6.123988452592085e-11 5.4568399159420825e-11 6.671485366500016e-12
5.892989160043636 3.9768534527831674e-19 6.220777423771467e-11 5.547176414014659e-11 6.736010097568078e-12
5.915130176081913 4.0293567748259914e-19 6.326586684772297e-11 5.6462846807004275e-11 6.803020040718685e-12
5.95966208400165 4.173174462144335e-19 6.60172774084169e-11 5.905943013244089e-11 6.957847275975991e-12
6.004529249263818 4.373486019073506e-19 6.970695955274671e-11 6.257367260238015e-11 7.133286950366573e-12
6.027089341400364 4.510615412791329e-19 7.216271456305188e-11 6.492699549790067e-11 7.235719065151206e-12
6.049734195844842 4.669383411884894e-19 7.498342313050223e-11 6.763896791944531e-11 7.34445521105694e-12
6.095279466722835 5.122343403793806e-19 8.287656568898815e-11 7.526124493367632e-11 7.615320755311842e-12
6.141167624020661 5.803723269713429e-19 9.460782997584883e-11 8.663651737082645e-11 7.971312605022412e-12
6.164241091010745 6.236390951862935e-19 1.0204280354249259e-10 9.384593044564003e-11 8.196873096852574e-12
6.187401249150058 6.717742129093785e-19 1.1033188611524028e-10 1.0190381417093382e-10 8.428071944306479e-12
6.1990139391386085 6.9509410176818765e-19 1.1437619623118752e-10 1.0583055913076123e-10 8.54563710042628e-12
6.204828454712694 7.072815153767246e-19 1.1649077112418645e-10 1.0788579763952846e-10 8.604973484657974e-12
6.210648424152782 7.160772356429382e-19 1.180500691396789e-10 1.0939500930956084e-10 8.655059830118062e-12
6.233982942956859 7.453264888094523e-19 1.2333365413249518e-10 1.1450595038957649e-10 8.82770374291868e-12
6.239830258556775 7.487031407044722e-19 1.2400861690994065e-10 1.1515845336388717e-10 8.850163546053489e-12
6.245683058788269 7.485090933533806e-19 1.2409276335498746e-10 1.1522011964019343e-10 8.872643714794014e-12
6.257405133728602 7.465661547110564e-19 1.2400294646401055e-10 1.1509182851455028e-10 8.911117949460249e-12
6.269149208991335 7.393669836280639e-19 1.230376684576658e-10 1.1411664630800474e-10 8.921022149661063e-12
6.280915325867298 7.230572664514789e-19 1.2054940375260406e-10 1.1165374836608889e-10 8.895655386515149e-12
6.304513850009849 6.83539335310569e-19 1.1438907495638285e-10 1.0557597374397455e-10 8.813101212408317e-12
6.32820103803542 6.358386674858728e-19 1.0680624233906974e-10 9.810954106508151e-11 8.69670127398823e-12
6.3519772230701035 5.924872382599719e-19 9.989813157865128e-11 9.130696048829995e-11 8.591171090351331e-12
6.375842739491607 5.557676410863768e-19 9.405898470722705e-11 8.556214536774307e-11 8.496839339483978e-12
6.399797922933955 5.2699062576147295e-19 8.952381562191925e-11 8.108130679464318e-11 8.442508827276081e-12
6.42384311029221 5.028622712455306e-19 8.574590950442044e-11 7.734970823950221e-11 8.396201264918221e-12
6.447978639727206 4.855077696034912e-19 8.309773904463319e-11 7.471677650454405e-11 8.380962540089167e-12
6.472204850670314 4.709478679769501e-19 8.090856951553934e-11 7.25367100911471e-11 8.37185942439224e-12
6.496522083828205 4.615726008082926e-19 7.959584050688245e-11 7.12080216236457e-11 8.387818883236762e-12
