Dust emission spectrum from A.P. Jones, M. Kohler, N. Ysard, M. Bocchio, and L. Verstraete (2017), A&A, 602A, 46J 
inside the DustPedia framework.

lambda    nu*dP/dnu     j_nu    j_nu(carb.) j_nu(sil)
 (um)   (erg s-1 H-1) (Jy cm2 sr-1 H-1)
0.9927057738263894 3.929807537723688e-24 1.0355266070513984e-16 1.0355266070513418e-16 5.680335219697224e-30
1.0001793341362166 3.994731995596196e-24 1.0605593032039053e-16 1.060559303203837e-16 6.844019032604693e-30
1.0077091589558085 4.0595638687124724e-24 1.0858854585596706e-16 1.0858854585595882e-16 8.235602741518413e-30
1.0114953028030835 4.09193710145435e-24 1.0986573178711693e-16 1.098657317871079e-16 9.029825729638001e-30
1.0152956718711033 4.1242776318281494e-24 1.111501007368456e-16 1.1115010073683572e-16 9.897472135608092e-30
1.0229392996569957 4.188816219575417e-24 1.1373931369287488e-16 1.1373931369286303e-16 1.1879596708694794e-29
1.0267826658714554 4.2209360068404784e-24 1.1504208105133755e-16 1.150420810513245e-16 1.3009072450619015e-29
1.0306404723013447 4.253008890435661e-24 1.1635174911363306e-16 1.1635174911361887e-16 1.424135791243496e-29
1.03451277320114 4.285031775221813e-24 1.1766826152920025e-16 1.1766826152918467e-16 1.558535870608441e-29
1.0383996230291617 4.317001583225386e-24 1.189915612429853e-16 1.189915612429683e-16 1.7050709584428197e-29
1.0403485208654093 4.332965626406197e-24 1.196557383176914e-16 1.1965573831767357e-16 1.7832115232329043e-29
1.0423010764483396 4.348915254228629e-24 1.2032159050893804e-16 1.2032159050891937e-16 1.864783040705398e-29
1.0462171883269815 4.3807697463467814e-24 1.2165829090352522e-16 1.216582909035048e-16 2.0387986091196496e-29
1.0471985131304309 4.388723767996007e-24 1.2199350145610127e-16 1.2199350145608044e-16 2.0846779929377325e-29
1.048180758391296 4.396673854886979e-24 1.2232912433478155e-16 1.223291243347602e-16 2.1315469070113412e-29
1.0501480137395462 4.412562036592164e-24 1.2300160333925488e-16 1.2300160333923262e-16 2.228335080725313e-29
1.0521189612883777 4.4284339166319586e-24 1.2367572042948549e-16 1.2367572042946221e-16 2.3293306417360058e-29
1.0531058218030118 4.436351440642562e-24 1.2401305025800515e-16 1.2401305025798134e-16 2.3814636728422577e-29
1.0540936079674168 4.4442248237459076e-24 1.2434966902540108e-16 1.2434966902537677e-16 2.4347256945224172e-29
1.058054026499678 4.4756736228705134e-24 1.2570011832767183e-16 1.2570011832764526e-16 2.659420543812322e-29
1.0590464539527713 4.4835244093237355e-24 1.2603871940309982e-16 1.2603871940307263e-16 2.718625805331677e-29
1.06003981227728 4.491370538736671e-24 1.2637771404698127e-16 1.2637771404695346e-16 2.779093256101267e-29
1.0620293250338977 4.5070486437008384e-24 1.2705688015865692e-16 1.270568801586279e-16 2.903917703184119e-29
1.0660195594769086 4.538346963800467e-24 1.284198923799871e-16 1.284198923799554e-16 3.1698736725812385e-29
1.070024785945596 4.569565682817929e-24 1.2978909227376978e-16 1.2978909227373517e-16 3.4590755570827247e-29
1.0740450607676866 4.600701922963645e-24 1.3116441655616684e-16 1.3116441655612912e-16 3.773450688456898e-29
1.07808044048254 4.631752829473777e-24 1.3254580139094792e-16 1.3254580139090677e-16 4.115076901482116e-29
1.0861967418109137 4.693532466534479e-24 1.353249125584589e-16 1.3532491255841005e-16 4.8892136687401386e-29
1.0902777775684922 4.724130822676908e-24 1.3671888537351956e-16 1.3671888537346629e-16 5.326736632618158e-29
1.0943741465085532 4.7546304833557226e-24 1.3811855566844334e-16 1.3811855566838536e-16 5.801558202346061e-29
1.1026131145906286 4.815322875124627e-24 1.4093472076383493e-16 1.4093472076376622e-16 6.875367165782339e-29
1.1109141095355224 4.875588217453073e-24 1.4377286747336297e-16 1.4377286747328162e-16 8.137561817710322e-29
1.1192775983109025 4.9353495587774794e-24 1.4663078609769979e-16 1.466307860976036e-16 9.619258942541046e-29
1.1277040513999907 4.9943293131900884e-24 1.4950019149658168e-16 1.4950019149646813e-16 1.1356376735822893e-28
1.1361939428280308 5.052812369640332e-24 1.5238951057264652e-16 1.523895105725126e-16 1.3390314037586819e-28
1.1447477501889525 5.110779221444082e-24 1.5529817501808896e-16 1.5529817501793126e-16 1.5768729257747607e-28
1.1533659546722406 5.168242406008399e-24 1.582265781006318e-16 1.5822657810044627e-16 1.8546439531069402e-28
1.1707974979042381 5.2818433431360745e-24 1.6414843057468485e-16 1.6414843057442924e-16 2.5560947697332714e-28
1.1884924949847024 5.3931848523662276e-24 1.7014186254892074e-16 1.701418625485702e-16 3.5055236471149993e-28
1.2064549276569216 5.5031375305931486e-24 1.762344880174231e-16 1.7623448801694463e-16 4.784293368027781e-28
1.2246888378427687 5.610500478800867e-24 1.8238822482747167e-16 1.8238822482682185e-16 6.498087883194507e-28
1.2431983285522175 5.715022455415315e-24 1.8859396524064665e-16 1.885939652397683e-16 8.783717733362587e-28
1.2619875648066055 5.816664285996135e-24 1.94849146333076e-16 1.9484914633189422e-16 1.1817381663218183e-27
1.3004222497298317 6.009617686465955e-24 2.0744390012149334e-16 2.07443900119384e-16 2.10932886984505e-27
1.3400274889804893 6.188604883620613e-24 2.2012830839884236e-16 2.2012830839514537e-16 3.697033365617873e-27
1.3808389325824078 6.352961391544484e-24 2.3285666465296876e-16 2.328566646466031e-16 6.36572376302529e-27
1.4228933163050095 6.503486088020075e-24 2.456337214357299e-16 2.4563372142495686e-16 1.0773080285430381e-26
1.466228494730424 6.643800071126953e-24 2.585756608770182e-16 2.5857566085908954e-16 1.7928571827066303e-26
1.5108834753276823 6.771175046454953e-24 2.71559153077765e-16 2.715591530484118e-16 2.9353263260411074e-26
1.5568984535646726 6.883403194215193e-24 2.8446767901047234e-16 2.8446767896314404e-16 4.732837214044388e-26
1.6043148490894465 6.980688473480261e-24 2.9727425096118227e-16 2.9727425088589333e-16 7.528897480981249e-26
1.6531753430134553 7.06332558899226e-24 3.0995423745169185e-16 3.099542373336607e-16 1.1803112560030009e-25
1.7035239163302658 7.132295185088705e-24 3.225128159844443e-16 3.225128158020446e-16 1.8239983101191177e-25
1.755405889504358 7.193268237234833e-24 3.3517625147804873e-16 3.3517625120005504e-16 2.779936962762961e-25
1.8088679632656115 7.244843382100472e-24 3.4786064790850105e-16 3.478606474904924e-16 4.180085707902137e-25
1.8639582606462262 7.286071137004864e-24 3.6049481547373285e-16 3.604948148533629e-16 6.203700304146668e-25
1.9207263702978936 7.317638527518879e-24 3.7308336456815627e-16 3.7308336365908134e-16 9.090749981834977e-25
1.979223391128241 7.34114591180981e-24 3.8568087534091845e-16 3.856808740250769e-16 1.315841686703112e-24
2.039501978296691 7.358508779234855e-24 3.983670194908802e-16 3.983670176088669e-16 1.8820130991284695e-24
2.1016163906111602 7.375093831705959e-24 4.1142476528057127e-16 4.1142476261959197e-16 2.660979397907844e-24
2.1656225393682647 7.394012679771391e-24 4.250425289260026e-16 4.2504252520537736e-16 3.720625235835809e-24
2.231578038680979 7.415487506909411e-24 4.3925955717421893e-16 4.3925955202800667e-16 5.146212252622602e-24
2.299542257339062 7.441381175375044e-24 4.542180401811168e-16 4.54218033137479e-16 7.043637799725296e-24
2.369576372248914 7.47581367497327e-24 4.702173096922711e-16 4.702173001491022e-16 9.543168840923021e-24
2.4417434235010123 7.523650057282957e-24 4.876385677405247e-16 4.876385549374501e-16 1.280307468588373e-23
2.5161083711144245 7.59322257072898e-24 5.071365428066336e-16 5.071365257924069e-16 1.701422685140173e-23
2.5927381535095444 7.698166879837272e-24 5.298042198418158e-16 5.298041974373771e-16 2.2404438724826136e-23
2.6717017477616296 7.854762684889429e-24 5.570452507693269e-16 5.570452215276003e-16 2.924172642799014e-23
2.753070231689431 8.087520935340612e-24 5.910199508676047e-16 5.910199130287267e-16 3.7838878176616274e-23
2.836916847834745 8.451974771222638e-24 6.36464568131677e-16 6.364645195722e-16 4.855947704780646e-23
2.9233170693905177 9.07043336947695e-24 7.03839105807769e-16 7.038390439948866e-16 6.181288249959953e-23
2.967498994190263 9.595669201977559e-24 7.558494150309584e-16 7.558493456010613e-16 6.942989719764998e-23
3.0123486681368425 1.0209085977762612e-23 8.163220598155678e-16 8.16321981930255e-16 7.788531282541237e-23
3.0578761833420214 1.1581677397799974e-23 9.400712980182566e-16 9.400712107364163e-16 8.72818403716353e-23
3.1040917844459814 1.3350420036606583e-23 1.1000157851311e-15 1.1000156874916896e-15 9.763941024377147e-23
3.127460860933648 1.5221546574940555e-23 1.2636304925548811e-15 1.263630389316325e-15 1.032385558276885e-22
3.1510058709225794 1.7714572320239927e-23 1.4816625948955637e-15 1.4816624857809763e-15 1.0911458753975172e-22
3.162844764501044 2.0035213532037033e-23 1.6820592333856404e-15 1.6820591212139504e-15 1.1217168984618766e-22
3.1747281389236908 2.2733930413085864e-23 1.915801463586783e-15 1.9158013482849314e-15 1.1530185184549307e-22
3.1986289994194426 3.026144013468953e-23 2.569347793904983e-15 2.569347672101557e-15 1.218034259220329e-22
3.2227097969389145 4.800567795218603e-23 4.106607913326403e-15 4.1066077845822606e-15 1.287441426614508e-22
3.2348180950136065 6.483279139218684e-23 5.566907659183371e-15 5.5669075267169416e-15 1.3246643008165063e-22
3.240889293275058 7.741325011584044e-23 6.659612048540678e-15 6.659611914106486e-15 1.3443419555545663e-22
3.2469718861334385 9.19669018864654e-23 7.926464481612463e-15 7.926464345139072e-15 1.364733920195493e-22
3.2714166318528037 1.6959865144238777e-22 1.4727454341810907e-14 1.472745419686315e-14 1.4494775525358202e-22
3.2744851364798273 1.74451652964149e-22 1.5163084154718824e-14 1.5163084008765313e-14 1.459535077569659e-22
3.2775565192852394 1.79444046407898e-22 1.5611645337130834e-14 1.5611645190165492e-14 1.4696534712114075e-22
3.283707930232385 1.746429025706844e-22 1.5222461894836412e-14 1.5222461746053872e-14 1.487825389826878e-22
3.2898708863219004 1.5941703044735904e-22 1.3921402884556543e-14 1.3921402734112832e-14 1.504437127629336e-22
3.29141343181113 1.5582639024028532e-22 1.3614223637980865e-14 1.3614223487119566e-14 1.5086130201483597e-22
3.292184975758714 1.5406207688577608e-22 1.3463234487208444e-14 1.3463234336138007e-14 1.5107044196041316e-22
3.295272960557952 1.4292555573560825e-22 1.2501747333800938e-14 1.2501747181916108e-14 1.51884832380326e-22
3.3076538914384823 1.0434524059896104e-22 9.161406151492548e-15 9.161405996329092e-15 1.5516345533249715e-22
3.310756385682612 9.649316413533344e-23 8.479948332275466e-15 8.47994817628374e-15 1.5599172693457088e-22
3.313861789986515 8.92484020712338e-23 7.85062573604732e-15 7.850625579223857e-15 1.568234636669096e-22
3.3200813396944477 7.90884211729865e-23 6.9699724694167315e-15 6.9699723108053815e-15 1.5861135181614547e-22
3.345076488085796 6.096388909429628e-23 5.4131261739386014e-15 5.413126007340941e-15 1.6659766205690333e-22
3.3482140837626964 6.164350915663984e-23 5.478605202598345e-15 5.478605034915374e-15 1.6768297043730154e-22
3.3513546224236106 6.233064314636657e-23 5.544870735452771e-15 5.544870566678486e-15 1.6877428482197375e-22
3.3576445397418455 6.735248569249501e-23 6.00285397119749e-15 6.0028538001389525e-15 1.7105854135863777e-22
3.3702598118196083 8.587525033401667e-23 7.682469254230969e-15 7.682469078367456e-15 1.7586351346014299e-22
3.382922481734668 9.009391419520747e-23 8.090156722399497e-15 8.090156541845515e-15 1.805539845865193e-22
3.389271646505754 9.227947509491065e-23 8.301965552484069e-15 8.301965369544917e-15 1.8293915175446994e-22
3.395632727569191 9.46345213314346e-23 8.529817386820745e-15 8.52981720142126e-15 1.8539948673325017e-22
3.421196662673239 1.0594256819163503e-22 9.620950260192803e-15 9.620950064560009e-15 1.9563279234695046e-22
3.4276182099114902 1.0366363845502973e-22 9.431664035981469e-15 9.431663838036884e-15 1.979445873405254e-22
3.4340518103208963 9.36775961957314e-23 8.539098323318377e-15 8.539098123175688e-15 2.0014268999245015e-22
3.4469541582030403 7.9455620656738e-23 7.26991888437825e-15 7.269918679989804e-15 2.0438844695831883e-22
3.472904465399547 7.546963806120429e-23 6.9572007788919535e-15 6.957200564707059e-15 2.1418489145940075e-22
3.4990501388274233 6.937333388746876e-23 6.443356557621458e-15 6.443356333321034e-15 2.2430042533758668e-22
3.5253949054701885 4.7678350222805073e-23 4.4616800658319504e-15 4.461679831599253e-15 2.3423269701591513e-22
3.5519380250092896 2.7287571293448877e-23 2.5727624941226947e-15 2.572762249801392e-15 2.4432130320227543e-22
3.578680990867387 1.9202244960610995e-23 1.824082282921759e-15 1.8240820274708093e-15 2.554509500073996e-22
3.605625307711299 1.5931605349308274e-23 1.5247883535595488e-15 1.52478808628435e-15 2.67275199115527e-22
3.660119384959845 1.3544949781655882e-23 1.315958166694678e-15 1.3159578741968926e-15 2.9249778561550884e-22
3.715437065384467 1.1854388454713233e-23 1.1691184032255129e-15 1.1691180835908732e-15 3.196346397881687e-22
3.8285932144167436 1.0994276556633313e-23 1.1173141931520944e-15 1.1173138131889254e-15 3.7996316914835433e-22
3.94519561050918 1.0826606845441773e-23 1.1337840433082086e-15 1.133783594383569e-15 4.489246399086594e-22
4.06534921144712 1.0943210832321595e-23 1.1808971016714498e-15 1.1808965742267693e-15 5.274446801435815e-22
4.189162171576248 1.122437555619887e-23 1.2481270500247367e-15 1.2481264332282425e-15 6.167964942021292e-22
4.316745939156006 1.1625460279193404e-23 1.3320977011349552e-15 1.332096983069445e-15 7.180655103069992e-22
4.448215356677963 1.2131435374061707e-23 1.4324102733751361e-15 1.432409441718157e-15 8.316569786632767e-22
4.58368876423945 1.2744033908589429e-23 1.550570340387956e-15 1.550569380949063e-15 9.594388938796009e-22
4.723288106065518 1.347738160250419e-23 1.6897380951128062e-15 1.6897369909999964e-15 1.1041128102894817e-21
4.867139040275056 1.4359830070558914e-23 1.855207480011436e-15 1.8552062145501895e-15 1.2654612467178771e-21
4.940699165968905 1.4892649350259688e-23 1.9531239614823838e-15 1.9531226079074305e-15 1.3535749541639241e-21
5.015371051989984 1.5444355721806935e-23 2.0560908383510434e-15 2.0560893914166107e-15 1.4469344329585774e-21
5.091171501069577 1.611824198801827e-23 2.1782354996253547e-15 2.1782339522896723e-15 1.5473356823863119e-21
5.129500256944802 1.6464073898950165e-23 2.2417222155284043e-15 2.2417206157666927e-15 1.5997617117873056e-21
5.168117569889187 1.6824650764057533e-23 2.308064153956086e-15 2.3080624999451156e-15 1.654010970768077e-21
5.20702561229733 1.7267675083180355e-23 2.386673522412807e-15 2.3866718100746336e-15 1.7123381741612086e-21
5.246226572918644 1.7721997554585385e-23 2.467909036619101e-15 2.4679072641359397e-15 1.7724831627393962e-21
5.265937586045735 1.7953508472494636e-23 2.5095420168861425e-15 2.50954021363131e-15 1.803254832066453e-21
5.285722656980489 1.818798135142818e-23 2.5518685828752186e-15 2.5518667483730047e-15 1.8345022130295135e-21
5.305582063971359 1.842546409474329e-23 2.594901666476553e-15 2.5948998002438847e-15 1.866232668279918e-21
5.3255160863122235 1.868068942483411e-23 2.6407302115191226e-15 2.64072831291707e-15 1.89860205205233e-21
5.365609099470188 1.9317034522137576e-23 2.7512427989758495e-15 2.7512408329577677e-15 1.9660180820270827e-21
5.406003951863644 1.9977635716841286e-23 2.8667503987596068e-15 2.8667483631599794e-15 2.035599626607227e-21
5.446702915881641 2.0663667918502055e-23 2.987518027692139e-15 2.987515920274735e-15 2.107417403790027e-21
5.487708281020852 2.1405125121177863e-23 3.118015147344792e-15 3.1180129655871565e-15 2.181757635053249e-21
5.529022354014368 2.2436939691702312e-23 3.2929216651338815e-15 3.29291940473735e-15 2.260396530894601e-21
5.570647458961463 2.3529707239233565e-23 3.479298032533948e-15 3.4792956908596733e-15 2.341674273961924e-21
5.612585937458331 2.46878231132834e-23 3.6780297173015786e-15 3.678027291618247e-15 2.4256833312591533e-21
5.654840148729818 2.5961155992294928e-23 3.896850929346956e-15 3.896848416511437e-15 2.5128355186538488e-21
5.67608639626678 2.682904601245846e-23 4.0422545692380074e-15 4.042252010339971e-15 2.5588980376447254e-21
5.686739436050992 2.727642810510281e-23 4.117373458869224e-15 4.117370876636306e-15 2.582232917960027e-21
5.6974124697621304 2.7733054405575496e-23 4.1941581112227484e-15 4.194155505450003e-15 2.6057727464904206e-21
5.718818669136295 2.867493111474201e-23 4.352894511947064e-15 4.352891858472091e-15 2.653474971717133e-21
5.740305295436557 2.9713372055199425e-23 4.527478168306362e-15 4.527475465934877e-15 2.7023714848441352e-21
5.7835210386641895 3.2408574026116686e-23 4.975327522513582e-15 4.975324716898655e-15 2.805614925909177e-21
5.827062130521658 3.551410293721038e-23 5.493130680758623e-15 5.4931277671589946e-15 2.9135996276270663e-21
5.8489554468988025 3.769357045242451e-23 5.852144261630925e-15 5.852141288879562e-15 2.972751362527138e-21
5.870931020387893 4.0032612875757714e-23 6.238646064867717e-15 6.2386430317077886e-15 3.0331599268180687e-21
5.892989160043636 4.2544080465432e-23 6.6549411090131546e-15 6.6549380141569455e-15 3.0948562103722742e-21
5.915130176081913 4.540071612028354e-23 7.128471915920549e-15 7.128468756534458e-15 3.1593860918618523e-21
5.95966208400165 5.338983245656608e-23 8.445971794485977e-15 8.445968488058894e-15 3.3064270824397912e-21
6.004529249263818 6.490740572393329e-23 1.0345289514451047e-14 1.034528603783451e-14 3.476616535785486e-21
6.027089341400364 7.291462750896802e-23 1.1665187498538638e-14 1.166518392180594e-14 3.5767327004735525e-21
6.049734195844842 8.237778384428751e-23 1.3228659284707998e-14 1.3228655600042433e-14 3.6846655668913545e-21
6.095279466722835 1.0971547295992266e-22 1.7751331539246124e-14 1.775132758468193e-14 3.954564193516432e-21
6.141167624020661 1.517912187458929e-22 2.4743836236780817e-14 2.4743831922109495e-14 4.3146713043799284e-21
6.164241091010745 1.7866120874340587e-22 2.9233399197049426e-14 2.923339465493274e-14 4.542116698924634e-21
6.187401249150058 2.0927172101895377e-22 3.437069069770659e-14 3.4370685913364915e-14 4.784341682140493e-21
6.1990139391386085 2.242181360582177e-22 3.6894598102831294e-14 3.689459319432199e-14 4.908509315737557e-21
6.204828454712694 2.3209150514974112e-22 3.822596493542712e-14 3.8225959963250454e-14 4.9721766588448204e-21
6.210648424152782 2.3783876361732695e-22 3.9209293483421585e-14 3.920928845679138e-14 5.026630215453799e-21
6.233982942956859 2.5736454881733075e-22 4.258765886679406e-14 4.2587653645190494e-14 5.2216035705414446e-21
6.239830258556775 2.5986036358489113e-22 4.3040989847532174e-14 4.304098459632056e-14 5.251211616113849e-21
6.245683058788269 2.600763400950661e-22 4.3117167195738405e-14 4.3117161914740876e-14 5.280997527039969e-21
6.257405133728602 2.5953888363191184e-22 4.3108820416314006e-14 4.3108815081650175e-14 5.3346638320588506e-21
6.269149208991335 2.5569718136611524e-22 4.2550432631043434e-14 4.2550427270243316e-14 5.3608001343698775e-21
6.280915325867298 2.4606478242444417e-22 4.10243616682767e-14 4.1024356315608414e-14 5.3526682929329875e-21
6.304513850009849 2.2231147855149913e-22 3.7203424982320154e-14 3.720341967747192e-14 5.304848228506766e-21
6.32820103803542 1.9286915967280229e-22 3.239757388332119e-14 3.2397568662929216e-14 5.220391967157307e-21
6.3519772230701035 1.658683135607912e-22 2.7966736737634756e-14 2.7966731593367997e-14 5.1442667513176965e-21
6.375842739491607 1.431534061088645e-22 2.422750631839764e-14 2.4227501238295123e-14 5.080102511891887e-21
6.399797922933955 1.2494711313252147e-22 2.1225695053691218e-14 2.1225690002045653e-14 5.0516455665022036e-21
6.42384311029221 1.0981057648503015e-22 1.8724426731382707e-14 1.872442169908485e-14 5.032297861042326e-21
6.447978639727206 9.87794269325249e-23 1.6906726433896277e-14 1.6906721390285936e-14 5.04361033920928e-21
6.472204850670314 8.95900564114203e-23 1.5391519528907305e-14 1.539151446686629e-14 5.0620410192165135e-21
