Dust emission spectrum from A.P. Jones, M. Kohler, N. Ysard, M. Bocchio, and L. Verstraete (2017), A&A, 602A, 46J 
inside the DustPedia framework.

lambda    nu*dP/dnu     j_nu    j_nu(carb.) j_nu(sil)
 (um)   (erg s-1 H-1) (Jy cm2 sr-1 H-1)
0.9927057738263894 3.9201066624279366e-25 1.0329703713110962e-17 1.0329703710356631e-17 2.7543308538003434e-27
1.0001793341362166 3.9848323590641694e-25 1.0579310538910722e-17 1.0579310535593731e-17 3.3169910490151516e-27
1.0077091589558085 4.0494751296525854e-25 1.0831868398423331e-17 1.0831868394433932e-17 3.989397879036841e-27
1.0114953028030835 4.081757617945404e-25 1.0959241956916331e-17 1.0959241952543363e-17 4.372969260094548e-27
1.0152956718711033 4.1140100411174923e-25 1.1087338712935058e-17 1.1087338708143206e-17 4.791854641980479e-27
1.0229392996569957 4.178380684252878e-25 1.1345595663842673e-17 1.1345595658094397e-17 5.748275793383147e-27
1.0267826658714554 4.210420916748179e-25 1.1475549109955905e-17 1.1475549103662918e-17 6.29298708654927e-27
1.0306404723013447 4.2424171898022915e-25 1.1606198651813228e-17 1.1606198644926166e-17 6.887061762868743e-27
1.03451277320114 4.274366484844151e-25 1.1737538944720066e-17 1.1737538937185316e-17 7.534752080875719e-27
1.0383996230291617 4.306265800883306e-25 1.1869564578466982e-17 1.1869564570226325e-17 8.240656072605832e-27
1.0403485208654093 4.322195783921004e-25 1.1935832689899068e-17 1.1935832681282089e-17 8.61697606757642e-27
1.0423010764483396 4.338112155104002e-25 1.2002270078745248e-17 1.2002270069735503e-17 9.009743860884687e-27
1.0462171883269815 4.369902583446749e-25 1.2135649908566244e-17 1.2135649898718856e-17 9.847385830937487e-27
1.0471985131304309 4.377841106595323e-25 1.2169099575293719e-17 1.216909956522554e-17 1.0068177786102387e-26
1.048180758391296 4.385775904414234e-25 1.2202590949957313e-17 1.2202590939663604e-17 1.0293709702289924e-26
1.0501480137395462 4.401634141177244e-25 1.2269698469683985e-17 1.2269698458924608e-17 1.0759382775431011e-26
1.0521189612883777 4.417476928754832e-25 1.2336971758627911e-17 1.2336971747382707e-17 1.1245202690305203e-26
1.0531058218030118 4.425380289137419e-25 1.2370636446423981e-17 1.2370636434928044e-17 1.149594184334558e-26
1.0540936079674168 4.433239921669293e-25 1.2404231082646283e-17 1.2404231070894195e-17 1.175208657901606e-26
1.058054026499678 4.464635922593794e-25 1.2539012248173725e-17 1.2539012235341323e-17 1.2832403519985599e-26
1.0590464539527713 4.472474066711575e-25 1.2572807739367842e-17 1.2572807726250854e-17 1.311698746018623e-26
1.06003981227728 4.48030777915819e-25 1.2606643127604936e-17 1.2606643114197331e-17 1.3407609044949348e-26
1.0620293250338977 4.495961731277514e-25 1.2674433227766866e-17 1.267443321375941e-17 1.4007454798468887e-26
1.0660195594769086 4.527214504999774e-25 1.281048813919527e-17 1.281048812391015e-17 1.52851165819051e-26
1.070024785945596 4.558391423575008e-25 1.2947171047763457e-17 1.2947171031089577e-17 1.667388138706776e-26
1.0740450607676866 4.5894896898374565e-25 1.3084475967751803e-17 1.3084475949568903e-17 1.8182903069342823e-26
1.07808044048254 4.62050653011314e-25 1.322239686385712e-17 1.3222396844035076e-17 1.982204483838575e-26
1.0861967418109137 4.682230314326173e-25 1.3499904653532672e-17 1.3499904629998668e-17 2.353400200842686e-26
1.0902777775684922 4.7128075733560185e-25 1.363911844515791e-17 1.3639118419527337e-17 2.563057659802126e-26
1.0943741465085532 4.743290385904569e-25 1.3778913408950559e-17 1.3778913381045666e-17 2.790489613844163e-26
1.1026131145906286 4.803962162170992e-25 1.406022157689841e-17 1.4060221543853566e-17 3.3044841279857135e-26
1.1109141095355224 4.86422489160167e-25 1.434377821731233e-17 1.4343778178231175e-17 3.908115497719984e-26
1.1192775983109025 4.924002530220099e-25 1.4629366231397862e-17 1.4629366185237034e-17 4.6160824801394706e-26
1.1277040513999907 4.983019221025421e-25 1.4916163533850135e-17 1.491616347939682e-17 5.445331614887205e-26
1.1361939428280308 5.041559319012275e-25 1.5205012593846492e-17 1.5205012529692758e-17 6.415372733419028e-26
1.1447477501889525 5.099604024566727e-25 1.5495860103038098e-17 1.5495860027551715e-17 7.54863821557469e-26
1.1533659546722406 5.157166292890182e-25 1.5788748110407574e-17 1.578874802169859e-17 8.870898569349196e-26
1.1707974979042381 5.271029510735411e-25 1.6381235971802584e-17 1.638123584975252e-17 1.2205006111471829e-25
1.1884924949847024 5.382727615183958e-25 1.6981196215425383e-17 1.698119604833658e-17 1.670888060484643e-25
1.2064549276569216 5.493131363920499e-25 1.7591404687802432e-17 1.759140446017426e-17 2.276281699082934e-25
1.2246888378427687 5.601052502290811e-25 1.8208108651237988e-17 1.8208108342642964e-17 3.085950236118322e-25
1.2431983285522175 5.706245270062387e-25 1.8830432085127205e-17 1.8830431668776964e-17 4.163502426118554e-25
1.2619875648066055 5.808678727664843e-25 1.9458164263209893e-17 1.9458163704145775e-17 5.5906411590445515e-25
1.3004222497298317 6.003610653199973e-25 2.0723654543208246e-17 2.0723653549281152e-17 9.939270951817584e-25
1.3400274889804893 6.185151102365005e-25 2.200054576045723e-17 2.200054402557659e-17 1.7348806431436633e-24
1.3808389325824078 6.352699427981564e-25 2.3284706283772657e-17 2.3284703309313548e-17 2.9744591147728514e-24
1.4228933163050095 6.507114972311918e-25 2.4577078275041568e-17 2.4577073263365337e-17 5.011676230875696e-24
1.466228494730424 6.652072261604475e-25 2.5889761323812572e-17 2.588975302127727e-17 8.302535297453421e-24
1.5108834753276823 6.784933118492769e-25 2.7211092295004568e-17 2.7211078765498937e-17 1.3529505627742576e-23
1.5568984535646726 6.903577073237379e-25 2.853013969229873e-17 2.853011798281015e-17 2.1709488587459275e-23
1.6043148490894465 7.008287253040119e-25 2.984495514422548e-17 2.984492077947604e-17 3.4364749438715694e-23
1.6531753430134553 7.099442018516379e-25 3.115391056885563e-17 3.115385696811357e-17 5.360074205910195e-23
1.7035239163302658 7.178097535588011e-25 3.245839368024835e-17 3.2458311280432365e-17 8.23998159848297e-23
1.755405889504358 7.249988854559414e-25 3.3781919530683083e-17 3.378179462076224e-17 1.2490992084060716e-22
1.8088679632656115 7.313800912925562e-25 3.511716389245735e-17 3.511697710961936e-17 1.8678283799320205e-22
1.8639582606462262 7.368651279776082e-25 3.6458065443554444e-17 3.6457789818292394e-17 2.7562526204481143e-22
1.9207263702978936 7.415286035505987e-25 3.7806183688330615e-17 3.7805782168379786e-17 4.0151995083322697e-22
1.979223391128241 7.455354061710847e-25 3.9168101479517435e-17 3.916752382371385e-17 5.776558035817807e-22
2.039501978296691 7.490798306797526e-25 4.055287673919918e-17 4.0552055706617436e-17 8.210325817514136e-22
2.1016163906111602 7.527010858677756e-25 4.1989956283437226e-17 4.198880293468997e-17 1.1533487472593054e-21
2.1656225393682647 7.567111534111449e-25 4.349930629579737e-17 4.34977044528478e-17 1.6018429495755685e-21
2.231578038680979 7.611290427910905e-25 4.5085802649837264e-17 4.508360238986298e-17 2.200259974298307e-21
2.299542257339062 7.661376973037386e-25 4.6764646935404314e-17 4.676165703753676e-17 2.9898978675664044e-21
2.369576372248914 7.7214162463327905e-25 4.8566533787745597e-17 4.856251302707409e-17 4.020760671533931e-21
2.4417434235010123 7.796176495669355e-25 5.053021221422245e-17 5.05248596584804e-17 5.352555742044886e-21
2.5161083711144245 7.893858521131872e-25 5.2721543225186576e-17 5.271448726066191e-17 7.055964524673055e-21
2.5927381535095444 8.027897890653348e-25 5.5249700939417193e-17 5.524048730041301e-17 9.213639004180553e-21
2.6717017477616296 8.214224152150363e-25 5.825375935943342e-17 5.824183875917935e-17 1.1920600254089299e-20
2.753070231689431 8.476822309282472e-25 6.194693212914129e-17 6.193164716836722e-17 1.5284960774081187e-20
2.836916847834745 8.870276583510944e-25 6.679642222969083e-17 6.677699320619143e-17 1.942902349939225e-20
2.9233170693905177 9.514884173673316e-25 7.383271885551485e-17 7.38082337001553e-17 2.4485155359551747e-20
2.967498994190263 1.0050220882192609e-24 7.916543822885913e-17 7.913808453835171e-17 2.735369050744898e-20
3.0123486681368425 1.0672452442081194e-24 8.533730032032442e-17 8.530678274446994e-17 3.0517575854462974e-20
3.0578761833420214 1.2042976723687735e-24 9.775144283324053e-17 9.771743119240951e-17 3.4011640830988495e-20
3.1040917844459814 1.3802678796761515e-24 1.1372799141824812e-16 1.1369015800548967e-16 3.783341275843659e-20
3.127460860933648 1.5654625835106082e-24 1.2995829600747862e-16 1.299184085936713e-16 3.9887413807288505e-20
3.1510058709225794 1.811825376680641e-24 1.5154268703642695e-16 1.5150065293716603e-16 4.203409926090642e-20
3.162844764501044 2.040883198841941e-24 1.7134264246220282e-16 1.7129949525780113e-16 4.3147204401627513e-20
3.1747281389236908 2.3070498020158723e-24 1.944164210481395e-16 1.943721365681716e-16 4.4284479967877656e-20
3.1986289994194426 3.0488223188785626e-24 2.5886028107562435e-16 2.588136422808266e-16 4.6638794797723475e-20
3.2227097969389145 4.796282006387453e-24 4.102941669023724e-16 4.1024502741793275e-16 4.913948443961882e-20
3.2348180950136065 6.452889704886586e-24 5.540813583776648e-16 5.540308828339769e-16 5.0475543687944226e-20
3.240889293275058 7.691377639545234e-24 6.616643936476549e-16 6.616132133278681e-16 5.118031978695152e-20
3.2469718861334385 9.124202109429373e-24 7.863988289257466e-16 7.863469193285883e-16 5.1909597158577616e-20
3.2714166318528037 1.6763904919082742e-23 1.455728817337431e-15 1.455673889082174e-15 5.492825525705411e-20
3.2744851364798273 1.7241549754800093e-23 1.4986104484979124e-15 1.4985551631303388e-15 5.528536757389358e-20
3.2775565192852394 1.7732889635339255e-23 1.5427627125622768e-15 1.5427070681676486e-15 5.564439462843327e-20
3.283707930232385 1.7260681429095205e-23 1.5044989602538685e-15 1.504442671043689e-15 5.628921017919289e-20
3.2898708863219004 1.57626173009298e-23 1.3765012768430993e-15 1.3764443982659709e-15 5.687857712861425e-20
3.29141343181113 1.5409314511302888e-23 1.3462793660391552e-15 1.3462223394003458e-15 5.70266388090593e-20
3.292184975758714 1.5235710755513614e-23 1.3314239988653663e-15 1.331366898087522e-15 5.710077784422596e-20
3.295272960557952 1.4140211061690128e-23 1.2368491067257406e-15 1.2367917170811894e-15 5.738964455132687e-20
3.3076538914384823 1.0344249530871825e-23 9.082146031837953e-16 9.081560519797743e-16 5.855120402093898e-20
3.310756385682612 9.571449330441831e-24 8.411517698114176e-16 8.410929255498621e-16 5.884426155535998e-20
3.313861789986515 8.858332584719391e-24 7.79212312535953e-16 7.791531741461775e-16 5.913838977555608e-20
3.3200813396944477 7.858401425758239e-24 6.925519662525312e-16 6.924921963878311e-16 5.976986470026689e-20
3.345076488085796 6.075823667995689e-24 5.394865815498013e-16 5.394240004615308e-16 6.258108827041321e-20
3.3482140837626964 6.142883399957726e-24 5.459525814542045e-16 5.458896196449154e-16 6.296180928913432e-20
3.3513546224236106 6.210680958713358e-24 5.524958729262031e-16 5.524325285337245e-16 6.33443924787019e-20
3.3576445397418455 6.70533922606087e-24 5.976196986278552e-16 5.975555547847269e-16 6.414384312833648e-20
3.3702598118196083 8.528807382981906e-24 7.629939969917275e-16 7.629281759390142e-16 6.582105271351407e-20
3.382922481734668 8.944880939197284e-24 8.032228292858377e-16 8.031553729410654e-16 6.745634477233636e-20
3.389271646505754 9.160407982782966e-24 8.241203305669703e-16 8.240520443355299e-16 6.828623144047905e-20
3.395632727569191 9.392783748224897e-24 8.466120924906409e-16 8.465429509635413e-16 6.914152709957817e-20
3.421196662673239 1.0508872262686843e-23 9.543410081124776e-16 9.542683202769664e-16 7.268783551158727e-20
3.4276182099114902 1.0284933738655768e-23 9.357576205220053e-16 9.356841357272255e-16 7.348479477975874e-20
3.4340518103208963 9.302097331416046e-24 8.479244446033146e-16 8.478502033342796e-16 7.424126903469731e-20
3.4469541582030403 7.9021051370706e-24 7.230157273645342e-16 7.229400286416375e-16 7.56987228967936e-20
3.472904465399547 7.510332811315508e-24 6.923432340068685e-16 6.922641855783064e-16 7.904842856215973e-20
3.4990501388274233 6.910984000995184e-24 6.418883393244699e-16 6.418058502259656e-16 8.248909850432743e-20
3.5253949054701885 4.776668960969378e-24 4.469946754584126e-16 4.469088234343288e-16 8.585202408365118e-20
3.5519380250092896 2.7697720589504192e-24 2.611432726608181e-16 2.610540239607258e-16 8.92487000923124e-20
3.578680990867387 1.9745653140963532e-24 1.8757023531900575e-16 1.8747726073910904e-16 9.297457989675092e-20
3.605625307711299 1.6535621076343288e-24 1.5825977284314779e-16 1.5816286370702684e-16 9.690913612098348e-20
3.660119384959845 1.4206859449572718e-24 1.3802659306325696e-16 1.3792137134568716e-16 1.0522171756976128e-19
3.715437065384467 1.2561539086085175e-24 1.2388599019243153e-16 1.237719371664454e-16 1.1405302598610477e-19
3.8285932144167436 1.175437789191683e-24 1.194560932014028e-16 1.193228185124999e-16 1.3327468890285956e-19
3.94519561050918 1.1628244683710251e-24 1.2177331699843612e-16 1.2161871255750067e-16 1.5460444093545952e-19
4.06534921144712 1.1781095176886635e-24 1.2713143666948292e-16 1.2695332156985733e-16 1.7811509962561182e-19
4.189162171576248 1.209495319436926e-24 1.3449334597806023e-16 1.342893951079757e-16 2.0395087008455848e-19
4.316745939156006 1.2525631927610927e-24 1.4352434308253275e-16 1.4329220798183388e-16 2.3213510069888645e-19
4.448215356677963 1.3058109066268722e-24 1.5418265852834422e-16 1.539202395478198e-16 2.624189805244414e-19
4.58368876423945 1.369386894815009e-24 1.6661370480072238e-16 1.663187470458057e-16 2.949577549166623e-19
4.723288106065518 1.4446629229571765e-24 1.811258334530043e-16 1.8079576084848654e-16 3.300726045177506e-19
4.867139040275056 1.5344005828688414e-24 1.9823573292196944e-16 1.9786865393493847e-16 3.670789870309286e-19
4.940699165968905 1.5882143778802803e-24 2.0828930329677866e-16 2.0790286941657843e-16 3.8643388020022145e-19
5.015371051989984 1.6437992975564395e-24 2.1883727211886907e-16 2.1843094651957375e-16 4.0632559929531625e-19
5.091171501069577 1.7113877065266967e-24 2.3127866294289336e-16 2.3085151301747206e-16 4.271499254211827e-19
5.129500256944802 1.746014496479113e-24 2.377345673625439e-16 2.3729680605313085e-16 4.377613094130081e-19
5.168117569889187 1.7820709218187693e-24 2.444706919708704e-16 2.440221020582348e-16 4.485899126355099e-19
5.20702561229733 1.8262746674192068e-24 2.524208599238878e-16 2.519605514065425e-16 4.603085173453175e-19
5.246226572918644 1.8715549137883396e-24 2.606267871350683e-16 2.601545889620161e-16 4.721981730522475e-19
5.265937586045735 1.8946094609357954e-24 2.6482857404125713e-16 2.643503672407957e-16 4.782068004613682e-19
5.285722656980489 1.917946207784948e-24 2.69097849658107e-16 2.6861359189049287e-16 4.842577676141634e-19
5.305582063971359 1.941569715523327e-24 2.7343585293079597e-16 2.72945502007099e-16 4.903509236969718e-19
5.3255160863122235 1.966942611984061e-24 2.780499510304755e-16 2.775534257886369e-16 4.965252418385898e-19
5.365609099470188 2.0301407310741763e-24 2.8914428148246263e-16 2.8863497654457374e-16 5.093049378888158e-19
5.406003951863644 2.0956761895093436e-24 3.007253028886858e-16 3.002030315308481e-16 5.222713578377195e-19
5.446702915881641 2.163662388606139e-24 3.1281863497295605e-16 3.1228321139670873e-16 5.354235762472924e-19
5.487708281020852 2.237074376317627e-24 3.2586736828714394e-16 3.253185614323094e-16 5.488068548344839e-19
5.529022354014368 2.3392119440195874e-24 3.433107097333212e-16 3.4274792725500704e-16 5.627824783140598e-19
5.570647458961463 2.447266328952022e-24 3.618731349624177e-16 3.6129617060915215e-16 5.769643532654582e-19
5.612585937458331 2.5616643934999896e-24 3.816406866580636e-16 3.8104933482699134e-16 5.913518310722077e-19
5.654840148729818 2.6873437540825985e-24 4.0337872507216445e-16 4.0277272226993344e-16 6.060028022308267e-19
5.67608639626678 2.7730505282382308e-24 4.1780748235675705e-16 4.171938216088004e-16 6.136607479566515e-19
5.686739436050992 2.817212922545432e-24 4.252579432532793e-16 4.2464043176754507e-16 6.175114857342439e-19
5.6974124697621304 2.8622758454226786e-24 4.3287108870427947e-16 4.3224971197539963e-16 6.213767288798928e-19
5.718818669136295 2.955190064094362e-24 4.48601970839384e-16 4.479728201232237e-16 6.291507161603978e-19
5.740305295436557 3.0576146578457306e-24 4.658940622684286e-16 4.652570297009262e-16 6.37032567502445e-19
5.7835210386641895 3.323514544606424e-24 5.102221829300242e-16 5.095688206291018e-16 6.533623009223344e-19
5.827062130521658 3.629634617214413e-24 5.61412386257227e-16 5.607423175650739e-16 6.700686921530089e-19
5.8489554468988025 3.8446293309196574e-24 5.96900882749679e-16 5.962218329338137e-16 6.790498158655409e-19
5.870931020387893 4.075222716892508e-24 6.350790103335156e-16 6.343909004801946e-16 6.881098533211012e-19
5.892989160043636 4.3226685321806935e-24 6.761717306082278e-16 6.754744816148953e-16 6.97248993332268e-19
5.915130176081913 4.604075452835608e-24 7.228965833350568e-16 7.221898700285669e-16 7.06713306490059e-19
5.95966208400165 5.391370780337763e-24 8.528845933613428e-16 8.521565667644446e-16 7.280265968982714e-19
6.004529249263818 6.526165910732888e-24 1.040175231360048e-15 1.0394233461714054e-15 7.518851886429365e-19
6.027089341400364 7.315165033387151e-24 1.1703107402793685e-15 1.1695451970449495e-15 7.655432344190372e-19
6.049734195844842 8.247275258601125e-24 1.3243909866458725e-15 1.323610997625351e-15 7.799890205213512e-19
6.095279466722835 1.0940134361891104e-23 1.770050722132573e-15 1.7692356727543758e-15 8.150493781965828e-19
6.141167624020661 1.508370552804569e-23 2.458829585225177e-15 2.4579695831289253e-15 8.6000209625139515e-19
6.164241091010745 1.7730119713063996e-23 2.901086760964867e-15 2.9001988151298014e-15 8.879458350664524e-19
6.187401249150058 2.0743520884637977e-23 3.406906278764417e-15 3.4059895604629987e-15 9.167183014174745e-19
6.1990139391386085 2.2214857372910868e-23 3.655405620143306e-15 3.654474244703622e-15 9.313754396832672e-19
6.204828454712694 2.298979324203954e-23 3.78646788375961e-15 3.7855290968722446e-15 9.387868873657052e-19
6.210648424152782 2.3555456556339837e-23 3.883272832428357e-15 3.8823276659824566e-15 9.451664459001723e-19
6.233982942956859 2.5476758744577043e-23 4.215792405875429e-15 4.214824718326986e-15 9.676875484438438e-19
6.239830258556775 2.572207919483508e-23 4.2603794368995685e-15 4.25940841602305e-15 9.710208765176365e-19
6.245683058788269 2.5742912188990214e-23 4.267829394062441e-15 4.2668550314016e-15 9.743626608407456e-19
6.257405133728602 2.56891204412678e-23 4.266904689804676e-15 4.265924354905855e-15 9.80334898821636e-19
6.269149208991335 2.5309993288198304e-23 4.211822588531515e-15 4.210839468085335e-15 9.831204461790424e-19
6.280915325867298 2.4360713922219938e-23 4.061461898756039e-15 4.0604799431985376e-15 9.819555575012358e-19
6.304513850009849 2.2020285761570248e-23 3.685055107175017e-15 3.684079066318945e-15 9.760408560724055e-19
6.32820103803542 1.9120271482114967e-23 3.211764955381466e-15 3.2107986436787928e-15 9.663117026735629e-19
6.3519772230701035 1.646090832657949e-23 2.7754420344007765e-15 2.774484243294111e-15 9.577911066664018e-19
6.375842739491607 1.4223173144622818e-23 2.407152065714451e-15 2.406201564998728e-15 9.5050071572375e-19
6.399797922933955 1.2430174711677757e-23 2.1116061930485986e-15 2.110658412408283e-15 9.477806403157898e-19
6.42384311029221 1.0939034960531653e-23 1.8652771453069623e-15 1.864331175490406e-15 9.459698165557808e-19
6.447978639727206 9.852469585942559e-24 1.6863127592509546e-15 1.6853650099515023e-15 9.477492994524913e-19
6.472204850670314 8.947036158136811e-24 1.537095602679501e-15 1.5361453474519881e-15 9.502552275122532e-19
6.496522083828205 8.358460938772585e-24 1.4413739520077621e-15 1.440418257477172e-15 9.55694530589827e-19
