Dust emission spectrum from A.P. Jones, M. Kohler, N. Ysard, M. Bocchio, and L. Verstraete (2017), A&A, 602A, 46J 
inside the DustPedia framework.

lambda    nu*dP/dnu     j_nu    j_nu(carb.) j_nu(sil)
 (um)   (erg s-1 H-1) (Jy cm2 sr-1 H-1)
0.9927057738263894 2.51580797924164e-23 6.629296920342226e-16 6.62929684049014e-16 7.98520852330272e-24
1.0001793341362166 2.558158732510251e-23 6.791642207354494e-16 6.791642111234665e-16 9.61198296124103e-24
1.0077091589558085 2.600641112613338e-23 6.956408270563614e-16 6.956408155014845e-16 1.1554876753093815e-23
1.0114953028030835 2.6219291139952172e-23 7.039701580472726e-16 7.039701453845908e-16 1.2662682003346223e-23
1.0152956718711033 2.6432469924166237e-23 7.123603105963597e-16 7.123602967242636e-16 1.387209588159656e-23
1.0229392996569957 2.685947748328285e-23 7.293178728685007e-16 7.293178562363558e-16 1.6632144874399328e-23
1.0267826658714554 2.707281697725346e-23 7.378726424512994e-16 7.378726242479695e-16 1.820332962869149e-23
1.0306404723013447 2.728640615098496e-23 7.464882309161785e-16 7.4648821099984585e-16 1.9916332522541213e-23
1.03451277320114 2.7500235861978975e-23 7.551647491235998e-16 7.5516472734028975e-16 2.1783309994681223e-23
1.0383996230291617 2.771429714649373e-23 7.639023110455806e-16 7.639022872281795e-16 2.381740108186267e-23
1.0403485208654093 2.782141187773566e-23 7.682940199163656e-16 7.682939950148587e-16 2.490150702498461e-23
1.0423010764483396 2.792858122443697e-23 7.727010339681496e-16 7.727010079353482e-16 2.6032801661501018e-23
1.0462171883269815 2.8143079504222524e-23 7.815610386966709e-16 7.815610102518268e-16 2.8444843878314074e-23
1.0471985131304309 2.819673655471918e-23 7.837856296697707e-16 7.837856005892792e-16 2.9080491429566935e-23
1.048180758391296 2.825040633766668e-23 7.860140605033264e-16 7.860140307735981e-16 2.972972837851731e-23
1.0501480137395462 2.835778358758835e-23 7.904824497639947e-16 7.904824186939133e-16 3.107008108409636e-23
1.0521189612883777 2.846521023519549e-23 7.949662226623097e-16 7.949661901941328e-16 3.246817687350372e-23
1.0531058218030118 2.851886889815319e-23 7.972118461056534e-16 7.9721181291599225e-16 3.3189661306499504e-23
1.0540936079674168 2.857230079586925e-23 7.994546379104786e-16 7.994546039838414e-16 3.392663736280369e-23
1.058054026499678 2.8786135890071607e-23 8.084639302312966e-16 8.084638931970838e-16 3.703421294331645e-23
1.0590464539527713 2.883962093672791e-23 8.107257949520737e-16 8.107257570994241e-16 3.785264961526896e-23
1.06003981227728 2.889311625445337e-23 8.129914805378246e-16 8.129914418494494e-16 3.868837512337918e-23
1.0620293250338977 2.900013723350187e-23 8.175343228681217e-16 8.1753428245503425e-16 4.041308741531717e-23
1.0660195594769086 2.9214297326464063e-23 8.26665953164529e-16 8.266659090788338e-16 4.408569517356199e-23
1.070024785945596 2.942860888866869e-23 8.358589633369073e-16 8.358589152606927e-16 4.80762148259942e-23
1.0740450607676866 2.964306486374337e-23 8.45113500699235e-16 8.451134482885398e-16 5.2410695503418425e-23
1.07808044048254 2.9857658423690306e-23 8.544297178903731e-16 8.544296607731818e-16 5.711719158221453e-23
1.0861967418109137 3.02868960937172e-23 8.732381409466707e-16 8.732380731773174e-16 6.776935295558967e-23
1.0902777775684922 3.050076355319001e-23 8.827084923254683e-16 8.827084185429544e-16 7.378251432251024e-23
1.0943741465085532 3.071473032070873e-23 8.92240565169624e-16 8.922404848666407e-16 8.030298329523372e-23
1.1026131145906286 3.1142939820187605e-23 9.11490598064924e-16 9.114905030343263e-16 9.503059775674854e-23
1.1109141095355224 3.1571483258347254e-23 9.309897546702623e-16 9.309896423570833e-16 1.1231317884499896e-22
1.1192775983109025 3.199997875480269e-23 9.507294233255278e-16 9.507292907584642e-16 1.3256706371764077e-22
1.1277040513999907 3.242680874490539e-23 9.706636893532922e-16 9.706635330815252e-16 1.562717671348523e-22
1.1361939428280308 3.285382318415661e-23 9.90849782104668e-16 9.908495981258741e-16 1.8397879371728872e-22
1.1447477501889525 3.328099890070503e-23 1.0112897012597097e-15 1.0112894849381044e-15 2.1632160496134576e-22
1.1533659546722406 3.370848179633401e-23 1.0319906282647954e-15 1.0319903742376207e-15 2.5402717490075064e-22
1.1707974979042381 3.4565665509838876e-23 1.0742271924030046e-15 1.074226843422481e-15 3.4898052370396135e-22
1.1884924949847024 3.542388014533766e-23 1.1175372459175278e-15 1.1175367688869605e-15 4.770305675055309e-22
1.2064549276569216 3.6289031419761967e-23 1.162133208075687e-15 1.162132559222691e-15 6.488529962067497e-22
1.2246888378427687 3.7154945841194696e-23 1.207846722612654e-15 1.2078458443643468e-15 8.782483068045443e-22
1.2431983285522175 3.802071412634013e-23 1.2546717522646146e-15 1.2546705692708439e-15 1.1829937708631984e-21
1.2619875648066055 3.888735692927512e-23 1.3026655705506743e-15 1.3026639846780205e-15 1.5858726540545728e-21
1.3004222497298317 4.061664675699483e-23 1.4020318850071233e-15 1.4020290750977935e-15 2.80990932968897e-21
1.3400274889804893 4.2346323441310926e-23 1.5062562114310407e-15 1.5062513238470314e-15 4.887584009399849e-21
1.3808389325824078 4.4081072498606157e-23 1.6157144493295422e-15 1.6157060995074521e-15 8.349822090020363e-21
1.4228933163050095 4.5834675534676993e-23 1.7311549175327701e-15 1.731140900508919e-15 1.4017023851309704e-20
1.466228494730424 4.7638743975375146e-23 1.8540924734199925e-15 1.85406933962678e-15 2.3133793212106215e-20
1.5108834753276823 4.9486688872846384e-23 1.9846722654096467e-15 1.984634712687513e-15 3.755272213382477e-20
1.5568984535646726 5.1374292283779537e-23 2.123125040685435e-15 2.12306502066568e-15 6.002001975452043e-20
1.6043148490894465 5.331182041994653e-23 2.270296338666928e-15 2.2702017108257324e-15 9.462784119528457e-20
1.6531753430134553 5.531007321704164e-23 2.42712747011161e-15 2.4269804764983704e-15 1.469936132395792e-19
1.7035239163302658 5.738228702887258e-23 2.5947500064215563e-15 2.5945249783861753e-15 2.2502803538120447e-19
1.755405889504358 5.95710998547921e-23 2.7757644073939337e-15 2.775424743045074e-15 3.39664348859018e-19
1.8088679632656115 6.187314319744646e-23 2.970834639983485e-15 2.9703289417850973e-15 5.056981983882351e-19
1.8639582606462262 6.428396781071675e-23 3.1805944078896325e-15 3.179851504125436e-15 7.429037641957641e-19
1.9207263702978936 6.680819279412721e-23 3.4061569527679463e-15 3.4050796547064394e-15 1.0772980615068936e-18
1.979223391128241 6.945410658587779e-23 3.6489018125862295e-15 3.647359161391778e-15 1.5426511944518613e-18
2.039501978296691 7.222793065508142e-23 3.910197884149379e-15 3.90801574938062e-15 2.182134768758166e-18
2.1016163906111602 7.515833365954621e-23 4.192760185887017e-15 4.189709797267733e-15 3.0503886192846453e-18
2.1656225393682647 7.825508818850434e-23 4.498469508439851e-15 4.494254131895438e-15 4.215376544413182e-18
2.231578038680979 8.150159084172547e-23 4.827781405979525e-15 4.822020925794862e-15 5.7604801846613994e-18
2.299542257339062 8.489223757258377e-23 5.181778068889929e-15 5.173991373138849e-15 7.786695751080188e-18
2.369576372248914 8.843012804981014e-23 5.562120555054289e-15 5.551705574364982e-15 1.0414980689306663e-17
2.4417434235010123 9.212029569053189e-23 5.970693574042602e-15 5.956905512382241e-15 1.3788061660362556e-17
2.5161083711144245 9.598580183932914e-23 6.410704710667623e-15 6.392631907587255e-15 1.8072803080365973e-17
2.5927381535095444 1.0007478043282737e-22 6.887359263660947e-15 6.863897569535988e-15 2.346169412495839e-17
2.6717017477616296 1.0443107109054003e-22 7.40605853002396e-15 7.37588583555155e-15 3.0172694472411214e-17
2.753070231689431 1.0912789867820538e-22 7.974849874359126e-15 7.936400154180258e-15 3.844972017887116e-17
2.836916847834745 1.1438109013020004e-22 8.613313823417532e-15 8.56474985184401e-15 4.8563971573522e-17
2.9233170693905177 1.2068789703260557e-22 9.365027895480541e-15 9.304226944778503e-15 6.08009507020402e-17
2.967498994190263 1.2474038326431422e-22 9.825781166115896e-15 9.758097692562576e-15 6.76834735533187e-17
3.0123486681368425 1.2912940956934136e-22 1.0325232428448445e-14 1.0249986640065789e-14 7.524578838265664e-17
3.0578761833420214 1.3683654129662693e-22 1.1106863071275345e-14 1.1023295550104762e-14 8.356752117057894e-17
3.1040917844459814 1.4605723868902515e-22 1.2034472896736397e-14 1.1941845826225264e-14 9.262707051113273e-17
3.127460860933648 1.549401847950183e-22 1.2862499948027644e-14 1.2765020723163353e-14 9.747922486429479e-17
3.1510058709225794 1.6637333526624567e-22 1.391561383451319e-14 1.3813075867807254e-14 1.0253796670593642e-16
3.162844764501044 1.7682733828243232e-22 1.4845564615388977e-14 1.474040833344479e-14 1.051562819441836e-16
3.1747281389236908 1.8873602997510284e-22 1.5904894397395168e-14 1.5797066280434212e-14 1.0782811696095497e-16
3.1986289994194426 2.2124100594630056e-22 1.878446921294477e-14 1.867112025921713e-14 1.133489537276344e-16
3.2227097969389145 2.969735911268843e-22 2.5404371970026264e-14 2.528517182723201e-14 1.1920014279425862e-16
3.2348180950136065 3.682582137759386e-22 3.1620718880130116e-14 3.149839592991127e-14 1.223229502188508e-16
3.240889293275058 4.2153859223055836e-22 3.6263604532075715e-14 3.613963437458379e-14 1.2397015749193027e-16
3.2469718861334385 4.832758360664714e-22 4.1652688856818016e-14 4.152701431406177e-14 1.2567454275623642e-16
3.2714166318528037 8.085414975384125e-22 7.021139547504846e-14 7.007867661593728e-14 1.327188591111745e-16
3.2744851364798273 8.288855157214228e-22 7.204552445309503e-14 7.191197514627264e-14 1.3354930682239385e-16
3.2775565192852394 8.49783694680953e-22 7.393124441966332e-14 7.379686048776268e-14 1.3438393190062458e-16
3.283707930232385 8.297514048661281e-22 7.232391901897899e-14 7.218804190433847e-14 1.358771146405354e-16
3.2898708863219004 7.660302219719934e-22 6.689508211194422e-14 6.675784556102874e-14 1.3723655091550384e-16
3.29141343181113 7.50976624448677e-22 6.561124656981939e-14 6.547366864309906e-14 1.3757792672032574e-16
3.292184975758714 7.435758431473911e-22 6.49798843276617e-14 6.484213548523838e-14 1.377488424233241e-16
3.295272960557952 6.972933229324241e-22 6.099248588526422e-14 6.085407210810602e-14 1.3841377715821482e-16
3.3076538914384823 5.359782499571786e-22 4.7058346006370694e-14 4.6917261252671086e-14 1.4108475369960162e-16
3.310756385682612 5.028721693745733e-22 4.4193078880228827e-14 4.4051320828232714e-14 1.4175805199611331e-16
3.313861789986515 4.722193732024806e-22 4.153819539944933e-14 4.139576182315977e-14 1.4243357628955346e-16
3.3200813396944477 4.293639112117758e-22 3.783935241242798e-14 3.7695466112804196e-14 1.438862996237818e-16
3.345076488085796 3.5411390064407137e-22 3.144260073642934e-14 3.1292241230374577e-14 1.5035950605477042e-16
3.3482140837626964 3.5710905534169845e-22 3.173828932286332e-14 3.158705295178198e-14 1.5123637108132757e-16
3.3513546224236106 3.6013290870916225e-22 3.203705794733682e-14 3.188494073014564e-14 1.5211721719117045e-16
3.3576445397418455 3.8158221674662776e-22 3.4008875865305634e-14 3.385491711112062e-14 1.5395875418501724e-16
3.3702598118196083 4.596284644598041e-22 4.1118733661299314e-14 4.0960912155975253e-14 1.5782150532406521e-16
3.382922481734668 4.780768874545907e-22 4.292983582092305e-14 4.2768258214041145e-14 1.615776068818982e-16
3.389271646505754 4.875994468082266e-22 4.386710919897117e-14 4.370362745489645e-14 1.6348174407471598e-16
3.395632727569191 4.980312378146901e-22 4.4889702528463166e-14 4.472425844630916e-14 1.654440821540022e-16
3.421196662673239 5.485558876318794e-22 4.981594273130839e-14 4.9642373761575e-14 1.7356896973337501e-16
3.4276182099114902 5.392301045322464e-22 4.906095579735612e-14 4.888557190058141e-14 1.7538389677471274e-16
3.4340518103208963 4.971615591485282e-22 4.531832165369965e-14 4.514122031581875e-14 1.7710133788090816e-16
3.4469541582030403 4.368842052661108e-22 3.997341796462755e-14 3.97930185191078e-14 1.803994455197578e-16
3.472904465399547 4.2012820296842606e-22 3.872969761105766e-14 3.854170330592007e-14 1.8799430513758288e-16
3.4990501388274233 3.9470437927745093e-22 3.665992259597408e-14 3.646415258343138e-14 1.9577001254270848e-16
3.5253949054701885 3.044146258688625e-22 2.848673793534813e-14 2.8283407776545713e-14 2.0333015880241393e-16
3.5519380250092896 2.1862472068313875e-22 2.0612661918969152e-14 2.040172824613427e-14 2.109336728348829e-16
3.578680990867387 1.850075767275651e-22 1.7574457757792373e-14 1.7355189735180078e-14 2.1926802261230194e-16
3.605625307711299 1.7190990579912405e-22 1.645322090754681e-14 1.622517241680016e-14 2.2804849074665167e-16
3.660119384959845 1.6331548172344784e-22 1.5866898392839436e-14 1.562039043727499e-14 2.465079555644388e-16
3.715437065384467 1.574138929087342e-22 1.5524670869866752e-14 1.5258685306541868e-14 2.659855633248786e-16
3.8285932144167436 1.5626088290723646e-22 1.588030839568009e-14 1.5572399855066796e-14 3.079085406132958e-16
3.94519561050918 1.577693823784336e-22 1.6521927028187043e-14 1.6168212921252044e-14 3.5371410693500025e-16
4.06534921144712 1.602027592234622e-22 1.728770257153316e-14 1.6884333853966895e-14 4.033687175662659e-16
4.189162171576248 1.6305173267472977e-22 1.8131011127148243e-14 1.767402917879633e-14 4.569819483519083e-16
4.316745939156006 1.661108321787066e-22 1.903372876125142e-14 1.8519355431148345e-14 5.143733301030748e-16
4.448215356677963 1.6929897648944984e-22 1.9989851630738287e-14 1.9415083036308825e-14 5.747685944294568e-16
4.58368876423945 1.7261030608312e-22 2.100154652581248e-14 2.036329259603788e-14 6.382539297745943e-16
4.723288106065518 1.7609297036330573e-22 2.2077804805138185e-14 2.1372568821157158e-14 7.052359839810354e-16
4.867139040275056 1.7983146101333828e-22 2.3233190781090126e-14 2.2459215065568928e-14 7.739757155211951e-16
4.940699165968905 1.8194661700316966e-22 2.3861724601294815e-14 2.3052510712493496e-14 8.092138888013245e-16
5.015371051989984 1.8402569158012923e-22 2.4499146827139395e-14 2.3654222084828213e-14 8.449247423111836e-16
5.091171501069577 1.8652781582300036e-22 2.5207557399576797e-14 2.432568685115823e-14 8.81870548418562e-16
5.129500256944802 1.8776453758357596e-22 2.5565721933279226e-14 2.4665235824662215e-14 9.004861086170177e-16
5.168117569889187 1.8903211867161588e-22 2.59320840099928e-14 2.5012711172234803e-14 9.193728377580026e-16
5.20702561229733 1.9063917422314061e-22 2.6349434261488978e-14 2.540946320967897e-14 9.39971051810004e-16
5.246226572918644 1.922507806785238e-22 2.6772232502133766e-14 2.5811513491418697e-14 9.60719010715072e-16
5.265937586045735 1.9305854181419374e-22 2.698572945470472e-14 2.6014582794645836e-14 9.71146660058882e-16
5.285722656980489 1.938677488211042e-22 2.720065563573236e-14 2.6219046893191703e-14 9.816087425406479e-16
5.305582063971359 1.946785113518447e-22 2.7417034975971087e-14 2.642493074106492e-14 9.921042349061728e-16
5.3255160863122235 1.9555671459980375e-22 2.7644189813605357e-14 2.6641475545434447e-14 1.0027142681709024e-15
5.365609099470188 1.9783062156635856e-22 2.8176171263638237e-14 2.7151505305799945e-14 1.0246659578382889e-15
5.406003951863644 2.0014496982281897e-22 2.872039915942642e-14 2.76736273361604e-14 1.0467718232660213e-15
5.446702915881641 2.025028027994386e-22 2.927751144702703e-14 2.8208487714222356e-14 1.0690237328046682e-15
5.487708281020852 2.0503394346097011e-22 2.9866629501671496e-14 2.8775121997263214e-14 1.0915075044082726e-15
5.529022354014368 2.087474307017993e-22 3.0636483698050884e-14 2.952153551383684e-14 1.114948184214043e-15
5.570647458961463 2.126092674061997e-22 3.1438172955736696e-14 3.029962248460353e-14 1.1385504711331546e-15
5.612585937458331 2.1663172751487557e-22 3.227412671639649e-14 3.111182060726679e-14 1.1623061091296904e-15
5.654840148729818 2.21020652385404e-22 3.3175893049930224e-14 3.1989569980316405e-14 1.1863230696138295e-15
5.67608639626678 2.2414164930498025e-22 3.377077238001186e-14 3.2571882331205115e-14 1.1988900488067534e-15
5.686739436050992 2.2573967647143735e-22 3.4075376326247846e-14 3.2870185911823205e-14 1.20519041442464e-15
5.6974124697621304 2.2736355405866216e-22 3.438491413552547e-14 3.317341227693228e-14 1.2115018585931848e-15
5.718818669136295 2.306914500442905e-22 3.5019283667420825e-14 3.379512620523468e-14 1.2241574621861543e-15
5.740305295436557 2.3437210325375703e-22 3.5711684919845673e-14 3.4474734689040166e-14 1.2369502308055095e-15
5.7835210386641895 2.4411581368236855e-22 3.747638280894207e-14 3.621298518489058e-14 1.2633976240514894e-15
5.827062130521658 2.552106362090146e-22 3.947461036237524e-14 3.818433950185176e-14 1.2902708605234867e-15
5.8489554468988025 2.632051851586927e-22 4.086412338948044e-14 3.955933513259854e-14 1.3047882568818933e-15
5.870931020387893 2.7169546986650166e-22 4.234077548686494e-14 4.102140073816145e-14 1.3193747487034942e-15
5.892989160043636 2.8072056966602236e-22 4.3911605064162564e-14 4.2577575678861586e-14 1.3340293853009712e-15
5.915130176081913 2.909804377717392e-22 4.568751455907996e-14 4.433829227828226e-14 1.3492222807976924e-15
5.95966208400165 3.200469969125702e-22 5.06296383498216e-14 4.9245751482454064e-14 1.3838868673675351e-15
6.004529249263818 3.619536219582322e-22 5.769010436017726e-14 5.626718269768889e-14 1.4229216624883591e-15
6.027089341400364 3.911915422549812e-22 6.258446136456772e-14 6.1138962400283e-14 1.4454989642847277e-15
6.049734195844842 4.255259926226691e-22 6.833320964099732e-14 6.686378994924296e-14 1.4694196917543458e-15
6.095279466722835 5.24847037244788e-22 8.491722738985548e-14 8.338892985076741e-14 1.5282975390880828e-15
6.141167624020661 6.769037191456312e-22 1.1034363458565064e-13 1.087388210152941e-13 1.6048135703565356e-15
6.164241091010745 7.739542914945867e-22 1.2663809297308294e-13 1.2498520704255011e-13 1.6528859305328149e-15
6.187401249150058 8.834478297836008e-22 1.4509706307763463e-13 1.4339481655842959e-13 1.70224651920505e-15
6.1990139391386085 9.36716973891342e-22 1.5413470513753635e-13 1.524073428762731e-13 1.727362261263198e-15
6.204828454712694 9.646871438653056e-22 1.5888602605795824e-13 1.5714597835450245e-13 1.7400477034558148e-15
6.210648424152782 9.849610032564344e-22 1.6237733689426813e-13 1.6062649214527334e-13 1.750844748994777e-15
6.233982942956859 1.0531176010163445e-21 1.7426569954875017e-13 1.7247725736630903e-13 1.7884421824411513e-15
6.239830258556775 1.0614158668431104e-21 1.758036082092978e-13 1.7400998346966887e-13 1.7936247396289842e-15
6.245683058788269 1.061466983617591e-21 1.7597698194563307e-13 1.7417816647455528e-13 1.7988154710778356e-15
6.257405133728602 1.058059940011298e-21 1.7574135830965248e-13 1.739334775297953e-13 1.807880779857182e-15
6.269149208991335 1.0427335273027024e-21 1.735207344428852e-13 1.7170962011967303e-13 1.8111143232121907e-15
6.280915325867298 1.0065658242772091e-21 1.6781645878460808e-13 1.6600932172762872e-13 1.8071370569794218e-15
6.304513850009849 9.183156948360435e-22 1.536784752884707e-13 1.518858164884726e-13 1.7926587999980788e-15
6.32820103803542 8.103101695016222e-22 1.361134337359655e-13 1.3434219422089338e-13 1.7712395150721069e-15
6.3519772230701035 7.116190953985559e-22 1.1998472445547104e-13 1.1823269535459204e-13 1.7520291008790241e-15
6.375842739491607 6.284022378210865e-22 1.0635177744724884e-13 1.0461669372766252e-13 1.7350837195863055e-15
6.399797922933955 5.620990582896543e-22 9.548794607658524e-14 9.376157472874621e-14 1.7263713478390483e-15
6.42384311029221 5.067581597834304e-22 8.641021964481465e-14 8.469092048356448e-14 1.719299161250192e-15
6.447978639727206 4.664431549871494e-22 7.983470914159151e-14 7.811606113432198e-14 1.7186480072695254e-15
6.472204850670314 4.327011201165397e-22 7.433780050176224e-14 7.261852959261421e-14 1.7192709091480545e-15
6.496522083828205 4.105993278005389e-22 7.080575959364371e-14 6.908066234774018e-14 1.72509724590356e-15
6.520930681187647 3.918578195481535e-22 6.782776927809254e-14 6.609605755613756e-14 1.73171172195496e-15
6.57002334288761 3.7187478751855364e-22 6.485344946567984e-14 6.310130315752689e-14 1.7521463081529589e-15
