Dust emission spectrum from A.P. Jones, M. Kohler, N. Ysard, M. Bocchio, and L. Verstraete (2017), A&A, 602A, 46J 
inside the DustPedia framework.

lambda    nu*dP/dnu     j_nu    j_nu(carb.) j_nu(sil)
 (um)   (erg s-1 H-1) (Jy cm2 sr-1 H-1)
0.9927057738263894 8.75850303250515e-25 2.307915296369189e-17 2.3079152962984674e-17 7.072197531337357e-28
1.0001793341362166 8.902477628649378e-25 2.3635141183531693e-17 2.3635141182679745e-17 8.519376125901054e-28
1.0077091589558085 9.04622977716333e-25 2.419759779004698e-17 2.4197597789022034e-17 1.0249505161716525e-27
1.0114953028030835 9.118004759876076e-25 2.4481223453463103e-17 2.448122345233943e-17 1.1236743148913426e-27
1.0152956718711033 9.189702980994735e-25 2.4766431924867483e-17 2.4766431923635972e-17 1.2315094018010915e-27
1.0229392996569957 9.332770499598638e-25 2.5341357935847876e-17 2.5341357934370075e-17 1.4778023944783223e-27
1.0267826658714554 9.403965545500392e-25 2.5630612848339443e-17 2.563061284672133e-17 1.6181173534754686e-27
1.0306404723013447 9.475052414863148e-25 2.592138765314809e-17 2.5921387651376902e-17 1.7711811974016598e-27
1.03451277320114 9.5460242665711e-25 2.6213669790227745e-17 2.6213669788289655e-17 1.9380957231472868e-27
1.0383996230291617 9.616874298944806e-25 2.6507446547054885e-17 2.6507446544934834e-17 2.1200526795910087e-27
1.0403485208654093 9.65225151846292e-25 2.6654891394272682e-17 2.66548913920556e-17 2.217070770371291e-27
1.0423010764483396 9.687595751051549e-25 2.6802705061699362e-17 2.6802705059381023e-17 2.318340647667146e-27
1.0462171883269815 9.758181903986897e-25 2.709943232590014e-17 2.7099432323365794e-17 2.534352408180685e-27
1.0471985131304309 9.77580651845695e-25 2.7173842095979178e-17 2.7173842093387884e-17 2.5912984615752626e-27
1.048180758391296 9.793422155408588e-25 2.724834263474787e-17 2.72483426320984e-17 2.649470376548509e-27
1.0501480137395462 9.828626082127103e-25 2.7397615188144044e-17 2.7397615185374452e-17 2.7695928289481415e-27
1.0521189612883777 9.863792856652806e-25 2.754724832027191e-17 2.7547248317376987e-17 2.8949267720127585e-27
1.0531058218030118 9.88133490991098e-25 2.7622123702207912e-17 2.76221236992483e-17 2.9596191314747e-27
1.0540936079674168 9.898778434728647e-25 2.769683962740632e-17 2.7696839624380608e-17 3.0257098624218464e-27
1.058054026499678 9.968450859633545e-25 2.7996577904978545e-17 2.7996577901674043e-17 3.304495646543161e-27
1.0590464539527713 9.985843039778501e-25 2.807173004961691e-17 2.807173004623896e-17 3.37794586896934e-27
1.06003981227728 1.0003224647163986e-24 2.814696879502161e-17 2.8146968791568664e-17 3.452958829217638e-27
1.0620293250338977 1.0037955740547676e-24 2.829770522550686e-17 2.8297705221899065e-17 3.607800144769745e-27
1.0660195594769086 1.0107286630958759e-24 2.860020777949654e-17 2.860020777555887e-17 3.937669161786351e-27
1.070024785945596 1.0176437134706376e-24 2.89040716333489e-17 2.8904071629052594e-17 4.296309297756937e-27
1.0740450607676866 1.0245400907040871e-24 2.920928273245703e-17 2.9209282727770925e-17 4.686099748359056e-27
1.07808044048254 1.0314171655652949e-24 2.951582690429617e-17 2.9515826899186564e-17 5.10960490394491e-27
1.0861967418109137 1.0450987003908846e-24 3.0132504942440574e-17 3.0132504936371547e-17 6.0690252605054244e-27
1.0902777775684922 1.0518741477612445e-24 3.044180325083552e-17 3.04418032442244e-17 6.611122893043038e-27
1.0943741465085532 1.0586273474716536e-24 3.0752354096864274e-17 3.0752354089664945e-17 7.199327969579608e-27
1.1026131145906286 1.072064617787224e-24 3.137715402826844e-17 3.137715401973925e-17 8.529184816873949e-27
1.1109141095355224 1.0854057985710402e-24 3.200678504270667e-17 3.2006785032614894e-17 1.0091769365020663e-26
1.1192775983109025 1.0986338186361233e-24 3.2640755946785766e-17 3.264075593486035e-17 1.1925406317776374e-26
1.1277040513999907 1.1116869544456136e-24 3.327722345720002e-17 3.327722344312572e-17 1.407431180229497e-26
1.1361939428280308 1.1246286888193328e-24 3.3918064421880477e-17 3.3918064405291046e-17 1.6589424021862183e-26
1.1447477501889525 1.1374547434633398e-24 3.4563153321972935e-17 3.4563153302443574e-17 1.9529353091130506e-26
1.1533659546722406 1.150167974951434e-24 3.521257878808613e-17 3.521257876512465e-17 2.2961478363388442e-26
1.1707974979042381 1.1752975357655203e-24 3.6525741757357236e-17 3.6525741725734077e-17 3.1623165458343075e-26
1.1884924949847024 1.1999221221861053e-24 3.785462400622611e-17 3.785462396288886e-17 4.333724537069346e-26
1.2064549276569216 1.2242359852081717e-24 3.9205380724405244e-17 3.9205380665303883e-17 5.910136815952628e-26
1.2246888378427687 1.2479724993952473e-24 4.056955162168534e-17 4.056955154147536e-17 8.02099790801141e-26
1.2431983285522175 1.2710764242137573e-24 4.194512704656632e-17 4.1945126938229443e-17 1.0833687292266167e-25
1.2619875648066055 1.293539705053079e-24 4.333155480269691e-17 4.333155465706162e-17 1.4563529597685957e-25
1.3004222497298317 1.33617147563161e-24 4.6122837857113725e-17 4.6122837597598776e-17 2.5951493368800423e-25
1.3400274889804893 1.3757058023444654e-24 4.8933773737286834e-17 4.8933773283224413e-17 4.540624173347232e-25
1.3808389325824078 1.41200150746622e-24 5.175444037030643e-17 5.1754439589890227e-17 7.804162007180662e-25
1.4228933163050095 1.4452430821537575e-24 5.458617606680362e-17 5.458617474852516e-17 1.3182784622880652e-24
1.466228494730424 1.476242116390869e-24 5.745511255210117e-17 5.745511036245403e-17 2.1896471420345632e-24
1.5108834753276823 1.5043998605718809e-24 6.033421809721127e-17 6.033421451939457e-17 3.5778166924444646e-24
1.5568984535646726 1.5292341285571693e-24 6.319805348317368e-17 6.319804772625771e-17 5.756915968657102e-24
1.6043148490894465 1.5507988134966672e-24 6.604113010129379e-17 6.60411209626135e-17 9.138680282557797e-24
1.6531753430134553 1.5691683385592813e-24 6.885855248828643e-17 6.885853819263271e-17 1.4295653719947188e-23
1.7035239163302658 1.5845694538468704e-24 7.165210404520451e-17 7.165208200289447e-17 2.204231006605037e-23
1.755405889504358 1.5982702780635268e-24 7.447271851717307e-17 7.447268500046688e-17 3.3516706174972405e-23
1.8088679632656115 1.6099689192715999e-24 7.730254497344236e-17 7.730249469611456e-17 5.0277327797808203e-23
1.8639582606462262 1.6194639140821371e-24 8.012663256996411e-17 8.012655813727825e-17 7.443268583793603e-23
1.9207263702978936 1.6269169265817487e-24 8.294692865183167e-17 8.294681985865348e-17 1.0879317818938024e-22
1.979223391128241 1.6326923681035724e-24 8.577655712844751e-17 8.577640007203326e-17 1.5705641423550016e-22
2.039501978296691 1.6372239045027548e-24 8.863426363184984e-17 8.863403961371849e-17 2.240181313758953e-22
2.1016163906111602 1.6417108801367079e-24 9.158398915754087e-17 9.158367331830242e-17 3.1583923843886622e-22
2.1656225393682647 1.646851877140019e-24 9.466877011736072e-17 9.466832980908725e-17 4.403082734304709e-22
2.231578038680979 1.6527030065389373e-24 9.789856568652735e-17 9.789795853974511e-17 6.071467822739966e-22
2.299542257339062 1.659684488090764e-24 1.0130627873146046e-16 1.0130545038345242e-16 8.283480080402622e-22
2.369576372248914 1.668715805564328e-24 1.0495968610884821e-16 1.0495856755108894e-16 1.1185577592502476e-21
2.4417434235010123 1.6808812302997456e-24 1.0894479533798344e-16 1.0894329991116589e-16 1.4954268175591096e-21
2.5161083711144245 1.698033198288292e-24 1.1340832930018313e-16 1.1340634924386683e-16 1.9800563162982426e-21
2.5927381535095444 1.7231992454707013e-24 1.1859423758009117e-16 1.1859164019317187e-16 2.5973869193328213e-21
2.6717017477616296 1.7599888590276048e-24 1.2481515669649471e-16 1.2481178025971966e-16 3.3764367750696694e-21
2.753070231689431 1.8138317279607602e-24 1.325512165362107e-16 1.3254686588093828e-16 4.350655272437224e-21
2.836916847834745 1.8970290799877302e-24 1.4285321795310625e-16 1.42847659549173e-16 5.5584039332466854e-21
2.9233170693905177 2.0366677568628276e-24 1.5803946233061958e-16 1.5803242027352816e-16 7.042057091419318e-21
2.967498994190263 2.1543913607668745e-24 1.6970108238493655e-16 1.696931928623345e-16 7.889522602047972e-21
3.0123486681368425 2.2916929438355496e-24 1.8324456356342958e-16 1.832357363028845e-16 8.827260545054446e-21
3.0578761833420214 2.597166265257144e-24 2.108089681908508e-16 2.1079910213460812e-16 9.866056242711746e-21
3.1040917844459814 2.9904304456117775e-24 2.463982920005352e-16 2.463872853033244e-16 1.1006697210800455e-20
3.127460860933648 3.405601331321589e-24 2.827190828840115e-16 2.827074613918685e-16 1.1621492142940447e-20
3.1510058709225794 3.958519905006171e-24 3.3109412795113675e-16 3.310818626200556e-16 1.226533108116359e-20
3.162844764501044 4.4728698694777416e-24 3.7552043314421873e-16 3.755078334631864e-16 1.2599681032400011e-20
3.1747281389236908 5.070939504824488e-24 4.27331004739541e-16 4.2731806309377226e-16 1.2941645768657812e-20
3.1986289994194426 6.73881858808436e-24 5.721594410496182e-16 5.721457903965162e-16 1.3650653102139006e-20
3.2227097969389145 1.0669313936525008e-23 9.126980580325724e-16 9.126836528881342e-16 1.4405144438246766e-20
3.2348180950136065 1.4396274389299554e-23 1.236144988370118e-15 1.236130179739496e-15 1.4808630622254894e-20
3.240889293275058 1.7182567205524023e-23 1.4781607982552972e-15 1.4781457767642747e-15 1.5021491022408385e-20
3.2469718861334385 2.0405897424165533e-23 1.758748178206048e-15 1.758732936438149e-15 1.5241767898579114e-20
3.2714166318528037 3.759801134522658e-23 3.264902112843811e-15 3.2648859581430353e-15 1.6154700776547044e-20
3.2744851364798273 3.867272297862329e-23 3.3613768803755735e-15 3.361360617369039e-15 1.6263006534447695e-20
3.2775565192852394 3.9778288708369184e-23 3.4607140658288418e-15 3.4606976939057257e-15 1.6371923116300937e-20
3.283707930232385 3.8715095026740304e-23 3.374537700213713e-15 3.3745211320775295e-15 1.6568136183370308e-20
3.2898708863219004 3.534335365641801e-23 3.086427241566466e-15 3.0864104935367734e-15 1.6748029693037753e-20
3.29141343181113 3.4548207970766856e-23 3.0184041925133147e-15 3.0183873992745475e-15 1.6793238767466242e-20
3.292184975758714 3.415750077459666e-23 2.9849684732366272e-15 2.9849516573578846e-15 1.68158787429324e-20
3.295272960557952 3.1691463670850073e-23 2.772063186406005e-15 2.77204628221244e-15 1.69041935646162e-20
3.3076538914384823 2.3148149748907243e-23 2.0323840386776685e-15 2.032366779056421e-15 1.7259621247911353e-20
3.310756385682612 2.1409298962993366e-23 1.881477829681236e-15 1.8814604803220603e-15 1.7349359175215082e-20
3.313861789986515 1.9804909057027805e-23 1.7421144259712538e-15 1.7420969865201553e-15 1.7439451098958717e-20
3.3200813396944477 1.755500976538889e-23 1.5471030139478259e-15 1.5470853813170036e-15 1.7632630822054728e-20
3.345076488085796 1.3542145598044273e-23 1.2024387531227774e-15 1.202420261003157e-15 1.849211962025928e-20
3.3482140837626964 1.369275382142501e-23 1.2169520092267016e-15 1.2169334007177824e-15 1.860850891937872e-20
3.3513546224236106 1.3845024952948385e-23 1.2316393641719058e-15 1.2316206386700144e-15 1.8725501891321626e-20
3.3576445397418455 1.4957325643953465e-23 1.3330857906303662e-15 1.3330668207455493e-15 1.8969884816888284e-20
3.3702598118196083 1.905937643412306e-23 1.7050672095911662e-15 1.7050477268985188e-15 1.9482692648113868e-20
3.382922481734668 1.9993974829125963e-23 1.7953975173158175e-15 1.7953775335392675e-15 1.9983776549713114e-20
3.389271646505754 2.0478141985089828e-23 1.8423254918196837e-15 1.8423052535220042e-15 2.0238297679237418e-20
3.395632727569191 2.0999896720401343e-23 1.8928112241385586e-15 1.8927907235059933e-15 2.0500632566231216e-20
3.421196662673239 2.3505169260819632e-23 2.1345722326336254e-15 2.1345506429550357e-15 2.158967859020226e-20
3.4276182099114902 2.3000727259266766e-23 2.092682982439919e-15 2.092661146835099e-15 2.183560481975604e-20
3.4340518103208963 2.0789589551706292e-23 1.895056624985662e-15 1.8950345553774774e-15 2.2069608184545757e-20
3.4469541582030403 1.7640477080968963e-23 1.6140436183164164e-15 1.6140210966930369e-15 2.2521623379872194e-20
3.472904465399547 1.675846430684259e-23 1.5448861810367315e-15 1.544862621945289e-15 2.3559091442803697e-20
3.4990501388274233 1.5409255656642886e-23 1.4312030706834785e-15 1.4311784430247114e-15 2.462765876645606e-20
3.5253949054701885 1.0606346728671576e-23 9.925285910581106e-16 9.92502914484084e-16 2.567657402697149e-20
3.5519380250092896 6.0920444139734895e-24 5.743781010134635e-16 5.74351361255103e-16 2.673975836053211e-20
3.578680990867387 4.30271310316046e-24 4.0872839379300197e-16 4.0870048688221924e-16 2.7906910782759347e-20
3.605625307711299 3.5795684238870536e-24 3.4259474320643223e-16 3.425656012370101e-16 2.9141969422131165e-20
3.660119384959845 3.0532516025263513e-24 2.966383372465311e-16 2.966065750373466e-16 3.1762209184479e-20
3.715437065384467 2.681086780810641e-24 2.6441751154561726e-16 2.64382949309416e-16 3.4562236201231714e-20
3.8285932144167436 2.4950673208925945e-24 2.5356594553020267e-16 2.5352523067637064e-16 4.071485383197094e-20
3.94519561050918 2.462503289195768e-24 2.5787829702706977e-16 2.578306637729031e-16 4.763325416659003e-20
4.06534921144712 2.493010934745924e-24 2.6902427746172994e-16 2.6896890894414883e-16 5.536851758111214e-20
4.189162171576248 2.5600770831735733e-24 2.8467520902690216e-16 2.8461121106051333e-16 6.39979663887985e-20
4.316745939156006 2.6538003228949405e-24 3.0408441683178033e-16 3.0401085116441897e-16 7.356566736134453e-20
4.448215356677963 2.770835909478985e-24 3.271644038973758e-16 3.27080372703549e-16 8.403119382676311e-20
4.58368876423945 2.9115477804195234e-24 3.5424887169345204e-16 3.541533829440191e-16 9.548874943293094e-20
4.723288106065518 3.0790465745590875e-24 3.8603806340931766e-16 3.859299688341562e-16 1.0809457516147112e-19
4.867139040275056 3.2795887613060757e-24 4.2370401122021486e-16 4.2358233076464016e-16 1.2168045557465768e-19
4.940699165968905 3.4001590474238886e-24 4.45920128258369e-16 4.457912213238099e-16 1.2890693455909053e-19
5.015371051989984 3.5248947250957786e-24 4.692655285184936e-16 4.691291065303795e-16 1.3642198811414894e-19
5.091171501069577 3.6767181241509826e-24 4.968754003132005e-16 4.967310304305232e-16 1.4436988267728637e-19
5.129500256944802 3.754584772382928e-24 5.112183136442409e-16 5.110698555759723e-16 1.4845806826854766e-19
5.168117569889187 3.8357127717014634e-24 5.261964291198536e-16 5.26043777802213e-16 1.52651317640577e-19
5.20702561229733 3.935139920423082e-24 5.439003345743759e-16 5.4374316456294745e-16 1.5717001142845115e-19
5.246226572918644 4.037054897210681e-24 5.621874301396568e-16 5.620256472407237e-16 1.6178289893303232e-19
5.265937586045735 4.088969937001589e-24 5.715563550383835e-16 5.713922300537297e-16 1.6412498465367943e-19
5.285722656980489 4.141536905613142e-24 5.810792143473654e-16 5.809127233446656e-16 1.6649100269981102e-19
5.305582063971359 4.194766253412414e-24 5.907588479448358e-16 5.905899668630087e-16 1.6888108182686773e-19
5.3255160863122235 4.251932660607072e-24 6.010595636413289e-16 6.008882552640593e-16 1.7130837726957657e-19
5.365609099470188 4.394221123546768e-24 6.258501639788864e-16 6.256738257375004e-16 1.7633824138594748e-19
5.406003951863644 4.541856935263401e-24 6.51747302074348e-16 6.515658279303245e-16 1.814741440234127e-19
5.446702915881641 4.6950982372658364e-24 6.788093324446966e-16 6.786226150598547e-16 1.8671738484181438e-19
5.487708281020852 4.860612546450627e-24 7.080296638963647e-16 7.078375787531432e-16 1.92085143221397e-19
5.529022354014368 5.090624701792248e-24 7.471174144037455e-16 7.46919710779159e-16 1.9770362458655244e-19
5.570647458961463 5.334089109335528e-24 7.887427393285482e-16 7.885392966347182e-16 2.0344269383003117e-19
5.612585937458331 5.59197428855123e-24 8.331008982566537e-16 8.328915942414131e-16 2.0930401524026557e-19
5.654840148729818 5.8753615602366875e-24 8.819101954879396e-16 8.816948856410031e-16 2.1530984693651497e-19
5.67608639626678 6.068418508096733e-24 9.143110206382891e-16 9.140925708278493e-16 2.184498104394149e-19
5.686739436050992 6.1679143945100894e-24 9.310459172541854e-16 9.308258845359797e-16 2.2003271820544817e-19
5.6974124697621304 6.2694516708211764e-24 9.48149136173304e-16 9.479275118860201e-16 2.216242872838427e-19
5.718818669136295 6.47884702336479e-24 9.834980087275755e-16 9.832731751854515e-16 2.248335421238559e-19
5.740305295436557 6.7096606641307e-24 1.0223626627486732e-15 1.0221345666180991e-15 2.2809613057432177e-19
5.7835210386641895 7.308567437219545e-24 1.1220029826440978e-15 1.121768110484965e-15 2.3487215913255e-19
5.827062130521658 7.998295657158974e-24 1.2371334099525913e-15 1.2368915636587696e-15 2.4184629382148217e-19
5.8489554468988025 8.482370541055694e-24 1.3169369600982802e-15 1.3166913735562578e-15 2.4558654202206133e-19
5.870931020387893 9.001715433688452e-24 1.402819165007513e-15 1.402569792360393e-15 2.493726471201206e-19
5.892989160043636 9.559166860609836e-24 1.4952889288623311e-15 1.4950357238115707e-15 2.5320505075946207e-19
5.915130176081913 1.0193138257608065e-23 1.6004483191839272e-15 1.6001911457578996e-15 2.571734260273105e-19
5.95966208400165 1.196619437815101e-23 1.8929847792165264e-15 1.892718742672355e-15 2.660365441707585e-19
6.004529249263818 1.4521829029554174e-23 2.314566788096145e-15 2.314290860419837e-15 2.7592767630826873e-19
6.027089341400364 1.629852602079731e-23 2.6075064562186413e-15 2.607224904466254e-15 2.815517523872271e-19
6.049734195844842 1.839783287895553e-23 2.9544210996588766e-15 2.954133603823224e-15 2.8749583565446265e-19
6.095279466722835 2.4462427625499764e-23 3.957879880750102e-15 3.957578101698828e-15 3.017790512753621e-19
6.141167624020661 3.3795334489970334e-23 5.509055326757382e-15 5.508735412004149e-15 3.199147532333126e-19
6.164241091010745 3.975607398419056e-23 6.505078463654856e-15 6.504747366159927e-15 3.3109749492579222e-19
6.187401249150058 4.6545052405401304e-23 7.644537885697896e-15 7.644195242090227e-15 3.426436076689141e-19
6.1990139391386085 4.9860139941476907e-23 8.204375688923207e-15 8.204027156183645e-15 3.4853273956013462e-19
6.204828454712694 5.160629822460178e-23 8.499667168378582e-15 8.499315654456425e-15 3.515139221568894e-19
6.210648424152782 5.2881107237023303e-23 8.717800336032705e-15 8.717446231923267e-15 3.5410410943695254e-19
6.233982942956859 5.721212849569201e-23 9.467234794435852e-15 9.466871442430794e-15 3.633520050608387e-19
6.239830258556775 5.776574525280062e-23 9.567811037671773e-15 9.567446241358801e-15 3.647963129716024e-19
6.245683058788269 5.781375552439005e-23 9.58474485701962e-15 9.584378611518276e-15 3.662455013495506e-19
6.257405133728602 5.769478337502689e-23 9.582972773357352e-15 9.58260389566619e-15 3.688776911632744e-19
6.269149208991335 5.684301014699176e-23 9.459215236096517e-15 9.458844933673673e-15 3.70302422846855e-19
6.280915325867298 5.470693582547705e-23 9.120838418869257e-15 9.120468192507457e-15 3.702263617968474e-19
6.304513850009849 4.943911618532692e-23 8.273546926938995e-15 8.273178216943126e-15 3.687099958676741e-19
6.32820103803542 4.290975256972955e-23 7.207849515968423e-15 7.207483773735779e-15 3.6574223264608135e-19
6.3519772230701035 3.692172372276336e-23 6.22530069238187e-15 6.224937455936518e-15 3.6323644535249613e-19
6.375842739491607 3.188340437302239e-23 5.395997216524448e-15 5.395636018461537e-15 3.6119806291045885e-19
6.399797922933955 2.784586824387851e-23 4.730384664613677e-15 4.730023742405571e-15 3.6092220810446805e-19
6.42384311029221 2.4488442409371338e-23 4.175663768803433e-15 4.175302768902936e-15 3.6099990049759084e-19
6.447978639727206 2.204197957546375e-23 3.7726248300514346e-15 3.772262356897865e-15 3.6247315356786185e-19
6.472204850670314 2.0003624639348054e-23 3.4366110662054432e-15 3.436246828841636e-15 3.642373638088777e-19
6.496522083828205 1.8678927178340072e-23 3.2210857098607e-15 3.2207185579278938e-15 3.6715193280522507e-19
6.520930681187647 1.7562836726513495e-23 3.040000678634871e-15 3.0396304128531572e-15 3.7026578171248166e-19
