Dust emission spectrum from A.P. Jones, M. Kohler, N. Ysard, M. Bocchio, and L. Verstraete (2017), A&A, 602A, 46J 
inside the DustPedia framework.

lambda    nu*dP/dnu     j_nu    j_nu(carb.) j_nu(sil)
 (um)   (erg s-1 H-1) (Jy cm2 sr-1 H-1)
0.9927057738263894 5.591655457413133e-24 1.4734329729973116e-16 1.473432972531677e-16 4.65634164606675e-26
1.0001793341362166 5.683980448915772e-24 1.5090369894581748e-16 1.5090369888974202e-16 5.607548395955875e-26
1.0077091589558085 5.776187155191634e-24 1.545061942757673e-16 1.545061942083244e-16 6.744287622984363e-26
1.0114953028030835 5.82223502583349e-24 1.5632305577777128e-16 1.5632305570384392e-16 7.392735282565278e-26
1.0152956718711033 5.868240011715416e-24 1.581502330048121e-16 1.5815023292380332e-16 8.100883123959434e-26
1.0229392996569957 5.96005855630112e-24 1.6183402045548516e-16 1.618340203583075e-16 9.71776354786009e-26
1.0267826658714554 6.005760873412289e-24 1.6368768160766857e-16 1.6368768150128235e-16 1.063862673172658e-25
1.0306404723013447 6.051400486921246e-24 1.655512719062888e-16 1.655512717898594e-16 1.1642941319570393e-25
1.03451277320114 6.096973091146819e-24 1.6742471511507595e-16 1.6742471498769698e-16 1.2737895978822352e-25
1.0383996230291617 6.142474405486105e-24 1.6930793406329637e-16 1.693079339239838e-16 1.3931263925262942e-25
1.0403485208654093 6.165196998326241e-24 1.7025318507329072e-16 1.702531849276162e-16 1.4567452734029847e-25
1.0423010764483396 6.187900175261952e-24 1.71200850665947e-16 1.712008505136325e-16 1.5231447413787226e-25
1.0462171883269815 6.233246172552551e-24 1.73103385944004e-16 1.7310338577752872e-16 1.6647525363997414e-25
1.0471985131304309 6.2445697145781595e-24 1.7358051334271393e-16 1.7358051317250612e-16 1.7020785814728054e-25
1.048180758391296 6.255887942806342e-24 1.7405823566589974e-16 1.7405823549187914e-16 1.7402059419680882e-25
1.0501480137395462 6.2785081970030635e-24 1.7501546004471708e-16 1.7501545986282403e-16 1.8189304321986986e-25
1.0521189612883777 6.301106414535913e-24 1.759750489656787e-16 1.759750487755726e-16 1.9010608523330868e-25
1.0531058218030118 6.3123798004254954e-24 1.7645524343860377e-16 1.7645524324425881e-16 1.943449629229314e-25
1.0540936079674168 6.323590812768482e-24 1.769344386940911e-16 1.7693443849541584e-16 1.9867522483927882e-25
1.058054026499678 6.3683741986282475e-24 1.7885696272219504e-16 1.7885696250525654e-16 2.1693855277697813e-25
1.0590464539527713 6.379554559970367e-24 1.7933902298574786e-16 1.7933902276399827e-16 2.2174959445241666e-25
1.06003981227728 6.390728599992259e-24 1.798216523433091e-16 1.7982165211664637e-16 2.266627056950666e-25
1.0620293250338977 6.4130574625192236e-24 1.8078861309932882e-16 1.8078861286252545e-16 2.3680341467879503e-25
1.0660195594769086 6.457636549605699e-24 1.8272930592221147e-16 1.827293056638085e-16 2.584029613113043e-25
1.070024785945596 6.5021074371979936e-24 1.8467895653926629e-16 1.8467895625738548e-16 2.8188076315180674e-25
1.0740450607676866 6.5464661354438964e-24 1.8663747957117723e-16 1.8663747926378557e-16 3.0739157095581513e-25
1.07808044048254 6.590708688002016e-24 1.8860478893144185e-16 1.8860478859633966e-16 3.351021274870726e-25
1.0861967418109137 6.678751757907852e-24 1.9256317157338538e-16 1.9256317117553068e-16 3.978547221342639e-25
1.0902777775684922 6.722367292286067e-24 1.9454892291741532e-16 1.945489224841169e-16 4.332984218704225e-25
1.0943741465085532 6.765848108667063e-24 1.9654296415094289e-16 1.9654296367919583e-16 4.7174699379093455e-25
1.1026131145906286 6.852390597009445e-24 2.0055555575372705e-16 2.0055555519508657e-16 5.586404786003174e-25
1.1109141095355224 6.938349623313625e-24 2.0460021978591737e-16 2.0460021912522985e-16 6.606875468342538e-25
1.1192775983109025 7.023616718637497e-24 2.0867385955897135e-16 2.0867385877859817e-16 7.803731009401304e-25
1.1277040513999907 7.107798400019235e-24 2.1276474883536144e-16 2.1276474791479945e-16 9.205620428663708e-25
1.1361939428280308 7.191300273121806e-24 2.168849046496413e-16 2.1688490356508865e-16 1.0845526125680721e-24
1.1447477501889525 7.27409552276132e-24 2.2103356663348376e-16 2.2103356535734666e-16 1.2761371222260328e-24
1.1533659546722406 7.356202629018862e-24 2.2521133460213985e-16 2.252113331024676e-16 1.499672212199995e-24
1.1707974979042381 7.518617715708365e-24 2.3366260942373327e-16 2.3366260736041265e-16 2.0633206852739656e-24
1.1884924949847024 7.67794451492391e-24 2.4222047196162307e-16 2.4222046913689864e-16 2.8247244339638507e-24
1.2064549276569216 7.835425088061912e-24 2.5092451735339924e-16 2.509245135052249e-16 3.8481743248074446e-24
1.2246888378427687 7.989364515122457e-24 2.597212168359389e-16 2.597212116189772e-16 5.21696171042815e-24
1.2431983285522175 8.139412256211658e-24 2.685980753536203e-16 2.685980683149997e-16 7.038620546796911e-24
1.2619875648066055 8.285524195131174e-24 2.7755208775417183e-16 2.775520783028979e-16 9.451273880607318e-24
1.3004222497298317 8.563577112078473e-24 2.9560313613982787e-16 2.956031193369658e-16 1.6802862009345415e-23
1.3400274889804893 8.822529014344777e-24 3.1381683339770963e-16 3.1381680406863697e-16 2.932907271644164e-23
1.3808389325824078 9.061523422075658e-24 3.321342584495571e-16 3.3213420816475624e-16 5.028480086744015e-23
1.4228933163050095 9.281786499781222e-24 3.505688685508173e-16 3.505687838257862e-16 8.472503119307881e-23
1.466228494730424 9.488560145560625e-24 3.692932785669298e-16 3.6929313820818963e-16 1.4035874020047522e-22
1.5108834753276823 9.67808197751485e-24 3.881411612017168e-16 3.881409324782849e-16 2.2872343174832996e-22
1.5568984535646726 9.847328309832567e-24 4.0695663899310063e-16 4.069562719827406e-16 3.6701036001220016e-22
1.6043148490894465 9.996704258950295e-24 4.257119884306082e-16 4.257114074763858e-16 5.809542225014775e-22
1.6531753430134553 1.0126751144183743e-23 4.443840778981198e-16 4.443831717492919e-16 9.061488280012195e-22
1.7035239163302658 1.0238977562278241e-23 4.629928235886422e-16 4.62991430576273e-16 1.3930123691168284e-21
1.755405889504358 1.0341566639694083e-23 4.818738056730057e-16 4.818716940048828e-16 2.1116681230016858e-21
1.8088679632656115 1.0432645827216861e-23 5.009227591892268e-16 5.009196015267907e-16 3.1576624359352664e-21
1.8639582606462262 1.0510960429122946e-23 5.2005349235528e-16 5.200488327647859e-16 4.6595904939906276e-21
1.9207263702978936 1.05775795246119e-23 5.392885892339215e-16 5.392818013272827e-16 6.787906638782303e-21
1.979223391128241 1.0634860945449371e-23 5.587223749321557e-16 5.587126093559847e-16 9.765576171064366e-21
2.039501978296691 1.068558306311899e-23 5.784845821464884e-16 5.784707021574596e-16 1.3879989028594506e-20
2.1016163906111602 1.073744536010809e-23 5.989958958899876e-16 5.98976397920828e-16 1.949796915970541e-20
2.1656225393682647 1.079490748083514e-23 6.205419132873671e-16 6.205148332870604e-16 2.708000030670169e-20
2.231578038680979 1.0858251415020592e-23 6.431931418944739e-16 6.431559453385975e-16 3.7196555876223056e-20
2.299542257339062 1.0930098993220289e-23 6.671675629404781e-16 6.671170171393481e-16 5.054580112997857e-20
2.369576372248914 1.1016233992462537e-23 6.929043628009902e-16 6.92836389720204e-16 6.797308078620495e-20
2.4417434235010123 1.112347320823557e-23 7.209578465592493e-16 7.208673587800481e-16 9.048777920121272e-20
2.5161083711144245 1.126353133678713e-23 7.522693150009977e-16 7.521500301974887e-16 1.1928480350889005e-19
2.5927381535095444 1.1455591437776074e-23 7.883981705324933e-16 7.88242409103369e-16 1.5576142912459556e-19
2.6717017477616296 1.1722395339487418e-23 8.313306096521336e-16 8.311290856146978e-16 2.0152403743596672e-19
2.753070231689431 1.2098176267919373e-23 8.841106688464096e-16 8.838522685191116e-16 2.584003272978259e-19
2.836916847834745 1.266081589355928e-23 9.534056759522494e-16 9.530772180578834e-16 3.2845789436590157e-19
2.9233170693905177 1.358192911827121e-23 1.053917983446888e-15 1.0535040489754581e-15 4.139344714299155e-19
2.967498994190263 1.43464371753932e-23 1.1300666913949649e-15 1.1296042628232206e-15 4.624285717444463e-19
3.0123486681368425 1.5234960514048644e-23 1.218192732936764e-15 1.2176768172137416e-15 5.159157230224226e-19
3.0578761833420214 1.7190930347522986e-23 1.39536784274506e-15 1.3947928580098972e-15 5.749847351631054e-19
3.1040917844459814 1.9702097391614056e-23 1.6233660118213397e-15 1.6227264180151103e-15 6.395938062301914e-19
3.127460860933648 2.2344313663205792e-23 1.8549334616576414e-15 1.854259143879846e-15 6.74317777795327e-19
3.1510058709225794 2.5859054547202637e-23 2.162874336976105e-15 2.162163728347975e-15 7.106086281297924e-19
3.162844764501044 2.9126661502907133e-23 2.445333055239057e-15 2.4446036289811712e-15 7.29426257885634e-19
3.1747281389236908 3.2923594724885765e-23 2.774490368113717e-15 2.7737417156122784e-15 7.486525014390473e-19
3.1986289994194426 4.350493080856937e-23 3.693786465530796e-15 3.692998012094858e-15 7.884534359383941e-19
3.2227097969389145 6.843147459147306e-23 5.8539166004037454e-15 5.8530858714898725e-15 8.307289138730034e-19
3.2348180950136065 9.206177449511989e-23 7.904941103872597e-15 7.904087788172131e-15 8.533157004640427e-19
3.240889293275058 1.0972781912225408e-22 9.439530121693329e-15 9.438664891381022e-15 8.652303123068143e-19
3.2469718861334385 1.3016589331540152e-22 1.1218767936269132e-14 1.121789037713804e-14 8.775591310917882e-19
3.2714166318528037 2.3913976996780377e-22 2.076620311281414e-14 2.076527452167504e-14 9.285911391012064e-19
3.2744851364798273 2.4595301270606977e-22 2.137787843452066e-14 2.137694380620941e-14 9.346283112547576e-19
3.2775565192852394 2.529616025004064e-22 2.200767816599346e-14 2.20067374681404e-14 9.4069785305948e-19
3.283707930232385 2.4622617714717358e-22 2.1461900506475314e-14 2.146094890767511e-14 9.51598800194755e-19
3.2898708863219004 2.2485788289036565e-22 1.9636152867110894e-14 1.963519130475143e-14 9.615623594658558e-19
3.29141343181113 2.198183959868707e-22 1.9205070451114194e-14 1.92041063856939e-14 9.640654203014544e-19
3.292184975758714 2.1734212419860416e-22 1.8993174966758776e-14 1.899220964797897e-14 9.653187798118759e-19
3.295272960557952 2.017159480015892e-22 1.7644163089902327e-14 1.7643192887678407e-14 9.702022239216503e-19
3.3076538914384823 1.4757050261933834e-22 1.295654025727662e-14 1.2955550418276942e-14 9.8983899967528e-19
3.310756385682612 1.3654732547664788e-22 1.199996160690077e-14 1.1998966813608839e-14 9.947932919322734e-19
3.313861789986515 1.2637547568946252e-22 1.1116463027103262e-14 1.1115463261418568e-14 9.997656846972636e-19
3.3200813396944477 1.1211258472574257e-22 9.880354385939866e-15 9.879343944838356e-15 1.0104411015097383e-18
3.345076488085796 8.668658797990805e-23 7.697104717149253e-15 7.696046750829891e-15 1.057966319360802e-18
3.3482140837626964 8.764323674000204e-23 7.789347156668377e-15 7.788282754059299e-15 1.0644026090772611e-18
3.3513546224236106 8.861041033156309e-23 7.882692144699733e-15 7.881621274319959e-15 1.0708703797744907e-18
3.3576445397418455 9.566646139681631e-23 8.526363827582993e-15 8.525279442068138e-15 1.0843855148525167e-18
3.3702598118196083 1.2167696045560851e-22 1.0885319157878572e-14 1.0884206418250668e-14 1.112739627902767e-18
3.382922481734668 1.2761229624971605e-22 1.1459192172831529e-14 1.1458051787728476e-14 1.1403851030513688e-18
3.389271646505754 1.3068680829414664e-22 1.1757299003989807e-14 1.175614458921472e-14 1.1544147750824422e-18
3.395632727569191 1.3400165928918089e-22 1.2078147246759654e-14 1.2076978372760143e-14 1.1688739995131896e-18
3.421196662673239 1.4992257052503845e-22 1.3614901153732184e-14 1.3613672327517686e-14 1.2288262144980053e-18
3.4276182099114902 1.4672850322781601e-22 1.3349849258354267e-14 1.3348606959122811e-14 1.2422992314577706e-18
3.4340518103208963 1.327094445736774e-22 1.209701189684497e-14 1.2095756809017061e-14 1.255087827906116e-18
3.4469541582030403 1.127402385414503e-22 1.0315348145635479e-14 1.0314068418780975e-14 1.2797268544992207e-18
3.472904465399547 1.0715283496239993e-22 9.87792980080702e-15 9.876593445410706e-15 1.3363553963107077e-18
3.4990501388274233 9.860456350695625e-23 9.158336860594692e-15 9.156942338857473e-15 1.394521737220625e-18
3.5253949054701885 6.816140838546085e-23 6.378458894472824e-15 6.37700752070417e-15 1.4513737686533154e-18
3.5519380250092896 3.953575970234095e-23 3.727562216694968e-15 3.726053420326065e-15 1.5087963689030357e-18
3.578680990867387 2.81938279154976e-23 2.678221327448773e-15 2.6766495431157413e-15 1.571784333031269e-18
3.605625307711299 2.3616014837118817e-23 2.260250840489955e-15 2.2586125404078065e-15 1.6383000821483618e-18
3.660119384959845 2.0296340169576086e-23 1.9718887873869756e-15 1.9701099587291376e-15 1.7788286578380267e-18
3.715437065384467 1.795163427294346e-23 1.7704486466467632e-15 1.7685205200601322e-15 1.928126586630937e-18
3.8285932144167436 1.6805008164198463e-23 1.7078408061844802e-15 1.7055877272435504e-15 2.2530789409294377e-18
3.94519561050918 1.6630261615593523e-23 1.7415544431392488e-15 1.7389407734851428e-15 2.6136696541062343e-18
4.06534921144712 1.6853941167767845e-23 1.8187322333198453e-15 1.815721103574718e-15 3.0111297451275038e-18
4.189162171576248 1.73077932356437e-23 1.9245903529761867e-15 1.9211424558986943e-15 3.4478970774914706e-18
4.316745939156006 1.7928817492091487e-23 2.0543648158196005e-15 2.0504404494516073e-15 3.924366367993626e-18
4.448215356677963 1.86956111485681e-23 2.207470480656698e-15 2.203034149320365e-15 4.436331336333024e-18
4.58368876423945 1.961033081705977e-23 2.3859946974587433e-15 2.381008280971581e-15 4.986416487161647e-18
4.723288106065518 2.0692589970425605e-23 2.594350934834447e-15 2.5887708832857345e-15 5.580051548713223e-18
4.867139040275056 2.1981812133576897e-23 2.8399237382361823e-15 2.8337180742639334e-15 6.2056639722484464e-18
4.940699165968905 2.2754293370405597e-23 2.9841537635856563e-15 2.9776208949313895e-15 6.532868654267682e-18
5.015371051989984 2.3552226466098146e-23 3.1354831455570593e-15 3.1286139968952303e-15 6.8691486618294214e-18
5.091171501069577 2.4521595378232032e-23 3.3138731630918537e-15 3.3066519682084983e-15 7.221194883354907e-18
5.129500256944802 2.5018231440181618e-23 3.4064427526811884e-15 3.399042166752147e-15 7.400585929043439e-18
5.168117569889187 2.553531447179249e-23 3.5030233208910118e-15 3.4954396717105667e-15 7.583649180446577e-18
5.20702561229733 2.6168690067533608e-23 3.616938551342392e-15 3.609156792965773e-15 7.781758376619517e-18
5.246226572918644 2.681747564528761e-23 3.734516398643435e-15 3.7265336393632776e-15 7.982759280157253e-18
5.265937586045735 2.714780062902977e-23 3.7947204831286e-15 3.78663614483152e-15 8.084338297079579e-18
5.285722656980489 2.748216497916655e-23 3.855890988926147e-15 3.847704355836437e-15 8.186633089710125e-18
5.305582063971359 2.782063388508996e-23 3.918045638342973e-15 3.909755997234508e-15 8.289641108464368e-18
5.3255160863122235 2.8184073780855716e-23 3.984142845276739e-15 3.975748824062089e-15 8.394021214649555e-18
5.365609099470188 2.9088643398713507e-23 4.142971354685502e-15 4.134361285965664e-15 8.610068719838106e-18
5.406003951863644 3.0026613398611966e-23 4.308758411352268e-15 4.299929138461206e-15 8.829272891062368e-18
5.446702915881641 3.0999602490736636e-23 4.481869901201908e-15 4.4728182831186025e-15 9.051618083304474e-18
5.487708281020852 3.205005452566116e-23 4.668627486104551e-15 4.659349616634778e-15 9.277869469772695e-18
5.529022354014368 3.351037052276295e-23 4.918096078043957e-15 4.908581943284747e-15 9.514134759209181e-18
5.570647458961463 3.505515275364691e-23 5.183546177003499e-15 5.173792290164889e-15 9.753886838609493e-18
5.612585937458331 3.6690491376608793e-23 5.466205627216871e-15 5.456208512474101e-15 9.99711474276993e-18
5.654840148729818 3.848682849169513e-23 5.776993652362442e-15 5.76674885522136e-15 1.0244797141081206e-17
5.67608639626678 3.9711246545088656e-23 5.983178370281242e-15 5.9728041115268e-15 1.0374258754442857e-17
5.686739436050992 4.0342134678830235e-23 6.089640254974186e-15 6.079200897465695e-15 1.0439357508491037e-17
5.6974124697621304 4.098587294005128e-23 6.198424051066721e-15 6.187919349583279e-15 1.0504701483440256e-17
5.718818669136295 4.231313788668237e-23 6.423193309626062e-15 6.412557184785547e-15 1.0636124840515398e-17
5.740305295436557 4.377609313254577e-23 6.670239432372523e-15 6.6594700606760555e-15 1.0769371696467519e-17
5.7835210386641895 4.7573003545861966e-23 7.303353540937156e-15 7.292308106480521e-15 1.1045434456637693e-17
5.827062130521658 5.194373565815524e-23 8.03437801938863e-15 8.02305015457278e-15 1.1327864815850134e-17
5.8489554468988025 5.501270063703902e-23 8.541039134411846e-15 8.529559438960567e-15 1.1479695451278111e-17
5.870931020387893 5.830419335937486e-23 9.086072587758008e-15 9.074439727592837e-15 1.1632860165172387e-17
5.892989160043636 6.183609782970352e-23 9.672687362516121e-15 9.660900000366611e-15 1.1787362149509218e-17
5.915130176081913 6.585249785368978e-23 1.0339653680782385e-14 1.032770631942491e-14 1.1947361357473774e-17
5.95966208400165 7.708780092730803e-23 1.2194857379645534e-14 1.2182549705867331e-14 1.2307673778203999e-17
6.004529249263818 9.328051265220048e-23 1.4867547064627152e-14 1.485483604876605e-14 1.2711015861105565e-17
6.027089341400364 1.0453823627847699e-22 1.6724464879217584e-14 1.6711522966885698e-14 1.2941912331888643e-17
6.049734195844842 1.178375032033087e-22 1.8922968160733734e-14 1.8909782034765182e-14 1.318612596855312e-17
6.095279466722835 1.5625727121755322e-22 2.5281526406160638e-14 2.5267747566345295e-14 1.3778839815344356e-17
6.141167624020661 2.1537237348037276e-22 3.510834673675306e-14 3.509380794751881e-14 1.4538789234252076e-17
6.164241091010745 2.5312760419140317e-22 4.1417946028494715e-14 4.140293483561072e-14 1.5011192883987306e-17
6.187401249150058 2.9611774692647558e-22 4.8634241837146485e-14 4.8618744230536475e-14 1.549760661001251e-17
6.1990139391386085 3.171083636309156e-22 5.2179479487651027e-14 5.216373409438451e-14 1.5745393266524747e-17
6.204828454712694 3.2816381046476127e-22 5.404927812333639e-14 5.4033407435636e-14 1.5870687700393373e-17
6.210648424152782 3.362338941141843e-22 5.5430381628658576e-14 5.541440309115485e-14 1.597853750371883e-17
6.233982942956859 3.6364458560533273e-22 6.017445538510674e-14 6.015809611648081e-14 1.635926862592496e-17
6.239830258556775 3.671447329144274e-22 6.081063115569182e-14 6.079421553539591e-14 1.6415620295908936e-17
6.245683058788269 3.674424464692339e-22 6.091702687539348e-14 6.090055476047024e-14 1.6472114923249714e-17
6.257405133728602 3.666761080197737e-22 6.090407059774307e-14 6.088749751898539e-14 1.657307875768621e-17
6.269149208991335 3.612686666975988e-22 6.011852763450199e-14 6.010190746459638e-14 1.6620169905612342e-17
6.280915325867298 3.477276529017991e-22 5.797377769443562e-14 5.795717721758778e-14 1.660047684783746e-17
6.304513850009849 3.1434201447947185e-22 5.260456918678328e-14 5.25880687010841e-14 1.6500485699173844e-17
6.32820103803542 2.729737462512656e-22 4.58532983053664e-14 4.583696229613921e-14 1.633600922718612e-17
6.3519772230701035 2.3503856176885883e-22 3.9629399003763666e-14 3.9613207039708044e-14 1.6191964055623985e-17
6.375842739491607 2.0311783413328995e-22 3.437597989181761e-14 3.435991117566778e-14 1.6068716149819424e-17
6.399797922933955 1.7754204548945391e-22 3.016038724136687e-14 3.0144364509527134e-14 1.6022731839746247e-17
6.42384311029221 1.562722149256886e-22 2.6646865285566068e-14 2.66308731666575e-14 1.599211890856631e-17
6.447978639727206 1.4077413550777837e-22 2.409438758562575e-14 2.407836538361983e-14 1.6022202005914562e-17
6.472204850670314 1.2785990738823932e-22 2.1966257644631912e-14 2.195019307858985e-14 1.606456604206736e-17
6.496522083828205 1.1946605069920288e-22 2.06013110414028e-14 2.0585154521072058e-14 1.6156520330749642e-17
