Dust emission spectrum from A.P. Jones, M. Kohler, N. Ysard, M. Bocchio, and L. Verstraete (2017), A&A, 602A, 46J 
inside the DustPedia framework.

lambda    nu*dP/dnu     j_nu    j_nu(carb.) j_nu(sil)
 (um)   (erg s-1 H-1) (Jy cm2 sr-1 H-1)
0.9927057738263894 4.886234832721414e-26 1.2875506316818836e-18 1.2875506316818836e-18 5.526572139416391e-41
1.0001793341362166 4.9666226642026155e-26 1.318586047281831e-18 1.318586047281831e-18 7.750048650066256e-41
1.0077091589558085 5.046886614377402e-26 1.3499826490696418e-18 1.3499826490696418e-18 1.0848363147156179e-40
1.0114953028030835 5.086962241035057e-26 1.3658148092894968e-18 1.3658148092894968e-18 1.2826083681698227e-40
1.0152956718711033 5.126995058110847e-26 1.3817353438782162e-18 1.3817353438782162e-18 1.5157296862512294e-40
1.0229392996569957 5.206877178963372e-26 1.4138281695214e-18 1.4138281695214e-18 2.1138008255691977e-40
1.0267826658714554 5.246629241682613e-26 1.4299746442253508e-18 1.4299746442253508e-18 2.4944492284668483e-40
1.0306404723013447 5.286320909912642e-26 1.4462059687378237e-18 1.4462059687378237e-18 2.942235009014156e-40
1.03451277320114 5.325948352130347e-26 1.4625214384951584e-18 1.4625214384951584e-18 3.4687328245080903e-40
1.0383996230291617 5.365507758543672e-26 1.4789203402919615e-18 1.4789203402919615e-18 4.087463818090238e-40
1.0403485208654093 5.385260763884958e-26 1.4871508530068867e-18 1.4871508530068867e-18 4.436251758820739e-40
1.0423010764483396 5.40499534181854e-26 1.4954019524493102e-18 1.4954019524493102e-18 4.814214231680333e-40
1.0462171883269815 5.444407337789634e-26 1.5119655449831678e-18 1.5119655449831678e-18 5.667404669057079e-40
1.0471985131304309 5.454248087415464e-26 1.5161191662283294e-18 1.5161191662283294e-18 5.902901985837081e-40
1.048180758391296 5.464083820741068e-26 1.5202778535418216e-18 1.5202778535418216e-18 6.147995587351314e-40
1.0501480137395462 5.483740006154839e-26 1.5286103797728949e-18 1.5286103797728949e-18 6.668517810775251e-40
1.0521189612883777 5.503375430333056e-26 1.5369630301676173e-18 1.5369630301676173e-18 7.232216324473344e-40
1.0531058218030118 5.51317006373924e-26 1.5411426379159805e-18 1.5411426379159805e-18 7.531337313942526e-40
1.0540936079674168 5.522909702199648e-26 1.5453133465620734e-18 1.5453133465620734e-18 7.842575491442982e-40
1.058054026499678 5.561811430923878e-26 1.562044987844628e-18 1.562044987844628e-18 9.218711834231694e-40
1.0590464539527713 5.571522372380314e-26 1.566240039822722e-18 1.566240039822722e-18 9.598189706740994e-40
1.06003981227728 5.581227404137986e-26 1.5704399243570852e-18 1.5704399243570852e-18 9.992976721053891e-40
1.0620293250338977 5.600619512591598e-26 1.5788541426552652e-18 1.5788541426552652e-18 1.0830918477485085e-39
1.0660195594769086 5.639330333540008e-26 1.5957400355347643e-18 1.5957400355347643e-18 1.2718709313278208e-39
1.070024785945596 5.677940307893048e-26 1.6127018839384305e-18 1.6127018839384305e-18 1.4928038643051844e-39
1.0740450607676866 5.716445878146951e-26 1.6297388984049915e-18 1.6297388984049915e-18 1.7512321238867238e-39
1.07808044048254 5.754843515739532e-26 1.646850282725163e-18 1.646850282725163e-18 2.0533609055441683e-39
1.0861967418109137 5.831232843039464e-26 1.681273284501168e-18 1.681273284501168e-18 2.8186887199648495e-39
1.0902777775684922 5.869062583408085e-26 1.6985382596502686e-18 1.6985382596502686e-18 3.299928193562992e-39
1.0943741465085532 5.906767879937318e-26 1.7158730864609613e-18 1.7158730864609613e-18 3.861360855234697e-39
1.1026131145906286 5.981791749969171e-26 1.750748956636677e-18 1.750748956636677e-18 5.2789336955212556e-39
1.1109141095355224 6.056277998476166e-26 1.785894163374634e-18 1.785894163374634e-18 7.20214525884652e-39
1.1192775983109025 6.130131194141657e-26 1.8212812388950174e-18 1.8212812388950174e-18 9.805828869605599e-39
1.1277040513999907 6.203006694788048e-26 1.856807251929195e-18 1.856807251929195e-18 1.3323162604908568e-38
1.1361939428280308 6.275258613851136e-26 1.892576883771421e-18 1.892576883771421e-18 1.8064914869758963e-38
1.1447477501889525 6.346862896566891e-26 1.9285830637942467e-18 1.9285830637942467e-18 2.4443858731923685e-38
1.1533659546722406 6.417835323863435e-26 1.964830676145767e-18 1.964830676145767e-18 3.300729268497528e-38
1.1707974979042381 6.558116029320551e-26 2.038122647349253e-18 2.038122647349253e-18 5.98162130523909e-38
1.1884924949847024 6.695567296305917e-26 2.112288604599404e-18 2.112288604599404e-18 1.0751369148023604e-37
1.2064549276569216 6.831271853205131e-26 2.1876714708012715e-18 2.1876714708012715e-18 1.9168202478151285e-37
1.2246888378427687 6.963739486054341e-26 2.263798190235393e-18 2.263798190235393e-18 3.3897371746879585e-37
1.2431983285522175 7.092660078311821e-26 2.3405557873274445e-18 2.3405557873274445e-18 5.946188438430876e-37
1.2619875648066055 7.217986299112319e-26 2.4179123969933866e-18 2.4179123969933866e-18 1.0347236185914176e-36
1.3004222497298317 7.455765111025101e-26 2.573629594614591e-18 2.573629594614591e-18 3.0592998253065e-36
1.3400274889804893 7.676151255609399e-26 2.7304024456031746e-18 2.7304024456031746e-18 8.765708064606692e-36
1.3808389325824078 7.878333458730055e-26 2.8876650417952137e-18 2.8876650417952137e-18 2.4354877308909796e-35
1.4228933163050095 8.063315806604762e-26 3.0454778281702345e-18 3.0454778281702345e-18 6.566114124193601e-35
1.466228494730424 8.235600292945573e-26 3.205282768399359e-18 3.205282768399359e-18 1.719096530673155e-34
1.5108834753276823 8.391811816142203e-26 3.3655507263435188e-18 3.3655507263435188e-18 4.373368687596846e-34
1.5568984535646726 8.529223015354722e-26 3.524838232605219e-18 3.524838232605218e-18 1.0817465972768901e-33
1.6043148490894465 8.648096373723662e-26 3.682812062886833e-18 3.68281206288683e-18 2.6034322913199913e-33
1.6531753430134553 8.748805384863688e-26 3.839167920992818e-18 3.839167920992812e-18 6.100690951705044e-33
1.7035239163302658 8.832572294845702e-26 3.993970649381424e-18 3.993970649381409e-18 1.3929793989748487e-32
1.755405889504358 8.906428836564039e-26 4.150023790358587e-18 4.150023790358556e-18 3.101997718989193e-32
1.8088679632656115 8.968639895846076e-26 4.3062861686356075e-18 4.30628616863554e-18 6.741231829867635e-32
1.8639582606462262 9.018031689477448e-26 4.461874731531705e-18 4.4618747315315634e-18 1.43058872028436e-31
1.9207263702978936 9.055455632478204e-26 4.616844412794636e-18 4.6168444127943395e-18 2.966544080096334e-31
1.979223391128241 9.082893131846174e-26 4.7718683374525534e-18 4.7718683374519526e-18 6.015274706611644e-31
2.039501978296691 9.102714041272643e-26 4.927929245844598e-18 4.927929245843403e-18 1.1935077708694896e-30
2.1016163906111602 9.121556936126665e-26 5.088524305013755e-18 5.088524305011437e-18 2.3189727833716677e-30
2.1656225393682647 9.143266678934298e-26 5.255978533132895e-18 5.255978533128482e-18 4.415387691610492e-30
2.231578038680979 9.168111835986792e-26 5.430770049099174e-18 5.43077004909093e-18 8.242725185401116e-30
2.299542257339062 9.19838985904865e-26 5.614649372383969e-18 5.614649372368874e-18 1.5095494323622046e-29
2.369576372248914 9.239190746755439e-26 5.8113104546958934e-18 5.811310454668755e-18 2.713727673018952e-29
2.4417434235010123 9.296525495250173e-26 6.025458843714761e-18 6.025458843666845e-18 4.7916260051446186e-29
2.5161083711144245 9.380693632319801e-26 6.2651825275893976e-18 6.2651825275062436e-18 8.315351332637981e-29
2.5927381535095444 9.50855743488777e-26 6.5439914881636116e-18 6.543991488021686e-18 1.4192492202735027e-28
2.6717017477616296 9.700258020177355e-26 6.879243687109476e-18 6.879243686871112e-18 2.3836496791532016e-28
2.753070231689431 9.986124736992641e-26 7.29766142010808e-18 7.29766141971398e-18 3.941002097858285e-28
2.836916847834745 1.0434887165362887e-25 7.857851132989998e-18 7.857851132348121e-18 6.418777079465279e-28
2.9233170693905177 1.1197936979751307e-25 8.689271647418982e-18 8.689271646388454e-18 1.0305286012153086e-27
2.967498994190263 1.1846788258534764e-25 9.331697234168646e-18 9.331697232869458e-18 1.2991864557321137e-27
3.0123486681368425 1.2604773742614759e-25 1.0078820853789583e-17 1.0078820852157226e-17 1.632359923884692e-27
3.0578761833420214 1.4302412760959905e-25 1.1609102263151008e-17 1.160910226110405e-17 2.046957246952321e-27
3.1040917844459814 1.6490648251638178e-25 1.3587567532787083e-17 1.3587567530228196e-17 2.558889158001408e-27
3.127460860933648 1.8806157477251582e-25 1.5612102173091363e-17 1.5612102170228756e-17 2.862606075312893e-27
3.1510058709225794 2.189168928107599e-25 1.8310403751484495e-17 1.8310403748282256e-17 3.2022359104765118e-27
3.162844764501044 2.47638791193924e-25 2.0790550328107604e-17 2.0790550324713687e-17 3.3939181095769144e-27
3.1747281389236908 2.810432006370329e-25 2.368367305292797e-17 2.3683673049331656e-17 3.596314916200379e-27
3.1986289994194426 3.7422696034186566e-25 3.177374277941002e-17 3.1773742775365477e-17 4.0445502717277796e-27
3.2227097969389145 5.938883094626589e-25 5.0803707713502596e-17 5.0803707708886164e-17 4.616427131415842e-27
3.2348180950136065 8.022003646937113e-25 6.888142957471513e-17 6.888142956972949e-17 4.985631877867348e-27
3.240889293275058 9.579393860633182e-25 8.240843353886713e-17 8.240843353365441e-17 5.212720221343155e-27
3.2469718861334385 1.1381030232106177e-24 9.809108499742067e-17 9.809108499195026e-17 5.470434447730409e-27
3.2714166318528037 2.0991424346624433e-24 1.8228343268372435e-16 1.8228343267706722e-16 6.657143369934775e-27
3.2744851364798273 2.1592128164425188e-24 1.8767564014078854e-16 1.876756401340062e-16 6.78232558069797e-27
3.2775565192852394 2.2210086146213002e-24 1.9322791408394103e-16 1.932279140770313e-16 6.909763424882908e-27
3.283707930232385 2.161552038908128e-24 1.884081348949604e-16 1.8840813488790501e-16 7.055416605087222e-27
3.2898708863219004 1.9730428037460652e-24 1.7229980825978331e-16 1.7229980825266924e-16 7.114088904426679e-27
3.29141343181113 1.928588141355225e-24 1.6849668545540075e-16 1.6849668544827192e-16 7.128807537260415e-27
3.292184975758714 1.9067447712837683e-24 1.6662732634770878e-16 1.6662732634057257e-16 7.136174461157701e-27
3.295272960557952 1.7688680595777144e-24 1.5472349527595295e-16 1.5472349526880634e-16 7.1466294905873e-27
3.3076538914384823 1.2912387895087999e-24 1.1336945433589326e-16 1.1336945432871517e-16 7.178109056102061e-27
3.310756385682612 1.1940332089175053e-24 1.0493323552371593e-16 1.0493323551652993e-16 7.185977105938654e-27
3.313861789986515 1.1043474615948774e-24 9.714256392641561e-17 9.714256391922176e-17 7.193845310113043e-27
3.3200813396944477 9.785705772109273e-25 8.624031029299467e-17 8.624031028573234e-17 7.262312452283654e-27
3.345076488085796 7.541765026158896e-25 6.69650940373077e-17 6.696509402944793e-17 7.859767023026715e-27
3.3482140837626964 7.625847668190993e-25 6.777519528132425e-17 6.777519527335134e-17 7.972902961219802e-27
3.3513546224236106 7.710859955293505e-25 6.859502734615048e-17 6.859502733806293e-17 8.08756546463743e-27
3.3576445397418455 8.332378852402195e-25 7.426311437417068e-17 7.426311436579964e-17 8.371050213943914e-27
3.3702598118196083 1.0624980846762354e-24 9.505193680898205e-17 9.505193679992543e-17 9.056625120319862e-27
3.382922481734668 1.1146888069505011e-24 1.0009563049280618e-16 1.0009563048318765e-16 9.618510553206746e-27
3.389271646505754 1.1417271047681061e-24 1.0271600574638452e-16 1.0271600573647285e-16 9.911631186383413e-27
3.395632727569191 1.170860107891595e-24 1.0553466922340842e-16 1.0553466921318018e-16 1.0228273385765083e-26
3.421196662673239 1.3107397669344805e-24 1.1903205969976707e-16 1.1903205968814727e-16 1.1619774996898878e-26
3.4276182099114902 1.2825189706101488e-24 1.1668785922283834e-16 1.1668785921097114e-16 1.1867194105352548e-26
3.4340518103208963 1.158914248083046e-24 1.0563980198636492e-16 1.0563980197431152e-16 1.2053414161730066e-26
3.4469541582030403 9.82881174678042e-25 8.993028251281837e-17 8.993028250048117e-17 1.2337235093659953e-26
3.472904465399547 9.335187912197921e-25 8.605682799376305e-17 8.605682798026197e-17 1.3501062074845753e-26
3.4990501388274233 8.58039712545654e-25 7.969424991883427e-17 7.969424990411234e-17 1.4721960429196083e-26
3.5253949054701885 5.895172860828018e-25 5.516628640646455e-17 5.516628639080992e-17 1.5654633906800148e-26
3.5519380250092896 3.371685254618125e-25 3.1789363999391915e-17 3.178936398285721e-17 1.6534706988546527e-26
3.578680990867387 2.371052739431542e-25 2.2523383608228702e-17 2.2523383590340276e-17 1.788842077183882e-26
3.605625307711299 1.9662101504892758e-25 1.8818281474985113e-17 1.8818281455440388e-17 1.954472877611235e-26
3.660119384959845 1.6706173826952611e-25 1.623086555224683e-17 1.6230865528764527e-17 2.348230676454844e-26
3.715437065384467 1.4612199622959895e-25 1.441102723777798e-17 1.441102720963549e-17 2.814248778145916e-26
3.8285932144167436 1.3542868726117586e-25 1.3763197028691479e-17 1.3763196988361857e-17 4.032962180213637e-26
3.94519561050918 1.3329927433385258e-25 1.3959368099518227e-17 1.3959368042250084e-17 5.726813933184226e-26
4.06534921144712 1.3468234278865038e-25 1.4533758938069953e-17 1.4533758857511086e-17 8.055886777566151e-26
4.189162171576248 1.38095776397872e-25 1.5355961064681414e-17 1.5355960952402055e-17 1.1227936386342795e-25
4.316745939156006 1.4298631811861093e-25 1.6384017585991726e-17 1.6384017430883192e-17 1.551085341514358e-25
4.448215356677963 1.4916690363197865e-25 1.7612771994553116e-17 1.7612771782089387e-17 2.1246373044383696e-25
4.58368876423945 1.566576288513442e-25 1.906057961197666e-17 1.9060579323290648e-17 2.886860138901538e-25
4.723288106065518 1.6563151962750012e-25 2.0766191588283658e-17 2.0766191199007992e-17 3.8927566229739914e-25
4.867139040275056 1.7643712299702494e-25 2.2794661825899878e-17 2.279466130469349e-17 5.212063882809714e-25
4.940699165968905 1.8296674887633007e-25 2.3995511676950815e-17 2.3995511075253553e-17 6.01697264020357e-25
5.015371051989984 1.8972670919290836e-25 2.5258117307621286e-17 2.5258116614261632e-17 6.933596528999104e-25
5.091171501069577 1.9799163532609107e-25 2.6756789544217143e-17 2.6756788746046508e-17 7.981706341931483e-25
5.129500256944802 2.0223265320989506e-25 2.753567763290842e-17 2.7535676777111725e-17 8.55796692065506e-25
5.168117569889187 2.0665482689240802e-25 2.8349628463689874e-17 2.834962754644476e-17 9.172451126135335e-25
5.20702561229733 2.120935275749211e-25 2.93147748089874e-17 2.9314773825681287e-17 9.833061096655331e-25
5.246226572918644 2.1767084330118372e-25 3.031214960598496e-17 3.0312148552325467e-17 1.0536594916928797e-24
5.265937586045735 2.2051286753441336e-25 3.082329602536821e-17 3.0823294934845426e-17 1.0905227845109192e-24
5.285722656980489 2.2339123269309088e-25 3.1342954305069304e-17 3.134295317651624e-17 1.1285530624243943e-24
5.305582063971359 2.26306526970225e-25 3.1871283184508546e-17 3.1871282016725294e-17 1.1677832546863486e-24
5.3255160863122235 2.294404982756835e-25 3.2434052178884124e-17 3.2434050970476526e-17 1.2084076066280853e-24
5.365609099470188 2.372609763320684e-25 3.379206843905095e-17 3.3792067144234844e-17 1.2948161100803376e-24
5.406003951863644 2.453799555728571e-25 3.521152830377697e-17 3.521152691697662e-17 1.3868003525534404e-24
5.446702915881641 2.5381192048397094e-25 3.669569657621536e-17 3.669569509153536e-17 1.484679986730807e-24
5.487708281020852 2.6292681821571475e-25 3.8299696787507363e-17 3.8299695198285434e-17 1.5892219414468836e-24
5.529022354014368 2.756225579659468e-25 4.0451305079780445e-17 4.0451303375440124e-17 1.7043403221384643e-24
5.570647458961463 2.8906980308449134e-25 4.274426311007543e-17 4.274426128308128e-17 1.8269941539784082e-24
5.612585937458331 3.033228208965255e-25 4.518949864773192e-17 4.518949669010998e-17 1.9576219388089678e-24
5.654840148729818 3.189967246899172e-25 4.788240875851122e-17 4.788240666096766e-17 2.0975435600583655e-24
5.67608639626678 3.2968553907235028e-25 4.9672764216366743e-17 4.967276204169233e-17 2.1746744091395337e-24
5.686739436050992 3.351957504400653e-25 5.059775719422317e-17 5.059775498002098e-17 2.2142022045444103e-24
5.6974124697621304 3.408200322238941e-25 5.154329853878859e-17 5.1543296284404276e-17 2.254384310859562e-24
5.718818669136295 3.5242181798074037e-25 5.349812319479652e-17 5.3498120858046127e-17 2.336750394864224e-24
5.740305295436557 3.6521475414805462e-25 5.564840715745533e-17 5.564840473430268e-17 2.423152655307958e-24
5.7835210386641895 3.984275987620186e-25 6.116615301408238e-17 6.116615039869595e-17 2.6153864249088158e-24
5.827062130521658 4.367039917150835e-25 6.754702771293808e-17 6.754702488856224e-17 2.8243758255323828e-24
5.8489554468988025 4.63572098108558e-25 7.197224251341012e-17 7.19722395660498e-17 2.9473603126586525e-24
5.870931020387893 4.924101639874545e-25 7.673675314162356e-17 7.673675006632571e-17 3.0752978573479037e-24
5.892989160043636 5.233769142329348e-25 8.186902863883163e-17 8.186902543046083e-17 3.208370788122717e-24
5.915130176081913 5.5860263244564545e-25 8.770749710199073e-17 8.770749375049685e-17 3.351493879755517e-24
5.95966208400165 6.571298335260606e-25 1.0395425091081739e-16 1.0395424721028784e-16 3.7005295436649846e-24
6.004529249263818 7.991914008207747e-25 1.2737940034324923e-16 1.273793962000688e-16 4.143180391648438e-24
6.027089341400364 8.979612283247693e-25 1.4365959825465962e-16 1.4365959382893194e-16 4.4257276731639384e-24
6.049734195844842 1.0146979139789824e-24 1.6294554617182423e-16 1.6294554142936745e-16 4.7424568090458274e-24
6.095279466722835 1.3519444851788114e-24 2.1873683019924544e-16 2.1873682459639737e-16 5.602848048123842e-24
6.141167624020661 1.871026863230019e-24 3.050003991066443e-16 3.0500039225132186e-16 6.855322458209083e-24
6.164241091010745 2.2025039660350928e-24 3.603842049712142e-16 3.6038419729124377e-16 7.679970442848933e-24
6.187401249150058 2.580141772574359e-24 4.237612917292052e-16 4.237612831378183e-16 8.591386928763841e-24
6.1990139391386085 2.7645249440922466e-24 4.548964617699462e-16 4.548964527090833e-16 9.060862837512018e-24
6.204828454712694 2.861654658005419e-24 4.713206135814439e-16 4.713206042763213e-16 9.305122584473975e-24
6.210648424152782 2.9325473914019282e-24 4.834498362450447e-16 4.834498267368956e-16 9.508148902266173e-24
6.233982942956859 3.1733822421849502e-24 5.251186342686136e-16 5.251186240390019e-16 1.0229611633126088e-23
6.239830258556775 3.2041553706926234e-24 5.307081729486018e-16 5.307081626192309e-16 1.0329370797711017e-23
6.245683058788269 3.206798572883769e-24 5.316441710135703e-16 5.316441605835454e-16 1.0430024847335718e-23
6.257405133728602 3.200123938490127e-24 5.315333342111832e-16 5.315333236051181e-16 1.0606065156500567e-23
6.269149208991335 3.1526808305122193e-24 5.246359485434259e-16 5.246359378808422e-16 1.066258366511516e-23
6.280915325867298 3.0337934078802697e-24 5.057994759161849e-16 5.057994653457293e-16 1.0570455567735712e-23
6.304513850009849 2.7406496635453692e-24 4.586427782536266e-16 4.586427680059373e-16 1.0247689282141524e-23
6.32820103803542 2.3773249765855318e-24 3.9933580726050943e-16 3.993357975090108e-16 9.751498593491912e-24
6.3519772230701035 2.0441363580364188e-24 3.446578924797463e-16 3.446578831980165e-16 9.281729704862511e-24
6.375842739491607 1.7638482474288138e-24 2.9851643576526807e-16 2.9851642689638436e-16 8.868883699507321e-24
6.399797922933955 1.5391788772787216e-24 2.6147175923584845e-16 2.614717506462611e-16 8.589587320570406e-24
6.42384311029221 1.3523984851892185e-24 2.30605167171767e-16 2.306051588186516e-16 8.353115440012537e-24
6.447978639727206 1.2162630839272187e-24 2.081711533480639e-16 2.081711451064118e-16 8.24165214404413e-24
6.472204850670314 1.1028582897905572e-24 1.8947041206198937e-16 1.8947040390053515e-16 8.161454228445724e-24
6.496522083828205 1.0291261030920482e-24 1.7746754685988387e-16 1.7746753866953816e-16 8.19034575033879e-24
6.520930681187647 9.670103993729113e-25 1.6738254281569058e-16 1.6738253457630563e-16 8.239384921447146e-24
