Dust emission spectrum from A.P. Jones, M. Kohler, N. Ysard, M. Bocchio, and L. Verstraete (2017), A&A, 602A, 46J 
inside the DustPedia framework.

lambda    nu*dP/dnu     j_nu    j_nu(carb.) j_nu(sil)
 (um)   (erg s-1 H-1) (Jy cm2 sr-1 H-1)
0.9927057738263894 1.6327329241256501e-24 4.3023439924497954e-17 4.302343992449346e-17 4.4809751945337924e-30
1.0001793341362166 1.659707349588415e-24 4.406348341121156e-17 4.406348341120616e-17 5.398955929515278e-30
1.0077091589558085 1.6866433084992033e-24 4.5115719365615865e-17 4.5115719365609363e-17 6.49671721288758e-30
1.0114953028030835 1.7000935456318297e-24 4.564635693716053e-17 4.56463569371534e-17 7.123245995264983e-30
1.0152956718711033 1.713530195782485e-24 4.6179978866366015e-17 4.617997886635821e-17 7.807695393479478e-30
1.0229392996569957 1.740344302260946e-24 4.7255729579019147e-17 4.725572957900976e-17 9.371309282617317e-30
1.0267826658714554 1.7536892393924447e-24 4.7796995569250454e-17 4.779699556924021e-17 1.0262304723315945e-29
1.0306404723013447 1.7670146892702106e-24 4.8341128622708215e-17 4.8341128622696986e-17 1.1234402385410649e-29
1.03451277320114 1.780319365944386e-24 4.888810532720027e-17 4.888810532718797e-17 1.2294627527915169e-29
1.0383996230291617 1.7936019905969747e-24 4.94379019778362e-17 4.9437901977822753e-17 1.345058059814556e-29
1.0403485208654093 1.8002346357951235e-24 4.971385029652488e-17 4.971385029651081e-17 1.406699832521395e-29
1.0423010764483396 1.8068612917870554e-24 4.9990494582634517e-17 4.999049458261981e-17 1.4710481380768906e-29
1.0462171883269815 1.8200960056905875e-24 5.0545858868137236e-17 5.0545858868121157e-17 1.6083216290538054e-29
1.0471985131304309 1.823400695042828e-24 5.068513014373105e-17 5.0685130143714623e-17 1.6445139263176073e-29
1.048180758391296 1.8267037496054156e-24 5.082457273011368e-17 5.082457273009684e-17 1.6814868219717788e-29
1.0501480137395462 1.833304876334778e-24 5.1103970285028795e-17 5.110397028501122e-17 1.7578389013407236e-29
1.0521189612883777 1.839899230146399e-24 5.1384048422037914e-17 5.1384048422019536e-17 1.83751000984813e-29
1.0531058218030118 1.8431887556790985e-24 5.1524200201757357e-17 5.152420020173858e-17 1.8786355438470582e-29
1.0540936079674168 1.8464599418119124e-24 5.166405655406154e-17 5.166405655404234e-17 1.9206516905582444e-29
1.058054026499678 1.8595261008256707e-24 5.2225133153759337e-17 5.222513315373837e-17 2.0979039137221513e-29
1.0590464539527713 1.862787898638331e-24 5.236581310357573e-17 5.236581310355431e-17 2.144608429915874e-29
1.06003981227728 1.8660477615719274e-24 5.250665657086483e-17 5.25066565708429e-17 2.1923086336002727e-29
1.0620293250338977 1.8725616068778583e-24 5.2788832445220535e-17 5.2788832445197634e-17 2.2907773382482126e-29
1.0660195594769086 1.885565245772122e-24 5.335512861156949e-17 5.335512861154448e-17 2.50057870658545e-29
1.070024785945596 1.8985358124878317e-24 5.392399559515372e-17 5.392399559512643e-17 2.728717790027195e-29
1.0740450607676866 1.911472111378234e-24 5.449540710318512e-17 5.449540710315535e-17 2.9767149787461134e-29
1.07808044048254 1.9243729563631764e-24 5.506933661337096e-17 5.50693366133385e-17 3.2462093883471927e-29
1.0861967418109137 1.9500407906018352e-24 5.622398510187932e-17 5.622398510184074e-17 3.856893004206871e-29
1.0902777775684922 1.9627536126765366e-24 5.680314459114153e-17 5.680314459109953e-17 4.202036287543027e-29
1.0943741465085532 1.9754254293535986e-24 5.73846712353694e-17 5.738467123532363e-17 4.576602856854363e-29
1.1026131145906286 2.00064154144802e-24 5.855471466909838e-17 5.855471466904415e-17 5.423685140333132e-29
1.1109141095355224 2.0256802256089235e-24 5.973389089286577e-17 5.973389089280159e-17 6.41937689217731e-29
1.1192775983109025 2.0505095104614826e-24 6.092128183403776e-17 6.09212818339619e-17 7.588224821988822e-29
1.1277040513999907 2.0750140662738493e-24 6.211344523212743e-17 6.211344523203784e-17 8.958563268686007e-29
1.1361939428280308 2.0993122570028606e-24 6.331388224625404e-17 6.331388224614841e-17 1.0563050018840684e-28
1.1447477501889525 2.123395978128609e-24 6.45223567593177e-17 6.452235675919331e-17 1.2439280767843948e-28
1.1533659546722406 2.1472704386184867e-24 6.573903216386666e-17 6.573903216372037e-17 1.4630498425068776e-28
1.1707974979042381 2.1944686770886972e-24 6.819940802627743e-17 6.819940802607581e-17 2.016394599096015e-28
1.1884924949847024 2.2407281820428258e-24 7.06895233141056e-17 7.068952331382908e-17 2.765358715468775e-28
1.2064549276569216 2.2864106638758464e-24 7.322085092470973e-17 7.322085092433233e-17 3.7741258352438802e-28
1.2246888378427687 2.3310171802554595e-24 7.577756871344197e-17 7.57775687129294e-17 5.126065538443211e-28
1.2431983285522175 2.3744433468422954e-24 7.835589265199454e-17 7.835589265130163e-17 6.929101849922566e-28
1.2619875648066055 2.4166728876829305e-24 8.095475791253558e-17 8.095475791160338e-17 9.322230475693954e-28
1.3004222497298317 2.4968400147828256e-24 8.61875509672475e-17 8.618755096558353e-17 1.663959956115667e-27
1.3400274889804893 2.5712045478033957e-24 9.145759315696361e-17 9.145759315404718e-17 2.916432598423389e-27
1.3808389325824078 2.639490410237556e-24 9.674589462001925e-17 9.674589461499759e-17 5.0216491059291866e-27
1.4228933163050095 2.7020295152178756e-24 1.0205442992716665e-16 1.0205442991866824e-16 8.498425473260658e-27
1.466228494730424 2.760326335146643e-24 1.0743146974705855e-16 1.0743146973291547e-16 1.4143088836011288e-26
1.5108834753276823 2.8132473348883085e-24 1.1282577372748936e-16 1.1282577370433383e-16 2.315554266804928e-26
1.5568984535646726 2.859875223086964e-24 1.1818893126219973e-16 1.1818893122486438e-16 3.733534260858244e-26
1.6043148490894465 2.9002947399778197e-24 1.235097296876961e-16 1.235097296283038e-16 5.939227448668636e-26
1.6531753430134553 2.934628328437808e-24 1.2877793530608695e-16 1.287779352129772e-16 9.310974186238933e-26
1.7035239163302658 2.9632834216589505e-24 1.3399569929148435e-16 1.3399569914759684e-16 1.438874796362983e-25
1.755405889504358 2.9886161638946225e-24 1.3925702891707732e-16 1.3925702869777993e-16 2.192974197951018e-25
1.8088679632656115 3.0100443268100397e-24 1.4452706767194097e-16 1.4452706734219174e-16 3.297492074619694e-25
1.8639582606462262 3.027173427395147e-24 1.4977623819418283e-16 1.4977623770479934e-16 4.893835680825314e-25
1.9207263702978936 3.0402889103186227e-24 1.5500645620241034e-16 1.5500645548527967e-16 7.171306550193769e-25
1.979223391128241 3.050055687829881e-24 1.6024039865879345e-16 1.6024039762078185e-16 1.0380116190333636e-24
2.039501978296691 3.0572696036108288e-24 1.6551116758973965e-16 1.6551116610509938e-16 1.4846401993563776e-24
2.1016163906111602 3.0641603948558352e-24 1.7093632976110547e-16 1.7093632766197187e-16 2.099133627509062e-24
2.1656225393682647 3.072020874041622e-24 1.7659416852075117e-16 1.7659416558570791e-16 2.9350432228232767e-24
2.231578038680979 3.0809433834681136e-24 1.8250099201705472e-16 1.8250098795742645e-16 4.059628271557698e-24
2.299542257339062 3.0917019440546814e-24 1.8871588012448365e-16 1.8871587456805706e-16 5.556426696509646e-24
2.369576372248914 3.106008385465479e-24 1.9536320331049909e-16 1.953631957822986e-16 7.528200572589308e-24
2.4417434235010123 3.125884139986015e-24 2.0260135085231213e-16 2.026013407525102e-16 1.0099801836037857e-23
2.5161083711144245 3.1547912462826715e-24 2.1070236135101558e-16 2.107023479292146e-16 1.342180091958829e-23
2.5927381535095444 3.198395290942533e-24 2.2012036739574638e-16 2.201203497218363e-16 1.7673910128626082e-23
2.6717017477616296 3.263460562656905e-24 2.314385908817072e-16 2.3143856781415117e-16 2.3067555998244656e-23
2.753070231689431 3.360171476201372e-24 2.455546510047609e-16 2.45554621155277e-16 2.9849483866806246e-23
2.836916847834745 3.51160173210163e-24 2.6443643531477356e-16 2.644363970082646e-16 3.8306508981410446e-23
2.9233170693905177 3.7685692660304505e-24 2.9242995503427286e-16 2.924299062727152e-16 4.8761557631822526e-23
2.967498994190263 3.98680068035115e-24 3.140396879737591e-16 3.140396332034622e-16 5.477029701044368e-23
3.0123486681368425 4.241671178016746e-24 3.3916550028485523e-16 3.3916543884443994e-16 6.144041527319935e-23
3.0578761833420214 4.81196169799805e-24 3.905813401701596e-16 3.905812713172229e-16 6.885293675668016e-23
3.1040917844459814 5.546845965073132e-24 4.57035666483952e-16 4.570355894603685e-16 7.702358371282347e-23
3.127460860933648 6.324260698815085e-24 5.250142370582598e-16 5.250141556177479e-16 8.144051185204921e-23
3.1510058709225794 7.360059475551475e-24 6.156019250135405e-16 6.156018389376769e-16 8.607586369761383e-23
3.162844764501044 8.324231777106314e-24 6.98862075971108e-16 6.988619874836263e-16 8.848748186317372e-23
3.1747281389236908 9.445485006866434e-24 7.959764841202155e-16 7.959763931634821e-16 9.095673371738166e-23
3.1986289994194426 1.257298374394784e-23 1.0675092758815596e-15 1.0675091797960106e-15 9.608554936568621e-23
3.2227097969389145 1.994526953603406e-23 1.7062023744709076e-15 1.7062022729101217e-15 1.0156078600907483e-22
3.2348180950136065 2.6936507010054017e-23 2.312919804406069e-15 2.312919699908929e-15 1.0449714045854508e-22
3.240889293275058 3.2163365682592954e-23 2.766910539228048e-15 2.766910433178621e-15 1.060494270641329e-22
3.2469718861334385 3.8210035081811894e-23 3.2932552875494985e-15 3.293255179891436e-15 1.0765806254407688e-22
3.2714166318528037 7.046403256456889e-23 6.118891945830644e-15 6.1188918314875156e-15 1.1434312776865954e-22
3.2744851364798273 7.248033131096962e-23 6.299885065898408e-15 6.299884950761883e-15 1.1513652320135788e-22
3.2775565192852394 7.455454381381444e-23 6.486250837473451e-15 6.486250721538729e-15 1.159347203000076e-22
3.283707930232385 7.255979807837808e-23 6.3245556795420705e-15 6.324555562173848e-15 1.173682257781817e-22
3.2898708863219004 6.623384807579933e-23 5.783999871721284e-15 5.783999753042629e-15 1.186786552185569e-22
3.29141343181113 6.474203144101917e-23 5.6563749789498415e-15 5.6563748599417694e-15 1.1900807364315796e-22
3.292184975758714 6.400900562415456e-23 5.5936429615314395e-15 5.593642842358385e-15 1.1917305526344466e-22
3.295272960557952 5.938207252655176e-23 5.194170231233441e-15 5.194170111417947e-15 1.198154932761945e-22
3.3076538914384823 4.3352962497101073e-23 3.8063460779477286e-15 3.806345955545869e-15 1.2240185967055166e-22
3.310756385682612 4.0090630918248494e-23 3.5232182698275223e-15 3.5232181467722727e-15 1.2305524795833425e-22
3.313861789986515 3.708062271338159e-23 3.2617512944376005e-15 3.261751170726231e-15 1.237113697402088e-22
3.3200813396944477 3.28594195131235e-23 2.8958632119680383e-15 2.895863086846279e-15 1.2512175876435405e-22
3.345076488085796 2.532917048343209e-23 2.249036236778524e-15 2.249036105356704e-15 1.3142181971156608e-22
3.3482140837626964 2.5611538253388773e-23 2.2762413860153904e-15 2.2762412537374173e-15 1.3227797339667255e-22
3.3513546224236106 2.589702790394172e-23 2.3037733113482384e-15 2.3037731782093743e-15 1.331388649634584e-22
3.3576445397418455 2.7983480129883165e-23 2.4940541258199338e-15 2.4940539908791165e-15 1.34940817926243e-22
3.3702598118196083 3.567922300281283e-23 3.1918921070717664e-15 3.191891968340511e-15 1.3873125633604159e-22
3.382922481734668 3.7431983336021917e-23 3.361277110932457e-15 3.361276968501088e-15 1.4243136978974886e-22
3.389271646505754 3.8340034932966603e-23 3.4492789319309774e-15 3.4492787876180516e-15 1.4431292686358877e-22
3.395632727569191 3.9318503629974936e-23 3.5439462383092567e-15 3.5439460920554767e-15 1.462537806307976e-22
3.421196662673239 4.401673884414608e-23 3.9972870420642025e-15 3.997286887737802e-15 1.5432640079132362e-22
3.4276182099114902 4.306991099350444e-23 3.918644344386787e-15 3.918644188236709e-15 1.5615007767312727e-22
3.4340518103208963 3.892097698886813e-23 3.5478071902393795e-15 3.5478070323553116e-15 1.5788406749544604e-22
3.4469541582030403 3.3012130835925876e-23 3.0204976236292348e-15 3.0204974623958693e-15 1.61233364836227e-22
3.472904465399547 3.135609554501216e-23 2.8905750438587433e-15 2.8905748748973793e-15 1.6896136381976506e-22
3.4990501388274233 2.8823279379403755e-23 2.677090112213618e-15 2.677089935272539e-15 1.7694107886025049e-22
3.5253949054701885 1.980961776763569e-23 1.8537591232201544e-15 1.853758938443928e-15 1.8477622613494475e-22
3.5519380250092896 1.1337821913914583e-23 1.0689673577569276e-15 1.0689671650222283e-15 1.927346990630461e-22
3.578680990867387 7.978628901374211e-24 7.579153193211382e-16 7.579151178067335e-16 2.0151440471928042e-22
3.605625307711299 6.619818852689655e-24 6.33572227527804e-16 6.335720166857513e-16 2.1084205263058307e-22
3.660119384959845 5.6283527904788106e-24 5.468220214223561e-16 5.468217906832762e-16 2.3073907984413294e-22
3.715437065384467 4.926118091123052e-24 4.858298122080069e-16 4.858295600618152e-16 2.521461915201673e-22
3.8285932144167436 4.5691452079701485e-24 4.643480419234824e-16 4.643477421866762e-16 2.997368060050823e-22
3.94519561050918 4.500000572490845e-24 4.712491103448525e-16 4.712487562072711e-16 3.5413758129453182e-22
4.06534921144712 4.5491414285402845e-24 4.90904178889612e-16 4.90903762810906e-16 4.1607870606238245e-22
4.189162171576248 4.666880341887439e-24 5.189473182516167e-16 5.189468316870596e-16 4.8656455714289115e-22
4.316745939156006 4.8347314176842215e-24 5.539853435849456e-16 5.539847771335628e-16 5.664513827596642e-22
4.448215356677963 5.046523908421031e-24 5.958645838983933e-16 5.958639278395254e-16 6.560588675873433e-22
4.58368876423945 5.3030657458082306e-24 6.452255633936645e-16 6.452248065330711e-16 7.568605932335434e-22
4.723288106065518 5.610329269536091e-24 7.033997680306156e-16 7.033988970429147e-16 8.709877011691361e-22
4.867139040275056 5.980215182608305e-24 7.72609416987416e-16 7.726084187187864e-16 9.982686297321846e-22
4.940699165968905 6.2035108635732875e-24 8.13570871642794e-16 8.135698038650029e-16 1.0677777910920647e-21
5.015371051989984 6.434875706260073e-24 8.566682368554706e-16 8.566670954303517e-16 1.1414251186657608e-21
5.091171501069577 6.717250229281015e-24 9.077759795493323e-16 9.077747589219321e-16 1.2206274000075054e-21
5.129500256944802 6.862228416221621e-24 9.343501482737647e-16 9.34348886289697e-16 1.2619840679166699e-21
5.168117569889187 7.013402233737205e-24 9.621229302153156e-16 9.621216254363115e-16 1.3047790042034815e-21
5.20702561229733 7.198907396444004e-24 9.950060787355371e-16 9.950047279446794e-16 1.3507908576350973e-21
5.246226572918644 7.389182103879325e-24 1.028994007657427e-15 1.0289926094207423e-15 1.3982366845926023e-21
5.265937586045735 7.486155897280004e-24 1.0464151225910062e-15 1.0464137000798589e-15 1.4225111475628155e-21
5.285722656980489 7.584380339114566e-24 1.0641280928322037e-15 1.0641266456713244e-15 1.4471608792378214e-21
5.305582063971359 7.683875731365926e-24 1.0821383840208765e-15 1.0821369118291886e-15 1.4721916877005488e-21
5.3255160863122235 7.790764711733674e-24 1.1013141580182808e-15 1.1013126602917612e-15 1.4977265197371435e-21
5.365609099470188 8.056922215705825e-24 1.1475130513674884e-15 1.1475115004593258e-15 1.5509081624302164e-21
5.406003951863644 8.333247197453791e-24 1.195804151445416e-15 1.1958025456473282e-15 1.6057980876198066e-21
5.446702915881641 8.620231318457016e-24 1.2462984097662367e-15 1.2462967473141546e-15 1.6624520817303577e-21
5.487708281020852 8.930342907973954e-24 1.3008540851974094e-15 1.300852364101477e-15 1.7210959327290244e-21
5.529022354014368 9.361218445863899e-24 1.3738842933127918e-15 1.3738825101819737e-15 1.7831308176366454e-21
5.570647458961463 9.817526091040644e-24 1.4517009865704153e-15 1.451699139323038e-15 1.8472473770413526e-21
5.612585937458331 1.0301096093776594e-23 1.5346730807263381e-15 1.5346711672077838e-15 1.9135185542352077e-21
5.654840148729818 1.0832657538617742e-23 1.6260158680602826e-15 1.6260138857910692e-15 1.982269213265117e-21
5.67608639626678 1.1194576120844783e-23 1.6866543243525843e-15 1.6866523057466064e-15 2.0186059780884544e-21
5.686739436050992 1.138113020410759e-23 1.7179802008445875e-15 1.7179781638307132e-15 2.037013874069259e-21
5.6974124697621304 1.1571533138089025e-23 1.7499997966557118e-15 1.7499977410722665e-15 2.0555834449922042e-21
5.718818669136295 1.1964256250291351e-23 1.8161907752464404e-15 1.8161886820327367e-15 2.0932137044219207e-21
5.740305295436557 1.2397141259613781e-23 1.8889739709798383e-15 1.8889718391937515e-15 2.1317860868513105e-21
5.7835210386641895 1.3519980154837266e-23 2.0755720172690183e-15 2.0755698040385655e-15 2.213230452459617e-21
5.827062130521658 1.4813468998281317e-23 2.2912678151210423e-15 2.291265516706046e-15 2.298414997221887e-21
5.8489554468988025 1.572073505873456e-23 2.440734808572001e-15 2.440732463494712e-15 2.3450772885390855e-21
5.870931020387893 1.6694345615520515e-23 2.6016316722328705e-15 2.6016292795018313e-15 2.3927310391815506e-21
5.892989160043636 1.773964055978985e-23 2.7749163204123293e-15 2.774913879011711e-15 2.4414006168576463e-21
5.915130176081913 1.8928421632097678e-23 2.9719954561868406e-15 2.9719929638813403e-15 2.4923054995938483e-21
5.95966208400165 2.225197175003273e-23 3.5201370209462365e-15 3.5201344126463434e-15 2.6082998918041284e-21
6.004529249263818 2.70421273696665e-23 4.3101189087072874e-15 4.310116166152164e-15 2.742555123109645e-21
6.027089341400364 3.037176107263016e-23 4.859001542995913e-15 4.8589987214634006e-15 2.8215325132086387e-21
6.049734195844842 3.430650194910301e-23 5.509119138148865e-15 5.5091162314726966e-15 2.906676167304265e-21
6.095279466722835 4.567205449783877e-23 7.389475336498834e-15 7.389472216911104e-15 3.119587730472568e-21
6.141167624020661 6.31631086054618e-23 1.0296363837462343e-14 1.0296360433801412e-14 3.403660935441019e-21
6.164241091010745 7.433287799785159e-23 1.2162700069367856e-14 1.2162696486284912e-14 3.5830829469328174e-21
6.187401249150058 8.705704870364332e-23 1.429820942590279e-14 1.4298205651738844e-14 3.7741639481953604e-21
6.1990139391386085 9.327010008337346e-23 1.5347388565809085e-14 1.5347384693694568e-14 3.872114520581132e-21
6.204828454712694 9.654291596874523e-23 1.5900823764334393e-14 1.590081984199541e-14 3.9223389834220275e-21
6.210648424152782 9.893216017372277e-23 1.6309621039914337e-14 1.630961707461926e-14 3.965295081430622e-21
6.233982942956859 1.0704982580529149e-22 1.7714178134072833e-14 1.771417401497155e-14 4.119101280176288e-21
6.239830258556775 1.080877544083896e-22 1.790270696136492e-14 1.7902702818907113e-14 4.142457809788927e-21
6.245683058788269 1.0817816542446274e-22 1.7934488173087356e-14 1.7934484007132703e-14 4.1659546498246556e-21
6.257405133728602 1.0795609888831116e-22 1.793126338025838e-14 1.793125917196866e-14 4.208289718490675e-21
6.269149208991335 1.0636076997863915e-22 1.7699439443886392e-14 1.769943521497885e-14 4.2289075372994024e-21
6.280915325867298 1.0235874732130787e-22 1.706543386114377e-14 1.70654296386511e-14 4.2224926729726915e-21
6.304513850009849 9.248910994600848e-23 1.5477885739313227e-14 1.547788155454377e-14 4.184769455203454e-21
6.32820103803542 8.025507297819596e-23 1.3481002669029053e-14 1.3480998550883554e-14 4.1181454977268465e-21
6.3519772230701035 6.903566871064771e-23 1.1639971076390342e-14 1.1639967018296794e-14 4.05809354820933e-21
6.375842739491607 5.959722285693046e-23 1.0086327196624243e-14 1.0086323189147138e-14 4.007477104967359e-21
6.399797922933955 5.2032969616438346e-23 8.839227398916483e-15 8.839223413887853e-15 3.985028629398311e-21
6.42384311029221 4.574431942525154e-23 7.800124403971741e-15 7.800120434205695e-15 3.969766046314089e-21
6.447978639727206 4.1162144027402444e-23 7.0451624403460416e-15 7.045158461656062e-15 3.978689979866295e-21
6.472204850670314 3.7345346245538066e-23 6.415908741170664e-15 6.415904747941504e-15 3.993229160519652e-21
6.496522083828205 3.4865439762766953e-23 6.012367236919532e-15 6.012363208566517e-15 4.028353014232251e-21
