Dust emission spectrum from A.P. Jones, M. Kohler, N. Ysard, M. Bocchio, and L. Verstraete (2017), A&A, 602A, 46J 
inside the DustPedia framework.

lambda    nu*dP/dnu     j_nu    j_nu(carb.) j_nu(sil)
 (um)   (erg s-1 H-1) (Jy cm2 sr-1 H-1)
0.9927057738263894 2.5422258750048373e-20 6.698909576184774e-13 6.69890957618476e-13 1.204369236568586e-27
1.0001793341362166 2.584239328206156e-20 6.860883444135545e-13 6.86088344413553e-13 1.4513751252736079e-27
1.0077091589558085 2.6261932500794394e-20 7.024757224803267e-13 7.024757224803248e-13 1.7468376486976094e-27
1.0114953028030835 2.647142720419886e-20 7.107398401126544e-13 7.107398401126524e-13 1.915503696715688e-27
1.0152956718711033 2.6680711246160008e-20 7.190504634933714e-13 7.190504634933693e-13 2.099789498845258e-27
1.0229392996569957 2.7098360312376062e-20 7.358042803902964e-13 7.358042803902942e-13 2.5208837002892732e-27
1.0267826658714554 2.730621897205355e-20 7.442340398190444e-13 7.442340398190417e-13 2.7608898272136335e-27
1.0306404723013447 2.751377507664581e-20 7.527084794217061e-13 7.527084794217032e-13 3.0227833996026242e-27
1.03451277320114 2.772100859785325e-20 7.612272348614158e-13 7.612272348614125e-13 3.3084649333409815e-27
1.0383996230291617 2.792789961825625e-20 7.697899372394522e-13 7.697899372394486e-13 3.619991016747627e-27
1.0403485208654093 2.803121049772296e-20 7.74087652023582e-13 7.740876520235782e-13 3.78613406619926e-27
1.0423010764483396 2.813442833513509e-20 7.783962131825028e-13 7.78396213182499e-13 3.959586334917478e-27
1.0462171883269815 2.834057506420564e-20 7.870456849300449e-13 7.870456849300404e-13 4.3296565543086814e-27
1.0471985131304309 2.839204976569933e-20 7.892147575319199e-13 7.892147575319154e-13 4.4272360658690684e-27
1.048180758391296 2.8443499065259057e-20 7.913865000022297e-13 7.913865000022251e-13 4.526924386459774e-27
1.0501480137395462 2.854632024327053e-20 7.957379704217933e-13 7.957379704217887e-13 4.7328021239314266e-27
1.0521189612883777 2.8649036172626675e-20 8.0010004777372e-13 8.001000477737154e-13 4.9476476818613064e-27
1.0531058218030118 2.870027507919308e-20 8.022828451343404e-13 8.022828451343355e-13 5.058556124723946e-27
1.0540936079674168 2.8751228482032806e-20 8.044610449749995e-13 8.044610449749943e-13 5.171871046472384e-27
1.058054026499678 2.895475322118206e-20 8.131995790427682e-13 8.131995790427624e-13 5.649961405521222e-27
1.0590464539527713 2.9005560699459306e-20 8.153906151433559e-13 8.153906151433499e-13 5.775947864989644e-27
1.06003981227728 2.9056338101644026e-20 8.175841997874558e-13 8.175841997874501e-13 5.904625840082144e-27
1.0620293250338977 2.9157801495136156e-20 8.219789896066909e-13 8.219789896066848e-13 6.170276505138149e-27
1.0660195594769086 2.936035439145823e-20 8.307988748466962e-13 8.307988748466896e-13 6.736358034765164e-27
1.070024785945596 2.9562393140432015e-20 8.39658829188968e-13 8.396588291889606e-13 7.352027853022699e-27
1.0740450607676866 2.976389911814917e-20 8.485584433937462e-13 8.485584433937383e-13 8.021408712554214e-27
1.07808044048254 2.9964853849512105e-20 8.574973046429698e-13 8.574973046429612e-13 8.748946402593924e-27
1.0861967418109137 3.03646814332553e-20 8.75480864171955e-13 8.754808641719446e-13 1.0398035584596078e-26
1.0902777775684922 3.0562710823399337e-20 8.845012796238845e-13 8.845012796238733e-13 1.1330318605400549e-26
1.0943741465085532 3.0760102491214067e-20 8.935585937061585e-13 8.935585937061462e-13 1.2342270380810885e-26
1.1026131145906286 3.115290248154142e-20 9.117821849288535e-13 9.117821849288387e-13 1.4631468312384918e-26
1.1109141095355224 3.1542942741263474e-20 9.301481429923896e-13 9.301481429923722e-13 1.732332659850352e-26
1.1192775983109025 3.1929725371520743e-20 9.486421732343296e-13 9.48642173234309e-13 2.0484569165547598e-26
1.1277040513999907 3.231145445248307e-20 9.672106753997381e-13 9.672106753997139e-13 2.419225698272281e-26
1.1361939428280308 3.268997300256223e-20 9.859081679789517e-13 9.859081679789234e-13 2.853525580489705e-26
1.1447477501889525 3.306515475640441e-20 1.0047309750369875e-12 1.0047309750369542e-12 3.361592420670802e-26
1.1533659546722406 3.343708074626489e-20 1.0236816411717308e-12 1.0236816411716912e-12 3.9552060757815004e-26
1.1707974979042381 3.4172365634541725e-20 1.0620042707672952e-12 1.0620042707672408e-12 5.455244717462644e-26
1.1884924949847024 3.489304321209385e-20 1.100790631995657e-12 1.100790631995582e-12 7.487372204693465e-26
1.2064549276569216 3.5604745345054926e-20 1.1402193806703144e-12 1.1402193806702124e-12 1.0226891671388295e-25
1.2246888378427687 3.629970214463523e-20 1.1800441441796323e-12 1.1800441441794936e-12 1.3901779277789027e-25
1.2431983285522175 3.6976287379859144e-20 1.2202059941579966e-12 1.2202059941578083e-12 1.8807518558435836e-25
1.2619875648066055 3.763424705841152e-20 1.260688351891663e-12 1.2606883518914097e-12 2.532513250747777e-25
1.3004222497298317 3.8883353742461855e-20 1.3422009470428305e-12 1.3422009470423784e-12 4.528515424113091e-25
1.3400274889804893 4.0042126344609427e-20 1.4242960574621094e-12 1.4242960574613144e-12 7.952073004973301e-25
1.3808389325824078 4.1106259528331505e-20 1.5066778940080339e-12 1.5066778940066613e-12 1.371905881606618e-24
1.4228933163050095 4.208091597745083e-20 1.5893771206808805e-12 1.5893771206785546e-12 2.3264864731272274e-24
1.466228494730424 4.298951977446604e-20 1.6731453938201728e-12 1.6731453938162923e-12 3.8799505697906155e-24
1.5108834753276823 4.381441296151256e-20 1.7571846532984116e-12 1.7571846532920452e-12 6.366407255740408e-24
1.5568984535646726 4.454130401532974e-20 1.840740839355308e-12 1.8407408393450197e-12 1.0288581267644483e-23
1.6043148490894465 4.517150672413072e-20 1.9236391764534933e-12 1.9236391764370878e-12 1.640583023082144e-23
1.6531753430134553 4.5706922388184597e-20 2.0057201238424946e-12 2.0057201238167106e-12 2.5783583465107155e-23
1.7035239163302658 4.6153891120160164e-20 2.0870170131099484e-12 2.0870170130699998e-12 3.994893244808054e-23
1.755405889504358 4.6549104022246926e-20 2.1689937982677144e-12 2.16899379820666e-12 6.105372977299994e-23
1.8088679632656115 4.688348955489979e-20 2.251107469496531e-12 2.2511074694044582e-12 9.207298862266663e-23
1.8639582606462262 4.715089943609173e-20 2.3328971776443254e-12 2.332897177507251e-12 1.3707381817230865e-22
1.9207263702978936 4.735577582502627e-20 2.414392581718102e-12 2.4143925815165616e-12 2.0154140802869614e-22
1.979223391128241 4.7508471350696744e-20 2.495946686901974e-12 2.4959466866091856e-12 2.9278912376870125e-22
2.039501978296691 4.7621378522828635e-20 2.578074878393888e-12 2.5780748779734386e-12 4.204492971836825e-22
2.1016163906111602 4.772922500398602e-20 2.6626081840298734e-12 2.6626081834327572e-12 5.971158270387451e-22
2.1656225393682647 4.7852145750480896e-20 2.750765778366088e-12 2.75076577752704e-12 8.390473551276777e-22
2.231578038680979 4.7991577265330595e-20 2.842801495925837e-12 2.842801494758791e-12 1.1670469610238542e-21
2.299542257339062 4.815957420215933e-20 2.939635384147539e-12 2.9396353825399928e-12 1.6075457651708852e-21
2.369576372248914 4.8382798713119007e-20 3.0432044504301864e-12 3.043204448236217e-12 2.1939678237886634e-21
2.4417434235010123 4.8692735190104734e-20 3.155975552649008e-12 3.1559755496806856e-12 2.9683207173840963e-21
2.5161083711144245 4.9143307224988524e-20 3.2821857513090506e-12 3.282185747325683e-12 3.983368840635016e-21
2.5927381535095444 4.982275988290346e-20 3.428908315726947e-12 3.4289083104216845e-12 5.305263033873655e-21
2.6717017477616296 5.083644779021335e-20 3.605226910546671e-12 3.605226903530084e-12 7.016587275682387e-21
2.753070231689431 5.23429950829889e-20 3.825122015700661e-12 3.8251220064800284e-12 9.220632106688443e-21
2.836916847834745 5.470178232425264e-20 4.119243987994313e-12 4.119243975946838e-12 1.2047474150880068e-20
2.9233170693905177 5.870431934298928e-20 4.5552835184771255e-12 4.555283502817842e-12 1.5659283987701267e-20
2.967498994190263 6.210343939810714e-20 4.8918785498353635e-12 4.891878532035902e-12 1.779946129560242e-20
3.0123486681368425 6.607320585781896e-20 5.283236483849602e-12 5.283236463626966e-12 2.0222635857799787e-20
3.0578761833420214 7.495583595891736e-20 6.0840781161222875e-12 6.0840780931477975e-12 2.297449052944438e-20
3.1040917844459814 8.640197077014347e-20 7.1191416789124464e-12 7.119141652830971e-12 2.608147552474198e-20
3.127460860933648 9.85106242033875e-20 8.177948802452847e-12 8.177948774656465e-12 2.779638292872838e-20
3.1510058709225794 1.1464366340120504e-19 9.588898040134137e-12 9.588898010510801e-12 2.962333417393002e-20
3.162844764501044 1.2966122782255393e-19 1.0885727028678758e-11 1.0885726998086304e-11 3.059245282661292e-20
3.1747281389236908 1.4712531421240102e-19 1.2398335315416476e-11 1.2398335283823805e-11 3.159267003283585e-20
3.1986289994194426 1.958374306291742e-19 1.6627578466574232e-11 1.6627578432869107e-11 3.370512638228561e-20
3.2227097969389145 3.106642247952171e-19 2.6575526445062024e-11 2.6575526408989508e-11 3.6072526031374894e-20
3.2348180950136065 4.1955599558630414e-19 3.6025434585362824e-11 3.602543454794674e-11 3.741609891428845e-20
3.240889293275058 5.009668452319492e-19 4.309656077523909e-11 4.309656073707535e-11 3.8163740359196075e-20
3.2469718861334385 5.951467351902649e-19 5.1294643627954e-11 5.129464358898926e-11 3.896473419796552e-20
3.2714166318528037 1.0975185128751201e-18 9.530532023806385e-11 9.530532019563265e-11 4.243118800163099e-20
3.2744851364798273 1.128923607501539e-18 9.812439936188196e-11 9.812439931905705e-11 4.2824919240157966e-20
3.2775565192852394 1.1612307461302404e-18 1.010271609789068e-10 1.0102716093568396e-10 4.322284902056063e-20
3.283707930232385 1.1301622980527494e-18 9.850874134507523e-11 9.850874130123378e-11 4.3841464960097524e-20
3.2898708863219004 1.0316331781582135e-18 9.008937791598356e-11 9.008937787166249e-11 4.432106964313583e-20
3.29141343181113 1.00839753672338e-18 8.810156970055971e-11 8.810156965611809e-11 4.4441634230699705e-20
3.292184975758714 9.969803631903587e-19 8.712449345159576e-11 8.712449340709373e-11 4.450201635466759e-20
3.295272960557952 9.249139846764097e-19 8.090254316249417e-11 8.090254311777809e-11 4.4716050511023267e-20
3.3076538914384823 6.75253347781772e-19 5.928655814748736e-11 5.928655810192132e-11 4.556601495161658e-20
3.310756385682612 6.244409018284442e-19 5.487670169710727e-11 5.487670165132647e-11 4.578079069360325e-20
3.313861789986515 5.77558461919749e-19 5.0804218562928544e-11 5.080421851693207e-11 4.5996487253357485e-20
3.3200813396944477 5.118110920892028e-19 4.510532854867898e-11 4.5105328502159065e-11 4.651991020506431e-20
3.345076488085796 3.9452407790427944e-19 3.5030714806422237e-11 3.503071475722432e-11 4.919791348743343e-20
3.3482140837626964 3.98922230552799e-19 3.545446126671861e-11 3.545446121711944e-11 4.959916904152087e-20
3.3513546224236106 4.0336900980884385e-19 3.588329760733425e-11 3.588329755733047e-11 5.000377327745578e-20
3.3576445397418455 4.358670273354083e-19 3.8847060936994477e-11 3.884706088609319e-11 5.0901290380389644e-20
3.3702598118196083 5.557334314220198e-19 4.971636162738213e-11 4.9716361574488364e-11 5.289376966822928e-20
3.382922481734668 5.83034605690884e-19 5.235471648397487e-11 5.235471642925918e-11 5.471570440664537e-20
3.389271646505754 5.9717851852971345e-19 5.372544094359048e-11 5.3725440887939164e-11 5.565132572503033e-20
3.395632727569191 6.124193353602175e-19 5.5199994899172155e-11 5.519999484253898e-11 5.663318073913636e-20
3.421196662673239 6.856002520488319e-19 6.226133683493503e-11 6.2261336774128e-11 6.080700050218885e-20
3.4276182099114902 6.708531359739136e-19 6.103645878429567e-11 6.103645872262138e-11 6.167426987301364e-20
3.4340518103208963 6.0623062360103335e-19 5.526041563576887e-11 5.526041557332602e-11 6.244285126394441e-20
3.4469541582030403 5.141960977635191e-19 4.704719301802607e-11 4.7047192954184705e-11 6.384136089507635e-20
3.472904465399547 4.88402646285827e-19 4.502360629312952e-11 4.5023606225469716e-11 6.76598248669952e-20
3.4990501388274233 4.489525620398649e-19 4.16984635533431e-11 4.1698463481711415e-11 7.163167722270062e-20
3.5253949054701885 3.0855774310952254e-19 2.887444563741152e-11 2.88744455621805e-11 7.523101889829888e-20
3.5519380250092896 1.7660167717163978e-19 1.6650590356329695e-11 1.6650590277512643e-11 7.881705584818829e-20
3.578680990867387 1.2427877472089588e-19 1.180563582938469e-11 1.180563574616228e-11 8.322241142057109e-20
3.605625307711299 1.0311372274518694e-19 9.868848749812645e-12 9.86884866164945e-12 8.8163195882224e-20
3.660119384959845 8.767010097035928e-20 8.517579408314883e-12 8.51757930911525e-12 9.919963373572598e-20
3.715437065384467 7.673114762458418e-20 7.567475718483623e-12 7.567475606877526e-12 1.1160609366546035e-19
3.8285932144167436 7.116881487940933e-20 7.2326657024651126e-12 7.2326655610099714e-12 1.4145514230482503e-19
3.94519561050918 7.008889836318215e-20 7.339850399267381e-12 7.339850219968458e-12 1.7929892190450737e-19
4.06534921144712 7.085036433419491e-20 7.645561360062653e-12 7.645561132744774e-12 2.2731787896391495e-19
4.189162171576248 7.267898826837155e-20 8.081751253956154e-12 8.081750965605317e-12 2.883508360352168e-19
4.316745939156006 7.528647690182458e-20 8.626664269539669e-12 8.626663903632816e-12 3.659068547417203e-19
4.448215356677963 7.85762856415914e-20 9.277836902739964e-12 9.2778364385488e-12 4.6419116447454375e-19
4.58368876423945 8.256048931372354e-20 1.0045158929740005e-11 1.0045158340855607e-11 5.888844000972546e-19
4.723288106065518 8.733151772978109e-20 1.094926275476325e-11 1.0949262007497785e-11 7.472654652444653e-19
4.867139040275056 9.307404481554268e-20 1.2024631439806006e-11 1.2024630492234682e-11 9.475713234529133e-19
4.940699165968905 9.654099607148777e-20 1.2661046953966694e-11 1.2661045886914967e-11 1.0670517276126738e-18
5.015371051989984 1.0013232121763835e-19 1.3330510640059428e-11 1.3330509438800749e-11 1.2012586772205798e-18
5.091171501069577 1.0451681219100819e-19 1.4124507548116361e-11 1.4124506195100014e-11 1.3530163440666679e-18
5.129500256944802 1.0676752735891134e-19 1.4537297357051467e-11 1.453729592134226e-11 1.435709204935434e-18
5.168117569889187 1.0911434395888084e-19 1.4968685502342732e-11 1.4968683978904837e-11 1.5234378999729209e-18
5.20702561229733 1.1199552897590393e-19 1.547960349889648e-11 1.5479601881172423e-11 1.6177240611443504e-18
5.246226572918644 1.1495056281646014e-19 1.6007649920129487e-11 1.600764820252464e-11 1.717604846371251e-18
5.265937586045735 1.1645651284131258e-19 1.6278295273765284e-11 1.6278293504026322e-11 1.7697389611897088e-18
5.285722656980489 1.1798182569219563e-19 1.6553465088665985e-11 1.6553463265277494e-11 1.82338849619984e-18
5.305582063971359 1.1952681524036277e-19 1.6833243953097486e-11 1.683324207450312e-11 1.8785943644287273e-18
5.3255160863122235 1.2118685329500471e-19 1.7131154929946947e-11 1.713115299432206e-11 1.9356248906824773e-18
5.365609099470188 1.2532247863824347e-19 1.7849145866987774e-11 1.7849143810483834e-11 2.05650393906162e-18
5.406003951863644 1.296159571742429e-19 1.8599628213343946e-11 1.8599626028758013e-11 2.1845859354111327e-18
5.446702915881641 1.3407492686224565e-19 1.9384325311568432e-11 1.938432299130108e-11 2.3202673505769105e-18
5.487708281020852 1.3889358540934005e-19 2.02321780752814e-11 2.0232175610758227e-11 2.4645231658450086e-18
5.529022354014368 1.455927897494503e-19 2.1367693555398262e-11 2.136769093300664e-11 2.6223916281167306e-18
5.570647458961463 1.526875341103568e-19 2.2577647550872325e-11 2.2577644760977398e-11 2.7898949275720913e-18
5.612585937458331 1.6020630538477797e-19 2.3867780865104303e-11 2.38677778975299e-11 2.9675744081917886e-18
5.654840148729818 1.6847197036518329e-19 2.528817108457437e-11 2.5288167927491603e-11 3.157082760424523e-18
5.67608639626678 1.7410205695793406e-19 2.6231452095804722e-11 2.623144883489158e-11 3.2609131426389126e-18
5.686739436050992 1.770041848134849e-19 2.6718759870302995e-11 2.67187565562564e-11 3.3140465963951294e-18
5.6974124697621304 1.7996622205224634e-19 2.7216864717749797e-11 2.7216861349741936e-11 3.3680078583824497e-18
5.718818669136295 1.8607579748878565e-19 2.824656542169328e-11 2.8246561943231666e-11 3.478461612396879e-18
5.740305295436557 1.9281077753390306e-19 2.9378913449379683e-11 2.9378909855400806e-11 3.5939788741041156e-18
5.7835210386641895 2.1028442279604152e-19 3.2282626055991e-11 3.2282622206768146e-11 3.8492228654305515e-18
5.827062130521658 2.3041548179412307e-19 3.56394290629518e-11 3.5639424937520783e-11 4.1254310108584245e-18
5.8489554468988025 2.445386702497812e-19 3.7966039265379936e-11 3.7966034978874716e-11 4.2865052190065545e-18
5.870931020387893 2.5969511831034534e-19 4.047065158950175e-11 4.047064713577198e-11 4.453729771839099e-18
5.892989160043636 2.759680057340233e-19 4.316818711416193e-11 4.31681824868362e-11 4.627325733320893e-18
5.915130176081913 2.9447570332832543e-19 4.623631432454614e-11 4.623630951111676e-11 4.813429368979647e-18
5.95966208400165 3.4622547699858223e-19 5.477092694833598e-11 5.4770921684649054e-11 5.26368693040418e-18
6.004529249263818 4.208188533985366e-19 6.707235981767072e-11 6.707235398841929e-11 5.829251433261312e-18
6.027089341400364 4.726720917349115e-19 7.562006093682691e-11 7.562005474948217e-11 6.187344752930015e-18
6.049734195844842 5.339506929422307e-19 8.574462023787893e-11 8.574461365054655e-11 6.587332415478457e-18
6.095279466722835 7.109629779908446e-19 1.1502971453311162e-10 1.1502970686727212e-10 7.665839477866356e-18
6.141167624020661 9.83387664659119e-19 1.603042885657966e-10 1.6030427934120947e-10 9.224587096512484e-18
6.164241091010745 1.1573592129792823e-18 1.8937263508609871e-10 1.8937262483862634e-10 1.0247472430367033e-17
6.187401249150058 1.3555441460660136e-18 2.2263394377734388e-10 2.226339324022469e-10 1.1375097018424759e-17
6.1990139391386085 1.4523147057052137e-18 2.3897517091085353e-10 2.389751589550992e-10 1.1955754323059099e-17
6.204828454712694 1.503290339679716e-18 2.475951188962646e-10 2.4759510663870033e-10 1.2257564247892981e-17
6.210648424152782 1.5405027520538252e-18 2.5396206908677636e-10 2.539620565777938e-10 1.2508982523746273e-17
6.233982942956859 1.6669329130607396e-18 2.758374087708912e-10 2.7583739536774525e-10 1.3403145850466032e-17
6.239830258556775 1.6830966079048958e-18 2.78773349709353e-10 2.787733361815081e-10 1.352784501923763e-17
6.245683058788269 1.6845013221944245e-18 2.7926771471772675e-10 2.7926770106409083e-10 1.3653635874265743e-17
6.257405133728602 1.6810351339789444e-18 2.7921612627026947e-10 2.7921611239599847e-10 1.387427099846358e-17
6.269149208991335 1.6561782931003476e-18 2.7560375327196173e-10 2.7560373932335884e-10 1.3948602814033006e-17
6.280915325867298 1.593833794485309e-18 2.65726827625828e-10 2.6572681378486253e-10 1.3840965406542582e-17
6.304513850009849 1.4400860418667126e-18 2.409958018171496e-10 2.409957883608842e-10 1.3456265428346188e-17
6.32820103803542 1.2495089311875974e-18 2.0988870374452285e-10 2.0988869088418568e-10 1.2860337173371338e-17
6.3519772230701035 1.0747363312654335e-18 1.8120922190395246e-10 1.8120920960644464e-10 1.2297507856895888e-17
6.375842739491607 9.277064660293061e-19 1.5700649309210937e-10 1.5700648128805343e-10 1.1804055884707045e-17
6.399797922933955 8.098675752813977e-19 1.375782261456749e-10 1.3757821466995438e-10 1.1475720505663949e-17
6.42384311029221 7.118992576317726e-19 1.213899964496504e-10 1.2138998525001078e-10 1.1199639641847762e-17
6.447978639727206 6.405103639077107e-19 1.0962741774215936e-10 1.0962740666488817e-10 1.1077271223447843e-17
6.472204850670314 5.810437985831793e-19 9.982298629185237e-11 9.982297529862658e-11 1.0993225805605513e-17
6.496522083828205 5.423999992523938e-19 9.353411306438848e-11 9.353410202125619e-11 1.1043132298145421e-17
