Dust emission spectrum from A.P. Jones, M. Kohler, N. Ysard, M. Bocchio, and L. Verstraete (2017), A&A, 602A, 46J 
inside the DustPedia framework.

lambda    nu*dP/dnu     j_nu    j_nu(carb.) j_nu(sil)
 (um)   (erg s-1 H-1) (Jy cm2 sr-1 H-1)
0.9927057738263894 7.009584715389728e-21 1.8470653861515483e-13 1.8470652966796886e-13 8.947185974434155e-21
1.0001793341362166 7.127439942232015e-21 1.8922602935802483e-13 1.892260185909229e-13 1.0767101961041721e-20
1.0077091589558085 7.245763739279219e-21 1.938156347602355e-13 1.9381562182029728e-13 1.2939938154517102e-20
1.0114953028030835 7.305095942624031e-21 1.9613686418254975e-13 1.9613685000401126e-13 1.4178538497857662e-20
1.0152956718711033 7.364538890632706e-21 1.984757847670403e-13 1.9847576923653183e-13 1.5530508481020017e-20
1.0229392996569957 7.483690985854206e-21 2.0320535253916894e-13 2.0320533392410675e-13 1.8615062173054453e-20
1.0267826658714554 7.543264803556443e-21 2.0559252249171528e-13 2.055925021211995e-13 2.037051570229281e-20
1.0306404723013447 7.602938516930425e-21 2.079974948647826e-13 2.0799747258070992e-13 2.2284072739724545e-20
1.03451277320114 7.662710298928718e-21 2.1042032983061524e-13 2.1042030546136578e-13 2.4369249440881158e-20
1.0383996230291617 7.722578379071581e-21 2.128610889830833e-13 2.128610623424323e-13 2.6640650938791016e-20
1.0403485208654093 7.752547993494173e-21 2.1408820978214707e-13 2.1408818193107911e-13 2.785106791215276e-20
1.0423010764483396 7.782541044885316e-21 2.1531983540290562e-13 2.1531980628885224e-13 2.911405330262842e-20
1.0462171883269815 7.842596643331748e-21 2.1779663372381596e-13 2.1779660191732474e-13 3.180649119150231e-20
1.0471985131304309 7.857624875725958e-21 2.184186616411454e-13 2.1841862912519688e-13 3.2515948570028596e-20
1.048180758391296 7.87265879231933e-21 2.190418229863672e-13 2.1904178974582837e-13 3.3240538865295227e-20
1.0501480137395462 7.902743582228076e-21 2.202915501996608e-13 2.2029151546330922e-13 3.473635156275183e-20
1.0521189612883777 7.932850823775051e-21 2.2154582390972934e-13 2.215457876132739e-13 3.629645537852444e-20
1.0531058218030118 7.947892865424935e-21 2.2217411099027414e-13 2.221740738887877e-13 3.710148643013021e-20
1.0540936079674168 7.962875123588649e-21 2.2280170904456045e-13 2.2280167112079543e-13 3.7923765013114605e-20
1.058054026499678 8.022856506494334e-21 2.2532340317198462e-13 2.2532336178137525e-13 4.1390609391123146e-20
1.0590464539527713 8.037864831791582e-21 2.2595665767481118e-13 2.2595661537125457e-13 4.230355660917279e-20
1.06003981227728 8.052878306632368e-21 2.2659104678924645e-13 2.2659100355350268e-13 4.3235743781950083e-20
1.0620293250338977 8.082920622478946e-21 2.2786323335950483e-13 2.278631882001191e-13 4.5159385762192155e-20
1.0660195594769086 8.143066156475496e-21 2.304212718416729e-13 2.3042122258668384e-13 4.9254989032188845e-20
1.070024785945596 8.203291861884575e-21 2.3299759283780133e-13 2.329975391335585e-13 5.3704242864716e-20
1.0740450607676866 8.26359656191417e-21 2.3559227262452303e-13 2.3559221408848427e-13 5.853603876395034e-20
1.07808044048254 8.32397915090502e-21 2.382053896091854e-13 2.382053258277011e-13 6.378148437261193e-20
1.0861967418109137 8.444881506761236e-21 2.4348459494364845e-13 2.434845192938454e-13 7.564980320860328e-20
1.0902777775684922 8.505189278988911e-21 2.4614474953410916e-13 2.4614466718663997e-13 8.234746912327389e-20
1.0943741465085532 8.56556762848873e-21 2.4882350657295546e-13 2.488234169642542e-13 8.960870127864715e-20
1.1026131145906286 8.686533286084925e-21 2.5423718716856586e-13 2.5423708116426535e-13 1.0600430054097059e-19
1.1109141095355224 8.807773733720693e-21 2.597263815718828e-13 2.597262563356914e-13 1.2523619139360942e-19
1.1192775983109025 8.929190582706867e-21 2.6528905779934406e-13 2.652889100343494e-13 1.4776499475206187e-19
1.1277040513999907 9.050345302352909e-21 2.709129236309234e-13 2.709127495099822e-13 1.7412094110542258e-19
1.1361939428280308 9.171754451588918e-21 2.7661410512055416e-13 2.766139002070055e-13 2.0491354869625018e-19
1.1447477501889525 9.293418863012376e-21 2.8239353072596744e-13 2.8239328988343894e-13 2.4084252851581623e-19
1.1533659546722406 9.415384112917456e-21 2.8825350915391257e-13 2.88253226443468e-13 2.827104446614961e-19
1.1707974979042381 9.660587907644448e-21 3.002304764546594e-13 3.0023008838119653e-13 3.8807346286400235e-19
1.1884924949847024 9.907037817136253e-21 3.12542943120262e-13 3.1254241308724046e-13 5.30033021546485e-19
1.2064549276569216 1.0156402222066818e-20 3.2525233755370837e-13 3.2525161720917697e-13 7.203445313442721e-19
1.2246888378427687 1.0407071351397832e-20 3.383169249528296e-13 3.3831595076609754e-13 9.741867321320129e-19
1.2431983285522175 1.0658846833539122e-20 3.517386335595372e-13 3.5173732247028327e-13 1.3110892538923785e-18
1.2619875648066055 1.091210206731254e-20 3.655383339956876e-13 3.655365779437566e-13 1.7560519309806386e-18
1.3004222497298317 1.142152627256717e-20 3.9425568795454495e-13 3.9425258208181754e-13 3.1058727274847935e-18
1.3400274889804893 1.1936940912527708e-20 4.24596279766751e-13 4.2459088729737535e-13 5.392469375642057e-18
1.3808389325824078 1.2460319153265826e-20 4.567111587365717e-13 4.567019636943287e-13 9.195042242927517e-18
1.4228933163050095 1.2996153432578101e-20 4.908588238351654e-13 4.908434175776327e-13 1.5406257532605087e-17
1.466228494730424 1.3553875015366432e-20 5.275146982182435e-13 5.274893215048389e-13 2.537671340455948e-17
1.5108834753276823 1.41325300088159e-20 5.66787574344195e-13 5.66746463170085e-13 4.111117410991592e-17
1.5568984535646726 1.4731826121465668e-20 6.088163465247934e-13 6.087507728712637e-13 6.557365352966477e-17
1.6043148490894465 1.5355498081405366e-20 6.53917476424764e-13 6.538143056958115e-13 1.031707289525541e-16
1.6531753430134553 1.6007526789278465e-20 7.024454270083022e-13 7.022854987517789e-13 1.599282565233963e-16
1.7035239163302658 1.669257914065743e-20 7.548160255554074e-13 7.545717181178892e-13 2.4430743751813393e-16
1.755405889504358 1.742356523756936e-20 8.118653567625999e-13 8.114973910630054e-13 3.6796569959448628e-16
1.8088679632656115 1.8200873211537196e-20 8.739136533314786e-13 8.733670279422221e-13 5.466253892568615e-16
1.8639582606462262 1.9024623852470533e-20 9.412862070919642e-13 9.404849802920821e-13 8.012267998821548e-16
1.9207263702978936 1.989767051281822e-20 1.0144652313822098e-12 1.0133060101450499e-12 1.1592212371602318e-15
1.979223391128241 2.082412099991853e-20 1.0940342709349293e-12 1.0923781640122007e-12 1.6561069227289246e-15
2.039501978296691 2.1807663080812245e-20 1.1805997660938864e-12 1.1782626814744382e-12 2.3370846194485342e-15
2.1016163906111602 2.285861345678715e-20 1.2751837319909123e-12 1.2719246016262964e-12 3.2591303646160185e-15
2.1656225393682647 2.3982311958894783e-20 1.378615775489327e-12 1.374122972311712e-12 4.4928031776150764e-15
2.231578038680979 2.5176867104394813e-20 1.4913624336911348e-12 1.4852381648973209e-12 6.124268793813819e-15
2.299542257339062 2.644396086656058e-20 1.6141256302234683e-12 1.6058682433539793e-12 8.257386869488931e-15
2.369576372248914 2.7787793358236756e-20 1.7478099379251272e-12 1.7367940314347456e-12 1.1015906490381839e-14
2.4417434235010123 2.9213349414727735e-20 1.8934367971715418e-12 1.8788917578428965e-12 1.4545039328646154e-14
2.5161083711144245 3.073069853939101e-20 2.0524434876144333e-12 2.0334299157585e-12 1.9013571855933132e-14
2.5927381535095444 3.235642797546559e-20 2.226838200313452e-12 2.2022232157836943e-12 2.4614984529757655e-14
2.6717017477616296 3.410488329992673e-20 2.4186552837316885e-12 2.387088464582691e-12 3.156681914899685e-14
2.753070231689431 3.5996964474575957e-20 2.6305865969607886e-12 2.5904759367931283e-12 4.0110660167660893e-14
2.836916847834745 3.80889894046488e-20 2.868240008777854e-12 2.8177270266233705e-12 5.051298215448364e-14
2.9233170693905177 4.050386201623514e-20 3.1429812515024447e-12 3.0799307560943507e-12 6.305049540809364e-14
2.967498994190263 4.194625591578793e-20 3.3041002486989788e-12 3.23402696682052e-12 7.007328187845918e-14
3.0123486681368425 4.348754548848357e-20 3.47727923800502e-12 3.399502289308977e-12 7.777694869604273e-14
3.0578761833420214 4.586146060775144e-20 3.7225214726436494e-12 3.63628012742897e-12 8.624134521468044e-14
3.1040917844459814 4.860722557298177e-20 4.005021209452429e-12 3.9095843340821564e-12 9.543687537027286e-14
3.127460860933648 5.102410768788731e-20 4.23581257084385e-12 4.135458346197477e-12 1.0035422464637259e-13
3.1510058709225794 5.4053926741990624e-20 4.521118540882042e-12 4.415643165260412e-12 1.0547537562162872e-13
3.162844764501044 5.672509070943237e-20 4.762363148257278e-12 4.654239288817486e-12 1.0812385943979179e-13
3.1747281389236908 5.973718562256961e-20 5.034087180120812e-12 4.9232621960241195e-12 1.1082498409669264e-13
3.1986289994194426 6.783277623609629e-20 5.759342357830336e-12 5.6429405817173234e-12 1.164017761130123e-13
3.2227097969389145 8.633647072642635e-20 7.385585393605938e-12 7.2632788166618016e-12 1.2230657694413698e-13
3.2348180950136065 1.0361429097388351e-19 8.896905063582987e-12 8.771448494950613e-12 1.2545656863237376e-13
3.240889293275058 1.1649739680729477e-19 1.0021895040455525e-11 9.894776928178365e-12 1.2711811227715892e-13
3.2469718861334385 1.3141995299768776e-19 1.1326853120455671e-11 1.119801580459054e-11 1.288373158651337e-13
3.2714166318528037 2.096516728200055e-19 1.820554239601234e-11 1.806960418494915e-11 1.3593821106318672e-13
3.2744851364798273 2.1455342792770216e-19 1.86486721568624e-11 1.85118981573503e-11 1.3677399951209437e-13
3.2775565192852394 2.1958558277007157e-19 1.9103961975763065e-11 1.8966348105513074e-11 1.3761387024998755e-13
3.283707930232385 2.1482879620432324e-19 1.8725199341039975e-11 1.8586085600435394e-11 1.3911374060457897e-13
3.2898708863219004 1.9959557210870972e-19 1.7430072342342624e-11 1.7289595557298777e-11 1.404767850438483e-13
3.29141343181113 1.9599607581812282e-19 1.7123764493549442e-11 1.698294549009488e-11 1.408190034545619e-13
3.292184975758714 1.942263461268555e-19 1.6973124693355282e-11 1.6832134361882492e-11 1.4099033147279404e-13
3.295272960557952 1.8317810751187513e-19 1.6022651830254515e-11 1.588099542811709e-11 1.4165640213741715e-13
3.3076538914384823 1.446252290340492e-19 1.2697948227710058e-11 1.2553617528299591e-11 1.443306994104641e-13
3.310756385682612 1.3670098743928463e-19 1.2013465625713625e-11 1.1868461046107136e-11 1.450045796064908e-13
3.313861789986515 1.2935935775639042e-19 1.1378936537040807e-11 1.1233255952166785e-11 1.4568058487402026e-13
3.3200813396944477 1.1912357301684393e-19 1.0498224797912009e-11 1.0351089299841752e-11 1.471354980702575e-13
3.345076488085796 1.0138267394500785e-19 9.00200453200664e-12 8.848382986598533e-12 1.53621545408109e-13
3.3482140837626964 1.0214294847948456e-19 9.07801805258133e-12 8.923517771647531e-12 1.5450028093379984e-13
3.3513546224236106 1.0290993949169685e-19 9.154763741724498e-12 8.999380870828132e-12 1.5538287089636588e-13
3.3576445397418455 1.0814241489563959e-19 9.638294979564685e-12 9.481066480591478e-12 1.5722849897320988e-13
3.3702598118196083 1.2699844053342866e-19 1.1361383063670315e-11 1.1200283464894824e-11 1.6109959877548922e-13
3.382922481734668 1.3159530405928814e-19 1.1816854038161973e-11 1.1651994773587323e-11 1.6485926457465475e-13
3.389271646505754 1.3396351797524673e-19 1.2052089702246431e-11 1.18853253813874e-11 1.6676432085903193e-13
3.395632727569191 1.3656458847550168e-19 1.23091551033758e-11 1.2140427507094787e-11 1.687275962810122e-13
3.421196662673239 1.4913657209778018e-19 1.354352236895926e-11 1.3366670965635664e-11 1.768514033235939e-13
3.4276182099114902 1.4697236621610587e-19 1.3372036727467252e-11 1.3193375616820841e-11 1.7866111064640861e-13
3.4340518103208963 1.369370144699387e-19 1.2482372286937058e-11 1.2302001091891942e-11 1.8037119504511584e-13
3.4469541582030403 1.2256766813526623e-19 1.1214524508471193e-11 1.1030874237399594e-11 1.8365027107160064e-13
3.472904465399547 1.1879613900075926e-19 1.0951272750442688e-11 1.0760064100752607e-11 1.9120864969008278e-13
3.4990501388274233 1.1297012839740907e-19 1.0492602515046046e-11 1.0293666541668483e-11 1.9893597337756508e-13
3.5253949054701885 9.167268368496461e-20 8.578614475273697e-12 8.372183093073216e-12 2.064313822004798e-13
3.5519380250092896 7.141199816830896e-20 6.732959432043422e-12 6.519003906809201e-12 2.1395552523421903e-13
3.578680990867387 6.369087538249656e-20 6.05019869329346e-12 5.827997790739733e-12 2.2220090255372722e-13
3.605625307711299 6.090628595260897e-20 5.829242781433697e-12 5.598363759131707e-12 2.3087902230198934e-13
3.660119384959845 5.956937926249179e-20 5.787456756139063e-12 5.538372406152344e-12 2.4908434998671934e-13
3.715437065384467 5.888098680502531e-20 5.8070347143435974e-12 5.538797575471182e-12 2.682371388724153e-13
3.8285932144167436 6.009526784857656e-20 6.107295497126614e-12 5.798032534164464e-12 3.09262962962151e-13
3.94519561050918 6.198201824502718e-20 6.490881608750483e-12 6.137090444998605e-12 3.537911637518769e-13
4.06534921144712 6.411561225005643e-20 6.9188048953927974e-12 6.517087089063596e-12 4.017178063291998e-13
4.189162171576248 6.636431851838512e-20 7.379573205166771e-12 6.9264950074796086e-12 4.530781976871605e-13
4.316745939156006 6.866570668516135e-20 7.868026540490393e-12 7.360408996903137e-12 5.076175435872564e-13
4.448215356677963 7.098299183231966e-20 8.381264343452196e-12 7.816758806846461e-12 5.645055366057359e-13
4.58368876423945 7.330251898471927e-20 8.91873896669593e-12 8.294988494342297e-12 6.237504723536319e-13
4.723288106065518 7.562431111159024e-20 9.481461842571357e-12 8.795797479019372e-12 6.856643635519857e-13
4.867139040275056 7.794399926481089e-20 1.006991654828509e-11 9.321431425558444e-12 7.484851227266437e-13
4.940699165968905 7.913563151940797e-20 1.0378388323827764e-11 9.597974326702527e-12 7.804139971252384e-13
5.015371051989984 8.02972348834475e-20 1.068988645189418e-11 9.877308685124132e-12 8.125777667700479e-13
5.091171501069577 8.154051910396247e-20 1.1019468097213254e-11 1.0173777729480741e-11 8.456903677325132e-13
5.129500256944802 8.21489443695403e-20 1.1185270104208426e-11 1.0322976041002645e-11 8.622940632057809e-13
5.168117569889187 8.275887630415795e-20 1.1353150713081838e-11 1.0474050622615796e-11 8.791000904660393e-13
5.20702561229733 8.345083664520853e-20 1.1534262793624012e-11 1.0636752034284984e-11 8.975107593390266e-13
5.246226572918644 8.413625546262108e-20 1.171654744471912e-11 1.0800548775551384e-11 9.159986691677363e-13
5.265937586045735 8.447649505953539e-20 1.1808127314834617e-11 1.0882858489355852e-11 9.252688254787638e-13
5.285722656980489 8.481508106560419e-20 1.1899997946079638e-11 1.096544298762799e-11 9.345549584516465e-13
5.305582063971359 8.515200939917403e-20 1.1992158784037522e-11 1.1048302844142984e-11 9.438559398945401e-13
5.3255160863122235 8.55032391021295e-20 1.2086865829457552e-11 1.1133615855719364e-11 9.532499737381933e-13
5.365609099470188 8.632428147854221e-20 1.2294799055332564e-11 1.132210890978397e-11 9.726901455485928e-13
5.406003951863644 8.714520501393118e-20 1.2505161009271576e-11 1.1512955861911171e-11 9.922051473604072e-13
5.446702915881641 8.796642115463982e-20 1.2718035833112467e-11 1.170624989872929e-11 1.0117859343831777e-12
5.487708281020852 8.881851593358659e-20 1.2937905126824534e-11 1.1906392029272371e-11 1.0315130975521675e-12
5.529022354014368 8.993973794443979e-20 1.3199862178318286e-11 1.214778666211621e-11 1.0520755162020718e-12
5.570647458961463 9.108215649188227e-20 1.3468164506218374e-11 1.2395452253444242e-11 1.0727122527741302e-12
5.612585937458331 9.224808015609776e-20 1.3743260336128558e-11 1.2649846242994394e-11 1.093414093134166e-12
5.654840148729818 9.348519597542593e-20 1.4032421088072564e-11 1.2918139412976285e-11 1.1142816750962746e-12
5.67608639626678 9.431456331583242e-20 1.4210101780438822e-11 1.3084889968256182e-11 1.125211812182639e-12
5.686739436050992 9.473607195468974e-20 1.4300398379170197e-11 1.3169713650495568e-11 1.1306847286746312e-12
5.6974124697621304 9.51622974034423e-20 1.4391697203644403e-11 1.325553452122738e-11 1.1361626824170275e-12
5.718818669136295 9.602941890886202e-20 1.4577399641561852e-11 1.3430266527028155e-11 1.1471331145337006e-12
5.740305295436557 9.697323483141881e-20 1.477598041695399e-11 1.3617771005035144e-11 1.158209411918848e-12
5.7835210386641895 9.939426213529141e-20 1.5258894377245143e-11 1.4077799897355497e-11 1.1810944798896445e-12
5.827062130521658 1.0209681845033148e-19 1.5791787471836732e-11 1.4587503095053897e-11 1.2042843767828368e-12
5.8489554468988025 1.040013886399995e-19 1.6146815555703684e-11 1.492996768605611e-11 1.2168478696475754e-12
5.870931020387893 1.0600700408986493e-19 1.6520035326351017e-11 1.5290584907768374e-11 1.2294504185826343e-12
5.892989160043636 1.0812175635741687e-19 1.6912903353177964e-11 1.567081249218314e-11 1.2420908609948272e-12
5.915130176081913 1.1050711593753534e-19 1.7350979010618682e-11 1.6095772166349753e-11 1.2552068442689264e-12
5.95966208400165 1.1718999223747762e-19 1.853879893402885e-11 1.7253463771185746e-11 1.285335162843112e-12
6.004529249263818 1.2670603747979727e-19 2.0195086005017347e-11 1.887571190464178e-11 1.319374100375566e-12
6.027089341400364 1.3330200128549178e-19 2.1326212476837327e-11 1.9987049877326592e-11 1.3391625995107362e-12
6.049734195844842 1.410045333479147e-19 2.2643252127110478e-11 2.1283102325852836e-11 1.3601498012576489e-12
6.095279466722835 1.6317546366311263e-19 2.6400850093515954e-11 2.4988701770980232e-11 1.4121483225357214e-12
6.141167624020661 1.968839515558152e-19 3.209450648856585e-11 3.061436122168064e-11 1.4801452668852207e-12
6.164241091010745 2.183455274817514e-19 3.57267367251032e-11 3.4203669314991e-11 1.523067410112199e-12
6.187401249150058 2.424188006923762e-19 3.981475173681972e-11 3.8247656998266354e-11 1.5670947385533711e-12
6.1990139391386085 2.541031608545006e-19 4.181211279872422e-11 4.0222624509651366e-11 1.5894882890728613e-12
6.204828454712694 2.602265326994104e-19 4.285986386196065e-11 4.1259069845522535e-11 1.6007940164381128e-12
6.210648424152782 2.6465080003627552e-19 4.3629435048445066e-11 4.20190633201511e-11 1.6103717282939811e-12
6.233982942956859 2.794421394909039e-19 4.624097050014646e-11 4.459743835474941e-11 1.6435321453970598e-12
6.239830258556775 2.8119611636987548e-19 4.65748566763915e-11 4.492689794064628e-11 1.6479587357452244e-12
6.245683058788269 2.811414256145519e-19 4.66094757002498e-11 4.495708509010974e-11 1.6523906101400597e-12
6.257405133728602 2.802573041089556e-19 4.655010310643014e-11 4.4890057470178126e-11 1.660045636252014e-12
6.269149208991335 2.767477997596693e-19 4.6053454897504085e-11 4.439109101996443e-11 1.6623638775396503e-12
6.280915325867298 2.6866250923878583e-19 4.479189519574167e-11 4.313380582264191e-11 1.6580893730997724e-12
6.304513850009849 2.4902176601644687e-19 4.1673343415830945e-11 4.0029758454653425e-11 1.64358496117753e-12
6.32820103803542 2.2514786691312926e-19 3.781965279137823e-11 3.619690766504344e-11 1.6227451263347851e-12
6.3519772230701035 2.033912876284656e-19 3.429341309212206e-11 3.26894823232355e-11 1.60393076888657e-12
6.375842739491607 1.8502612276718863e-19 3.131411036773854e-11 2.972691129473499e-11 1.5871990730035548e-12
6.399797922933955 1.7048336654400383e-19 2.8961276969654343e-11 2.738331296717303e-11 1.5779640024813136e-12
6.42384311029221 1.5833086783848418e-19 2.6997897917074412e-11 2.5427670575964425e-11 1.5702273411099886e-12
6.447978639727206 1.4951636272043318e-19 2.559067530967056e-11 2.402235221230646e-11 1.5683230973640968e-12
6.472204850670314 1.4213517814523223e-19 2.4418740849103782e-11 2.2851168885437172e-11 1.5675719636666111e-12
6.496522083828205 1.3732366550393728e-19 2.3680765621986398e-11 2.210923121813914e-11 1.5715344038472582e-12
6.520930681187647 1.3324436850496304e-19 2.306364153963037e-11 2.148744283296586e-11 1.576198706664512e-12
