Dust emission spectrum from A.P. Jones, M. Kohler, N. Ysard, M. Bocchio, and L. Verstraete (2017), A&A, 602A, 46J 
inside the DustPedia framework.

lambda    nu*dP/dnu     j_nu    j_nu(carb.) j_nu(sil)
 (um)   (erg s-1 H-1) (Jy cm2 sr-1 H-1)
0.9927057738263894 1.415248684986936e-23 3.7292606694611097e-16 3.7292606694397794e-16 2.1330334631937683e-27
1.0001793341362166 1.4386170214832824e-23 3.819376788138894e-16 3.8193767881131996e-16 2.569514536553097e-27
1.0077091589558085 1.4619516958790243e-23 3.9105483717273704e-16 3.9105483716964574e-16 3.091335811028254e-27
1.0114953028030835 1.4736035359602966e-23 3.9565254017423523e-16 3.9565254017084614e-16 3.389094980447499e-27
1.0152956718711033 1.485243521056579e-23 4.002760767368844e-16 4.002760767331701e-16 3.714334551139207e-27
1.0229392996569957 1.508471952230768e-23 4.0959678242715903e-16 4.0959678242270177e-16 4.457174655403056e-27
1.0267826658714554 1.5200322138920363e-23 4.1428647311359353e-16 4.1428647310871315e-16 4.880376215622354e-27
1.0306404723013447 1.5315755095676944e-23 4.190009803143178e-16 4.1900098030897584e-16 5.3420294707428456e-27
1.03451277320114 1.5431007253925864e-23 4.23740100998421e-16 4.2374010099257555e-16 5.845457531618135e-27
1.0383996230291617 1.5546067537011905e-23 4.2850362960391797e-16 4.2850362959752366e-16 6.394254811763162e-27
1.0403485208654093 1.5603522281389833e-23 4.308944819589531e-16 4.3089448195226633e-16 6.686869424504585e-27
1.0423010764483396 1.5660924932400052e-23 4.3329135808641675e-16 4.332913580794245e-16 6.99230777820842e-27
1.0462171883269815 1.5775568493752424e-23 4.381030759678492e-16 4.381030759602054e-16 7.64381717344147e-27
1.0471985131304309 1.5804194696216137e-23 4.3930972888861606e-16 4.3930972888080047e-16 7.815571196092881e-27
1.048180758391296 1.5832806684535876e-23 4.405178645053119e-16 4.405178644973208e-16 7.991022518992914e-27
1.0501480137395462 1.588998734295804e-23 4.429385703852377e-16 4.4293857037688443e-16 8.3533218036783e-27
1.0521189612883777 1.594710912024083e-23 4.453651666351186e-16 4.453651666263873e-16 8.731339376681754e-27
1.0531058218030118 1.597560362418719e-23 4.465794384543486e-16 4.46579438445422e-16 8.926456901254921e-27
1.0540936079674168 1.6003939126437806e-23 4.4779114747795865e-16 4.477911474688329e-16 9.125792030270541e-27
1.058054026499678 1.611711961373682e-23 4.526522738824319e-16 4.526522738724652e-16 9.96663308997016e-27
1.0590464539527713 1.61453735275321e-23 4.538711107411572e-16 4.538711107309691e-16 1.0188165056010254e-26
1.06003981227728 1.617361062813223e-23 4.550913627456446e-16 4.550913627352304e-16 1.0414410369004959e-26
1.0620293250338977 1.623003373222493e-23 4.575360982110446e-16 4.575360982001631e-16 1.0881424626085272e-26
1.0660195594769086 1.634267096666151e-23 4.62442396643626e-16 4.624423966317496e-16 1.1876336955317044e-26
1.070024785945596 1.6455020881503117e-23 4.67370943279493e-16 4.673709432665349e-16 1.2958025366875945e-26
1.0740450607676866 1.6567073122619352e-23 4.723215101864124e-16 4.723215101722789e-16 1.41336657123647e-26
1.07808044048254 1.6678817418961697e-23 4.772938674494733e-16 4.772938674340623e-16 1.5410992405893723e-26
1.0861967418109137 1.690114391981654e-23 4.872973265647487e-16 4.872973265464441e-16 1.8304683818187966e-26
1.0902777775684922 1.701125667335026e-23 4.923149121991107e-16 4.92314912179171e-16 1.9939695263604414e-26
1.0943741465085532 1.7121013409127208e-23 4.973529808313774e-16 4.973529808096636e-16 2.171377058635938e-26
1.1026131145906286 1.73394198205358e-23 5.074896022524494e-16 5.074896022267247e-16 2.572472919547824e-26
1.1109141095355224 1.7556286085327524e-23 5.177052450070934e-16 5.177052449766557e-16 3.04376138634276e-26
1.1192775983109025 1.7771335191575134e-23 5.279919523657528e-16 5.279919523297848e-16 3.5968015077223487e-26
1.1277040513999907 1.7983567685418767e-23 5.383198912537379e-16 5.383198912112887e-16 4.244929234579441e-26
1.1361939428280308 1.8194009506952996e-23 5.487194063998069e-16 5.487194063497719e-16 5.003507951757797e-26
1.1447477501889525 1.8402590503007001e-23 5.591884518765595e-16 5.591884518176573e-16 5.89021495624329e-26
1.1533659546722406 1.8609355913914335e-23 5.697284445273435e-16 5.697284444580897e-16 6.92537242017745e-26
1.1707974979042381 1.9018108580306037e-23 5.910422693647386e-16 5.910422692693606e-16 9.537809128346245e-26
1.1884924949847024 1.9418718628049421e-23 6.126133344456325e-16 6.126133343149239e-16 1.3070872842067884e-25
1.2064549276569216 1.9814321564788424e-23 6.345410771528901e-16 6.3454107697463585e-16 1.7825463099500546e-25
1.2246888378427687 2.020059402716414e-23 6.5668838261330155e-16 6.566883823713818e-16 2.41919953339427e-25
1.2431983285522175 2.0576632300864315e-23 6.790224722987134e-16 6.790224719719606e-16 3.26752999481859e-25
1.2619875648066055 2.0942296145211674e-23 7.015341311639993e-16 7.015341307247512e-16 4.3924813898890525e-25
1.3004222497298317 2.1636420254916143e-23 7.468600560823557e-16 7.468600552996371e-16 7.827185783983875e-25
1.3400274889804893 2.228025294946359e-23 7.925072750151691e-16 7.925072736456793e-16 1.3694899387904284e-24
1.3808389325824078 2.2871410079643312e-23 8.383114486016533e-16 8.383114462478535e-16 2.3538000464635773e-24
1.4228933163050095 2.341277631862572e-23 8.842899482602248e-16 8.842899442841871e-16 3.9760373009072745e-24
1.466228494730424 2.391739617586285e-23 9.308613228004866e-16 9.308613161963291e-16 6.60415765095366e-24
1.5108834753276823 2.437545574330736e-23 9.775818926735124e-16 9.775818818825202e-16 1.0790992467134202e-23
1.5568984535646726 2.4779016200782767e-23 1.0240325937500504e-15 1.024032576386713e-15 1.736333733812117e-23
1.6043148490894465 2.5128821341365503e-23 1.0701167327794407e-15 1.07011670521642e-15 2.7563020615835327e-23
1.6531753430134553 2.5425941757403107e-23 1.1157461580404637e-15 1.11574611492358e-15 4.311688384195999e-23
1.7035239163302658 2.5673917144371108e-23 1.1609400761894363e-15 1.1609400097079865e-15 6.648144983044783e-23
1.755405889504358 2.5893170654936096e-23 1.206513589202549e-15 1.2065134881133517e-15 1.0108919728333874e-22
1.8088679632656115 2.6078666783382327e-23 1.2521653602989476e-15 1.2521652086582893e-15 1.5164065831086814e-22
1.8639582606462262 2.622699729354145e-23 1.2976398901386415e-15 1.2976396656433452e-15 2.24495296151011e-22
1.9207263702978936 2.6340644433246783e-23 1.3429545902127554e-15 1.3429542620832141e-15 3.2812954164618227e-22
1.979223391128241 2.6425378102356976e-23 1.388306822962903e-15 1.38830634926714e-15 4.736957627227217e-22
2.039501978296691 2.648810192530306e-23 1.4339843210801777e-15 1.4339836454217448e-15 6.756584331521014e-22
2.1016163906111602 2.65481411338219e-23 1.4810066127784604e-15 1.4810056601788556e-15 9.525996041919627e-22
2.1656225393682647 2.661670390900643e-23 1.530052980854301e-15 1.5300516528437244e-15 1.3280105769205287e-21
2.231578038680979 2.669459808129294e-23 1.581265873781983e-15 1.5812640425689063e-15 1.8312130770272453e-21
2.299542257339062 2.67885371982231e-23 1.6351583904560015e-15 1.635155892075027e-15 2.4983809746927258e-21
2.369576372248914 2.691335824501889e-23 1.6928092992903992e-15 1.6928059256010609e-15 3.373689338334053e-21
2.4417434235010123 2.708658044654102e-23 1.7555921917386175e-15 1.755587681360794e-15 4.510377823400057e-21
2.5161083711144245 2.733820250823759e-23 1.8258652867650943e-15 1.825859314670362e-15 5.9720947320065826e-21
2.5927381535095444 2.77173121163181e-23 1.907564378782139e-15 1.90755654471019e-15 7.834071949035534e-21
2.6717017477616296 2.828251407360834e-23 2.0057436203423572e-15 2.0057334364980833e-15 1.0183844273901927e-20
2.753070231689431 2.9122038676812816e-23 2.128180687943964e-15 2.128167565625241e-15 1.3122318722806711e-20
2.836916847834745 3.043577023923196e-23 2.2919246549366497e-15 2.2919078897082143e-15 1.6765228435049135e-20
2.9233170693905177 3.266392232650983e-23 2.534624857047027e-15 2.534603616622003e-15 2.1240425024541862e-20
2.967498994190263 3.455550058125603e-23 2.7219315662800808e-15 2.7219077695692323e-15 2.3796710846963553e-20
3.0123486681368425 3.67645268400144e-23 2.9397043323522432e-15 2.939677707024176e-15 2.6625328066704512e-20
3.0578761833420214 4.1705858347880275e-23 3.3852160654643102e-15 3.3851863066418964e-15 2.9758822412869657e-20
3.1040917844459814 4.8073082627008445e-23 3.9610101842954675e-15 3.960976984711046e-15 3.319958442230619e-20
3.127460860933648 5.480799436888467e-23 4.549935355078686e-15 4.549900300928576e-15 3.5054150109485897e-20
3.1510058709225794 6.378117011552952e-23 5.334713833925116e-15 5.334676837575555e-15 3.699634956129305e-20
3.162844764501044 7.213346193875423e-23 6.0559751707231736e-15 6.05593716576142e-15 3.800496175326505e-20
3.1747281389236908 8.184648036736377e-23 6.89725023469615e-15 6.89721119814505e-15 3.903655109942424e-20
3.1986289994194426 1.0893873981159406e-22 9.24944449305469e-15 9.249403317646087e-15 4.1175408602425055e-20
3.2227097969389145 1.7280066874290202e-22 1.4782097117646928e-14 1.478205366607795e-14 4.3451568975921376e-20
3.2348180950136065 2.3336143831632706e-22 2.0037723973084506e-14 2.0037679304211382e-14 4.4668873127476534e-20
3.240889293275058 2.7863833799223292e-22 2.3970356884663638e-14 2.3970311573566683e-14 4.5311096955067613e-20
3.2469718861334385 3.3101667854921293e-22 2.852974158660666e-14 2.85296956108876e-14 4.5975719062714204e-20
3.2714166318528037 6.104107634148431e-22 5.3006297936253656e-14 5.300624920590779e-14 4.8730345872303126e-20
3.2744851364798273 6.278764074317824e-22 5.45741048759634e-14 5.457405581883756e-14 4.905712582826883e-20
3.2775565192852394 6.458437011112552e-22 5.618844986391856e-14 5.6188400478168305e-14 4.938575025541913e-20
3.283707930232385 6.285642738984977e-22 5.478777303304816e-14 5.478772305536256e-14 4.997768559671463e-20
3.2898708863219004 5.737667297752935e-22 5.010529793800128e-14 5.010524741768549e-14 5.0520315778130606e-20
3.29141343181113 5.608441120729762e-22 4.8999769269071654e-14 4.8999718612387407e-14 5.065668425341646e-20
3.292184975758714 5.544943970086099e-22 4.845636408176585e-14 4.845631335679046e-14 5.072497538301828e-20
3.295272960557952 5.144144704367065e-22 4.4996009993813087e-14 4.4995959002462886e-14 5.0991350188058385e-20
3.3076538914384823 3.7556561003663815e-22 3.2974279136531764e-14 3.297422707315228e-14 5.2063379479459034e-20
3.310756385682612 3.4730637897778784e-22 3.052174913728303e-14 3.052169680323904e-14 5.2334043988044915e-20
3.313861789986515 3.212328566311579e-22 2.8256852481456464e-14 2.8256799875680282e-14 5.260577617895861e-20
3.3200813396944477 2.8466766869774677e-22 2.5087437381213496e-14 2.508738419272538e-14 5.318848812131662e-20
3.345076488085796 2.1943907882313356e-22 1.9484508596969006e-14 1.948445281561547e-14 5.578135353571413e-20
3.3482140837626964 2.2188505406205527e-22 1.9720172134818387e-14 1.972011600231596e-14 5.613250242677848e-20
3.3513546224236106 2.2435807017922876e-22 1.9958666152027072e-14 1.995860966655356e-14 5.648547351600285e-20
3.3576445397418455 2.4243143870802308e-22 2.1606931201259845e-14 2.1606873978433698e-14 5.722282614101952e-20
3.3702598118196083 3.090935812362458e-22 2.7651761424758017e-14 2.765170265459955e-14 5.877015847212504e-20
3.382922481734668 3.2427625452023473e-22 2.91190114654932e-14 2.911895118348225e-14 6.028201095793548e-20
3.389271646505754 3.321419129876581e-22 2.988130044436908e-14 2.988123939441862e-14 6.104995046793004e-20
3.395632727569191 3.406175169804001e-22 3.070132524282175e-14 3.0701263401342147e-14 6.184147961008537e-20
3.421196662673239 3.813139475611372e-22 3.462821966301108e-14 3.4628154535536455e-14 6.512747462983524e-20
3.4276182099114902 3.7311235667926837e-22 3.394700830801682e-14 3.3946942438569844e-14 6.58694469887102e-20
3.4340518103208963 3.3717382509451255e-22 3.073478143606113e-14 3.073471486066123e-14 6.657539990766197e-20
3.4469541582030403 2.8599083392674337e-22 2.6167188011850258e-14 2.6167120072861877e-14 6.793898837643753e-20
3.472904465399547 2.716464294193813e-22 2.5041841976333166e-14 2.5041770907133454e-14 7.106919970469958e-20
3.4990501388274233 2.4970741462252004e-22 2.3192685392698817e-14 2.3192611099435027e-14 7.429326378810982e-20
3.5253949054701885 1.7163135430684844e-22 1.6061046336631278e-14 1.6060968878854093e-14 7.745777718616417e-20
3.5519380250092896 9.82495744207501e-23 9.263294905029065e-15 9.263214239752773e-15 8.06652762934922e-20
3.578680990867387 6.915350065576429e-23 6.569110830892358e-15 6.569026644083847e-15 8.418680851010448e-20
3.605625307711299 5.738478849401674e-23 5.4922059170235364e-15 5.492118003580443e-15 8.791344309476171e-20
3.660119384959845 4.8799345328722106e-23 4.741095245820465e-15 4.740999425724733e-15 9.582009572944976e-20
3.715437065384467 4.271951831854591e-23 4.213138048743793e-15 4.2130337790471955e-15 1.0426969659688881e-19
3.8285932144167436 3.9633656918201e-23 4.027845504260007e-15 4.027722666027245e-15 1.2283823276170448e-19
3.94519561050918 3.904185899356289e-23 4.088541994727294e-15 4.0883982737274e-15 1.437209998947323e-19
4.06534921144712 3.9475759991689714e-23 4.259884166973911e-15 4.259717093377416e-15 1.6707359649502812e-19
4.189162171576248 4.0505223147287115e-23 4.504095967235954e-15 4.503902836010598e-15 1.9313122535629707e-19
4.316745939156006 4.1970422666052273e-23 4.80916042947331e-15 4.808938400110064e-15 2.2202936324548936e-19
4.448215356677963 4.3818264566345265e-23 5.1738092312227475e-15 5.17355558186889e-15 2.5364935385747557e-19
4.58368876423945 4.6056172023491225e-23 5.603667947187331e-15 5.6033796677073265e-15 2.882794800051055e-19
4.723288106065518 4.873637642744042e-23 6.1103643345605305e-15 6.110037938318795e-15 3.2639624173483847e-19
4.867139040275056 5.196253309211429e-23 6.713260505114046e-15 6.71289300615519e-15 3.6749895885733416e-19
4.940699165968905 5.390934707741474e-23 7.0700407327412876e-15 7.069651360922074e-15 3.893718192136632e-19
5.015371051989984 5.592719660789186e-23 7.445528880028313e-15 7.445116754287378e-15 4.1212574093390083e-19
5.091171501069577 5.838813090933379e-23 7.890630975637834e-15 7.89019477790197e-15 4.361977358662207e-19
5.129500256944802 5.965192996115302e-23 8.122112267826255e-15 8.121663684544141e-15 4.485832821146881e-19
5.168117569889187 6.096974507429955e-23 8.364041848788666e-15 8.363580559421176e-15 4.612893674931284e-19
5.20702561229733 6.258531496042015e-23 8.650308358731861e-15 8.649833377295665e-15 4.749814361959245e-19
5.246226572918644 6.424257301740516e-23 8.946216474581042e-15 8.945727512873224e-15 4.889617078163994e-19
5.265937586045735 6.508725417062455e-23 9.097898572592154e-15 9.097402511635852e-15 4.960609563028565e-19
5.285722656980489 6.594286747255181e-23 9.252128013354016e-15 9.251624779851002e-15 5.032335030149099e-19
5.305582063971359 6.680959063945036e-23 9.408952588411937e-15 9.408442108644214e-15 5.104797677217011e-19
5.3255160863122235 6.774046470934754e-23 9.575893460468873e-15 9.575375620854784e-15 5.178396140843314e-19
5.365609099470188 7.005627525464933e-23 9.977816346320618e-15 9.977283253434909e-15 5.330928857015475e-19
5.406003951863644 7.246058726878005e-23 1.0397948005029229e-14 1.039739933371808e-14 5.486713111474913e-19
5.446702915881641 7.495767503140801e-23 1.0837253403095432e-14 1.083668882398006e-14 5.645791153744101e-19
5.487708281020852 7.765556975571853e-23 1.1311834964910343e-14 1.1311254096063064e-14 5.808688472752031e-19
5.529022354014368 8.140012025222525e-23 1.1946558809095726e-14 1.1945960884186583e-14 5.979249091442199e-19
5.570647458961463 8.536544677062195e-23 1.2622844303824027e-14 1.2622228951944303e-14 6.153518797221785e-19
5.612585937458331 8.956741758139567e-23 1.3343891118090557e-14 1.3343257962893449e-14 6.331551971083206e-19
5.654840148729818 9.418563037729077e-23 1.413755848837414e-14 1.4136907085116046e-14 6.514032580901811e-19
5.67608639626678 9.732779451049077e-23 1.466409658737762e-14 1.4663435639872136e-14 6.609475054801651e-19
5.686739436050992 9.894738603706674e-23 1.4936095720586297e-14 1.4935429961050942e-14 6.657595353517721e-19
5.6974124697621304 1.0060034804941836e-22 1.5214110915906667e-14 1.5213440317592556e-14 6.705983141084918e-19
5.718818669136295 1.0400959492352425e-22 1.578880148380504e-14 1.5788121127249217e-14 6.80356555819601e-19
5.740305295436557 1.0776689685904864e-22 1.6420629469084047e-14 1.6419939189563925e-14 6.902795201204783e-19
5.7835210386641895 1.1750893185425264e-22 1.8039837924510204e-14 1.8039127023855565e-14 7.109006546369845e-19
5.827062130521658 1.287297015724421e-22 1.9911218776459064e-14 1.9910486641130713e-14 7.321353283469678e-19
5.8489554468988025 1.3659731069585398e-22 2.1207520496152426e-14 2.1206776962146334e-14 7.435340060985594e-19
5.870931020387893 1.4503967553766366e-22 2.2602851426434884e-14 2.2602096350703184e-14 7.550757316990016e-19
5.892989160043636 1.5410304084879619e-22 2.410550775452454e-14 2.4104740992513042e-14 7.667620115050898e-19
5.915130176081913 1.6440950163430016e-22 2.5814317818370196e-14 2.5813538950347595e-14 7.788680226021384e-19
5.95966208400165 1.93217974749865e-22 3.0565998989651524e-14 3.056519305540121e-14 8.059342503153165e-19
6.004529249263818 2.347317410736171e-22 3.7412800474050035e-14 3.7411964283242914e-14 8.361908071190653e-19
6.027089341400364 2.6358482055044823e-22 4.216940356873473e-14 4.2168550144497376e-14 8.53424237350381e-19
6.049734195844842 2.976794997790524e-22 4.780294510062215e-14 4.780207344501399e-14 8.716556081453487e-19
6.095279466722835 3.961550600154399e-22 6.409560676872625e-14 6.409469120907201e-14 9.15559654243965e-19
6.141167624020661 5.47693603930574e-22 8.928079605367225e-14 8.927982459453801e-14 9.714591342142936e-19
6.164241091010745 6.444650427488854e-22 1.0545044442344316e-13 1.0544943844561971e-13 1.005977823455007e-18
6.187401249150058 7.546994040820989e-22 1.2395148117074047e-13 1.2395043949506577e-13 1.0416756747114747e-18
6.1990139391386085 8.085260887185236e-22 1.3304117866352568e-13 1.3304011877564896e-13 1.0598878767416462e-18
6.204828454712694 8.368797038109356e-22 1.3783586862607387e-13 1.3783479951252627e-13 1.069113547588146e-18
6.210648424152782 8.575797467985496e-22 1.413776941414148e-13 1.4137661702103199e-13 1.0771203827833276e-18
6.233982942956859 9.279118499677e-22 1.5354715133251914e-13 1.535460456282336e-13 1.1057042855183104e-18
6.239830258556775 9.369060397606067e-22 1.5518089326560337e-13 1.551797831096229e-13 1.1101559804015506e-18
6.245683058788269 9.37692378452047e-22 1.5545681335375546e-13 1.5545569873050388e-13 1.1146232515683965e-18
6.257405133728602 9.357750643319783e-22 1.5543011757561506e-13 1.5542899484490673e-13 1.122730708305676e-18
6.269149208991335 9.21961944903534e-22 1.5342319933059033e-13 1.534220722488755e-13 1.12708171494099e-18
6.280915325867298 8.873007232381961e-22 1.4793236732210717e-13 1.479312405584878e-13 1.1267636193306935e-18
6.304513850009849 8.018169820454453e-22 1.3418262581600243e-13 1.3418150393609908e-13 1.1218799033462681e-18
6.32820103803542 6.958521543220586e-22 1.168871250321322e-13 1.168860125798278e-13 1.112452304408248e-18
6.3519772230701035 5.986764426307261e-22 1.0094168140161892e-13 1.0094057695820268e-13 1.1044434162163815e-18
6.375842739491607 5.169262735493213e-22 8.748541092370426e-14 8.748431302481348e-14 1.0978988907934066e-18
6.399797922933955 4.514139259201117e-22 7.668503972882858e-14 7.668394293047669e-14 1.0967983518891502e-18
6.42384311029221 3.9695000128850893e-22 6.768620521869502e-14 6.768510841346556e-14 1.0968052294609335e-18
6.447978639727206 3.5726995581502768e-22 6.114902256054714e-14 6.114792141944784e-14 1.1011410992980759e-18
6.472204850670314 3.2421936392633625e-22 5.570069795029164e-14 5.569959156578969e-14 1.1063845019411912e-18
6.496522083828205 3.0275092628775857e-22 5.220785289229072e-14 5.220673769022144e-14 1.1152020692733586e-18
