Dust emission spectrum from A.P. Jones, M. Kohler, N. Ysard, M. Bocchio, and L. Verstraete (2017), A&A, 602A, 46J 
inside the DustPedia framework.

lambda    nu*dP/dnu     j_nu    j_nu(carb.) j_nu(sil)
 (um)   (erg s-1 H-1) (Jy cm2 sr-1 H-1)
0.9927057738263894 6.448476960723355e-23 1.6992103057685375e-15 1.6992102221103891e-15 8.365814863026047e-23
1.0001793341362166 6.557029584143845e-23 1.7408223466588573e-15 1.7408222459575797e-15 1.007012774752744e-22
1.0077091589558085 6.665919288824452e-23 1.7830547954804384e-15 1.783054674424163e-15 1.2105627473518363e-22
1.0114953028030835 6.720484028114427e-23 1.8044043136684563e-15 1.8044041810061056e-15 1.3266235064522972e-22
1.0152956718711033 6.775125290599423e-23 1.825909712632689e-15 1.825909567299745e-15 1.4533294349035172e-22
1.0229392996569957 6.884574281995555e-23 1.869374813443502e-15 1.869374639194521e-15 1.7424898096049064e-22
1.0267826658714554 6.939256622092145e-23 1.8913021222331116e-15 1.8913019315233948e-15 1.9070971674673765e-22
1.0306404723013447 6.994002937490669e-23 1.9133853138961305e-15 1.9133851052399003e-15 2.0865623001305295e-22
1.03451277320114 7.04881089553137e-23 1.9356246754607248e-15 1.935624447244845e-15 2.282158793819884e-22
1.0383996230291617 7.103678210280802e-23 1.958020502224489e-15 1.958020252698171e-15 2.4952631780101315e-22
1.0403485208654093 7.13113342516488e-23 1.9692771847299205e-15 1.9692769238458157e-15 2.6088410462097874e-22
1.0423010764483396 7.15860264383593e-23 1.9805730982923086e-15 1.9805728255560385e-15 2.7273627035592695e-22
1.0462171883269815 7.213582007621266e-23 2.0032827771225963e-15 2.00328247911623e-15 2.9800636639509096e-22
1.0471985131304309 7.227335179743548e-23 2.008984778680604e-15 2.008984474014788e-15 3.04665816447521e-22
1.048180758391296 7.241091618225981e-23 2.0146966232233314e-15 2.0146963117556936e-15 3.114676377165644e-22
1.0501480137395462 7.268614163678585e-23 2.026149862081853e-15 2.026149536571823e-15 3.25510029412796e-22
1.0521189612883777 7.296149384853565e-23 2.037642535759455e-15 2.037642195602081e-15 3.401573745645548e-22
1.0531058218030118 7.309902988421147e-23 2.043398452113868e-15 2.0433981043977607e-15 3.477161066570032e-22
1.0540936079674168 7.323598464330763e-23 2.0491471094094535e-15 2.049146753972314e-15 3.5543713889746596e-22
1.058054026499678 7.37840797158996e-23 2.0722394733149825e-15 2.0722390853208953e-15 3.879940870392258e-22
1.0590464539527713 7.392117096244965e-23 2.0780370249595822e-15 2.078036628391029e-15 3.965685527587935e-22
1.06003981227728 7.405828859575756e-23 2.0838443718331115e-15 2.0838439665089643e-15 4.0532414737696214e-22
1.0620293250338977 7.433260183112085e-23 2.095488473579646e-15 2.0954880501863104e-15 4.233933357822899e-22
1.0660195594769086 7.488153196151126e-23 2.1188944680626736e-15 2.1188940061927514e-15 4.618699221861748e-22
1.070024785945596 7.543085165579776e-23 2.142457827590757e-15 2.1424573239136003e-15 5.0367715680264425e-22
1.0740450607676866 7.598054305117528e-23 2.1661789365628662e-15 2.1661783874749197e-15 5.490879469765955e-22
1.07808044048254 7.653058888548398e-23 2.190058193562998e-15 2.1900575951667896e-15 5.983962082873235e-22
1.0861967418109137 7.763081644439927e-23 2.2382679830351466e-15 2.2382672730400866e-15 7.099950596894853e-22
1.0902777775684922 7.817900787893733e-23 2.262542511631653e-15 2.262541738638871e-15 7.729927817782151e-22
1.0943741465085532 7.872745676641512e-23 2.2869753302790035e-15 2.2869744889736207e-15 8.4130538261603095e-22
1.1026131145906286 7.982507194784943e-23 2.3363177333424448e-15 2.336316737741159e-15 9.956012855965312e-22
1.1109141095355224 8.092355892310863e-23 2.3862991691703427e-15 2.38629799250569e-15 1.176664652091735e-21
1.1192775983109025 8.20219420502257e-23 2.4368976699319614e-15 2.436896281074665e-15 1.3888572962876859e-21
1.1277040513999907 8.311607861218478e-23 2.487995662630752e-15 2.4879940254278305e-15 1.6372029213175398e-21
1.1361939428280308 8.42107147785689e-23 2.5397399846439e-15 2.5397380571644585e-15 1.9274794421086755e-21
1.1447477501889525 8.530579572051727e-23 2.5921359189761638e-15 2.5921336526527573e-15 2.2663234062055177e-21
1.1533659546722406 8.64017007011172e-23 2.64520205710926e-15 2.645199395758202e-15 2.6613510582667252e-21
1.1707974979042381 8.859933065719238e-23 2.7534783090917227e-15 2.7534746529486884e-15 3.6561430344485126e-21
1.1884924949847024 9.079982607311255e-23 2.8645136315732496e-15 2.8645086338961074e-15 4.997677142819218e-21
1.2064549276569216 9.301839307523135e-23 2.9788550238267273e-15 2.9788482260279925e-15 6.797798734678861e-21
1.2246888378427687 9.52392844973921e-23 3.0960738884083453e-15 3.096064687317708e-15 9.201090637836035e-21
1.2431983285522175 9.746026804601281e-23 3.2161585623862834e-15 3.21614616858737e-15 1.2393798912418698e-20
1.2619875648066055 9.968407504904999e-23 3.3392604371327096e-15 3.3392438225170977e-15 1.6614615612654e-20
1.3004222497298317 1.0412378157782537e-22 3.594212556074378e-15 3.594183117668148e-15 2.943840623005407e-20
1.3400274889804893 1.0856887408035259e-22 3.86178840716244e-15 3.861737201708216e-15 5.1205454223021376e-20
1.3808389325824078 1.1303343124970477e-22 4.143042303093241e-15 4.142954825019826e-15 8.747807341595153e-20
1.4228933163050095 1.175556351387166e-22 4.440023049800162e-15 4.439876198498622e-15 1.4685130153893206e-19
1.466228494730424 1.222203925501788e-22 4.75679858484218e-15 4.756556220437385e-15 2.4236440479573637e-19
1.5108834753276823 1.2701598025541208e-22 5.093997982456575e-15 5.093604556135825e-15 3.934263207497352e-19
1.5568984535646726 1.3193838916712417e-22 5.45256558126572e-15 5.4519367731740124e-15 6.288080917063066e-19
1.6043148490894465 1.3702280753220766e-22 5.8351482992661634e-15 5.834156917515747e-15 9.913817504169234e-19
1.6531753430134553 1.4230821405347486e-22 6.244796932311606e-15 6.243256933261086e-15 1.539999050520723e-18
1.7035239163302658 1.4784284241954737e-22 6.6852549136719e-15 6.682897376135469e-15 2.3575375364287944e-18
1.755405889504358 1.537538754596455e-22 7.164288321687442e-15 7.160729780855561e-15 3.558540831880207e-18
1.8088679632656115 1.6005459499022837e-22 7.685010175870968e-15 7.679712158302692e-15 5.29801756827821e-18
1.8639582606462262 1.6676017336767206e-22 8.250835985010575e-15 8.243052850313253e-15 7.78313469732333e-18
1.9207263702978936 1.739142512915341e-22 8.866865147026762e-15 8.855578683926186e-15 1.1286463100575398e-17
1.979223391128241 1.815757643449508e-22 9.539423487087784e-15 9.52326168711305e-15 1.6161799974732236e-17
2.039501978296691 1.8980452580987055e-22 1.0275432903760177e-14 1.0252571465103518e-14 2.2861438656658884e-17
2.1016163906111602 1.9872478505619973e-22 1.1086001061530452e-14 1.1054043240548366e-14 3.195782098208595e-17
2.1656225393682647 2.0841943865833831e-22 1.1980926882507988e-14 1.1936763903362704e-14 4.416297914528208e-17
2.231578038680979 2.189101888249628e-22 1.2967238163988789e-14 1.290688769147898e-14 6.035047250980747e-17
2.299542257339062 2.3025384723200955e-22 1.4054575188270014e-14 1.3972996786330662e-14 8.157840193935593e-17
2.369576372248914 2.4253621807371154e-22 1.525515922732871e-14 1.5146045232378347e-14 1.0911399495036232e-16
2.4417434235010123 2.5585357551418307e-22 1.6582917887609048e-14 1.643846534033454e-14 1.4445254727451167e-16
2.5161083711144245 2.703544656351707e-22 1.8056448070294414e-14 1.7867105833099677e-14 1.8934223719473546e-16
2.5927381535095444 2.8625536118678426e-22 1.9700702865551202e-14 1.9454903161197105e-14 2.457997043540915e-16
2.6717017477616296 3.0376366558384803e-22 2.154235768259198e-14 2.1226249248930014e-14 3.161084336619627e-16
2.753070231689431 3.2316123239518105e-22 2.3615980375137113e-14 2.3213156529503385e-14 4.0282384563372007e-16
2.836916847834745 3.4509691006945033e-22 2.598705767305031e-14 2.547827046478104e-14 5.087872082692596e-16
2.9233170693905177 3.709301731554167e-22 2.878309676683997e-14 2.814610714334773e-14 6.36989623492245e-16
2.967498994190263 3.8653529619707834e-22 3.04473269523681e-14 2.97382316201793e-14 7.09095332188798e-16
3.0123486681368425 4.033500649961416e-22 3.225201125757918e-14 3.146368828140851e-14 7.883229761706692e-16
3.0578761833420214 4.290839658654378e-22 3.48282469710792e-14 3.395274020297234e-14 8.75506768106863e-16
3.1040917844459814 4.590497642403967e-22 3.782367786485749e-14 3.685325746699634e-14 9.704203978611536e-16
3.127460860933648 4.851446257921342e-22 4.027472106279465e-14 3.925346639443314e-14 1.0212546683615137e-15
3.1510058709225794 5.178798395304129e-22 4.3315930693173913e-14 4.224167741173183e-14 1.0742532814420936e-15
3.162844764501044 5.4645532319509e-22 4.587773524565879e-14 4.47760508201537e-14 1.101684425505087e-15
3.1747281389236908 5.787877684444295e-22 4.87747799761763e-14 4.764510369919849e-14 1.1296762769778028e-15
3.1986289994194426 6.658352453216443e-22 5.6532746328561404e-14 5.534523023669657e-14 1.1875160918648221e-15
3.2227097969389145 8.640289159370609e-22 7.391267314387322e-14 7.266385625526508e-14 1.2488168886081386e-15
3.2348180950136065 1.0490147406521497e-21 9.007429834397776e-14 8.879276492868982e-14 1.2815334152879403e-15
3.240889293275058 1.1868308952581093e-21 1.0209923130489942e-13 1.0080044069332284e-13 1.298790611576567e-15
3.2469718861334385 1.3463703680511655e-21 1.1604127879210025e-13 1.1472463195105055e-13 1.3166468410496908e-15
3.2714166318528037 2.185560533469344e-21 1.897877294081418e-13 1.8839728180622477e-13 1.3904476019170438e-15
3.2744851364798273 2.2382864971077542e-21 1.9454860955081033e-13 1.9314946164784777e-13 1.3991479029625319e-15
3.2775565192852394 2.2924362712872703e-21 1.9944212550780024e-13 1.9803423353902523e-13 1.4078919687750224e-15
3.283707930232385 2.241954248105874e-21 1.9541626146499374e-13 1.939927259593927e-13 1.4235355056010651e-15
3.2898708863219004 2.0792676355851445e-21 1.815760987302949e-13 1.8013832090132594e-13 1.437777828968945e-15
3.29141343181113 2.0408462035584745e-21 1.7830443600166412e-13 1.7686308170155658e-13 1.4413543001075843e-15
3.292184975758714 2.0219589399090296e-21 1.766957052752544e-13 1.7525256035299294e-13 1.443144922261468e-15
3.295272960557952 1.9036029434043622e-21 1.665088017313339e-13 1.6505869052776372e-13 1.4501112035701285e-15
3.3076538914384823 1.4912965366861551e-21 1.3093432135928303e-13 1.2945622729817858e-13 1.4780940611044548e-15
3.310756385682612 1.4067563144853755e-21 1.2362762657681417e-13 1.2214247861238358e-13 1.4851479644306174e-15
3.313861789986515 1.3285123253663128e-21 1.1686095000168623e-13 1.153687248129628e-13 1.4922251887234577e-15
3.3200813396944477 1.2194436142443122e-21 1.074681766715048e-13 1.0596073182455155e-13 1.5074448469532589e-15
3.345076488085796 1.0304224302104357e-21 9.149361548371734e-14 8.991835318851838e-14 1.5752622951989758e-15
3.3482140837626964 1.038672099313746e-21 9.231262861162234e-14 9.07281797179126e-14 1.5844488937097527e-15
3.3513546224236106 1.0469973629100041e-21 9.313982247966463e-14 9.154614527907087e-14 1.5936772005937512e-15
3.3576445397418455 1.1032348178706962e-21 9.832684628529446e-14 9.67138759660414e-14 1.6129703192530672e-15
3.3702598118196083 1.306025925218712e-21 1.1683813411542237e-13 1.151846951461625e-13 1.6534389692598618e-15
3.382922481734668 1.3557079770779187e-21 1.2173841154912308e-13 1.2004562125904067e-13 1.6927902900824048e-15
3.389271646505754 1.3813260101266599e-21 1.242716318122431e-13 1.2255889256380286e-13 1.7127392484402323e-15
3.395632727569191 1.4093189151433887e-21 1.2702798954161722e-13 1.2529469158513033e-13 1.7332979564868823e-15
3.421196662673239 1.544079720071493e-21 1.4022233402638257e-13 1.3840391455417896e-13 1.8184194722036523e-15
3.4276182099114902 1.5211742216960682e-21 1.3840151101253181e-13 1.365640772045407e-13 1.837433807991096e-15
3.4340518103208963 1.4140238398347826e-21 1.2889409090554356e-13 1.2703866408673506e-13 1.855426818808499e-15
3.4469541582030403 1.261051149585171e-21 1.1538188854055215e-13 1.1349190863796826e-13 1.8899799025838784e-15
3.472904465399547 1.2223955852946454e-21 1.1268705848607698e-13 1.1071750997949705e-13 1.9695485065799134e-15
3.4990501388274233 1.1615170944182428e-21 1.0788105987884619e-13 1.0583004809125219e-13 2.0510117875940025e-15
3.5253949054701885 9.33788648183604e-22 8.738276760482746e-14 8.52525508925679e-14 2.13021671225956e-15
3.5519380250092896 7.176279867731412e-22 6.766034064548522e-14 6.545046466005247e-14 2.2098759854327697e-15
3.578680990867387 6.359558651322221e-22 6.041146900726522e-14 5.81142770462412e-14 2.29719196102402e-15
3.605625307711299 6.072136977878725e-22 5.81154475150852e-14 5.572626575740147e-14 2.3891817576837284e-15
3.660119384959845 5.952761898094283e-22 5.783399540391963e-14 5.525142049349183e-14 2.5825749104277953e-15
3.715437065384467 5.905850651923572e-22 5.824542286801813e-14 5.545878808857633e-14 2.786634779441804e-15
3.8285932144167436 6.0955808000153705e-22 6.194749521061847e-14 5.872164852385513e-14 3.2258466867633384e-15
3.94519561050918 6.36579811531878e-22 6.666391815186855e-14 6.29581830732805e-14 3.705735078588048e-15
4.06534921144712 6.670863418795888e-22 7.198621499309025e-14 6.776026647412768e-14 4.225948518962554e-15
4.189162171576248 6.996596811886976e-22 7.780069096325101e-14 7.301305596875471e-14 4.787634994496297e-15
4.316745939156006 7.336284456653502e-22 8.40624579576498e-14 7.86735541630151e-14 5.388903794634718e-15
4.448215356677963 7.685895497848071e-22 9.075064352850156e-14 8.472900033966238e-14 6.0216431888392164e-15
4.58368876423945 8.043879995853959e-22 9.787012364118602e-14 9.118336749881182e-14 6.686756142374203e-15
4.723288106065518 8.410156045668032e-22 1.0544304135135611e-13 9.80545383933404e-14 7.388502958015709e-15
4.867139040275056 8.78421521110484e-22 1.1348700984340855e-13 1.0537834551822058e-13 8.108664325187957e-15
4.940699165968905 8.977786847268102e-22 1.1774084113633521e-13 1.0926299918293618e-13 8.477841953399054e-15
5.015371051989984 9.170019406080718e-22 1.2207950417589804e-13 1.1322753249396583e-13 8.851971681932192e-15
5.091171501069577 9.37342836134145e-22 1.2667345747164447e-13 1.174344179082707e-13 9.23903956337375e-15
5.129500256944802 9.47443092577967e-22 1.2900235030628682e-13 1.195682822347114e-13 9.434068071575456e-15
5.168117569889187 9.576111865776725e-22 1.3136843576503734e-13 1.2173649824605357e-13 9.631937518983793e-15
5.20702561229733 9.68752588925505e-22 1.338973627092085e-13 1.240496251328678e-13 9.847737576340655e-15
5.246226572918644 9.798768432132368e-22 1.3645453390292613e-13 1.263894274463933e-13 1.006510645653286e-14
5.265937586045735 9.854321638079063e-22 1.3774374093262386e-13 1.2756938775589328e-13 1.0174353176730588e-14
5.285722656980489 9.90982765210249e-22 1.3904004715247134e-13 1.287560865119699e-13 1.0283960640501457e-14
5.305582063971359 9.965285236470012e-22 1.4034346779035903e-13 1.299495496627783e-13 1.0393918127580734e-14
5.3255160863122235 1.0022506555529468e-21 1.416796524712318e-13 1.3117457685288498e-13 1.0505075618346827e-14
5.365609099470188 1.0150897906474787e-21 1.4457490737681501e-13 1.3383985182524455e-13 1.0735055551570477e-14
5.406003951863644 1.0279941537310204e-21 1.4751508596418163e-13 1.3654843523552395e-13 1.0966650728657647e-14
5.446702915881641 1.0409683523716557e-21 1.5050143717140935e-13 1.3930166121415538e-13 1.119977595725397e-14
5.487708281020852 1.0543633481319568e-21 1.5358568901930848e-13 1.421503586982009e-13 1.1435330321107546e-14
5.529022354014368 1.070926609575993e-21 1.5717283564056346e-13 1.4549192577352807e-13 1.1680909867035387e-14
5.570647458961463 1.0878241866419433e-21 1.6085472351373967e-13 1.489265410012916e-13 1.1928182512448099e-14
5.612585937458331 1.1050844564356683e-21 1.6463717567352094e-13 1.5246011391168088e-13 1.2177061761840015e-14
5.654840148729818 1.1232627456917487e-21 1.6860526071138047e-13 1.561765819186494e-13 1.2428678792731065e-14
5.67608639626678 1.1348394507475275e-21 1.709829694654651e-13 1.5842263096522396e-13 1.2560338500241187e-14
5.686739436050992 1.1407193894346586e-21 1.7219145116721165e-13 1.5956510600921933e-13 1.2626345157992312e-14
5.6974124697621304 1.1466624554108757e-21 1.734134137503892e-13 1.6072094586866192e-13 1.2692467881727291e-14
5.718818669136295 1.1587444255387962e-21 1.758990189198388e-13 1.6307396284469177e-13 1.2825056075147039e-14
5.740305295436557 1.171755041196388e-21 1.785423531790378e-13 1.655832718819432e-13 1.2959081297094588e-14
5.7835210386641895 1.204132503016352e-21 1.8485705598100585e-13 1.716208948854147e-13 1.3236161095591112e-14
5.827062130521658 1.2400009935766812e-21 1.9179669310611864e-13 1.7827899080604882e-13 1.3517702300069777e-14
5.8489554468988025 1.264516491481232e-21 1.9632348011976597e-13 1.8265368429485059e-13 1.3669795824915421e-14
5.870931020387893 1.2902949482198024e-21 2.010783939137973e-13 1.8725578067575439e-13 1.3822613238042916e-14
5.892989160043636 1.3174363238958265e-21 2.0607946051449532e-13 1.9210331593504953e-13 1.3976144579445842e-14
5.915130176081913 1.3478508680382196e-21 2.1162919620483675e-13 1.9749388113961604e-13 1.4135315065220695e-14
5.95966208400165 1.4315871468826813e-21 2.2646905052111215e-13 2.1197056708632545e-13 1.4498483434786746e-14
6.004529249263818 1.5494658225282142e-21 2.4696215089814913e-13 2.32054713994755e-13 1.4907436903394204e-14
6.027089341400364 1.6305231630018088e-21 2.6085792476670056e-13 2.457139536157972e-13 1.5143971150903478e-14
6.049734195844842 1.7249978617015878e-21 2.7700926043888187e-13 2.616146804540974e-13 1.5394579984784473e-14
6.095279466722835 1.9955735576797983e-21 3.2287230668245737e-13 3.0686088472672617e-13 1.6011421955731208e-14
6.141167624020661 2.4058459528397164e-21 3.921824909229051e-13 3.7536943810354703e-13 1.681305281935808e-14
6.164241091010745 2.6670335124856948e-21 4.363927451894667e-13 4.19076055589797e-13 1.7316689599669636e-14
6.187401249150058 2.960258593129483e-21 4.861915025798749e-13 4.683576798939685e-13 1.7833822685906332e-14
6.1990139391386085 3.102888325642527e-21 5.105734074197449e-13 4.924764561619249e-13 1.8096951257820017e-14
6.204828454712694 3.177652496876537e-21 5.233661302864382e-13 5.051362782255246e-13 1.8229852060913687e-14
6.210648424152782 3.2320021640714095e-21 5.328169364100136e-13 5.144739675967765e-13 1.8342968813237243e-14
6.233982942956859 3.4147128279915536e-21 5.650530568986317e-13 5.46316193333985e-13 1.8736863564646688e-14
6.239830258556775 3.43702738798852e-21 5.692790499916975e-13 5.504878906443839e-13 1.879115934731371e-14
6.245683058788269 3.437532127781252e-21 5.698966981774997e-13 5.510511574087276e-13 1.884554076877202e-14
6.257405133728602 3.4291937725978374e-21 5.695813145490701e-13 5.506407998094335e-13 1.8940514739636516e-14
6.269149208991335 3.389159283227958e-21 5.639882027106982e-13 5.450138113034995e-13 1.8974391407198588e-14
6.280915325867298 3.2937987241505808e-21 5.491480283796937e-13 5.302153053566332e-13 1.893272302306055e-14
6.304513850009849 3.0607470965154304e-21 5.122105063445368e-13 4.934294667989644e-13 1.8781039545572396e-14
6.32820103803542 2.775908728077646e-21 4.662886915866709e-13 4.47732054165568e-13 1.8556637421102984e-14
6.3519772230701035 2.5160649604359707e-21 4.242288647705506e-13 4.058734879319771e-13 1.835537683857362e-14
6.375842739491607 2.296710733991012e-21 3.886989163009046e-13 3.7052107011188526e-13 1.8177846189019395e-14
6.399797922933955 2.1233563275357832e-21 3.607103259024349e-13 3.426237560912575e-13 1.808656981117749e-14
6.42384311029221 1.9786294740547424e-21 3.37387379261623e-13 3.1937490219978413e-13 1.8012477061838885e-14
6.447978639727206 1.8742527751234492e-21 3.2079026899628025e-13 3.027846138407524e-13 1.8005655155527825e-14
6.472204850670314 1.787084194166263e-21 3.070200240526397e-13 2.890078429795901e-13 1.801218107304962e-14
6.496522083828205 1.731113944658076e-21 2.9852176926652803e-13 2.804485477651897e-13 1.807322150133835e-14
