Dust emission spectrum from A.P. Jones, M. Kohler, N. Ysard, M. Bocchio, and L. Verstraete (2017), A&A, 602A, 46J 
inside the DustPedia framework.

lambda    nu*dP/dnu     j_nu    j_nu(carb.) j_nu(sil)
 (um)   (erg s-1 H-1) (Jy cm2 sr-1 H-1)
0.9927057738263894 1.06056382430341e-22 2.7946459158621142e-15 2.794645729301349e-15 1.865607655379354e-22
1.0001793341362166 1.0784093242474448e-22 2.863063261198251e-15 2.8630630366704168e-15 2.2452783484874422e-22
1.0077091589558085 1.0963222968580109e-22 2.932532849718224e-15 2.9325325798557287e-15 2.6986249624026244e-22
1.0114953028030835 1.1053032075425454e-22 2.9676640361883648e-15 2.9676637404812283e-15 2.957071371042533e-22
1.0152956718711033 1.1142999466671645e-22 3.0030604721490735e-15 3.003060148230122e-15 3.2391895165396663e-22
1.0229392996569957 1.132330827922557e-22 3.0746283553650583e-15 3.0746279670745097e-15 3.8829054839962234e-22
1.0267826658714554 1.1413444584547782e-22 3.1107470353556552e-15 3.1107466104274038e-15 4.249282518732881e-22
1.0306404723013447 1.1503721771771344e-22 3.1471322631659717e-15 3.1471317982979127e-15 4.648680590310799e-22
1.03451277320114 1.1594136827758593e-22 3.1837848492579964e-15 3.183784340865486e-15 5.08392510195719e-22
1.0383996230291617 1.1684686823462094e-22 3.2207056239258817e-15 3.2207050681189473e-15 5.558069334604845e-22
1.0403485208654093 1.1730011531918958e-22 3.239266847106115e-15 3.2392662660311632e-15 5.810749508727914e-22
1.0423010764483396 1.177536891614015e-22 3.2578954382747497e-15 3.257894830833588e-15 6.0744116192321e-22
1.0462171883269815 1.1866180351561742e-22 3.295355165214649e-15 3.29535450156328e-15 6.636513704345699e-22
1.0471985131304309 1.1888903106064546e-22 3.3047623752437813e-15 3.3047616967804565e-15 6.784633244028905e-22
1.048180758391296 1.191163373684637e-22 3.3141865249009133e-15 3.3141858313094573e-15 6.935914552227892e-22
1.0501480137395462 1.1957118466199956e-22 3.333085700469536e-15 3.333084975647496e-15 7.248220394172087e-22
1.0521189612883777 1.2002634221211996e-22 3.35205280761867e-15 3.3520520502227204e-15 7.5739595013685765e-22
1.0531058218030118 1.2025373327831722e-22 3.3615533999706514e-15 3.36155262576581e-15 7.742048419975529e-22
1.0540936079674168 1.2048020781803827e-22 3.3710432213591275e-15 3.3710424299850105e-15 7.913741169185324e-22
1.058054026499678 1.2138682210211908e-22 3.4091712638935353e-15 3.4091704001284243e-15 8.637651104401593e-22
1.0590464539527713 1.2161365286914458e-22 3.4187455381495463e-15 3.4187446553204913e-15 8.828290556433558e-22
1.06003981227728 1.2184055379409481e-22 3.4283367479733854e-15 3.428335845678314e-15 9.022950727083317e-22
1.0620293250338977 1.2229456470829617e-22 3.4475700354186096e-15 3.4475690929529137e-15 9.424656971968607e-22
1.0660195594769086 1.2320341315068197e-22 3.4862405152928906e-15 3.4862394872962827e-15 1.0279966082373661e-21
1.070024785945596 1.241133459685771e-22 3.5251837111986185e-15 3.5251825902796545e-15 1.1209189645272167e-21
1.0740450607676866 1.250243427474057e-22 3.564400660240576e-15 3.564399438403382e-15 1.2218371934712444e-21
1.07808044048254 1.259363841394756e-22 3.6038924300590334e-15 3.603891098656893e-15 1.3314021390042969e-21
1.0861967418109137 1.277621256440695e-22 3.683664405081309e-15 3.683662825753382e-15 1.5793279272665004e-21
1.0902777775684922 1.28672602130095e-22 3.7238542711161695e-15 3.723852551862229e-15 1.7192539398342888e-21
1.0943741465085532 1.2958400166194061e-22 3.764320951951745e-15 3.764319080987796e-15 1.8709639476372292e-21
1.1026131145906286 1.314095172999036e-22 3.846089682177942e-15 3.846087468623324e-15 2.2135546181725482e-21
1.1109141095355224 1.3323857951139393e-22 3.92898082858146e-15 3.928978213116566e-15 2.615464893216157e-21
1.1192775983109025 1.350696740047492e-22 4.012962454108793e-15 4.012959367769809e-15 3.0863389845884287e-21
1.1277040513999907 1.3689612414867177e-22 4.0978468763193666e-15 4.0978432390388674e-15 3.637280498828286e-21
1.1361939428280308 1.3872574815271363e-22 4.183877674112221e-15 4.183873393056666e-15 4.2810555542602596e-21
1.1447477501889525 1.4055853756845258e-22 4.271067761253129e-15 4.271062728931199e-15 5.032321929997448e-21
1.1533659546722406 1.4239517040519732e-22 4.359451198550091e-15 4.359445290655111e-15 5.907894980523551e-21
1.1707974979042381 1.4608557160025714e-22 4.5400281208548855e-15 4.540020009040387e-15 8.111814499957466e-21
1.1884924949847024 1.4979173087054638e-22 4.725564723330348e-15 4.725553641222069e-15 1.1082108277809771e-20
1.2064549276569216 1.5353889764464114e-22 4.916985786151406e-15 4.916970720870175e-15 1.5065281230830395e-20
1.2246888378427687 1.5730240460501612e-22 5.1136447533346515e-15 5.1136243735923886e-15 2.0379742261715582e-20
1.2431983285522175 1.6107916942892329e-22 5.3155625401760496e-15 5.315535104849961e-15 2.7435326088049075e-20
1.2619875648066055 1.6487466436753095e-22 5.523043109314351e-15 5.523006352455314e-15 3.675685903603164e-20
1.3004222497298317 1.7249832627486518e-22 5.954409653624914e-15 5.954344605302802e-15 6.504832211093818e-20
1.3400274889804893 1.8019714932193738e-22 6.409601906160957e-15 6.4094889011133274e-15 1.1300504762932326e-19
1.3808389325824078 1.8800115524849454e-22 6.890852826578661e-15 6.89066001748137e-15 1.9280909729124276e-19
1.4228933163050095 1.9597953805709502e-22 7.40205831252497e-15 7.401735061262168e-15 3.2325126280342512e-19
1.466228494730424 2.0427763697989972e-22 7.95045371910377e-15 7.949920932635996e-15 5.327864677725009e-19
1.5108834753276823 2.1288422316272526e-22 8.537758800956466e-15 8.536895111273647e-15 8.636896828191811e-19
1.5568984535646726 2.218000488380999e-22 9.1662428187279e-15 9.164864302498433e-15 1.3785162294666391e-18
1.6043148490894465 2.310893509100009e-22 9.840994044907877e-15 9.838823710077975e-15 2.1703348299029587e-18
1.6531753430134553 2.4082262569050353e-22 1.0567825646228471e-14 1.0564459075353488e-14 3.3665708749852948e-18
1.7035239163302658 2.5108428295581336e-22 1.135369429392276e-14 1.1348547979092335e-14 5.1463148304205485e-18
1.755405889504358 2.620875847224799e-22 1.2212186631870282e-14 1.2204430076071695e-14 7.756555798586025e-18
1.8088679632656115 2.7385975788529614e-22 1.3149357106795661e-14 1.31378263399456e-14 1.153076685005971e-17
1.8639582606462262 2.864291787999024e-22 1.4171730143196203e-14 1.4154816560924232e-14 1.6913582271966526e-17
1.9207263702978936 2.998707904424896e-22 1.5288648518681278e-14 1.5264159957747005e-14 2.4488560934268495e-17
1.979223391128241 3.142843159825636e-22 1.651151626057168e-14 1.6476505038287125e-14 3.501122228454923e-17
2.039501978296691 3.297694100585379e-22 1.7852700994935214e-14 1.7803256194680617e-14 4.944480025459638e-17
2.1016163906111602 3.465324414810806e-22 1.933155450653813e-14 1.926254948410176e-14 6.90050224363699e-17
2.1656225393682647 3.6471102791651473e-22 2.0965300486559377e-14 2.0870100951766445e-14 9.519953479293823e-17
2.231578038680979 3.843395228292013e-22 2.2766515140805288e-14 2.26366429950331e-14 1.2987214577219564e-16
2.299542257339062 4.0551180957871295e-22 2.475223014064429e-14 2.4576981430729147e-14 1.7524870991514378e-16
2.369576372248914 4.283664150370642e-22 2.6943595974784827e-14 2.6709610342502202e-14 2.3398563228262305e-16
2.4417434235010123 4.530581990933303e-22 2.936455704702962e-14 2.90553515626917e-14 3.0920548433791824e-16
2.5161083711144245 4.798247431654573e-22 3.2046559828240306e-14 3.164201542519659e-14 4.045444030437056e-16
2.5927381535095444 5.090071015283288e-22 3.50309514626761e-14 3.450677269237286e-14 5.241787703032429e-16
2.6717017477616296 5.409167978376917e-22 3.8360819465175206e-14 3.7688004716013634e-14 6.728147491615703e-16
2.753070231689431 5.759680304443429e-22 4.2090598562412255e-14 4.12349073246582e-14 8.556912377540681e-16
2.836916847834745 6.151275038993017e-22 4.6321347579998894e-14 4.5242746247239404e-14 1.078601332759491e-15
2.9233170693905177 6.603996021526263e-22 5.1245077993634447e-14 4.989749103728208e-14 1.347586956352382e-15
2.967498994190263 6.870696638542031e-22 5.412037374138431e-14 5.2621922498136375e-14 1.4984512432479337e-15
3.0123486681368425 7.156011926952099e-22 5.721971985541584e-14 5.5555692926868313e-14 1.6640269285475244e-15
3.0578761833420214 7.5753994229384525e-22 6.148863695582877e-14 5.964259888563041e-14 1.8460380701983617e-15
3.1040917844459814 8.056731741649546e-22 6.638391951774098e-14 6.434001942010383e-14 2.043900097637174e-15
3.127460860933648 8.462656078971403e-22 7.025350687425109e-14 6.81037481361607e-14 2.1497587380903786e-15
3.1510058709225794 8.96608640624511e-22 7.49931446866285e-14 7.273310276335234e-14 2.2600419232761508e-15
3.162844764501044 9.399689000276177e-22 7.891522418059527e-14 7.659813331141495e-14 2.3170908691803335e-15
3.1747281389236908 9.887539037904986e-22 8.332286329682044e-14 8.094757958395048e-14 2.3752837128699686e-15
3.1986289994194426 1.1190873971793761e-21 9.501612356622893e-14 9.252066331176247e-14 2.4954602544664343e-15
3.2227097969389145 1.4134237001633497e-21 1.209102172821118e-13 1.1828747413591607e-13 2.622743146195722e-15
3.2348180950136065 1.687099924140909e-21 1.4486387656354336e-13 1.421732232672197e-13 2.6906532963236584e-15
3.240889293275058 1.8907980167615997e-21 1.6265925064429987e-13 1.5993277643762715e-13 2.7264742066728087e-15
3.2469718861334385 2.126601397735946e-21 1.832880101420718e-13 1.8052447187396068e-13 2.7635382681110854e-15
3.2714166318528037 3.3628354117814876e-21 2.9201886079183003e-13 2.891022041955956e-13 2.9166565962344393e-15
3.2744851364798273 3.440529514851618e-21 2.9904582549991707e-13 2.9611113764991e-13 2.9346878500071127e-15
3.2775565192852394 3.520289241874795e-21 3.0626542495225203e-13 3.033126169619713e-13 2.952807990280763e-15
3.283707930232385 3.446222265664097e-21 3.003843061928957e-13 2.9739912040549453e-13 2.985185787401137e-15
3.2898708863219004 3.2070425384266206e-21 2.8006124013262557e-13 2.77046613445805e-13 3.0146266868205384e-15
3.29141343181113 3.1505414078249797e-21 2.7525616964307737e-13 2.722341508298889e-13 3.0220188131884637e-15
3.292184975758714 3.1227643492324063e-21 2.728933007516296e-13 2.6986758108484575e-13 3.0257196667838408e-15
3.295272960557952 2.9490183658182483e-21 2.579516469426823e-13 2.5491153632084803e-13 3.040110621834383e-15
3.3076538914384823 2.34311642123414e-21 2.057232421137509e-13 2.026253429606954e-13 3.0978991530555177e-15
3.310756385682612 2.2187018344622705e-21 1.9498248492066442e-13 1.9187002227258613e-13 3.1124626480782642e-15
3.313861789986515 2.1034842930637567e-21 1.8503040439107483e-13 1.8190333163367727e-13 3.1270727573975945e-15
3.3200813396944477 1.9430938770407335e-21 1.7124265003145611e-13 1.680841409596239e-13 3.1585090718322177e-15
3.345076488085796 1.6669635683659475e-21 1.4801359061864758e-13 1.4471495886574556e-13 3.2986317529020274e-15
3.3482140837626964 1.6793967700341397e-21 1.492574320867463e-13 1.4593981732541069e-13 3.3176147613355966e-15
3.3513546224236106 1.6919385371247802e-21 1.5051313458546988e-13 1.4717645264591945e-13 3.336681939550414e-15
3.3576445397418455 1.775333431713088e-21 1.582282707339796e-13 1.548517195100385e-13 3.3765512239410534e-15
3.3702598118196083 2.0745792150485307e-21 1.8559353216538664e-13 1.8213335594690065e-13 3.4601762184859567e-15
3.382922481734668 2.1489042500456217e-21 1.929650001289902e-13 1.8942357552918923e-13 3.541424599800933e-15
3.389271646505754 2.187185598443897e-21 1.9677116147978524e-13 1.93188561662327e-13 3.5825998174582865e-15
3.395632727569191 2.2291267833600465e-21 2.0092080698057542e-13 1.9729577360309928e-13 3.6250333774761546e-15
3.421196662673239 2.4310691156430246e-21 2.2077239998925374e-13 2.1697174839354586e-13 3.800651595707892e-15
3.4276182099114902 2.3978268996183037e-21 2.1816229943973777e-13 2.1432249251218355e-13 3.839806927554249e-15
3.4340518103208963 2.2404066252656007e-21 2.0422228189314514e-13 2.0034545874881688e-13 3.8768231443282936e-15
3.4469541582030403 2.0155602184363344e-21 1.8441690057290185e-13 1.8046906589973224e-13 3.947834673169647e-15
3.472904465399547 1.959931914172345e-21 1.806771595856444e-13 1.7656569165377803e-13 4.111467931866366e-15
3.4990501388274233 1.8718539522897406e-21 1.7385675103866366e-13 1.695779184326198e-13 4.278832606043834e-15
3.5253949054701885 1.5392433388943151e-21 1.440404562975949e-13 1.395991628728838e-13 4.441293424711091e-15
3.5519380250092896 1.2231015143203566e-21 1.153180570270667e-13 1.1071358407621695e-13 4.604472950849718e-15
3.578680990867387 1.1050800081056192e-21 1.0497506245396604e-13 1.0019175602745337e-13 4.783306426512672e-15
3.605625307711299 1.0650753798750147e-21 1.0193665354426742e-13 9.696507062477026e-14 4.971582919497124e-15
3.660119384959845 1.052102975154014e-21 1.022169535270461e-13 9.685013527701235e-14 5.366818250033793e-15
3.715437065384467 1.049663278356641e-21 1.0352121162596574e-13 9.773820980864733e-14 5.783001817318441e-15
3.8285932144167436 1.086481791944119e-21 1.1041577137770494e-13 1.037399680064511e-13 6.6758033712538434e-15
3.94519561050918 1.1349266111044284e-21 1.188517972773543e-13 1.1120498746378086e-13 7.646809813573404e-15
4.06534921144712 1.1881891631798698e-21 1.2821914523407392e-13 1.1952492320717215e-13 8.694222026901737e-15
4.189162171576248 1.2440906557990198e-21 1.3834027491428843e-13 1.285210044243974e-13 9.819270489891038e-15
4.316745939156006 1.3015225012735775e-21 1.4913432159111386e-13 1.381174133539478e-13 1.1016908237165995e-14
4.448215356677963 1.3597421791515153e-21 1.6055055370632664e-13 1.4828103412272e-13 1.2269519583606638e-14
4.58368876423945 1.4184144396421127e-21 1.7257890054770717e-13 1.5900114505153992e-13 1.357775549616722e-14
4.723288106065518 1.4774281961070976e-21 1.8523380723241492e-13 1.702848734577248e-13 1.4948933774690103e-14
4.867139040275056 1.5365068373947928e-21 1.9850784889633354e-13 1.821627903870674e-13 1.634505850926613e-14
4.940699165968905 1.5665706017615544e-21 2.0545079036598796e-13 1.8839427558249198e-13 1.705651478349592e-14
5.015371051989984 1.5961252328756533e-21 2.124904740145807e-13 1.9471594947526574e-13 1.7774524539314946e-14
5.091171501069577 1.6270069041893964e-21 2.1987535610120376e-13 2.013605298319653e-13 1.8514826269238524e-14
5.129500256944802 1.642212729945946e-21 2.236010833004169e-13 2.0471449509107726e-13 1.8886588209339685e-14
5.168117569889187 1.6574342849601776e-21 2.2737260429956472e-13 2.0810945630723747e-13 1.9263147992327283e-14
5.20702561229733 1.6740417166459072e-21 2.3137979034739866e-13 2.117047254845415e-13 1.9675064862857185e-14
5.246226572918644 1.6905251137938317e-21 2.354171527285791e-13 2.153280561055677e-13 2.008909662301147e-14
5.265937586045735 1.6987192178690153e-21 2.374470292904211e-13 2.1715018206513582e-13 2.0296847225285282e-14
5.285722656980489 1.7068810480384646e-21 2.394843076333184e-13 2.189792515170368e-13 2.050505611628156e-14
5.305582063971359 1.7150102171538407e-21 2.41528943186102e-13 2.2081524377383763e-13 2.07136994122644e-14
5.3255160863122235 1.7233712585282757e-21 2.436183400174356e-13 2.2269385361933297e-13 2.092448639810261e-14
5.365609099470188 1.742045009841444e-21 2.4811203724492424e-13 2.267513872844873e-13 2.1360649960436902e-14
5.406003951863644 1.7606935594012017e-21 2.526559716599405e-13 2.3085705693355795e-13 2.1798914726382486e-14
5.446702915881641 1.779321158364894e-21 2.5725123238694243e-13 2.3501214284346124e-13 2.2239089543481213e-14
5.487708281020852 1.7984320533246575e-21 2.6197176386456513e-13 2.3928881523975255e-13 2.2682948624812557e-14
5.529022354014368 1.8219724373184925e-21 2.6739887857084365e-13 2.4425326423325904e-13 2.31456143375846e-14
5.570647458961463 1.845832391328071e-21 2.729401153290499e-13 2.4932970069170726e-13 2.3610414637342603e-14
5.612585937458331 1.8700473965964342e-21 2.786025266741055e-13 2.545253718935932e-13 2.407715478051222e-14
5.654840148729818 1.8954058413205226e-21 2.8450636082737107e-13 2.59958305346647e-13 2.4548055480724064e-14
5.67608639626678 1.9115671898523812e-21 2.880102857178777e-13 2.632156658749574e-13 2.4794619842920242e-14
5.686739436050992 1.9197568447201128e-21 2.8978705897545257e-13 2.648689330022207e-13 2.491812597323181e-14
5.6974124697621304 1.9280218403122514e-21 2.915808811356361e-13 2.665391038371323e-13 2.5041777298503908e-14
5.718818669136295 1.9447862390862633e-21 2.952212618455641e-13 2.699317586971538e-13 2.5289503148410314e-14
5.740305295436557 1.9628112457657908e-21 2.99076962628205e-13 2.7353725485314953e-13 2.5539707775055536e-14
5.7835210386641895 2.007669682326805e-21 3.0821517227345737e-13 2.821584259791055e-13 2.6056746294351908e-14
5.827062130521658 2.0571368376446613e-21 3.1818687627739026e-13 2.916057712608456e-13 2.6581105016544548e-14
5.8489554468988025 2.091045923840322e-21 3.2464694262524463e-13 2.977820224969139e-13 2.686492012833072e-14
5.870931020387893 2.1266020686156413e-21 3.314077366891683e-13 3.0425797711217414e-13 2.7149759576994054e-14
5.892989160043636 2.163937439536374e-21 3.384930656899333e-13 3.110574664156376e-13 2.743559927429571e-14
5.915130176081913 2.2057467370662114e-21 3.4632941971999177e-13 3.18597313386851e-13 2.7732106333140695e-14
5.95966208400165 2.32109213954192e-21 3.6718374718486694e-13 3.3877200269300773e-13 2.8411744491859063e-14
6.004529249263818 2.483335968624237e-21 3.9580737006092486e-13 3.6662858781928497e-13 2.9178782241639916e-14
6.027089341400364 2.5949359437461743e-21 4.151487206976868e-13 3.855247385710392e-13 2.9623982126647517e-14
6.049734195844842 2.7247956666366936e-21 4.3756206846398674e-13 4.074660727554145e-13 3.0095995708572025e-14
6.095279466722835 3.0966625512511937e-21 5.01022163323375e-13 4.697590887720996e-13 3.1263074551275286e-14
6.141167624020661 3.659475761295589e-21 5.96539573883729e-13 5.637532836829453e-13 3.278629020078384e-14
6.164241091010745 4.01747454564657e-21 6.573583487031329e-13 6.23611945963349e-13 3.374640273978376e-14
6.187401249150058 4.418248001255312e-21 7.256510088295822e-13 6.909194739442084e-13 3.4731534885373805e-14
6.1990139391386085 4.612864056417054e-21 7.590365724042678e-13 7.238039167997788e-13 3.523265560448914e-14
6.204828454712694 4.7147845920133165e-21 7.765350583431043e-13 7.410493724191159e-13 3.548568592398849e-14
6.210648424152782 4.788623080669632e-21 7.894361915434355e-13 7.537358438472139e-13 3.570034769622152e-14
6.233982942956859 5.035790085714275e-21 8.333024547502922e-13 7.968575934392711e-13 3.644486131102104e-14
6.239830258556775 5.065332324083118e-21 8.389771880851554e-13 8.024319505488962e-13 3.654523753625904e-14
6.245683058788269 5.0649992857566686e-21 8.397089138152209e-13 8.030631686447299e-13 3.66457451704908e-14
6.257405133728602 5.051487187958121e-21 8.390405744745306e-13 8.022206243249567e-13 3.6819950149573793e-14
6.269149208991335 4.994467936048881e-21 8.311267660649973e-13 7.942511052474528e-13 3.687566081754467e-14
6.280915325867298 4.861659109539278e-21 8.105445226760673e-13 7.737595713565569e-13 3.678495131951021e-14
6.304513850009849 4.53837355303251e-21 7.594886288468355e-13 7.230174254891178e-13 3.647120335771754e-14
6.32820103803542 4.1451621043774e-21 6.962917024304716e-13 6.60275027390804e-13 3.601667503966753e-14
6.3519772230701035 3.786959952855395e-21 6.385120205533206e-13 6.029049355929155e-13 3.560708496040508e-14
6.375842739491607 3.484362099092464e-21 5.896988906233265e-13 5.544552260484235e-13 3.524366457490311e-14
6.399797922933955 3.2456840183171432e-21 5.513684749192298e-13 5.163215426193132e-13 3.504693229991649e-14
6.42384311029221 3.046189357421453e-21 5.194230943749891e-13 4.845396153431477e-13 3.488347903184136e-14
6.447978639727206 2.9022643691760954e-21 4.967409839502556e-13 4.618911814099057e-13 3.484980254034981e-14
6.472204850670314 2.7818766683558642e-21 4.779247919142156e-13 4.4308298673198257e-13 3.484180518223294e-14
