Dust emission spectrum from A.P. Jones, M. Kohler, N. Ysard, M. Bocchio, and L. Verstraete (2017), A&A, 602A, 46J 
inside the DustPedia framework.

lambda    nu*dP/dnu     j_nu    j_nu(carb.) j_nu(sil)
 (um)   (erg s-1 H-1) (Jy cm2 sr-1 H-1)
0.9927057738263894 4.877173212545665e-26 1.2851628432965988e-18 1.2851628432964665e-18 1.3221514357527378e-31
1.0001793341362166 4.9573849366536435e-26 1.316133527837892e-18 1.316133527837733e-18 1.5931624251598345e-31
1.0077091589558085 5.037471919841951e-26 1.3474643293132715e-18 1.34746432931308e-18 1.9172939884454785e-31
1.0114953028030835 5.0774587555568153e-26 1.3632631879895896e-18 1.363263187989379e-18 2.1023061379624817e-31
1.0152956718711033 5.1174025847077247e-26 1.3791501532575745e-18 1.3791501532573437e-18 2.3044368503161495e-31
1.0229392996569957 5.197106237254173e-26 1.4111750566945738e-18 1.4111750566942969e-18 2.7662536602332948e-31
1.0267826658714554 5.236769000939383e-26 1.4272872246271154e-18 1.4272872246268124e-18 3.0294403326114783e-31
1.0306404723013447 5.27637120191447e-26 1.4434839760061351e-18 1.4434839760058035e-18 3.3166057119998972e-31
1.03451277320114 5.315909014745094e-26 1.4597646062498084e-18 1.4597646062494454e-18 3.629829365281973e-31
1.0383996230291617 5.355378635741734e-26 1.476128402153907e-18 1.47612840215351e-18 3.971361375370707e-31
1.0403485208654093 5.375086691774328e-26 1.4843412620360377e-18 1.4843412620356227e-18 4.153495998509755e-31
1.0423010764483396 5.394776283686318e-26 1.492574642060181e-18 1.4925746420597466e-18 4.343635453419525e-31
1.0462171883269815 5.434098200542592e-26 1.509102596024915e-18 1.5091025960244398e-18 4.749282986865473e-31
1.0471985131304309 5.443916408642824e-26 1.5132472660222035e-18 1.5132472660217174e-18 4.856237867124781e-31
1.048180758391296 5.453729591936214e-26 1.5173969854477464e-18 1.5173969854472504e-18 4.965501841047622e-31
1.0501480137395462 5.47334065215022e-26 1.5257115259876045e-18 1.5257115259870851e-18 5.191148084422438e-31
1.0521189612883777 5.492930918256383e-26 1.5340461241463584e-18 1.5340461241458159e-18 5.426613110568847e-31
1.0531058218030118 5.502702988808266e-26 1.5382166887281473e-18 1.5382166887275924e-18 5.548161925478223e-31
1.0540936079674168 5.512420149148355e-26 1.542378363518049e-18 1.542378363517482e-18 5.672345519116786e-31
1.058054026499678 5.551231892640757e-26 1.5590737050253334e-18 1.5590737050247138e-18 6.196263313357693e-31
1.0590464539527713 5.560920320083232e-26 1.5632596409833847e-18 1.5632596409827513e-18 6.334318724859567e-31
1.06003981227728 5.57060283093728e-26 1.5674503930720365e-18 1.5674503930713886e-18 6.475320371020202e-31
1.0620293250338977 5.589949877300701e-26 1.5758462972121352e-18 1.5758462972114586e-18 6.766403051836303e-31
1.0660195594769086 5.628570495640471e-26 1.5926953647854667e-18 1.5926953647847279e-18 7.386636420767543e-31
1.070024785945596 5.667090167969253e-26 1.6096201253873984e-18 1.609620125386592e-18 8.061140864987714e-31
1.0740450607676866 5.705505342978593e-26 1.6266197897641834e-18 1.626619789763304e-18 8.794422158484617e-31
1.07808044048254 5.743812498311548e-26 1.643693561935043e-18 1.6436935619340841e-18 9.591338514825601e-31
1.0861967418109137 5.820020754237277e-26 1.678040591540009e-18 1.6780405915388695e-18 1.1397429277168442e-30
1.0902777775684922 5.857760212767634e-26 1.6952672928332121e-18 1.6952672928319697e-18 1.2418326946112101e-30
1.0943741465085532 5.895375171654126e-26 1.7125635876077176e-18 1.7125635876063646e-18 1.3526359441641518e-30
1.1026131145906286 5.970218223962603e-26 1.7473616206297507e-18 1.7473616206281472e-18 1.6032536321046437e-30
1.1109141095355224 6.044523506536715e-26 1.7824279620950063e-18 1.782427962093108e-18 1.8978956314334417e-30
1.1192775983109025 6.118195771840297e-26 1.817735187427712e-18 1.817735187425468e-18 2.243845218184219e-30
1.1277040513999907 6.190891044625497e-26 1.8531805547175735e-18 1.8531805547149238e-18 2.6495117156514712e-30
1.1361939428280308 6.262962762678783e-26 1.8888685356176526e-18 1.888868535614528e-18 3.1245900773166006e-30
1.1447477501889525 6.334386921654627e-26 1.9247920643174616e-18 1.9247920643137812e-18 3.6802441564496594e-30
1.1533659546722406 6.405179280621837e-26 1.960956008014715e-18 1.9609560080103853e-18 4.329318184526595e-30
1.1707974979042381 6.545099620507128e-26 2.0340774249910045e-18 2.034077424985035e-18 5.9689500135178196e-30
1.1884924949847024 6.682191402470602e-26 2.1080688354783833e-18 2.108068835470194e-18 8.189190429796926e-30
1.2064549276569216 6.8175353355763e-26 2.1832724381803333e-18 2.183272438169152e-18 1.1180926302868632e-29
1.2246888378427687 6.949644183892351e-26 2.2592160372715968e-18 2.259216037256405e-18 1.5192249144441864e-29
1.2431983285522175 7.078208617208465e-26 2.3357868500673285e-18 2.3357868500467838e-18 2.0544512371153857e-29
1.2619875648066055 7.20318150466761e-26 2.412953022655532e-18 2.41295302262788e-18 2.7651836653150405e-29
1.3004222497298317 7.440267082687977e-26 2.568279884183449e-18 2.5682798841340487e-18 4.9400347104494656e-29
1.3400274889804893 7.659979896998161e-26 2.724650302943325e-18 2.724650302856661e-18 8.666387860821445e-29
1.3808389325824078 7.861512426485714e-26 2.8814995872567197e-18 2.8814995871073557e-18 1.493644695335721e-28
1.4228933163050095 8.04586914839157e-26 3.038888304450921e-18 3.038888304197893e-18 2.5302868424831644e-28
1.466228494730424 8.217545343811037e-26 3.198255810401551e-18 3.1982558099800276e-18 4.2152328476265845e-28
1.5108834753276823 8.373175727653575e-26 3.3580766906378495e-18 3.3580766899469833e-18 6.90866537683701e-28
1.5568984535646726 8.510042080112651e-26 3.5169114034255086e-18 3.5169114023103505e-18 1.1151581329205756e-27
1.6043148490894465 8.628410056785871e-26 3.6744285987856926e-18 3.674428597009718e-18 1.7759740884015377e-27
1.6531753430134553 8.728656309069431e-26 3.83032606407361e-18 3.830326061286152e-18 2.787458107124583e-27
1.7035239163302658 8.812004717985388e-26 3.9846702671635575e-18 3.984670262850751e-18 4.3128060003022206e-27
1.755405889504358 8.885475820946193e-26 4.1402605603491776e-18 4.140260553767874e-18 6.581303601323241e-27
1.8088679632656115 8.947342846361787e-26 4.2960604052320146e-18 4.29606039532319e-18 9.908826106125943e-27
1.8639582606462262 8.996439674887598e-26 4.45119159494285e-18 4.451191580217448e-18 1.472540178704987e-26
1.9207263702978936 9.033621010276275e-26 4.605712222697331e-18 4.6057122010892825e-18 2.1608048333661573e-26
1.979223391128241 9.060869390634935e-26 4.760297751755616e-18 4.7602977204343044e-18 3.132131198171913e-26
2.039501978296691 9.080555173140375e-26 4.91593311657714e-18 4.915933071712791e-18 4.486434756030034e-26
2.1016163906111602 9.099307537691822e-26 5.076112322552821e-18 5.076112259021849e-18 6.353096999756786e-26
2.1656225393682647 9.120968904377444e-26 5.243160726486452e-18 5.243160637515355e-18 8.897109717159848e-26
2.231578038680979 9.14581414173381e-26 5.417561915049396e-18 5.417561791785918e-18 1.2326348098552592e-25
2.299542257339062 9.176142678210775e-26 5.601069808803522e-18 5.601069639804971e-18 1.6899855331833185e-25
2.369576372248914 9.217040173907034e-26 5.797378081277078e-18 5.797377851903094e-18 2.2937398641137086e-25
2.4417434235010123 9.274511882232817e-26 6.0111909197139824e-18 6.011190611424647e-18 3.0828933384630113e-25
2.5161083711144245 9.358841983833491e-26 6.2505882372670104e-18 6.250587826801355e-18 4.104656541458345e-25
2.5927381535095444 9.486863597601132e-26 6.529061327882043e-18 6.529060786321123e-18 5.415609208333308e-25
2.6717017477616296 9.678683077667916e-26 6.8639431366757585e-18 6.863942428414622e-18 7.082611363295545e-25
2.753070231689431 9.964573231421477e-26 7.281912008309798e-18 7.281911089904298e-18 9.184055007961263e-25
2.836916847834745 1.0413124216027687e-25 7.84146283732558e-18 7.84146165617712e-18 1.1811484598758131e-24
2.9233170693905177 1.117541005250158e-25 8.671791410603178e-18 8.67178990374045e-18 1.5068627235751385e-24
2.967498994190263 1.1823350853848668e-25 9.313235625865e-18 9.313233931313677e-18 1.694551322667174e-24
3.0123486681368425 1.2580230283835486e-25 1.0059195818924235e-17 1.0059193915759297e-17 1.903164937453547e-24
3.0578761833420214 1.4274759396698253e-25 1.1586656348674956e-17 1.1586654213399569e-17 2.1352753818824537e-24
3.1040917844459814 1.6458906747544044e-25 1.3561413932037738e-17 1.356141154053592e-17 2.391501817031022e-24
3.127460860933648 1.876974326775925e-25 1.55818725868596e-17 1.5581870056703665e-17 2.5301559380192734e-24
3.1510058709225794 2.184898600842594e-25 1.827468635417939e-17 1.8274683678408466e-17 2.675770925821758e-24
3.162844764501044 2.4715146382808743e-25 2.0749636689025292e-17 2.0749633937466917e-17 2.7515583723605543e-24
3.1747281389236908 2.804859003014708e-25 2.3636709031347582e-17 2.3636706202162805e-17 2.829184789782848e-24
3.1986289994194426 3.734742245606947e-25 3.170983174245551e-17 3.1709828751964e-17 2.9904915159947572e-24
3.2227097969389145 5.926698794281145e-25 5.069947807577769e-17 5.069947491309002e-17 3.1626876533645393e-24
3.2348180950136065 8.005392335767994e-25 6.873879552581687e-17 6.873879227084513e-17 3.2549717394392186e-24
3.240889293275058 9.559466574098895e-25 8.223700552454159e-17 8.223700222083606e-17 3.303705531478399e-24
3.2469718861334385 1.1357265264967707e-24 9.788625895232641e-17 9.788625559815404e-17 3.354172362805437e-24
3.2714166318528037 2.094719622678374e-24 1.818993685357855e-16 1.818993649719592e-16 3.563826281435505e-24
3.2744851364798273 2.1546619722240475e-24 1.8728008737480885e-16 1.872800837860415e-16 3.588767416290617e-24
3.2775565192852394 2.216326053596939e-24 1.9282053092776972e-16 1.9282052731390956e-16 3.613860209234356e-24
3.283707930232385 2.1569963776115677e-24 1.8801104815698316e-16 1.880110444978525e-16 3.659130688503313e-24
3.2898708863219004 1.9688894600104593e-24 1.7193710942328407e-16 1.7193710572258344e-16 3.700700646020371e-24
3.29141343181113 1.9245297159251276e-24 1.6814210937019327e-16 1.6814210565904087e-16 3.711152408356351e-24
3.292184975758714 1.902732991394741e-24 1.6627674342393648e-16 1.6627673970754933e-16 3.716387206866836e-24
3.295272960557952 1.7651503339983236e-24 1.5439830454564069e-16 1.543983008088269e-16 3.736813756854507e-24
3.3076538914384823 1.2885412809136807e-24 1.1313261582083334e-16 1.131326120017332e-16 3.8191001807852365e-24
3.310756385682612 1.1915436990221687e-24 1.0471445406417611e-16 1.0471445022428069e-16 3.8398953802222436e-24
3.313861789986515 1.1020499848573184e-24 9.69404692156391e-17 9.694046535485857e-17 3.860780547371996e-24
3.3200813396944477 9.765425907189942e-25 8.606158615351277e-17 8.606158224795138e-17 3.905561377381931e-24
3.345076488085796 7.526311148796933e-25 6.682787544892747e-17 6.68278713438836e-17 4.105043885189405e-24
3.3482140837626964 7.610217799230144e-25 6.763628384916153e-17 6.763627971706413e-17 4.132097384795317e-24
3.3513546224236106 7.69505212724158e-25 6.845440251263102e-17 6.845439835332818e-17 4.1593028599753734e-24
3.3576445397418455 8.31524858623274e-25 7.411043925721589e-17 7.411043504105248e-17 4.216163396959347e-24
3.3702598118196083 1.06029631983734e-24 9.485496514818262e-17 9.485496081255345e-17 4.335629189239888e-24
3.382922481734668 1.1123763498172712e-24 9.988797894620863e-17 9.988797449365552e-17 4.4525531265964545e-24
3.389271646505754 1.1393572708723068e-24 1.0250280254656353e-16 1.0250279803454032e-16 4.5120231766495874e-24
3.395632727569191 1.1684282348120103e-24 1.0531547401868886e-16 1.0531546944534292e-16 4.573345980298716e-24
3.421196662673239 1.3080086119473472e-24 1.1878403563604456e-16 1.1878403080761592e-16 4.828428631721371e-24
3.4276182099114902 1.2798488773557508e-24 1.1644492522114259e-16 1.1644492033484473e-16 4.8862978621021045e-24
3.4340518103208963 1.1565101240215155e-24 1.0542065618655203e-16 1.054206512450844e-16 4.9414675821480614e-24
3.4469541582030403 9.808566899316867e-25 8.974504904831311e-17 8.97450440000232e-17 5.0482899028444436e-24
3.472904465399547 9.316044108229492e-25 8.588035002023399e-17 8.588034472649118e-17 5.293742824079405e-24
3.4990501388274233 8.562914701406118e-25 7.953187413935807e-17 7.95318685918691e-17 5.547488976175212e-24
3.5253949054701885 5.883493753295346e-25 5.505699478663768e-17 5.505698898903237e-17 5.797605323399604e-24
3.5519380250092896 3.3654824116896376e-25 3.173088154424144e-17 3.173087549204271e-17 6.052198737097971e-24
3.578680990867387 2.367057512889715e-25 2.2485431681429754e-17 2.2485425348915922e-17 6.332513825029806e-24
3.605625307711299 1.9631398648664433e-25 1.8788896264536128e-17 1.878888963429783e-17 6.630238296211747e-24
3.660119384959845 1.6682903451579838e-25 1.6208257243609672e-17 1.6208249977738542e-17 7.265871130513764e-24
3.715437065384467 1.459460493902519e-25 1.4393674787362178e-17 1.4393666836457326e-17 7.950904848761375e-24
3.8285932144167436 1.3529996350473025e-25 1.3750115232965163e-17 1.3750105755485496e-17 9.477479663937515e-24
3.94519561050918 1.332016175217753e-25 1.3949141281750272e-17 1.3949130053637432e-17 1.122811284373033e-23
4.06534921144712 1.3461072579640177e-25 1.452603064882535e-17 1.4526017421242584e-17 1.3227582776623192e-23
4.189162171576248 1.3804864290036493e-25 1.5350719918489692e-17 1.535070440902145e-17 1.550946824310817e-23
4.316745939156006 1.4296359815811706e-25 1.638141423038972e-17 1.638139612788122e-17 1.8102508494760682e-23
4.448215356677963 1.4916929244369247e-25 1.761305405173222e-17 1.76130330342244e-17 2.1017507820847768e-23
4.58368876423945 1.5668620561283464e-25 1.9064056554921825e-17 1.906403225251081e-17 2.430241101376165e-23
4.723288106065518 1.6568751720160324e-25 2.077321233140622e-17 2.077318430500632e-17 2.8026399907312254e-23
4.867139040275056 1.765216598939801e-25 2.2805583506922393e-17 2.28055513252111e-17 3.2181711302039396e-23
4.940699165968905 1.8306531210082752e-25 2.4008437932780755e-17 2.400840348205019e-17 3.4450730558848016e-23
5.015371051989984 1.898403235128995e-25 2.527324266258249e-17 2.527320580838887e-17 3.685419362192865e-23
5.091171501069577 1.9811890333072528e-25 2.6773988670887828e-17 2.6773949233049795e-17 3.943783802613853e-23
5.129500256944802 2.0236715661488565e-25 2.7553991403417606e-17 2.7553950617071377e-17 4.0786346227495065e-23
5.168117569889187 2.0679664745687367e-25 2.836908390236301e-17 2.836904172118378e-17 4.2181179231551345e-23
5.20702561229733 2.122411767224417e-25 2.933518232240752e-17 2.9335138642714276e-17 4.3679693231083883e-23
5.246226572918644 2.178245090712274e-25 3.033354861257784e-17 3.0333503388234603e-17 4.5224343243651764e-23
5.265937586045735 2.2066961340808202e-25 3.084520596885072e-17 3.084515995446478e-17 4.6014385919990007e-23
5.285722656980489 2.23551107202759e-25 3.136538553207254e-17 3.136533871560438e-17 4.681646815224492e-23
5.305582063971359 2.264695791437234e-25 3.1894246207559584e-17 3.1894198576795223e-17 4.763076434315819e-23
5.3255160863122235 2.2960644996404713e-25 3.245751135788702e-17 3.2457462896841306e-17 4.8461045712650255e-23
5.365609099470188 2.3743026792442332e-25 3.381617991816333e-17 3.3816129730226704e-17 5.018793662240913e-23
5.406003951863644 2.455525176280565e-25 3.5236290610366467e-17 3.5236238641174345e-17 5.196919212000748e-23
5.446702915881641 2.539876685112324e-25 3.672110592763573e-17 3.672105212116936e-17 5.380646636428141e-23
5.487708281020852 2.631050440810063e-25 3.832565837121602e-17 3.8325602664901464e-17 5.570631456632306e-23
5.529022354014368 2.7579754644264365e-25 4.047698698444221e-17 4.047692927538049e-17 5.770906172735245e-23
5.570647458961463 2.89240639143218e-25 4.2769524349281275e-17 4.2769464572457635e-17 5.977682362901679e-23
5.612585937458331 3.034884921067139e-25 4.521418059848872e-17 4.5214118686794545e-17 6.191169415155825e-23
5.654840148729818 3.1915519081334855e-25 4.7906195020592406e-17 4.79061308979192e-17 6.412267320610711e-23
5.67608639626678 3.298357504001454e-25 4.969539612157312e-17 4.9695330836630804e-17 6.528494231866584e-23
5.686739436050992 3.3534155946662258e-25 5.061976704880154e-17 5.061970117543854e-17 6.587336301523042e-23
5.6974124697621304 3.4096124851481087e-25 5.1564655128052925e-17 5.1564588661356914e-17 6.646669599100917e-23
5.718818669136295 3.525532551357376e-25 5.351807553812959e-17 5.3518007869863907e-17 6.766826569091998e-23
5.740305295436557 3.6533447178304817e-25 5.566664874167495e-17 5.566657984465724e-17 6.889701770505403e-23
5.7835210386641895 3.9851127138318513e-25 6.117899833997162e-17 6.117892686692915e-17 7.147304245690429e-23
5.827062130521658 4.3674264471302e-25 6.755300635103696e-17 6.755293219438874e-17 7.415664824018451e-23
5.8489554468988025 4.635756600103093e-25 7.19727955192051e-17 7.19727199118753e-17 7.560732978685972e-23
5.870931020387893 4.923747855038221e-25 7.673123979083679e-17 7.673116270513016e-17 7.708570666207794e-23
5.892989160043636 5.232984041024609e-25 8.185674772244916e-17 8.185666913009853e-17 7.859235064031689e-23
5.915130176081913 5.5847348589900365e-25 8.76872195026609e-17 8.768713934280598e-17 8.015985494242351e-23
5.95966208400165 6.568517526513619e-25 1.0391026007742784e-16 1.0391017640450356e-16 8.367292430171827e-23
6.004529249263818 7.986881116667251e-25 1.2729918342577957e-16 1.272990957746482e-16 8.765113135546138e-23
6.027089341400364 8.972976778516268e-25 1.4355344067080583e-16 1.4355335073291166e-16 8.99378941944839e-23
6.049734195844842 1.0138409820923784e-24 1.6280793552695049e-16 1.6280784315066342e-16 9.237628703912758e-23
6.095279466722835 1.3505209752628323e-24 2.1850651449457557e-16 2.1850641618995716e-16 9.830461836653121e-23
6.141167624020661 1.8687161554180853e-24 3.0462372530323244e-16 3.0462361934147094e-16 1.0596176152029403e-22
6.164241091010745 2.199630811263562e-24 3.599140856824115e-16 3.599139749698451e-16 1.1071256659048478e-22
6.187401249150058 2.5766177700251725e-24 4.2318251117994486e-16 4.231823954752324e-16 1.1570471238379853e-22
6.1990139391386085 2.7606860707391667e-24 4.542647836549663e-16 4.542646653947769e-16 1.1826018934680642e-22
6.204828454712694 2.8576489462397033e-24 4.706608643269467e-16 4.706607447636489e-16 1.1956329797372666e-22
6.210648424152782 2.928423036713787e-24 4.827699090921385e-16 4.827697883977656e-16 1.2069437276612743e-22
6.233982942956859 3.168860000890945e-24 5.243703118192807e-16 5.243701870474086e-16 1.2477187217776872e-22
6.239830258556775 3.1995858720442097e-24 5.299513212986561e-16 5.299511958748949e-16 1.2542376103169397e-22
6.245683058788269 3.2022318426505457e-24 5.308870684223397e-16 5.308869423432472e-16 1.2607909261844898e-22
6.257405133728602 3.1955840251794704e-24 5.307792648984236e-16 5.307791376207228e-16 1.2727770084924388e-22
6.269149208991335 3.1482400121695615e-24 5.238969543131946e-16 5.238968263587031e-16 1.279544913968156e-22
6.280915325867298 3.029577384617945e-24 5.05096572959446e-16 5.050964449786887e-16 1.2798075711461286e-22
6.304513850009849 2.736977686697113e-24 4.580282795507211e-16 4.580281521130353e-16 1.2743768586754243e-22
6.32820103803542 2.3743193156322006e-24 3.9883092549004404e-16 3.988307992600058e-16 1.2623003850366892e-22
6.3519772230701035 2.0417402296523632e-24 3.4425388589001335e-16 3.4425376068758264e-16 1.2520243073126271e-22
6.375842739491607 1.761959882231136e-24 2.981968458861185e-16 2.981967214940407e-16 1.2439207774810022e-22
6.399797922933955 1.537705995356782e-24 2.6122154983331487e-16 2.6122142552296624e-16 1.2431034859280127e-22
6.42384311029221 1.3512679498602408e-24 2.3041239315479823e-16 2.3041226875794587e-16 1.2439685236161148e-22
6.447978639727206 1.2153894537548082e-24 2.0802162599416023e-16 2.0802150090526096e-16 1.250888992727998e-22
6.472204850670314 1.1021984262722426e-24 1.8935704789373936e-16 1.8935692197487496e-16 1.2591886434348524e-22
6.496522083828205 1.0286139495201594e-24 1.7737922858892999e-16 1.7737910132856976e-16 1.2726036023161362e-22
6.520930681187647 9.666243161203066e-25 1.6731571458240438e-16 1.673155858824054e-16 1.2869999894483262e-22
6.57002334288761 9.031766784468025e-25 1.575103369203482e-16 1.575102045603243e-16 1.32360023863979e-22
