Dust emission spectrum from A.P. Jones, M. Kohler, N. Ysard, M. Bocchio, and L. Verstraete (2017), A&A, 602A, 46J 
inside the DustPedia framework.

lambda    nu*dP/dnu     j_nu    j_nu(carb.) j_nu(sil)
 (um)   (erg s-1 H-1) (Jy cm2 sr-1 H-1)
0.9927057738263894 3.00013750625963e-25 7.905532733402574e-18 7.905532733304752e-18 9.782286722548204e-29
1.0001793341362166 3.0496576249440195e-25 8.096520040109461e-18 8.096520039991633e-18 1.1782891359173794e-28
1.0077091589558085 3.0991062181446673e-25 8.289743641556442e-18 8.289743641414697e-18 1.4174333599690132e-28
1.0114953028030835 3.12379760693126e-25 8.387184395340989e-18 8.387184395185602e-18 1.5538789226006147e-28
1.0152956718711033 3.14846383087217e-25 8.485172512807653e-18 8.485172512637363e-18 1.7029067494259224e-28
1.0229392996569957 3.197686932255962e-25 8.682708861271854e-18 8.682708861067532e-18 2.043246333098419e-28
1.0267826658714554 3.22218406888257e-25 8.782098572780531e-18 8.782098572556818e-18 2.2371199027242683e-28
1.0306404723013447 3.246645217292336e-25 8.88201411083058e-18 8.882014110585722e-18 2.4485930776746876e-28
1.03451277320114 3.2710680190264463e-25 8.982451177335379e-18 8.982451177067459e-18 2.6791851785598157e-28
1.0383996230291617 3.2954501288020785e-25 9.083405420749964e-18 9.083405420456912e-18 2.930539395367754e-28
1.0403485208654093 3.307625195018365e-25 9.134075109577576e-18 9.134075109271119e-18 3.0645519787464085e-28
1.0423010764483396 3.319789214962517e-25 9.184872437105202e-18 9.184872436784756e-18 3.2044322457907836e-28
1.0462171883269815 3.344082959917349e-25 9.286847771043327e-18 9.286847770693048e-18 3.502783702670292e-28
1.0471985131304309 3.3501490413742886e-25 9.31242050222885e-18 9.312420501870703e-18 3.581432749768022e-28
1.048180758391296 3.35621210914799e-25 9.338024651010141e-18 9.338024650643962e-18 3.6617732783238205e-28
1.0501480137395462 3.36832906057267e-25 9.389326916854349e-18 9.389326916471585e-18 3.8276680337637595e-28
1.0521189612883777 3.380433528638682e-25 9.440753997664829e-18 9.440753997264755e-18 4.0007532636568106e-28
1.0531058218030118 3.3864716905771344e-25 9.466488162173776e-18 9.466488161764769e-18 4.090090297250138e-28
1.0540936079674168 3.3924761492698315e-25 9.492167994838366e-18 9.492167994420226e-18 4.181356674804914e-28
1.058054026499678 3.416459743279062e-25 9.595190136238628e-18 9.595190135781993e-18 4.5663196313871235e-28
1.0590464539527713 3.422446906386289e-25 9.62102100769185e-18 9.621021007225077e-18 4.6677387513308375e-28
1.06003981227728 3.428430505478356e-25 9.64688186633479e-18 9.646881865857659e-18 4.771313586944381e-28
1.0620293250338977 3.440386872421992e-25 9.698693249287954e-18 9.698693248789443e-18 4.985105635716732e-28
1.0660195594769086 3.464255310664381e-25 9.802672596891341e-18 9.802672596347286e-18 5.440533368791627e-28
1.070024785945596 3.4880628488993976e-25 9.90712339806737e-18 9.90712339747381e-18 5.935642721664452e-28
1.0740450607676866 3.5118072953113785e-25 1.001204082898911e-17 1.0012040828341738e-17 6.473710999163226e-28
1.07808044048254 3.535486475729592e-25 1.011742002402311e-17 1.0117420023317284e-17 7.0582702184330405e-28
1.0861967418109137 3.582598548709016e-25 1.0329423281779867e-17 1.0329423280941631e-17 8.382376210416023e-28
1.0902777775684922 3.6059319417057863e-25 1.043576086920113e-17 1.0435760868288086e-17 9.130435807788076e-28
1.0943741465085532 3.6291898917695217e-25 1.0542532544904361e-17 1.0542532543910156e-17 9.942050298669005e-28
1.1026131145906286 3.675471207478343e-25 1.075735774598643e-17 1.0757357744808753e-17 1.1776762863231006e-27
1.1109141095355224 3.7214261852590497e-25 1.097385771484714e-17 1.0973857713453922e-17 1.39321710041613e-27
1.1192775983109025 3.766996135103742e-25 1.119186387790699e-17 1.1191863876260886e-17 1.6461009090908226e-27
1.1277040513999907 3.8119692401927567e-25 1.1410743978832333e-17 1.1410743976889918e-17 1.9424103496457532e-27
1.1361939428280308 3.856562986747472e-25 1.1631141294187116e-17 1.1631141291897963e-17 2.2891511742537404e-27
1.1447477501889525 3.9007625323174547e-25 1.1853012548577136e-17 1.1853012545882758e-17 2.6943823237987602e-27
1.1533659546722406 3.9445774903186776e-25 1.2076387857123432e-17 1.2076387853956068e-17 3.167366263242619e-27
1.1707974979042381 4.0311954414468547e-25 1.2528096008626312e-17 1.2528096004265627e-17 4.360684746820694e-27
1.1884924949847024 4.1160888079409603e-25 1.2985258903050232e-17 1.2985258897076336e-17 5.9738934672060654e-27
1.2064549276569216 4.199922366845094e-25 1.3449984920767384e-17 1.3449984912623402e-17 8.143978519771012e-27
1.2246888378427687 4.28178004893082e-25 1.3919368961413736e-17 1.3919368950365154e-17 1.104858607631155e-26
1.2431983285522175 4.361470542071707e-25 1.4392717267981425e-17 1.4392717253064124e-17 1.4917300280766092e-26
1.2619875648066055 4.438964430173117e-25 1.4869835825053077e-17 1.4869835805007767e-17 2.0045310930827376e-26
1.3004222497298317 4.586074853071499e-25 1.5830512079208706e-17 1.5830512043517357e-17 3.569135457325428e-26
1.3400274889804893 4.722538646755643e-25 1.679804193688135e-17 1.679804187448516e-17 6.239619079639013e-26
1.3808389325824078 4.8478531460582245e-25 1.7768955999338776e-17 1.7768955892187257e-17 1.0715152078426133e-25
1.4228933163050095 4.962632489351409e-25 1.8743637950156e-17 1.87436377693151e-17 1.8084089677023446e-25
1.466228494730424 5.069644118876e-25 1.973097571292947e-17 1.9730975412827406e-17 3.0010206570286537e-25
1.5108834753276823 5.166811319262326e-25 2.072158667211058e-17 2.0721586182212053e-17 4.898985287706858e-25
1.5568984535646726 5.252454963997136e-25 2.1706612711151153e-17 2.1706611923634627e-17 7.875165279474104e-25
1.6043148490894465 5.326736157006065e-25 2.2684030481485744e-17 2.26840292325922e-17 1.2488935435987828e-24
1.6531753430134553 5.389885455644201e-25 2.365200096339482e-17 2.3651999011726432e-17 1.9516683977830422e-24
1.7035239163302658 5.442656593401371e-25 2.4610962653985393e-17 2.4610959647864566e-17 3.006120825780955e-24
1.755405889504358 5.489381492105992e-25 2.557822467863849e-17 2.557822011254542e-17 4.566093070513424e-24
1.8088679632656115 5.528996704380235e-25 2.6547438977377243e-17 2.6547432135489262e-17 6.841887977606407e-24
1.8639582606462262 5.5607833337445715e-25 2.751323071231661e-17 2.7513220594809497e-17 1.0117507119755759e-23
1.9207263702978936 5.58527076439061e-25 2.84760117757488e-17 2.8475997004997827e-17 1.477075097073366e-23
1.979223391128241 5.603684971179704e-25 2.9440010466792776e-17 2.9439989169125915e-17 2.129766686121782e-23
2.039501978296691 5.617491640910735e-25 3.041137096037051e-17 3.0411340620165586e-17 3.0340204918576375e-23
2.1016163906111602 5.630789010296958e-25 3.1411750138641633e-17 3.141170741747334e-17 4.272116828527825e-23
2.1656225393682647 5.645954529430146e-25 3.245559475378672e-17 3.245553527564835e-17 5.947813837032701e-23
2.231578038680979 5.663160251666621e-25 3.3545970673349386e-17 3.354588877059087e-17 8.190275851519408e-23
2.299542257339062 5.683829768957015e-25 3.469380156095322e-17 3.4693689976993597e-17 1.1158395961266398e-22
2.369576372248914 5.711107023081696e-25 3.592199453483186e-17 3.5921844078620836e-17 1.5045621103550615e-22
2.4417434235010123 5.748703626100683e-25 3.725970215590888e-17 3.7259501312722107e-17 2.0084318677596655e-22
2.5161083711144245 5.802974791497777e-25 3.875693812925725e-17 3.875667261619548e-17 2.6551306176695276e-22
2.5927381535095444 5.884319139331326e-25 4.049713600102676e-17 4.049678827582732e-17 3.4772519944317305e-22
2.6717017477616296 6.005147488430156e-25 4.258739598886378e-17 4.2586944733198583e-17 4.512556651877176e-22
2.753070231689431 6.1841434125818875e-25 4.5192490567672784e-17 4.519191013072758e-17 5.8043694521695445e-22
2.836916847834745 6.463641315418991e-25 4.8673579722258333e-17 4.867283950873343e-17 7.40213524901251e-22
2.9233170693905177 6.936879358656734e-25 5.382815534837972e-17 5.382721934024241e-17 9.360081373133846e-22
2.967498994190263 7.338203468940591e-25 5.780291798964692e-17 5.780187041401624e-17 1.04757563068729e-21
3.0123486681368425 7.806774213082828e-25 6.242323769258218e-17 6.24220668098244e-17 1.1708827577819485e-21
3.0578761833420214 8.854122831317744e-25 7.18678862910744e-17 7.186657896641494e-17 1.3073246594745837e-21
3.1040917844459814 1.0203487971543063e-24 8.407224492800003e-17 8.407078799456178e-17 1.4569334382540185e-21
3.127460860933648 1.1630420070901301e-24 9.655098692144943e-17 9.654944943384441e-17 1.537487605031589e-21
3.1510058709225794 1.3531450390803786e-24 1.1317825537245248e-16 1.1317663358695343e-16 1.6217854990779964e-21
3.162844764501044 1.5300830199901484e-24 1.28458339987522e-16 1.2845667444947192e-16 1.6655380500523065e-21
3.1747281389236908 1.7358411728028355e-24 1.462803395182236e-16 1.4627862924796956e-16 1.710270254024864e-21
3.1986289994194426 2.3097377000100068e-24 1.9610829615531007e-16 1.9610649319206566e-16 1.8029632443916328e-21
3.2227097969389145 3.662487018268613e-24 3.1330456756922466e-16 3.1330266603293323e-16 1.9015362913409625e-21
3.2348180950136065 4.9452922615213225e-24 4.246305731466779e-16 4.246286189134778e-16 1.9542332000496535e-21
3.240889293275058 5.904350535846539e-24 5.07932219723266e-16 5.079302376905523e-16 1.982032713613986e-21
3.2469718861334385 7.013834370989182e-24 6.045099691429339e-16 6.045079583428627e-16 2.0108000712448425e-21
3.2714166318528037 1.2931885123414835e-23 1.1229673472570759e-15 1.1229652172854954e-15 2.129971580882918e-21
3.2744851364798273 1.330183798997662e-23 1.1561764272643576e-15 1.1561742831692503e-15 2.1440951073907507e-21
3.2775565192852394 1.368241583961561e-23 1.1903711921301093e-15 1.190369033833241e-15 2.1582968684791393e-21
3.283707930232385 1.3316411791614668e-23 1.1607031725309365e-15 1.1607009886779529e-15 2.1838529835726588e-21
3.2898708863219004 1.215571064427247e-23 1.0615211232584647e-15 1.0615189160010909e-15 2.2072573737068193e-21
3.29141343181113 1.1881987969402506e-23 1.038104272516373e-15 1.0381020593779917e-15 2.21313838152694e-21
3.292184975758714 1.1747490283697833e-23 1.026594081571991e-15 1.026591865488609e-15 2.216083381825909e-21
3.295272960557952 1.0898540189090754e-23 9.532990447371925e-16 9.532968171707227e-16 2.227566469942305e-21
3.3076538914384823 7.957500400142759e-24 6.986604534897988e-16 6.986581797234837e-16 2.273766315198741e-21
3.310756385682612 7.358918383470296e-24 6.467115907375417e-16 6.467093053098074e-16 2.285427734216347e-21
3.313861789986515 6.80663103934083e-24 5.987369137497534e-16 5.987346166158336e-16 2.297133919966398e-21
3.3200813396944477 6.03211404582564e-24 5.316033397585025e-16 5.316010175122084e-16 2.3222462940126235e-21
3.345076488085796 4.650491340522943e-24 4.129279934572743e-16 4.1292555945762726e-16 2.4339996467745983e-21
3.3482140837626964 4.702306145380025e-24 4.1792038228755273e-16 4.1791793315410233e-16 2.449133450405567e-21
3.3513546224236106 4.754693649374406e-24 4.2297272002392497e-16 4.2297025567979887e-16 2.4643441261060765e-21
3.3576445397418455 5.1375303655709136e-24 4.578872515250243e-16 4.578847554036176e-16 2.4961214066632754e-21
3.3702598118196083 6.549560641334294e-24 5.859289848945059e-16 5.859264220970734e-16 2.5627974323510863e-21
3.382922481734668 6.871177575751706e-24 6.170106377532146e-16 6.170080098559323e-16 2.62789728244926e-21
3.389271646505754 7.037796012985305e-24 6.331585653810909e-16 6.331559044276771e-16 2.660953413856638e-21
3.395632727569191 7.217338886993556e-24 6.505298685798493e-16 6.505271735565179e-16 2.695023331492374e-21
3.421196662673239 8.079439654532021e-24 7.337172240895271e-16 7.337143876924517e-16 2.8363970754652067e-21
3.4276182099114902 7.905724835866439e-24 7.192892486129901e-16 7.192863803469001e-16 2.868266090146967e-21
3.4340518103208963 7.14448608385387e-24 6.512493020437687e-16 6.512464034804596e-16 2.8985633089638066e-21
3.4469541582030403 6.060335726491741e-24 5.54500094260585e-16 5.544971372283198e-16 2.9570322651134025e-21
3.472904465399547 5.75650810224773e-24 5.306661550460423e-16 5.306630637497573e-16 3.0912962849904083e-21
3.4990501388274233 5.2918179947727736e-24 4.915011037766705e-16 4.914978743293336e-16 3.2294473367819367e-21
3.5253949054701885 3.638065917272093e-24 3.404456342432679e-16 3.4044226939695247e-16 3.364846315411714e-21
3.5519380250092896 2.083721236766872e-24 1.9646013155622236e-16 1.9645662964441307e-16 3.5019118093069894e-21
3.578680990867387 1.4674345473328466e-24 1.3939627187486864e-16 1.393926195377442e-16 3.6523371244490285e-21
3.605625307711299 1.2181768873269317e-24 1.165897528620477e-16 1.1658594146658847e-16 3.81139545922261e-21
3.660119384959845 1.0363692567570567e-24 1.0068834577650345e-16 1.0068419744118869e-16 4.1483353147400426e-21
3.715437065384467 9.076241001641573e-25 8.95128452021511e-17 8.950833757001576e-17 4.507632135351394e-21
3.8285932144167436 8.423116634062946e-25 8.560151927537069e-17 8.55962248679213e-17 5.294407449375333e-21
3.94519561050918 8.297848749394198e-25 8.68967409656061e-17 8.689056610160422e-17 6.174864001908465e-21
4.06534921144712 8.389275708661539e-25 9.052984102454119e-17 9.052268682628711e-17 7.154198254057657e-21
4.189162171576248 8.606122681269992e-25 9.569828148161243e-17 9.569004070039746e-17 8.240781214955228e-21
4.316745939156006 8.914331974484743e-25 1.0214443854423327e-16 1.0213500009305442e-16 9.43845117884117e-21
4.448215356677963 9.30241462910105e-25 1.0983757379946559e-16 1.0982683371356264e-16 1.0740085902914153e-20
4.58368876423945 9.771654603835695e-25 1.1889200793016492e-16 1.188798524364915e-16 1.2155493673436527e-20
4.723288106065518 1.033277906335145e-24 1.2954808973046243e-16 1.2953438778307093e-16 1.3701947391479545e-20
4.867139040275056 1.1007348662009349e-24 1.422086157880195e-16 1.4219326048680333e-16 1.53553012161678e-20
4.940699165968905 1.141436352809535e-24 1.496957753282823e-16 1.4967954587731638e-16 1.6229450965883512e-20
5.015371051989984 1.1835694157487448e-24 1.575673518602936e-16 1.5755021717374454e-16 1.7134686549039537e-20
5.091171501069577 1.235009180092796e-24 1.6690038779918348e-16 1.66882299228894e-16 1.808857028947869e-20
5.129500256944802 1.2614027062051901e-24 1.7175059384349175e-16 1.7173201625652241e-16 1.85775869693231e-20
5.168117569889187 1.2889176992313704e-24 1.768182163608864e-16 1.7679913811130428e-16 1.9078249582133102e-20
5.20702561229733 1.322716798813909e-24 1.8282097307093582e-16 1.8280135458684045e-16 1.9618484095365232e-20
5.246226572918644 1.3573738258174978e-24 1.890235635394555e-16 1.890033947656768e-16 2.0168773778708705e-20
5.265937586045735 1.3750326173437068e-24 1.9220210540460904e-16 1.921816576975372e-16 2.0447707071866284e-20
5.285722656980489 1.392916306892874e-24 1.9543341800575286e-16 1.9541268883042386e-16 2.0729175328994272e-20
5.305582063971359 1.4110285257414834e-24 1.9871848296820557e-16 1.9869746978274306e-16 2.1013185462524214e-20
5.3255160863122235 1.4304927991207305e-24 2.0221660272220997e-16 2.021953013361574e-16 2.130138605259234e-20
5.365609099470188 1.4790186247298185e-24 2.1065031157736924e-16 2.1062841325882076e-16 2.189831854847475e-20
5.406003951863644 1.5293889039557763e-24 2.1946422051222408e-16 2.19441714053302e-16 2.2506458922025688e-20
5.446702915881641 1.581692966380762e-24 2.286784838961413e-16 2.286553580092387e-16 2.3125886902561594e-20
5.487708281020852 1.6382180248569708e-24 2.3863390600335927e-16 2.3861014734278364e-16 2.375866057562268e-20
5.529022354014368 1.7168795902612275e-24 2.5197509450400627e-16 2.519506740967626e-16 2.4420407243623498e-20
5.570647458961463 1.8001804750840463e-24 2.661896436485355e-16 2.6616454886695577e-16 2.50947815797365e-20
5.612585937458331 1.888455262696096e-24 2.81344958772553e-16 2.813191768782327e-16 2.578189432036043e-20
5.654840148729818 1.9855063876047894e-24 2.9803073538244553e-16 2.980042509806686e-16 2.6484401776944983e-20
5.67608639626678 2.051660707665414e-24 3.0911776983182604e-16 3.0909091819200653e-16 2.6851639819455934e-20
5.686739436050992 2.0857610678986633e-24 3.148453759934238e-16 3.1481833938800837e-16 2.7036605415376097e-20
5.6974124697621304 2.1205653522595847e-24 3.2069984944642094e-16 3.2067262697455036e-16 2.722247187059362e-20
5.718818669136295 2.1923535806240346e-24 3.328023293642606e-16 3.327747324474445e-16 2.7596916816147013e-20
5.740305295436557 2.2715016302155455e-24 3.4611265328512603e-16 3.4608467606109463e-16 2.7977224031328435e-20
5.7835210386641895 2.4769346612895237e-24 3.802561995430774e-16 3.80227433128202e-16 2.876641487554269e-20
5.827062130521658 2.713630745784239e-24 4.197298276764018e-16 4.1970025070692986e-16 2.9576969471968895e-20
5.8489554468988025 2.8797592032758384e-24 4.470992292332854e-16 4.470692171895845e-16 3.0012043700758594e-20
5.870931020387893 3.0580435643258702e-24 4.765627341883699e-16 4.765322822628447e-16 3.04519255252144e-20
5.892989160043636 3.249462614412241e-24 5.082959156309456e-16 5.082650189799242e-16 3.08966510211807e-20
5.915130176081913 3.467188893765094e-24 5.443913834071426e-16 5.443600262390086e-16 3.135716813397049e-20
5.95966208400165 4.0761312596493384e-24 6.448210841947858e-16 6.4478869551733795e-16 3.2388677447820275e-20
6.004529249263818 4.9540210800121595e-24 7.895983788260013e-16 7.895648376137624e-16 3.3541212238997824e-20
6.027089341400364 5.564357676516664e-24 8.902092463890906e-16 8.901750481890612e-16 3.419820002949896e-20
6.049734195844842 6.285653407881498e-24 1.0093833972494535e-15 1.0093485044362039e-15 3.4892813249486956e-20
6.095279466722835 8.369400530652005e-24 1.3541207962400685e-15 1.3540842280427023e-15 3.656819736681773e-20
6.141167624020661 1.1576485771214335e-23 1.887109613368865e-15 1.8870709098459997e-15 3.870352286465621e-20
6.164241091010745 1.3624588562870626e-23 2.2293201705915996e-15 2.2292801463750005e-15 4.002421659858704e-20
6.187401249150058 1.595772623394706e-23 2.620889578176676e-15 2.6208481913919225e-15 4.1386784754263584e-20
6.1990139391386085 1.7096943054847307e-23 2.8132641448406406e-15 2.8132220633764604e-15 4.208146418009825e-20
6.204828454712694 1.7697044995555208e-23 2.9147409812535492e-15 2.914698548236377e-15 4.243301717208638e-20
6.210648424152782 1.8135095067857026e-23 2.9896903854135033e-15 2.9896476480205417e-15 4.273739296208379e-20
6.233982942956859 1.9623300533089583e-23 3.2471854914911296e-15 3.2471416717543677e-15 4.3819736760169666e-20
6.239830258556775 1.9813508166521703e-23 3.281735590894247e-15 3.281691605318552e-15 4.398557569490265e-20
6.245683058788269 1.982994133726574e-23 3.2875381736302417e-15 3.287494021702446e-15 4.415192779670788e-20
6.257405133728602 1.9788916749876582e-23 3.286894227431774e-15 3.2868497750570372e-15 4.445237473595426e-20
6.269149208991335 1.949603574273024e-23 3.2443249902534568e-15 3.2442803830775123e-15 4.4607175944804545e-20
6.280915325867298 1.8761775645853553e-23 3.127996871599863e-15 3.1279522904716487e-15 4.4581128213358844e-20
6.304513850009849 1.6951133879798822e-23 2.8367416823071114e-15 2.8366973176073437e-15 4.436469976697176e-20
6.32820103803542 1.470689003096451e-23 2.4704185841861273e-15 2.4703746109160256e-15 4.3973270102636677e-20
6.3519772230701035 1.2648750359980791e-23 2.1326814253042805e-15 2.1326377880828766e-15 4.36372214034389e-20
6.375842739491607 1.0917269460392852e-23 1.8476557563022517e-15 1.8476123987951676e-15 4.33575070838824e-20
6.399797922933955 9.529487495117794e-24 1.6188448897959122e-15 1.6188016010944543e-15 4.328870145786198e-20
6.42384311029221 8.37566347296871e-24 1.428182075409656e-15 1.428138813282016e-15 4.32621276393033e-20
6.447978639727206 7.5347795041836e-24 1.28962537820733e-15 1.2895819760461562e-15 4.340216117421872e-20
6.472204850670314 6.83426560850122e-24 1.1741228523836189e-15 1.1740792758440706e-15 4.357653954803359e-20
6.496522083828205 6.378905392183335e-24 1.1000096957999406e-15 1.0999658079762225e-15 4.388782371800661e-20
