Dust emission spectrum from A.P. Jones, M. Kohler, N. Ysard, M. Bocchio, and L. Verstraete (2017), A&A, 602A, 46J 
inside the DustPedia framework.

lambda    nu*dP/dnu     j_nu    j_nu(carb.) j_nu(sil)
 (um)   (erg s-1 H-1) (Jy cm2 sr-1 H-1)
0.9927057738263894 1.677720639494944e-24 4.4208891776991056e-17 4.420889177697628e-17 1.477489705245576e-29
1.0001793341362166 1.705438308921559e-24 4.527759225302302e-17 4.527759225300522e-17 1.7801709357070677e-29
1.0077091589558085 1.7331164519444552e-24 4.635882114484127e-17 4.6358821144819856e-17 2.1421303138750823e-29
1.0114953028030835 1.7469372922836997e-24 4.690407971685058e-17 4.690407971682709e-17 2.3487125389076782e-29
1.0152956718711033 1.7607441712811768e-24 4.745240487677025e-17 4.745240487674452e-17 2.574392641055322e-29
1.0229392996569957 1.788297104481926e-24 4.855779644668833e-17 4.855779644665743e-17 3.089955286213083e-29
1.0267826658714554 1.8020097434673085e-24 4.91139762904017e-17 4.9113976290367865e-17 3.3837387895582594e-29
1.0306404723013447 1.8157023582659705e-24 4.967310219573829e-17 4.967310219570125e-17 3.70426372573516e-29
1.03451277320114 1.8293736274956556e-24 5.0235150105424304e-17 5.0235150105383764e-17 4.053846498521727e-29
1.0383996230291617 1.8430222371024835e-24 5.080009566142297e-17 5.080009566137861e-17 4.434993165679324e-29
1.0403485208654093 1.8498376359714596e-24 5.1083647364080855e-17 5.108364736403447e-17 4.638241522640868e-29
1.0423010764483396 1.856646880612913e-24 5.1367914210696164e-17 5.1367914210647656e-17 4.850413995999389e-29
1.0462171883269815 1.8702462593801622e-24 5.1938580810973825e-17 5.1938580810920787e-17 5.303039062902075e-29
1.0471985131304309 1.8736420050354505e-24 5.208168951901843e-17 5.2081689518964204e-17 5.422374127915792e-29
1.048180758391296 1.8770360708574843e-24 5.2224974258113924e-17 5.222497425805848e-17 5.544283021249535e-29
1.0501480137395462 1.8838190828250278e-24 5.251207023652761e-17 5.251207023646965e-17 5.796034942079897e-29
1.0521189612883777 1.8905951352595523e-24 5.2799865549656384e-17 5.2799865549595796e-17 6.058730532916443e-29
1.0531058218030118 1.893975299281821e-24 5.294387902308234e-17 5.29438790230204e-17 6.194331714508045e-29
1.0540936079674168 1.897336618588021e-24 5.308758892902563e-17 5.3087588928962304e-17 6.33286946918161e-29
1.058054026499678 1.9107627982049746e-24 5.366412523986392e-17 5.3664125239794754e-17 6.917314424993981e-29
1.0590464539527713 1.9141144705128005e-24 5.380868143656761e-17 5.38086814364969e-17 7.071310907609815e-29
1.06003981227728 1.917464154629445e-24 5.3953405656273815e-17 5.395340565620153e-17 7.228590421158091e-29
1.0620293250338977 1.9241574802731535e-24 5.42433565076199e-17 5.424335650754438e-17 7.55326639254859e-29
1.0660195594769086 1.9375194171408983e-24 5.482525620408006e-17 5.4825256203997625e-17 8.245034028849808e-29
1.070024785945596 1.950847370585102e-24 5.540979755362002e-17 5.540979755353006e-17 8.997265702795525e-29
1.0740450607676866 1.9641401120148243e-24 5.599695353900117e-17 5.599695353890304e-17 9.814974521422828e-29
1.07808044048254 1.9773964226693228e-24 5.658669690715689e-17 5.658669690704984e-17 1.0703565059242696e-28
1.0861967418109137 2.0037715000787952e-24 5.777316018770594e-17 5.777316018757876e-17 1.2717141828637633e-28
1.0902777775684922 2.016834607152767e-24 5.836827764147735e-17 5.836827764133878e-17 1.385516564226172e-28
1.0943741465085532 2.029855578996479e-24 5.896582747449441e-17 5.896582747434349e-17 1.5090205396022793e-28
1.1026131145906286 2.0557664877963918e-24 6.016810989143394e-17 6.016810989125511e-17 1.7883247756227174e-28
1.1109141095355224 2.0814950799419213e-24 6.137977674235925e-17 6.137977674214759e-17 2.116629273880662e-28
1.1192775983109025 2.1070085031328716e-24 6.259988465851251e-17 6.259988465826228e-17 2.5020276990718517e-28
1.1277040513999907 2.132188249886503e-24 6.382489653274114e-17 6.382489653244574e-17 2.953862592102979e-28
1.1361939428280308 2.157155945518907e-24 6.505840999393773e-17 6.505840999358944e-17 3.482902042811902e-28
1.1447477501889525 2.181903262203678e-24 6.630018241924823e-17 6.630018241883807e-17 4.101542293197383e-28
1.1533659546722406 2.2064355524366296e-24 6.755038170341145e-17 6.755038170292905e-17 4.824041613089031e-28
1.1707974979042381 2.254934277323608e-24 7.007854997304022e-17 7.007854997237537e-17 6.648557808379261e-28
1.1884924949847024 2.3024684035106907e-24 7.263727711121798e-17 7.263727711030617e-17 9.118080007227836e-28
1.2064549276569216 2.34940960785538e-24 7.52383521367274e-17 7.523835213548296e-17 1.2444237751363752e-27
1.2246888378427687 2.3952452003827935e-24 7.786551694898179e-17 7.786551694729161e-17 1.6901921418138863e-27
1.2431983285522175 2.4398679206182996e-24 8.051488325769272e-17 8.051488325540801e-17 2.28469835368589e-27
1.2619875648066055 2.483261044188539e-24 8.318535689729187e-17 8.31853568942181e-17 3.0737727748563004e-27
1.3004222497298317 2.5656370793913106e-24 8.856233288248226e-17 8.856233287699577e-17 5.486492556577436e-27
1.3400274889804893 2.6420506404696257e-24 9.397758446818154e-17 9.397758445856532e-17 9.616208421482854e-27
1.3808389325824078 2.712218044609253e-24 9.941159858454103e-17 9.941159856798343e-17 1.6557634298928439e-26
1.4228933163050095 2.776480351174199e-24 1.0486640425177388e-16 1.0486640422375242e-16 2.8021436411557205e-26
1.466228494730424 2.8363834873752097e-24 1.1039160223018269e-16 1.1039160218354938e-16 4.6633304690173344e-26
1.5108834753276823 2.8907626865238065e-24 1.159345403885553e-16 1.1593454031220567e-16 7.634962129036505e-26
1.5568984535646726 2.9386753844814083e-24 1.214454743390845e-16 1.2144547421598051e-16 1.231039716829681e-25
1.6043148490894465 2.9802086589735647e-24 1.2691288261467217e-16 1.26912882418841e-16 1.958311981558031e-25
1.6531753430134553 3.0154883300458793e-24 1.323262497399892e-16 1.3232624943298306e-16 3.07006129441576e-25
1.7035239163302658 3.0449330617072827e-24 1.3768778643212287e-16 1.3768778595768984e-16 4.744330433600663e-25
1.755405889504358 3.070963924747539e-24 1.430940905822352e-16 1.4309408985915675e-16 7.230784953450091e-25
1.8088679632656115 3.0929826565644396e-24 1.4850934577005628e-16 1.485093446827906e-16 1.0872656914777596e-24
1.8639582606462262 3.110583916091341e-24 1.539031603948723e-16 1.5390315878125222e-16 1.6136201437587202e-24
1.9207263702978936 3.1240610293124756e-24 1.592775040129432e-16 1.592775016483839e-16 2.364559307089366e-24
1.979223391128241 3.1340972532598245e-24 1.6465567999353685e-16 1.646556765709527e-16 3.4225841797070035e-24
2.039501978296691 3.141510396554706e-24 1.700717048686107e-16 1.7007169997338032e-16 4.895230424883007e-24
2.1016163906111602 3.1485916912471158e-24 1.7564638865564867e-16 1.7564638173427956e-16 6.921369099214843e-24
2.1656225393682647 3.156669663281088e-24 1.8146017795393742e-16 1.8146016827636512e-16 9.677572309398524e-24
2.231578038680979 3.165839347196324e-24 1.8752984054500195e-16 1.8752982715939118e-16 1.3385610760950528e-23
2.299542257339062 3.1768963310226612e-24 1.9391610123546271e-16 1.9391608291453282e-16 1.8320929899498853e-23
2.369576372248914 3.191599999714721e-24 2.0074678566478257e-16 2.007467608424206e-16 2.4822362013056827e-23
2.4417434235010123 3.2120281055952522e-24 2.0818469400215917e-16 2.0818466070058395e-16 3.330157519276079e-23
2.5161083711144245 3.2417390665982558e-24 2.1650943688300333e-16 2.165093926279655e-16 4.425503785144365e-23
2.5927381535095444 3.2865561221437134e-24 2.2618778333050387e-16 2.2618772505519743e-16 5.8275306451897e-23
2.6717017477616296 3.353432321106292e-24 2.378192216859976e-16 2.3781914562649035e-16 7.605950721208641e-23
2.753070231689431 3.4528363025477685e-24 2.5232641228392913e-16 2.523263138627078e-16 9.84212212866057e-23
2.836916847834745 3.608482919835389e-24 2.717319425755141e-16 2.717318162693637e-16 1.2630615035087163e-22
2.9233170693905177 3.872598242173273e-24 3.005022993825434e-16 3.005021386034801e-16 1.60779063228562e-22
2.967498994190263 4.0968886289211705e-24 3.227112990700921e-16 3.2271111847871065e-16 1.8059138127987875e-22
3.0123486681368425 4.3588381527798374e-24 3.485342122723241e-16 3.4853400968789293e-16 2.0258443109192388e-22
3.0578761833420214 4.944911531424039e-24 4.013727236794103e-16 4.0137249665404016e-16 2.2702537018731195e-22
3.1040917844459814 5.700129199268269e-24 4.696655295705262e-16 4.696652756044874e-16 2.5396603876683056e-22
3.127460860933648 6.4990137973905735e-24 5.395215240110836e-16 5.395212554813272e-16 2.685297566434132e-22
3.1510058709225794 7.563407041113344e-24 6.326100963771728e-16 6.326098125635006e-16 2.838136721633368e-22
3.162844764501044 8.554175398324455e-24 7.181670257591214e-16 7.181667339937402e-16 2.917653810166788e-22
3.1747281389236908 9.706354325142871e-24 8.179600924394887e-16 8.17959792532366e-16 2.9990712257039504e-22
3.1986289994194426 1.2920094296466528e-23 1.0969806998582624e-15 1.0969803830401503e-15 3.168181117892514e-22
3.2227097969389145 2.049559015483115e-23 1.7532791183983599e-15 1.7532787835270217e-15 3.3487133775724677e-22
3.2348180950136065 2.7679505014593125e-23 2.376717786775917e-15 2.3767174422226836e-15 3.445532335091731e-22
3.240889293275058 3.305040634071979e-23 2.8432197840351996e-15 2.8432194343636892e-15 3.4967151107104017e-22
3.2469718861334385 3.9263708519565615e-23 3.3840695360264554e-15 3.3840691810508707e-15 3.549755849789015e-22
3.2714166318528037 7.240652921153814e-23 6.287572713242752e-15 6.287572336224832e-15 3.770179186661418e-22
3.2744851364798273 7.447839729435479e-23 6.4735540574956196e-15 6.473553677861677e-15 3.7963394203853322e-22
3.2775565192852394 7.660977503393372e-23 6.665056105948987e-15 6.6650557236831895e-15 3.822657977056891e-22
3.283707930232385 7.456008974429613e-23 6.498907818763261e-15 6.4989074317708375e-15 3.8699242415298344e-22
3.2898708863219004 6.805985726059135e-23 5.943459682640194e-15 5.9434592913269586e-15 3.913132380909114e-22
3.29141343181113 6.652694082518063e-23 5.812318753890873e-15 5.812318361491461e-15 3.9239941310848353e-22
3.292184975758714 6.577372007697551e-23 5.7478584892041535e-15 5.747858096260754e-15 3.929433988145988e-22
3.295272960557952 6.101930816644723e-23 5.3373797936557865e-15 5.3373793985941095e-15 3.950616777804235e-22
3.3076538914384823 4.4548578674600835e-23 3.911319964063617e-15 3.911319560474043e-15 4.035895752932625e-22
3.310756385682612 4.1196368441085853e-23 3.620391962355297e-15 3.620391556611338e-15 4.0574396005732993e-22
3.313861789986515 3.8103434105505596e-23 3.351721638463729e-15 3.351721230556371e-15 4.0790735783576356e-22
3.3200813396944477 3.376594483053643e-23 2.9757542555808244e-15 2.9757538430230605e-15 4.125577635467971e-22
3.345076488085796 2.6028320992873648e-23 2.3111154442963834e-15 2.3111150109657406e-15 4.33330641743669e-22
3.3482140837626964 2.6318484807898033e-23 2.339071700585115e-15 2.3390712644315205e-15 4.361535947861137e-22
3.3513546224236106 2.661185670968005e-23 2.3673637562035816e-15 2.3673633172114115e-15 4.389921698106096e-22
3.3576445397418455 2.8755832454205975e-23 2.5628907570081634e-15 2.562890312074503e-15 4.449336598574608e-22
3.3702598118196083 3.666369499869014e-23 3.2799637669570226e-15 3.2799633095253388e-15 4.574316842510714e-22
3.382922481734668 3.846482270368925e-23 3.4540229132225886e-15 3.4540224435907055e-15 4.69631884651114e-22
3.389271646505754 3.939793196479401e-23 3.5444531264880363e-15 3.5444526506521866e-15 4.758358493814291e-22
3.395632727569191 4.0403400233295947e-23 3.64173264626815e-15 3.641732164032819e-15 4.822353301550253e-22
3.421196662673239 4.523125938936007e-23 4.107581156648529e-15 4.107580647795749e-15 5.08852779847862e-22
3.4276182099114902 4.425838251756047e-23 4.026775452828345e-15 4.026774937962446e-15 5.148658990944182e-22
3.4340518103208963 3.9995164316964896e-23 3.645723784865864e-15 3.645723264282566e-15 5.205832976522184e-22
3.4469541582030403 3.392358068971715e-23 3.1038921833780937e-15 3.103891651751324e-15 5.31626769499255e-22
3.472904465399547 3.222209261205264e-23 2.970407352905278e-15 2.9704067957973604e-15 5.57107916893809e-22
3.4990501388274233 2.9619679114057777e-23 2.7510592753663473e-15 2.7510586919473122e-15 5.8341903514657855e-22
3.5253949054701885 2.0357852163794135e-23 1.9050622086942315e-15 1.9050615994407544e-15 6.092534772822219e-22
3.5519380250092896 1.1652833699009883e-23 1.0986677109757716e-15 1.0986670754812165e-15 6.354945549723847e-22
3.578680990867387 8.201322487756176e-24 7.790696909205475e-16 7.79069026477105e-16 6.644434425672028e-22
3.605625307711299 6.80533952768695e-24 6.513281132893518e-16 6.513274180903189e-16 6.951990329572515e-22
3.660119384959845 5.7871654806446904e-24 5.622514515765808e-16 5.622506907720678e-16 7.608045130073806e-22
3.715437065384467 5.0662990673681716e-24 4.996549167029693e-16 4.996540853138499e-16 8.313891195880332e-22
3.8285932144167436 4.701318534344785e-24 4.777804067320068e-16 4.777794184247168e-16 9.883072901093692e-22
3.94519561050918 4.63275156427069e-24 4.8515106119261e-16 4.851498935123442e-16 1.1676802657633933e-21
4.06534921144712 4.686578788610248e-24 5.057352355744228e-16 5.057338636587612e-16 1.371915661414479e-21
4.189162171576248 4.811984380570073e-24 5.350825834020786e-16 5.350809790769197e-16 1.6043251589362779e-21
4.316745939156006 4.990266426137755e-24 5.718072467381284e-16 5.718053790061052e-16 1.867732023088337e-21
4.448215356677963 5.215437427459299e-24 6.15808922925223e-16 6.158067597348888e-16 2.1631903342777144e-21
4.58368876423945 5.488749018210609e-24 6.678177015626673e-16 6.678152060038072e-16 2.4955588599837474e-21
4.723288106065518 5.816834263062605e-24 7.292905059116252e-16 7.292876340471179e-16 2.8718645071785476e-21
4.867139040275056 6.2125036461101615e-24 8.026197508765713e-16 8.026164593349773e-16 3.2915415941113343e-21
4.940699165968905 6.451173748053386e-24 8.460510773249007e-16 8.460475565941995e-16 3.520730701104731e-21
5.015371051989984 6.699200207472381e-24 8.918574797791469e-16 8.918537162147685e-16 3.7635643781170984e-21
5.091171501069577 7.000826796963701e-24 9.460988032820638e-16 9.460947785679353e-16 4.0247141284150715e-21
5.129500256944802 7.156004778185949e-24 9.743502722439648e-16 9.743461111665488e-16 4.161077416374331e-21
5.168117569889187 7.317882301153135e-24 1.0038925656777133e-15 1.0038882634946784e-15 4.3021830352528644e-21
5.20702561229733 7.515404296030985e-24 1.0387510974790137e-15 1.0387466435833786e-15 4.453895635330209e-21
5.246226572918644 7.718189084363528e-24 1.0748104737610262e-15 1.0748058634246209e-15 4.6103364051253425e-21
5.265937586045735 7.821608826578923e-24 1.093304744307725e-15 1.0933000539323381e-15 4.6903753867796156e-21
5.285722656980489 7.926409728813681e-24 1.1121165989301948e-15 1.1121118272784714e-15 4.7716517233041175e-21
5.305582063971359 8.032614567583643e-24 1.1312520987481282e-15 1.1312472445635628e-15 4.854184565402346e-21
5.3255160863122235 8.146522230840889e-24 1.1516045732870339e-15 1.1515996349077343e-15 4.93837929940861e-21
5.365609099470188 8.4285136405206e-24 1.2004372323804285e-15 1.2004321186479386e-15 5.11373248967602e-21
5.406003951863644 8.721382810658173e-24 1.2515008284545209e-15 1.251495533736206e-15 5.2947183150120996e-21
5.446702915881641 9.025651815098484e-24 1.3049134169028829e-15 1.3049079353821654e-15 5.481520717224666e-21
5.487708281020852 9.354164198916245e-24 1.3625907579542458e-15 1.3625850830700698e-15 5.674884175768648e-21
5.529022354014368 9.8073818385133e-24 1.4393647519685767e-15 1.4393588725398546e-15 5.879428722073909e-21
5.570647458961463 1.0287248920087206e-23 1.5211581072358576e-15 1.5211520163987876e-15 6.090837070354395e-21
5.612585937458331 1.0795665768906571e-23 1.6083548287710043e-15 1.6083485194212714e-15 6.3093497329057746e-21
5.654840148729818 1.1353980316816447e-23 1.7042680519505646e-15 1.7042615159126966e-15 6.536037867822147e-21
5.67608639626678 1.1732262318202551e-23 1.7676659446344374e-15 1.7676592887851589e-15 6.655849278547879e-21
5.686739436050992 1.1927209971407724e-23 1.8004108743786492e-15 1.8004041578339294e-15 6.7165447201116874e-21
5.6974124697621304 1.2126151474826253e-23 1.833876493453727e-15 1.8338697156804825e-15 6.77777324443592e-21
5.718818669136295 1.2536398392885431e-23 1.9030427499760693e-15 1.903035848126439e-15 6.901849630712169e-21
5.740305295436557 1.2988115061271789e-23 1.9790216767763077e-15 1.9790146477438753e-15 7.029032432383866e-21
5.7835210386641895 1.4156529768998583e-23 2.173294391978562e-15 2.173287094403666e-15 7.297574895826468e-21
5.827062130521658 1.550111052084987e-23 2.397628512212652e-15 2.397620933762986e-15 7.578449666313518e-21
5.8489554468988025 1.6441785618322853e-23 2.552682067587072e-15 2.5526743352801483e-15 7.73230692294023e-21
5.870931020387893 1.7450850316170376e-23 2.7195246783279383e-15 2.7195167888946685e-15 7.889433269179481e-21
5.892989160043636 1.8533796159621463e-23 2.8991417987974266e-15 2.8991337488883754e-15 8.049909051466341e-21
5.915130176081913 1.9764554599153076e-23 3.1032786359022984e-15 3.103270418147104e-15 8.217755194156933e-21
5.95966208400165 2.3200203582658248e-23 3.670141974033589e-15 3.670133373815844e-15 8.600217745089967e-21
6.004529249263818 2.814585737599476e-23 4.486037300975468e-15 4.486028258084613e-15 9.04289085421862e-21
6.027089341400364 3.158085836241419e-23 5.052437991499622e-15 5.052428688200538e-15 9.303299081786523e-21
6.049734195844842 3.563861859720183e-23 5.723037459847057e-15 5.723027875808032e-15 9.584039025508449e-21
6.095279466722835 4.735307251219526e-23 7.66145436818188e-15 7.66144408212013e-15 1.0286061752821588e-20
6.141167624020661 6.537246258174171e-23 1.0656515718643743e-14 1.0656504495921512e-14 1.1222722228846984e-20
6.164241091010745 7.687870740918271e-23 1.257926082137709e-14 1.2579249007055568e-14 1.1814321519994513e-20
6.187401249150058 8.998367664898061e-23 1.4778877446439315e-14 1.4778865002075888e-14 1.2444363419306559e-20
6.1990139391386085 9.638328546874468e-23 1.5859656331620215e-14 1.5859643564289235e-14 1.2767330978911508e-20
6.204828454712694 9.975412242013965e-23 1.6429716302353932e-14 1.6429703369420327e-14 1.2932933606860521e-20
6.210648424152782 1.0221594896702896e-22 1.685097534472175e-14 1.6850962270151134e-14 1.3074570616283463e-20
6.233982942956859 1.1058226523764348e-22 1.829871211982933e-14 1.829869853812117e-14 1.3581708159751437e-20
6.239830258556775 1.1165350346820147e-22 1.8493306339296112e-14 1.8493292680575625e-14 1.3658720485316274e-20
6.245683058788269 1.1174965867495225e-22 1.852659382777135e-14 1.8526580091575895e-14 1.3736195449473492e-20
6.257405133728602 1.1152738431134195e-22 1.852444579594287e-14 1.8524431920158103e-14 1.387578476967596e-20
6.269149208991335 1.098919276129249e-22 1.8287057517048234e-14 1.8287043573281356e-14 1.394376688006941e-20
6.280915325867298 1.0577958112701676e-22 1.7635761406068086e-14 1.763574748345262e-14 1.392261546638869e-20
6.304513850009849 9.563437041114882e-23 1.6004239405471762e-14 1.6004225607239185e-14 1.379823257319443e-20
6.32820103803542 8.305595989539158e-23 1.3951487120729954e-14 1.395147354217325e-14 1.3578556705730384e-20
6.3519772230701035 7.152140580761794e-23 1.205908641854073e-14 1.2059073037990332e-14 1.3380550393844773e-20
6.375842739491607 6.181813960941607e-23 1.0462198620965773e-14 1.0462185407310467e-14 1.3213655308379025e-20
6.399797922933955 5.404540831170278e-23 9.18109532198427e-15 9.181082182347204e-15 1.3139637064332095e-20
6.42384311029221 4.7584382077558295e-23 8.11388396536489e-15 8.113870876052382e-15 1.3089312506834203e-20
6.447978639727206 4.2880653442080413e-23 7.339296243813867e-15 7.339283125076916e-15 1.311873694991026e-20
6.472204850670314 3.896418872212532e-23 6.694024936099649e-15 6.694011769423379e-15 1.3166676268485926e-20
6.496522083828205 3.6424602674007134e-23 6.281236927603067e-15 6.28122364511466e-15 1.3282488407620786e-20
