Dust emission spectrum from A.P. Jones, M. Kohler, N. Ysard, M. Bocchio, and L. Verstraete (2017), A&A, 602A, 46J 
inside the DustPedia framework.

lambda    nu*dP/dnu     j_nu    j_nu(carb.) j_nu(sil)
 (um)   (erg s-1 H-1) (Jy cm2 sr-1 H-1)
0.9927057738263894 7.79712724371443e-25 2.0545873155173677e-17 2.0545873151889658e-17 3.284019851859431e-27
1.0001793341362166 7.9253334393416635e-25 2.1040926198185057e-17 2.104092619422903e-17 3.9560264258654466e-27
1.0077091589558085 8.0533455988169705e-25 2.1541749708410007e-17 2.1541749703650584e-17 4.7594228347909196e-27
1.0114953028030835 8.117263231213877e-25 2.1794300422873185e-17 2.179430041765533e-17 5.2178530658602135e-27
1.0152956718711033 8.181113586460949e-25 2.2048263488790288e-17 2.204826348307171e-17 5.7185921424608365e-27
1.0229392996569957 8.308524731424095e-25 2.2560213941499703e-17 2.2560213934637436e-17 6.862269300430545e-27
1.0267826658714554 8.371930429168686e-25 2.2817789642575414e-17 2.281778963506159e-17 7.513830726446182e-27
1.0306404723013447 8.435240962895842e-25 2.3076722045774075e-17 2.307672203754948e-17 8.224592409539329e-27
1.03451277320114 8.498450262753504e-25 2.3337000063641666e-17 2.3337000054642e-17 8.999670613565299e-27
1.0383996230291617 8.561552294054494e-25 2.359861247425952e-17 2.3598612464414926e-17 9.844599300151373e-27
1.0403485208654093 8.593061208059137e-25 2.3729915533907328e-17 2.3729915523612215e-17 1.0295108968043111e-26
1.0423010764483396 8.624541058441658e-25 2.3861547923986883e-17 2.3861547913221517e-17 1.0765362076726811e-26
1.0462171883269815 8.68741059502744e-25 2.4125794930207943e-17 2.4125794918439516e-17 1.1768426409439924e-26
1.0471985131304309 8.703108654946463e-25 2.4192060254788517e-17 2.419206024275566e-17 1.2032859026039444e-26
1.048180758391296 8.71879880063769e-25 2.425840664409639e-17 2.425840663179341e-17 1.2302984008755877e-26
1.0501480137395462 8.750154981507694e-25 2.439134188408219e-17 2.4391341871221408e-17 1.2860780247597662e-26
1.0521189612883777 8.781478403556646e-25 2.4524599179789383e-17 2.452459916634661e-17 1.344277637441713e-26
1.0531058218030118 8.797103439922078e-25 2.4591280596604684e-17 2.4591280582861512e-17 1.3743179455346657e-26
1.0540936079674168 8.812640853234454e-25 2.4657820357876796e-17 2.4657820343826737e-17 1.4050075963103264e-26
1.058054026499678 8.874700796601503e-25 2.4924760700938332e-17 2.492476068559369e-17 1.5344635462338047e-26
1.0590464539527713 8.890192904797683e-25 2.4991690167607087e-17 2.499169015192139e-17 1.5685706236310194e-26
1.06003981227728 8.90567568246183e-25 2.5058697007659704e-17 2.5058696991625675e-17 1.6034033682636738e-26
1.0620293250338977 8.936612888623442e-25 2.5192942046478278e-17 2.5192942029725224e-17 1.675304916814175e-26
1.0660195594769086 8.998371411048464e-25 2.5462352204872147e-17 2.5462352186587322e-17 1.8284816904533497e-26
1.070024785945596 9.059970690497497e-25 2.573297887736e-17 2.5732978857409804e-17 1.9950185159555082e-26
1.0740450607676866 9.12140509940667e-25 2.6004809658814645e-17 2.6004809637054438e-17 2.1760201879480233e-26
1.07808044048254 9.182669056943949e-25 2.6277832040505835e-17 2.6277832016779056e-17 2.3726774973819437e-26
1.0861967418109137 9.304554776694209e-25 2.6827087498155375e-17 2.6827087469973464e-17 2.8181904349426356e-26
1.0902777775684922 9.36491832030891e-25 2.7102577012064543e-17 2.7102576981365386e-17 3.0699169144412646e-26
1.0943741465085532 9.425085275039313e-25 2.7379186874719522e-17 2.7379186841288977e-17 3.3430536784713044e-26
1.1026131145906286 9.544808259543955e-25 2.7935715250835746e-17 2.793571521122993e-17 3.9605811538061145e-26
1.1109141095355224 9.66368194365497e-25 2.849656700736765e-17 2.849656696050589e-17 4.686177215499382e-26
1.1192775983109025 9.78155452615662e-25 2.9061305837537047e-17 2.906130578216067e-17 5.537638183208462e-26
1.1277040513999907 9.897876702814738e-25 2.962829180231188e-17 2.962829173695691e-17 6.535496096471942e-26
1.1361939428280308 1.0013213766977948e-24 3.0199196676635594e-17 3.019919659960156e-17 7.703404433583836e-26
1.1447477501889525 1.012752780265721e-24 3.0773909751343577e-17 3.0773909660657785e-17 9.068579173618906e-26
1.1533659546722406 1.0240844384004836e-24 3.1352510901160005e-17 3.135251079453691e-17 1.066230834732109e-25
1.1707974979042381 1.046485569194885e-24 3.252254045467448e-17 3.2522540307830315e-17 1.468441777561423e-25
1.1884924949847024 1.068440146461777e-24 3.3706687517170995e-17 3.3706687315931746e-17 2.012392519978202e-25
1.2064549276569216 1.0901212197924306e-24 3.491044044947586e-17 3.49104401750349e-17 2.7444095762556936e-25
1.2246888378427687 1.111291604320033e-24 3.6126278527815785e-17 3.6126278155355657e-17 3.724601334145378e-25
1.2431983285522175 1.1319022395643972e-24 3.7352422197736574e-17 3.735242169466741e-17 5.030691518038824e-25
1.2619875648066055 1.1519461421516752e-24 3.8588392140890925e-17 3.858839146462416e-17 6.762667487279836e-25
1.3004222497298317 1.1900024195925098e-24 4.107727911381546e-17 4.1077277908741385e-17 1.2050740808913822e-24
1.3400274889804893 1.2253174986275765e-24 4.3584470700056516e-17 4.3584468591588836e-17 2.108467680173856e-24
1.3808389325824078 1.2577671356211327e-24 4.610124980464466e-17 4.6101246180732457e-17 3.6239122052923214e-24
1.4228933163050095 1.2875171853277378e-24 4.862894044273879e-17 4.862893432122901e-17 6.1215097846270836e-24
1.466228494730424 1.3152921136801694e-24 5.119096359013254e-17 5.119095342236696e-17 1.0167765601426856e-23
1.5108834753276823 1.3405609586660446e-24 5.376343043665099e-17 5.37634138228319e-17 1.661381908690613e-23
1.5568984535646726 1.3628966642978481e-24 5.632389094245512e-17 5.632386420985015e-17 2.6732604987352186e-23
1.6043148490894465 1.3823497949438187e-24 5.886768925721628e-17 5.886764682117391e-17 4.243604236369652e-23
1.6531753430134553 1.39898960666077e-24 6.139073603107784e-17 6.139066964830182e-17 6.638277601500898e-23
1.7035239163302658 1.4130212691923453e-24 6.389492537071278e-17 6.389482301584614e-17 1.0235486662871265e-22
1.755405889504358 1.425578190675913e-24 6.642598863007095e-17 6.642583299311759e-17 1.5563695334763123e-22
1.8088679632656115 1.4363957818210583e-24 6.896844292753297e-17 6.896820946156951e-17 2.334659634461296e-22
1.8639582606462262 1.4452990399765722e-24 7.150943230220758e-17 7.150908666930694e-17 3.456329006259878e-22
1.9207263702978936 1.4524370000507638e-24 7.40512230502247e-17 7.405071786219987e-17 5.051880248385007e-22
1.979223391128241 1.4581398727093908e-24 7.660611425409075e-17 7.660538495267288e-17 7.293014178808689e-22
2.039501978296691 1.4627999123053185e-24 7.919148548426185e-17 7.919044524187504e-17 1.0402423868387304e-21
2.1016163906111602 1.467492832334266e-24 8.186511356620769e-17 8.186364694671203e-17 1.4666194956783372e-21
2.1656225393682647 1.4728486192502817e-24 8.466624672743546e-17 8.466420212813341e-17 2.0445993020427053e-21
2.231578038680979 1.4789245002448224e-24 8.760472193720864e-17 8.760190261280977e-17 2.8193243988696153e-21
2.299542257339062 1.4861032447527634e-24 9.071096983610413e-17 9.070712334997115e-17 3.846486132980435e-21
2.369576372248914 1.4952129498326647e-24 9.404662037539001e-17 9.404142628220874e-17 5.194093181219858e-21
2.4417434235010123 1.5072292370631217e-24 9.768969859338877e-17 9.768275448542627e-17 6.944107962525864e-21
2.5161083711144245 1.5238133529954045e-24 1.0177252523844873e-16 1.0176333072369076e-16 9.194514757989043e-21
2.5927381535095444 1.5476741832814077e-24 1.0651422943172916e-16 1.0650216830487671e-16 1.2061126852449424e-20
2.6717017477616296 1.582037106669983e-24 1.1219514734756963e-16 1.1217946865613118e-16 1.5678691438496453e-20
2.753070231689431 1.6317477241493172e-24 1.1924487954533363e-16 1.192246770131009e-16 2.0202532232761002e-20
2.836916847834745 1.7077710141874928e-24 1.2860139439997475e-16 1.2857558361755197e-16 2.581078242275722e-20
2.9233170693905177 1.834233409446888e-24 1.4233114892748274e-16 1.422984487190156e-16 3.2700208467137985e-20
2.967498994190263 1.9401810562591227e-24 1.5282776902369447e-16 1.52791133563332e-16 3.6635460362454065e-20
3.0123486681368425 2.06361144645088e-24 1.650070878328473e-16 1.6496609793673665e-16 4.0989896110682613e-20
3.0578761833420214 2.336811751813416e-24 1.896762948317699e-16 1.8963048123423087e-16 4.581359753894866e-20
3.1040917844459814 2.6881899030392847e-24 2.2149500305346795e-16 2.214438928324121e-16 5.1110221055841744e-20
3.127460860933648 3.058444320305017e-24 2.5389952879566714e-16 2.538455637443476e-16 5.3965051319626044e-20
3.1510058709225794 3.5513075372764e-24 2.9703452309380153e-16 2.96977568345598e-16 5.695474820366507e-20
3.162844764501044 4.009540024320945e-24 3.366215093617034e-16 3.3656300204397464e-16 5.850731772877521e-20
3.1747281389236908 4.542256489493045e-24 3.827785812851944e-16 3.8271848603852055e-16 6.009524667378634e-20
3.1986289994194426 6.027512108915887e-24 5.11765959281815e-16 5.1170257172790105e-16 6.338755391395186e-20
3.2227097969389145 9.52672831974067e-24 8.149564712933351e-16 8.148895802280012e-16 6.689106533357552e-20
3.2348180950136065 1.2844380031228566e-23 1.1028906212100152e-15 1.1028218565419447e-15 6.876466807042503e-20
3.240889293275058 1.532461276071196e-23 1.3183269740999377e-15 1.3182572210078356e-15 6.975309210200016e-20
3.2469718861334385 1.8193904243476278e-23 1.568100401444496e-15 1.5680296254903956e-15 7.077595410062985e-20
3.2714166318528037 3.349648115546237e-23 2.908737142853876e-15 2.9086621276732605e-15 7.501518061519296e-20
3.2744851364798273 3.445316783399789e-23 2.994619279250519e-15 2.994543761148958e-15 7.551810156041351e-20
3.2775565192852394 3.5437311173112723e-23 3.0830486985263945e-15 3.082972674667554e-15 7.60238588386553e-20
3.283707930232385 3.449133348719352e-23 3.006380459683406e-15 3.006303524701056e-15 7.693498235187957e-20
3.2898708863219004 3.14906104413706e-23 2.7499789313896715e-15 2.7499011610621205e-15 7.777032755042535e-20
3.29141343181113 3.0782952385083784e-23 2.689441739371705e-15 2.6893637591133824e-15 7.798025832259297e-20
3.292184975758714 3.043523236183949e-23 2.659685486804904e-15 2.659607401416635e-15 7.808538826822275e-20
3.295272960557952 2.824057464653726e-23 2.4702127409982406e-15 2.4701342455147978e-15 7.849548344325915e-20
3.3076538914384823 2.0637095730664885e-23 1.8119160461041323e-15 1.811835900170595e-15 8.014593353724091e-20
3.310756385682612 1.9089447931944573e-23 1.6776062180686348e-15 1.6775256554315646e-15 8.056263707018955e-20
3.313861789986515 1.766144298622118e-23 1.5535670737577346e-15 1.553486092773326e-15 8.098098440802622e-20
3.3200813396944477 1.5658991512960846e-23 1.3800090850902738e-15 1.3799272070655842e-15 8.187802468966747e-20
3.345076488085796 1.2088269067261343e-23 1.0733456585158513e-15 1.0732597894180838e-15 8.586909776729088e-20
3.3482140837626964 1.2222475965797173e-23 1.0862801506756354e-15 1.0861937411201256e-15 8.640955550961015e-20
3.3513546224236106 1.2358163225225189e-23 1.0993696543542608e-15 1.099282701537861e-15 8.695281639983624e-20
3.3576445397418455 1.3348567835829804e-23 1.1897037298511874e-15 1.1896156422355707e-15 8.808761561684195e-20
3.3702598118196083 1.7000416949245475e-23 1.5208710311025483e-15 1.5207805622515555e-15 9.046885099318297e-20
3.382922481734668 1.783304727959493e-23 1.6013528618291237e-15 1.6012600661798899e-15 9.279564923454986e-20
3.389271646505754 1.826437943584612e-23 1.6431633226992158e-15 1.6430693451736516e-15 9.397752556406666e-20
3.395632727569191 1.8729242778545115e-23 1.688147395334843e-15 1.6880521996499681e-15 9.519568487491094e-20
3.421196662673239 2.096137922536005e-23 1.9035633207176776e-15 1.903463068019715e-15 1.0025269796231592e-19
3.4276182099114902 2.051270059739448e-23 1.8663140073867833e-15 1.866212612722093e-15 1.0139466469028142e-19
3.4340518103208963 1.854464642272114e-23 1.6904208221133454e-15 1.6903183408446899e-15 1.0248126865492447e-19
3.4469541582030403 1.574171768668841e-23 1.4403135956537565e-15 1.440209015432247e-15 1.0458022150902557e-19
3.472904465399547 1.495757294041971e-23 1.3788702421896927e-15 1.3787608444538527e-15 1.0939773583976743e-19
3.4990501388274233 1.3757585207900123e-23 1.277796840644148e-15 1.2776824809842697e-15 1.1435965987920057e-19
3.5253949054701885 9.483192590024173e-24 8.874252389529686e-16 8.873060086161061e-16 1.1923033686246584e-19
3.5519380250092896 5.46520874946659e-24 5.152779608698443e-16 5.151537935950943e-16 1.2416727475017325e-19
3.578680990867387 3.873228992300718e-24 3.679303329921605e-16 3.6780074601113104e-16 1.2958698102931958e-19
3.605625307711299 3.2305412260555068e-24 3.0918991082071325e-16 3.090545888155276e-16 1.3532200518564073e-19
3.660119384959845 2.764315636689456e-24 2.6856679397585584e-16 2.6841930483754293e-16 1.4748913831295157e-19
3.715437065384467 2.4353407167102216e-24 2.401812342245543e-16 2.400207431209193e-16 1.6049110363501445e-19
3.8285932144167436 2.2748962642945118e-24 2.31190644600565e-16 2.310015837867481e-16 1.890608138169122e-19
3.94519561050918 2.2515935254846233e-24 2.3579140238987544e-16 2.3557021604540884e-16 2.2118634446655456e-19
4.06534921144712 2.2850334493898956e-24 2.4658113774404743e-16 2.463240329005989e-16 2.571048434484482e-19
4.189162171576248 2.351693183744697e-24 2.615033559144878e-16 2.6120618061376963e-16 2.971753007181592e-19
4.316745939156006 2.442846582394393e-24 2.7991238527191716e-16 2.795707830075829e-16 3.416022643341563e-19
4.448215356677963 2.5556182081616687e-24 3.017527327411134e-16 3.013625348311448e-16 3.901979099685962e-19
4.58368876423945 2.690455368389336e-24 3.2734849312903355e-16 3.269050935784698e-16 4.433995505638373e-19
4.723288106065518 2.8502737730562587e-24 3.573554803062925e-16 3.5685354776705005e-16 5.019325392424415e-19
4.867139040275056 3.040803966178483e-24 3.9285438863714853e-16 3.922893730853995e-16 5.650155517490301e-19
4.940699165968905 3.1547044318713164e-24 4.137295300768698e-16 4.131309602814835e-16 5.985697953862511e-19
5.015371051989984 3.2726886897798183e-24 4.3568960421769557e-16 4.3505614049312634e-16 6.33463724569276e-19
5.091171501069577 3.415266749597262e-24 4.615425975235345e-16 4.608722303320115e-16 6.703671915229736e-19
5.129500256944802 3.4884524151628636e-24 4.749821535593909e-16 4.742928043152159e-16 6.893492441750075e-19
5.168117569889187 3.5646581453406866e-24 4.890122120064879e-16 4.883033929518355e-16 7.088190546525435e-19
5.20702561229733 3.657337917564525e-24 5.055035798577214e-16 5.047737799064678e-16 7.297999512538356e-19
5.246226572918644 3.7523487982166476e-24 5.225401639483718e-16 5.217889458323713e-16 7.512181160006333e-19
5.265937586045735 3.8007513572682624e-24 5.312691522893417e-16 5.305070596348779e-16 7.620926544636919e-19
5.285722656980489 3.849764631638583e-24 5.401420435353189e-16 5.393689652454773e-16 7.730782898416814e-19
5.305582063971359 3.8993983530139564e-24 5.491614882785298e-16 5.483773126594824e-16 7.841756190475036e-19
5.3255160863122235 3.952582933680428e-24 5.587430382857768e-16 5.579475925622198e-16 7.954457235569688e-19
5.365609099470188 4.084047176324931e-24 5.816734122240543e-16 5.808546125507899e-16 8.187996732644013e-19
5.406003951863644 4.220404917900365e-24 6.056195864617985e-16 6.047769406063691e-16 8.426458554296873e-19
5.446702915881641 4.3618895180870155e-24 6.306345815022657e-16 6.297675912065875e-16 8.66990295678343e-19
5.487708281020852 4.514471688265909e-24 6.576084478172741e-16 6.567165350722364e-16 8.91912745037869e-19
5.529022354014368 4.724889576275358e-24 6.934408820841252e-16 6.925228829522654e-16 9.179991318597246e-19
5.570647458961463 4.94743887907301e-24 7.315694234112103e-16 7.306247781568417e-16 9.446452543685933e-19
5.612585937458331 5.182985315511468e-24 7.72169094347239e-16 7.711972355193728e-16 9.718588278661139e-19
5.654840148729818 5.441447646104953e-24 8.167783562107258e-16 8.157786130400855e-16 9.997431706406134e-19
5.67608639626678 5.616684844578738e-24 8.462496194022445e-16 8.452352978810081e-16 1.0143215212362153e-18
5.686739436050992 5.706962487641795e-24 8.614652837547566e-16 8.604436130637584e-16 1.0216706909981204e-18
5.6974124697621304 5.79906907360217e-24 8.770116784431703e-16 8.759826183823018e-16 1.029060060868902e-18
5.718818669136295 5.988944296264502e-24 9.091300918998204e-16 9.080861318836145e-16 1.0439600162057595e-18
5.740305295436557 6.198001689673654e-24 9.444002950924942e-16 9.43341187581425e-16 1.0591075110689037e-18
5.7835210386641895 6.73900342030211e-24 1.0345641608397474e-15 1.033473594062784e-15 1.0905667769634048e-18
5.827062130521658 7.361215399847927e-24 1.1385932577846423e-15 1.1374703123152463e-15 1.1229454693963139e-18
5.8489554468988025 7.796928220325241e-24 1.2105180855847967e-15 1.2093777756489917e-15 1.1403099358052316e-18
5.870931020387893 8.264118228670303e-24 1.2878726858749835e-15 1.2867147986786251e-15 1.1578871963582684e-18
5.892989160043636 8.76531051774601e-24 1.371110261631106e-15 1.3699345823345898e-15 1.1756792965166446e-18
5.915130176081913 9.334901877897604e-24 1.465694631295421e-15 1.4645005288000981e-15 1.1941024953229883e-18
5.95966208400165 1.0925827799446013e-23 1.7284046264914425e-15 1.7271693777878979e-15 1.2352487035441478e-18
6.004529249263818 1.3216239276725108e-23 2.106474909681462e-15 2.1051937438582764e-15 1.281165823185219e-18
6.027089341400364 1.4807459346599745e-23 2.3689593646189796e-15 2.367652091320722e-15 1.3072732982577766e-18
6.049734195844842 1.668677888981836e-23 2.6796510198662327e-15 2.6783161541176902e-15 1.3348657485421693e-18
6.095279466722835 2.2113332262503014e-23 3.577809782332049e-15 3.576408616748633e-15 1.4011655834169434e-18
6.141167624020661 3.046033633804135e-23 4.965409595449028e-15 4.963924252213218e-15 1.4853432358090067e-18
6.164241091010745 3.5791315236156225e-23 5.856345725213895e-15 5.8548084783161666e-15 1.537246897729825e-18
6.187401249150058 4.1861272173759984e-23 6.875275986125728e-15 6.8736851507576346e-15 1.5908353680983899e-18
6.1990139391386085 4.482555473624207e-23 7.375945834732596e-15 7.374327666526875e-15 1.618168205720183e-18
6.204828454712694 4.638676748524915e-23 7.639999345150195e-15 7.638367340771307e-15 1.6320043788874555e-18
6.210648424152782 4.7527006983285643e-23 7.835141491883008e-15 7.833497465739237e-15 1.6440261437700497e-18
6.233982942956859 5.140153284009101e-23 8.50572060481353e-15 8.50403365656899e-15 1.686948244539258e-18
6.239830258556775 5.1897335008823925e-23 8.595819071495519e-15 8.594125419434784e-15 1.6936520607328136e-18
6.245683058788269 5.194139089934004e-23 8.611185604070783e-15 8.609485225557241e-15 1.7003785135386752e-18
6.257405133728602 5.1837410089723013e-23 8.610076344375282e-15 8.608363748274675e-15 1.7125961006082808e-18
6.269149208991335 5.1078681768106824e-23 8.499976401164803e-15 8.49825719089757e-15 1.7192102672344378e-18
6.280915325867298 4.91723465473432e-23 8.198101772062646e-15 8.19638291231718e-15 1.7188597454625793e-18
6.304513850009849 4.446969935578369e-23 7.441923983182794e-15 7.440212155392625e-15 1.711827790168484e-18
6.32820103803542 3.8639985678334137e-23 6.4906270810119224e-15 6.488929019776759e-15 1.6980612351617537e-18
6.3519772230701035 3.32938006916744e-23 5.6136035807591545e-15 5.611917141639528e-15 1.686439119627636e-18
6.375842739491607 2.8795220032482836e-23 4.8733480693158885e-15 4.87167108354846e-15 1.6769857674282206e-18
6.399797922933955 2.5191957761603627e-23 4.279545159928078e-15 4.2778694470093616e-15 1.6757129187171733e-18
6.42384311029221 2.21956474813317e-23 3.784706248914476e-15 3.783030168375402e-15 1.6760805390736212e-18
6.447978639727206 2.001393711924684e-23 3.425512480158903e-15 3.4238295552776577e-15 1.6829248812442536e-18
6.472204850670314 1.8196541237154115e-23 3.1261551898579123e-15 3.1244640704699504e-15 1.6911193879605663e-18
6.496522083828205 1.7017361086238526e-23 2.9345571130008346e-15 2.9328524605293587e-15 1.7046524714760507e-18
6.520930681187647 1.602447069501892e-23 2.773720586611222e-15 2.7720014762770753e-15 1.719110334147162e-18
6.57002334288761 1.5013480786115109e-23 2.618289946364521e-15 2.6165341679996913e-15 1.755778364829285e-18
