Dust emission spectrum from A.P. Jones, M. Kohler, N. Ysard, M. Bocchio, and L. Verstraete (2017), A&A, 602A, 46J 
inside the DustPedia framework.

lambda    nu*dP/dnu     j_nu    j_nu(carb.) j_nu(sil)
 (um)   (erg s-1 H-1) (Jy cm2 sr-1 H-1)
0.9927057738263894 5.863977940265485e-24 1.54519149398973e-16 1.5451914923024397e-16 1.6872897162753288e-25
1.0001793341362166 5.9607993870154935e-24 1.582529504207183e-16 1.5825295021752104e-16 2.0319726216835523e-25
1.0077091589558085 6.057496801238646e-24 1.6203089554600249e-16 1.6203089530161394e-16 2.4438857830539376e-25
1.0114953028030835 6.105787329349602e-24 1.6393624252852757e-16 1.639362422606416e-16 2.6788597498971763e-25
1.0152956718711033 6.1540328881944316e-24 1.6585240774818282e-16 1.6585240745463614e-16 2.935466902294645e-25
1.0229392996569957 6.250323269134442e-24 1.6971560501215208e-16 1.6971560466001545e-16 3.5213658588282486e-25
1.0267826658714554 6.298251432595092e-24 1.716595443797475e-16 1.7165954399424218e-16 3.8550533539344043e-25
1.0306404723013447 6.346113843903332e-24 1.736138966163217e-16 1.736138961944236e-16 4.218980618035736e-25
1.03451277320114 6.393905988020467e-24 1.7557858178369427e-16 1.7557858132211904e-16 4.6157525640771495e-25
1.0383996230291617 6.441623376227472e-24 1.775535189644148e-16 1.7755351845959615e-16 5.048185924172769e-25
1.0403485208654093 6.4654526415561194e-24 1.7854480651052857e-16 1.785448059826568e-16 5.278717727084737e-25
1.0423010764483396 6.489261547014818e-24 1.7953862628298228e-16 1.7953862573104976e-16 5.519325371449177e-25
1.0462171883269815 6.536816066953644e-24 1.8153382092712511e-16 1.81533820323879e-16 6.032460777836761e-25
1.0471985131304309 6.548691109693679e-24 1.8203418594074984e-16 1.8203418532397813e-16 6.167716858228135e-25
1.048180758391296 6.560560580296789e-24 1.8253517486655208e-16 1.8253517423596443e-16 6.305876615742393e-25
1.0501480137395462 6.584282531548076e-24 1.8353901916912934e-16 1.8353901851001483e-16 6.591145680776163e-25
1.0521189612883777 6.607981374803066e-24 1.8454534322936163e-16 1.8454534254048603e-16 6.888756603297675e-25
1.0531058218030118 6.619803821537555e-24 1.8504892477579867e-16 1.8504892407156292e-16 7.042358191795608e-25
1.0540936079674168 6.631560857537224e-24 1.85551458456933e-16 1.855514577370059e-16 7.199271213983392e-25
1.058054026499678 6.678525388708919e-24 1.8756761604003113e-16 1.8756761525392436e-16 7.861068130029575e-25
1.0590464539527713 6.690250283541749e-24 1.8807315434042981e-16 1.8807315353688956e-16 8.035402870917769e-25
1.06003981227728 6.70196854973719e-24 1.885792894675722e-16 1.885792886462286e-16 8.213436243568646e-25
1.0620293250338977 6.725384930344204e-24 1.8959334470682051e-16 1.8959334384873066e-16 8.580898841559904e-25
1.0660195594769086 6.772135230660692e-24 1.9162855648566086e-16 1.9162855554930203e-16 9.363588250530299e-25
1.070024785945596 6.818772071618e-24 1.9367316262128344e-16 1.9367316159984955e-16 1.0214338831508226e-24
1.0740450607676866 6.865291269644467e-24 1.9572707359641261e-16 1.9572707248253675e-16 1.113875819188612e-24
1.07808044048254 6.911688676344942e-24 1.977901991533867e-16 1.9779019793909782e-16 1.2142888486039938e-24
1.0861967418109137 7.004019961940674e-24 2.0194137265809826e-16 2.0194137121641682e-16 1.44168154369809e-24
1.0902777775684922 7.049759850372407e-24 2.0402383953197813e-16 2.0402383796186145e-16 1.5701166857416038e-24
1.0943741465085532 7.09535847354887e-24 2.0611500047102628e-16 2.0611499876158597e-16 1.7094403972260304e-24
1.1026131145906286 7.186116206986298e-24 2.103230265700243e-16 2.103230245457134e-16 2.024310942547902e-24
1.1109141095355224 7.27626212822205e-24 2.145646892240624e-16 2.1456468682996987e-16 2.394092590663462e-24
1.1192775983109025 7.365682493665094e-24 2.1883674121346553e-16 2.188367383856758e-16 2.8277897288452006e-24
1.1277040513999907 7.453964666039194e-24 2.231268855336691e-16 2.2312688219788536e-16 3.33578372504922e-24
1.1361939428280308 7.541534014332188e-24 2.2744772481881294e-16 2.274477208887867e-16 3.9300262073583596e-24
1.1447477501889525 7.628362428275866e-24 2.3179846206564635e-16 2.3179845744138716e-16 4.624259142814434e-24
1.1533659546722406 7.714469300010457e-24 2.361797267450088e-16 2.3617972131073936e-16 5.434269419569673e-24
1.1707974979042381 7.884796696849428e-24 2.4504267148896933e-16 2.4504266401224187e-16 7.476727521876987e-24
1.1884924949847024 8.051886040027563e-24 2.5401741742282027e-16 2.540174071870411e-16 1.0235779182493711e-23
1.2064549276569216 8.217040033461175e-24 2.6314549386877033e-16 2.6314547992437903e-16 1.3944391237200207e-23
1.2246888378427687 8.378481394468257e-24 2.7237077227977946e-16 2.7237075337539815e-16 1.8904381407758456e-23
1.2431983285522175 8.535842733152051e-24 2.816801579126461e-16 2.8168013240723227e-16 2.5505413837935576e-23
1.2619875648066055 8.689078050530931e-24 2.910705100590956e-16 2.9107047581109917e-16 3.424799646718565e-23
1.3004222497298317 8.980693297607945e-24 3.10001424490999e-16 3.1000136360350736e-16 6.088749157036299e-23
1.3400274889804893 9.252287819476769e-24 3.2910332858883045e-16 3.2910322231088413e-16 1.0627794638768632e-22
1.3808389325824078 9.50296813137813e-24 3.4831464052675446e-16 3.4831445831283234e-16 1.8221392208248682e-22
1.4228933163050095 9.734026629187119e-24 3.6764977323256563e-16 3.676494662197114e-16 3.070128541017694e-22
1.466228494730424 9.950969390549827e-24 3.8729017414456027e-16 3.872896655352767e-16 5.086092837059566e-22
1.5108834753276823 1.0149862740764571e-23 4.0706201077767795e-16 4.070611819667282e-16 8.288109498712389e-22
1.5568984535646726 1.0327551564523191e-23 4.2680263534320574e-16 4.2680130543046904e-16 1.3299127368331733e-21
1.6043148490894465 1.0484481516690566e-23 4.464840970100856e-16 4.464819918422099e-16 2.1051678759042246e-21
1.6531753430134553 1.0621247046768302e-23 4.660836439845885e-16 4.660803604291386e-16 3.2835554500020508e-21
1.7035239163302658 1.0739464459709933e-23 4.8562416938479985e-16 4.856191216120553e-16 5.047772744597837e-21
1.755405889504358 1.0847758726551401e-23 5.054602424087375e-16 5.054525904875963e-16 7.65192114100318e-21
1.8088679632656115 1.0944219843241892e-23 5.254859497624405e-16 5.254745075364173e-16 1.1442226023348165e-20
1.8639582606462262 1.1027598044993528e-23 5.4561530454431335e-16 5.455984198745012e-16 1.6884669811988194e-20
1.9207263702978936 1.1099094686496239e-23 5.658775810975421e-16 5.658529841801825e-16 2.4596917359637904e-20
1.979223391128241 1.1161279010239446e-23 5.86378735732299e-16 5.863433488180657e-16 3.538691423310587e-20
2.039501978296691 1.1217179104856938e-23 6.072635558589197e-16 6.072132598013491e-16 5.0296057570742465e-20
2.1016163906111602 1.1275004351992991e-23 6.289840000561886e-16 6.289133464715677e-16 7.065358462091004e-20
2.1656225393682647 1.1339588565914783e-23 6.518527367721286e-16 6.517546086502955e-16 9.812812183321376e-20
2.231578038680979 1.1411406071209919e-23 6.759594932773309e-16 6.758247064189314e-16 1.3478685839950523e-19
2.299542257339062 1.1493409418183403e-23 7.015517385673155e-16 7.013685788747282e-16 1.8315969258731692e-19
2.369576372248914 1.1591892529786098e-23 7.291124092411844e-16 7.288660993934287e-16 2.4630984775568517e-19
2.4417434235010123 1.171425712064617e-23 7.592489710398696e-16 7.589210760723176e-16 3.278949675519796e-19
2.5161083711144245 1.1873069272517994e-23 7.929791662606806e-16 7.92546921297645e-16 4.3224496303548978e-19
2.5927381535095444 1.2088751378394866e-23 8.319735844733407e-16 8.314091614186528e-16 5.6442305468775105e-19
2.6717017477616296 1.2385480096378604e-23 8.783553549565766e-16 8.776251047692108e-16 7.302501873659051e-19
2.753070231689431 1.2799500668693314e-23 9.353620617270647e-16 9.344257124467234e-16 9.363492803413392e-19
2.836916847834745 1.3412858909019656e-23 1.010037261588442e-15 1.00884704903636e-15 1.1902125520818996e-18
2.9233170693905177 1.4405898551307904e-23 1.1178556020079872e-15 1.1163556532715246e-15 1.4999487364625135e-18
2.967498994190263 1.522249876178389e-23 1.1990739303552275e-15 1.1973982565474962e-15 1.6756738077313906e-18
3.0123486681368425 1.6170276684734892e-23 1.2929809387268317e-15 1.2911114468379458e-15 1.869491888886208e-18
3.0578761833420214 1.8238786579573656e-23 1.4804211156317243e-15 1.4783375790177918e-15 2.083536613932761e-18
3.1040917844459814 2.0890727250555034e-23 1.7213038747446081e-15 1.718986218236828e-15 2.3176565077805013e-18
3.127460860933648 2.3671375958971634e-23 1.9651007415850525e-15 1.9626572579696767e-15 2.44348361537597e-18
3.1510058709225794 2.736738203413943e-23 2.2890321904001837e-15 2.286457201875549e-15 2.574988524634411e-18
3.162844764501044 3.0799354484006714e-23 2.5857642350205412e-15 2.5831210582150944e-15 2.6431768054460822e-18
3.1747281389236908 3.478651733270976e-23 2.931479933655968e-15 2.9287670879011703e-15 2.7128457547975153e-18
3.1986289994194426 4.589412247476758e-23 3.8966408012610265e-15 3.89378373132213e-15 2.857069938896254e-18
3.2227097969389145 7.204633776980231e-23 6.163147224091734e-15 6.160136963118776e-15 3.010260972956104e-18
3.2348180950136065 9.683378201748461e-23 8.314692475909533e-15 8.311600368595314e-15 3.092107314216217e-18
3.240889293275058 1.1536355853765862e-22 9.924354593693943e-15 9.921219312137876e-15 3.1352815560648637e-18
3.2469718861334385 1.3680045973085993e-22 1.179058947167272e-14 1.1787409514938734e-14 3.179956733985453e-18
3.2714166318528037 2.510956652718818e-22 2.1804418338635642e-14 2.1801053460371278e-14 3.364878264363076e-18
3.2744851364798273 2.5824234107196485e-22 2.244604899668401e-14 2.2442662241892396e-14 3.386754791612049e-18
3.2775565192852394 2.6559388425965434e-22 2.3106687615300026e-14 2.310327886668527e-14 3.4087486147634533e-18
3.283707930232385 2.585332501660519e-22 2.253462632189183e-14 2.2531178072189304e-14 3.4482497025209364e-18
3.2898708863219004 2.3612677436839365e-22 2.062023077828348e-14 2.0616746424247615e-14 3.48435403586561e-18
3.29141343181113 2.3084248087301956e-22 2.0168221537478222e-14 2.0164728113255656e-14 3.493424222566116e-18
3.292184975758714 2.2824592328009107e-22 1.9946040245501616e-14 1.9942542279557728e-14 3.497965943886149e-18
3.295272960557952 2.1185995085032117e-22 1.8531462494935244e-14 1.8527946833157046e-14 3.515661778197165e-18
3.3076538914384823 1.5508245042874864e-22 1.3616081645803618e-14 1.3612494827455932e-14 3.5868183476853415e-18
3.310756385682612 1.435236648074946e-22 1.2613051638760743e-14 1.2609446867850698e-14 3.604770910044482e-18
3.313861789986515 1.328576712573881e-22 1.1686661374307632e-14 1.1683038585245536e-14 3.62278906209468e-18
3.3200813396944477 1.179028929933062e-22 1.0390647657897855e-14 1.0386986184988279e-14 3.661472909573648e-18
3.345076488085796 9.125116782685342e-23 8.102404428332611e-15 8.098570741231215e-15 3.8336871013986416e-18
3.3482140837626964 9.225615577261559e-23 8.199323203733169e-15 8.195466193846899e-15 3.857009886269299e-18
3.3513546224236106 9.327218839759664e-23 8.297399188758719e-15 8.293518742011898e-15 3.880446746822435e-18
3.3576445397418455 1.006756082755964e-22 8.972808779457235e-15 8.968879358751528e-15 3.929420705703841e-18
3.3702598118196083 1.2796073766218003e-22 1.1447470942032385e-14 1.144343877628132e-14 4.032165751064093e-18
3.382922481734668 1.34192489121124e-22 1.2050073278052038e-14 1.2045940935102936e-14 4.132342949099342e-18
3.389271646505754 1.374204571038152e-22 1.2363094825898166e-14 1.2358911644494462e-14 4.183181403706171e-18
3.395632727569191 1.40900602802516e-22 1.269997876767625e-14 1.2695743191275478e-14 4.235576400769854e-18
3.421196662673239 1.5761305520032173e-22 1.4313296254026888e-14 1.4308843432493567e-14 4.452821533324197e-18
3.4276182099114902 1.5426673687550938e-22 1.4035702931343167e-14 1.4031201288471783e-14 4.501642871386057e-18
3.4340518103208963 1.3956753580503824e-22 1.2722155129731922e-14 1.2717607145614741e-14 4.5479841171817046e-18
3.4469541582030403 1.186313566777713e-22 1.0854365406281736e-14 1.084972813924816e-14 4.637267033577448e-18
3.472904465399547 1.1278588127546197e-22 1.0397214578150023e-14 1.0392372109772755e-14 4.8424683772694435e-18
3.4990501388274233 1.0383552375079962e-22 9.644185530409215e-15 9.639132288260794e-15 5.0532421484199605e-18
3.5253949054701885 7.192288923997264e-23 6.730453543368132e-15 6.725194290030506e-15 5.259253337626338e-18
3.5519380250092896 4.191642723808108e-23 3.9520194276743165e-15 3.946552095612559e-15 5.467332061757298e-18
3.578680990867387 3.0037423190556086e-23 2.8533503024728183e-15 2.8476547248221394e-15 5.6955776506789396e-18
3.605625307711299 2.5252964954679712e-23 2.4169207064506483e-15 2.410984099794826e-15 5.936606655821686e-18
3.660119384959845 2.1805894662239365e-23 2.118549394824682e-15 2.112103563462799e-15 6.44583136188311e-18
3.715437065384467 1.9383013983112192e-23 1.9116159761597853e-15 1.904629143129508e-15 6.986833030277168e-18
3.8285932144167436 1.8258193454966627e-23 1.8555235156643952e-15 1.847359172890712e-15 8.164342773683691e-18
3.94519561050918 1.8160141782351034e-23 1.9017665710945236e-15 1.892295578061099e-15 9.47099303342469e-18
4.06534921144712 1.8487874221979694e-23 1.9950522218139907e-15 1.984140977237219e-15 1.0911244576772099e-17
4.189162171576248 1.9065405963190632e-23 2.120033206588436e-15 2.107539275249567e-15 1.2493931338868347e-17
4.316745939156006 1.9827128395382774e-23 2.2718818456476187e-15 2.2576613620170722e-15 1.4220483630546484e-17
4.448215356677963 2.0751009912899294e-23 2.450160171952876e-15 2.4340845125387787e-15 1.607565941409746e-17
4.58368876423945 2.183996057645306e-23 2.6572744036930017e-15 2.6392054347483354e-15 1.806896894466619e-17
4.723288106065518 2.3115316262104855e-23 2.8981022887562767e-15 2.877882201163728e-15 2.0220087592548352e-17
4.867139040275056 2.4618949006120834e-23 3.180626659351393e-15 3.158139578722591e-15 2.248708062880188e-17
4.940699165968905 2.550945792333995e-23 3.345484899477146e-15 3.321812147484314e-15 2.3672751992831958e-17
5.015371051989984 2.6429764112545913e-23 3.5185667068556135e-15 3.493675397803019e-15 2.48913090525941e-17
5.091171501069577 2.7533440882155314e-23 3.720897006071104e-15 3.69473000890457e-15 2.6166997166535e-17
5.129500256944802 2.809905836801644e-23 3.825923265749454e-15 3.799106220348511e-15 2.681704540094198e-17
5.168117569889187 2.8687018321031756e-23 3.935385025174033e-15 3.907904624794014e-15 2.7480400380019505e-17
5.20702561229733 2.939823421022125e-23 4.06331407425942e-15 4.035115797841064e-15 2.819827641835645e-17
5.246226572918644 3.012651254951981e-23 4.195322357639167e-15 4.166395726681388e-15 2.892663095777851e-17
5.265937586045735 3.049721617810707e-23 4.262901901000139e-15 4.233607184442827e-15 2.9294716557311735e-17
5.285722656980489 3.087238758037518e-23 4.331556890370367e-15 4.30189149450137e-15 2.9665395868998055e-17
5.305582063971359 3.1252097237097386e-23 4.401306734225905e-15 4.3712680745718395e-15 3.003865965406577e-17
5.3255160863122235 3.1658284723110124e-23 4.4752625030022725e-15 4.444845607614799e-15 3.0416895387474124e-17
5.365609099470188 3.265814631239669e-23 4.6513604232011524e-15 4.620160649834697e-15 3.1199773366454704e-17
5.406003951863644 3.3694031659263567e-23 4.8350255287508624e-15 4.803031438789998e-15 3.199408996086477e-17
5.446702915881641 3.476765724889484e-23 5.026648861245552e-15 4.993849072766731e-15 3.2799788478820965e-17
5.487708281020852 3.5923660089307707e-23 5.2328830442437216e-15 5.1992634026125805e-15 3.3619641631141383e-17
5.529022354014368 3.7511484699658374e-23 5.505313218117913e-15 5.470837436573765e-15 3.4475781544147407e-17
5.570647458961463 3.918901839246271e-23 5.7948139007221044e-15 5.759469344399866e-15 3.534455632223846e-17
5.612585937458331 4.096267061152202e-23 6.102681436021375e-15 6.0664555097898904e-15 3.62259262314842e-17
5.654840148729818 4.290650767723605e-23 6.440401358348345e-15 6.403277920732734e-15 3.7123437615611347e-17
5.67608639626678 4.422175729487345e-23 6.662763946281528e-15 6.6251713866265966e-15 3.759255965493174e-17
5.686739436050992 4.489909247932476e-23 6.777512473017028e-15 6.739684019034325e-15 3.78284539827043e-17
5.6974124697621304 4.558998523258051e-23 6.894718611135432e-15 6.8566533742331445e-15 3.80652369022856e-17
5.718818669136295 4.7013743522737365e-23 7.136751797147308e-15 7.098210329556369e-15 3.854146759093918e-17
5.740305295436557 4.858035972209929e-23 7.402273886709088e-15 7.363249580729422e-15 3.9024305979664257e-17
5.7835210386641895 5.2629818622171135e-23 8.079670055361638e-15 8.039645397836302e-15 4.0024657525335686e-17
5.827062130521658 5.728301285867801e-23 8.860228737204071e-15 8.81918065425834e-15 4.10480829457312e-17
5.8489554468988025 6.053888266604609e-23 9.399010774179964e-15 9.357412511953487e-15 4.1598262226475287e-17
5.870931020387893 6.402857370809185e-23 9.978154826985401e-15 9.936001551260576e-15 4.215327572482623e-17
5.892989160043636 6.777084698432e-23 1.0601028172533846e-14 1.055831503752649e-14 4.271313500735089e-17
5.915130176081913 7.202241485546208e-23 1.130840668358017e-14 1.1265113769341115e-14 4.32929142390549e-17
5.95966208400165 8.389210115285568e-23 1.3271259479857074e-14 1.3226660923789405e-14 4.459855606767355e-17
6.004529249263818 1.0097147147937721e-22 1.6093373221495534e-14 1.6047313099674424e-14 4.606012182111383e-17
6.027089341400364 1.1283364826694755e-22 1.805159963295726e-14 1.800470282587915e-14 4.689680707810231e-17
6.049734195844842 1.2684010617226178e-22 2.0368653657407117e-14 2.032087190848187e-14 4.778174892524156e-17
6.095279466722835 1.6727468918415218e-22 2.7064081170364093e-14 2.701415164093991e-14 4.9929529424186726e-17
6.141167624020661 2.29450746397638e-22 3.740329473719242e-14 3.735061142607248e-14 5.2683311119942544e-17
6.164241091010745 2.69154724438497e-22 4.404037989344919e-14 4.398598476244849e-14 5.439513100069053e-17
6.187401249150058 3.1435178166586927e-22 5.162899127174484e-14 5.1572833553416687e-14 5.615771832817057e-17
6.1990139391386085 3.36420961667293e-22 5.535732475654876e-14 5.530026914904245e-14 5.705560750629073e-17
6.204828454712694 3.480433577889374e-22 5.732348188385677e-14 5.726597225466172e-14 5.750962919508079e-17
6.210648424152782 3.5653019851606837e-22 5.877636166916514e-14 5.871846123130976e-14 5.790043785536685e-17
6.233982942956859 3.8536090214391097e-22 6.37679848157849e-14 6.370870474611557e-14 5.92800696693404e-17
6.239830258556775 3.890461266581494e-22 6.443818578836436e-14 6.437870152063464e-14 5.948426772971947e-17
6.245683058788269 3.893674181466345e-22 6.455189296598349e-14 6.449220398216766e-14 5.968898381582845e-17
6.257405133728602 3.885793992665084e-22 6.454215763760582e-14 6.448210279738917e-14 6.005484021664543e-17
6.269149208991335 3.829159107386444e-22 6.37208340592154e-14 6.366060857771925e-14 6.022548149613676e-17
6.280915325867298 3.687079161287553e-22 6.147164479283921e-14 6.141149067185823e-14 6.015412098097002e-17
6.304513850009849 3.336686632861402e-22 5.583884900770565e-14 5.5779057218464245e-14 5.979178924141395e-17
6.32820103803542 2.902469470976925e-22 4.875479796229926e-14 4.86956021762742e-14 5.919578602505082e-17
6.3519772230701035 2.504325433321934e-22 4.222494857247616e-14 4.2166274754028083e-14 5.867381844807715e-17
6.375842739491607 2.169310959268252e-22 3.6713757919439626e-14 3.665553070680321e-14 5.822721263642635e-17
6.399797922933955 1.9010331607405701e-22 3.2294263665009437e-14 3.2236203082872645e-14 5.80605821367893e-17
6.42384311029221 1.6779505834332203e-22 2.861169093548956e-14 2.855374128353765e-14 5.794965195191212e-17
6.447978639727206 1.515542532548781e-22 2.5939473220713535e-14 2.5881414558502824e-14 5.805866221071109e-17
6.472204850670314 1.3802607268478102e-22 2.3712798923468244e-14 2.365458674932054e-14 5.821217414770762e-17
6.496522083828205 1.292498425016902e-22 2.2288476030181602e-14 2.222993064696666e-14 5.854538321494193e-17
