Dust emission spectrum from A.P. Jones, M. Kohler, N. Ysard, M. Bocchio, and L. Verstraete (2017), A&A, 602A, 46J 
inside the DustPedia framework.

lambda    nu*dP/dnu     j_nu    j_nu(carb.) j_nu(sil)
 (um)   (erg s-1 H-1) (Jy cm2 sr-1 H-1)
0.9927057738263894 6.869018201944171e-22 1.8100253114567874e-14 1.8100252056003046e-14 1.0585648220728382e-21
1.0001793341362166 6.984657019320219e-22 1.854352930232798e-14 1.8543528028222273e-14 1.2741057065048378e-21
1.0077091589558085 7.100701360970013e-22 1.8993538721925985e-14 1.899353719042436e-14 1.5315016222592326e-21
1.0114953028030835 7.158869389086925e-22 1.9221078054227284e-14 1.9221076375975532e-14 1.6782517510638162e-21
1.0152956718711033 7.217131426069797e-22 1.9450312434062092e-14 1.9450310595609708e-14 1.8384523860636632e-21
1.0229392996569957 7.333871414686661e-22 1.991372878857895e-14 1.99137265845601e-14 2.2040188469287164e-21
1.0267826658714554 7.392216204555035e-22 2.014756761000975e-14 2.0147565197907175e-14 2.412102576238979e-21
1.0306404723013447 7.4506428488001185e-22 2.0383106403289802e-14 2.0383103764335495e-14 2.63895430604284e-21
1.03451277320114 7.509149171248514e-22 2.0620349507175095e-14 2.0620346620993768e-14 2.88618133024875e-21
1.0383996230291617 7.56773304814845e-22 2.08593013717759e-14 2.085929821625518e-14 3.1555207158146908e-21
1.0403485208654093 7.59705342052845e-22 2.09794195119483e-14 2.0979416212885043e-14 3.2990632583315557e-21
1.0423010764483396 7.626392409587804e-22 2.1099966564642932e-14 2.1099963115793838e-14 3.448849094923888e-21
1.0462171883269815 7.6851252409052365e-22 2.134234977694859e-14 2.1342346008755445e-14 3.768193139765989e-21
1.0471985131304309 7.69981969768429e-22 2.140321458258661e-14 2.140321073023982e-14 3.852346784241453e-21
1.048180758391296 7.714518593639797e-22 2.146418714172752e-14 2.1464183203429385e-14 3.9382981392526286e-21
1.0501480137395462 7.74392958409383e-22 2.158645582976237e-14 2.158645171402161e-14 4.115740763171992e-21
1.0521189612883777 7.773357976597711e-22 2.170915646502823e-14 2.170915216420657e-14 4.300821658517165e-21
1.0531058218030118 7.788058882118816e-22 2.1770613768611052e-14 2.1770609372281102e-14 4.396329949267064e-21
1.0540936079674168 7.80269936691636e-22 2.1831998205773708e-14 2.1831993711886257e-14 4.493887442445991e-21
1.058054026499678 7.861300745226591e-22 2.2078607985061878e-14 2.207860307982504e-14 4.905236837090626e-21
1.0590464539527713 7.875960812069038e-22 2.2140528838381144e-14 2.2140523824812393e-14 5.013568760999126e-21
1.06003981227728 7.8906247136656245e-22 2.220255721756079e-14 2.2202552093373515e-14 5.124187273674834e-21
1.0620293250338977 7.919963914789537e-22 2.232693688337958e-14 2.2326931530911223e-14 5.352468355499594e-21
1.0660195594769086 7.978687178416715e-22 2.2576990189569516e-14 2.2576984351023287e-14 5.838546227073241e-21
1.070024785945596 8.037468903160578e-22 2.2828773356783548e-14 2.2828766990118672e-14 6.3666648662814055e-21
1.0740450607676866 8.096307521654266e-22 2.3082292009324742e-14 2.3082285069059225e-14 6.94026551763428e-21
1.07808044048254 8.15520153344029e-22 2.333755194957883e-14 2.333754438652483e-14 7.563054007313486e-21
1.0861967418109137 8.27305881482733e-22 2.3853056704945495e-14 2.3853047732488938e-14 8.972456545560412e-21
1.0902777775684922 8.331811915064223e-22 2.4112711542647652e-14 2.4112701774663218e-14 9.767984435547237e-21
1.0943741465085532 8.390611494453731e-22 2.437411581921842e-14 2.4374105188651003e-14 1.0630567418223459e-20
1.1026131145906286 8.508345651402826e-22 2.4902199699570757e-14 2.49021871209192e-14 1.2578651554015065e-20
1.1109141095355224 8.62625316676405e-22 2.5437364642429068e-14 2.5437349778064123e-14 1.4864364947229304e-20
1.1192775983109025 8.744233481629562e-22 2.597939242120821e-14 2.5979374878546838e-14 1.754266136570895e-20
1.1277040513999907 8.861850371413452e-22 2.6527051871437924e-14 2.6527031194616106e-14 2.067682181283005e-20
1.1361939428280308 8.979609919304193e-22 2.7081915191587706e-14 2.7081890851972962e-14 2.433961474823463e-20
1.1447477501889525 9.09750934313204e-22 2.764405459485328e-14 2.764402598024662e-14 2.861460665993126e-20
1.1533659546722406 9.215591070429993e-22 2.8213681280771304e-14 2.821364768308908e-14 3.359768221998763e-20
1.1707974979042381 9.452661751832938e-22 2.937685748164291e-14 2.9376811338110665e-14 4.6143532239445186e-20
1.1884924949847024 9.69045673901496e-22 3.057103369639493e-14 3.05709706393146e-14 6.30570803251759e-20
1.2064549276569216 9.930605074096504e-22 3.1802132714426043e-14 3.180204696926972e-14 8.574515632371753e-20
1.2246888378427687 1.017147537966767e-21 3.306580839594586e-14 3.306569237029368e-14 1.1602565218293554e-19
1.2431983285522175 1.0412851928978141e-21 3.436208781452624e-14 3.4361931575169585e-14 1.5623935664750358e-19
1.2619875648066055 1.0655062689108154e-21 3.569279172766603e-14 3.569258234266017e-14 2.093850058437005e-19
1.3004222497298317 1.1140370789934876e-21 3.8455057975953735e-14 3.8454687207811987e-14 3.707681417280477e-19
1.3400274889804893 1.1628762835591374e-21 4.1363440386138287e-14 4.1362795875631164e-14 6.44510507120235e-19
1.3808389325824078 1.2122000375376644e-21 4.443106769213356e-14 4.442996733955625e-14 1.1003525773145192e-18
1.4228933163050095 1.2624397515987981e-21 4.768177713870032e-14 4.7679931176435e-14 1.845962265331021e-18
1.466228494730424 1.3145223545172932e-21 5.1161004683764793e-14 5.115796015634622e-14 3.0445274185787843e-18
1.5108834753276823 1.3683542389902052e-21 5.487808477866706e-14 5.4873146059990574e-14 4.9387186764801345e-18
1.5568984535646726 1.4239215422014614e-21 5.88458419148647e-14 5.883795397983863e-14 7.887935026094094e-18
1.6043148490894465 1.4816246726014626e-21 6.309533313604787e-14 6.308290584291549e-14 1.2427293132376516e-17
1.6531753430134553 1.5419048161952927e-21 6.766216925802068e-14 6.76428788701901e-14 1.9290387830571327e-17
1.7035239163302658 1.6052971456855976e-21 7.258938245142386e-14 7.25598731989017e-14 2.9509252522180097e-17
1.755405889504358 1.6731748428282971e-21 7.796295833702185e-14 7.79184496525308e-14 4.450868449105298e-17
1.8088679632656115 1.745702232663403e-21 8.381977051566672e-14 8.375355596771586e-14 6.621454795087179e-17
1.8639582606462262 1.8230564829169615e-21 9.019983445804007e-14 9.010263682260225e-14 9.719763543782439e-17
1.9207263702978936 1.905717335188945e-21 9.7161322283737e-14 9.702048622202542e-14 1.4083606171159533e-16
1.979223391128241 1.9943261837461795e-21 1.0477566819985956e-13 1.0457415933733016e-13 2.0150886252940445e-16
2.039501978296691 2.0895280988416616e-21 1.131206207468236e-13 1.1283581435336421e-13 2.84806393459358e-16
2.1016163906111602 2.1926580241409292e-21 1.2231896074928608e-13 1.2192116678233533e-13 3.977939669507262e-16
2.1656225393682647 2.3046072360640393e-21 1.324796332142766e-13 1.3193038698589303e-13 5.492462283835667e-16
2.231578038680979 2.4256044493686857e-21 1.4368171146087804e-13 1.4293180058958314e-13 7.499108712948747e-16
2.299542257339062 2.5562593749622362e-21 1.5603274393902212e-13 1.5501996025478777e-13 1.0127836842343576e-15
2.369576372248914 2.697479411852954e-21 1.696673522292302e-13 1.683139514223441e-13 1.3534008068861437e-15
2.4417434235010123 2.850280347833631e-21 1.8473834055201899e-13 1.8294828197251072e-13 1.7900585795082592e-15
2.5161083711144245 3.016223533661318e-21 2.0144769377491823e-13 1.9910359003595754e-13 2.3441037389606108e-15
2.5927381535095444 3.1975642535832264e-21 2.2006317363693602e-13 2.1702306740158067e-13 3.0401062353553727e-15
2.6717017477616296 3.3964058260904234e-21 2.4086682322670016e-13 2.369610053867559e-13 3.9058178399442556e-15
2.753070231689431 3.61557128279178e-21 2.6421876110097813e-13 2.592465501780369e-13 4.972210922941171e-15
2.836916847834745 3.8616055432158864e-21 2.907930005572241e-13 2.8451937528907017e-13 6.273625268153949e-15
2.9233170693905177 4.148139115102885e-21 3.2188346538822603e-13 3.1403742602526393e-13 7.846039362962077e-15
2.967498994190263 4.3186525555209955e-21 3.401796101036676e-13 3.3145046005433347e-13 8.729150049334217e-15
3.0123486681368425 4.501596003258137e-21 3.5994917956823355e-13 3.502502693574281e-13 9.698910210805384e-15
3.0578761833420214 4.774905400817901e-21 3.8757352358251136e-13 3.768080533415144e-13 1.076547024099692e-14
3.1040917844459814 5.0904594538586374e-21 4.194314289333512e-13 4.075057045515747e-13 1.1925724381776416e-14
3.127460860933648 5.360143511163495e-21 4.4497717441716853e-13 4.3243037930918707e-13 1.2546795107981342e-14
3.1510058709225794 5.696216306183026e-21 4.764366015013823e-13 4.632425433394742e-13 1.3194058161908037e-14
3.162844764501044 5.987327891915214e-21 5.026669742151441e-13 4.891380004137731e-13 1.3528973801370973e-14
3.1747281389236908 6.315638535083506e-21 5.322225118641815e-13 5.183518440793715e-13 1.3870667784809833e-14
3.1986289994194426 7.19562115014102e-21 6.109442658909514e-13 5.963677590963922e-13 1.4576506794559243e-14
3.2227097969389145 9.18988573861603e-21 7.861415379729578e-13 7.708172145578861e-13 1.5324323415071998e-14
3.2348180950136065 1.1047205056818668e-20 9.485750824972884e-13 9.328517110111017e-13 1.5723371486186714e-14
3.240889293275058 1.243018799168228e-20 1.0693289532626706e-12 1.053395093778964e-12 1.593385948370655e-14
3.2469718861334385 1.4031176334021577e-20 1.209322251435232e-12 1.1931705983999053e-12 1.615165303532608e-14
3.2714166318528037 2.2436510787451784e-20 1.9483214365297656e-12 1.9312698424708684e-12 1.7051594058897766e-14
3.2744851364798273 2.296473885962866e-20 1.9960617282958717e-12 1.978904100907542e-12 1.715762738832996e-14
3.2775565192852394 2.3507105378257685e-20 2.0451199101569495e-12 2.027855721595111e-12 1.7264188561838753e-14
3.283707930232385 2.3002749614585185e-20 2.0049969070043597e-12 1.9875421967798322e-12 1.7454710224527987e-14
3.2898708863219004 2.137524273786658e-20 1.8666347320231483e-12 1.849006676974783e-12 1.7628055048364822e-14
3.29141343181113 2.0990817848904082e-20 1.8339235613328118e-12 1.8162519795621684e-12 1.7671581770643587e-14
3.292184975758714 2.080183288085766e-20 1.8178383642481345e-12 1.8001449905052856e-12 1.7693373742848637e-14
3.295272960557952 1.96187989154638e-20 1.7160630635397998e-12 1.698284930802982e-12 1.7778132736817776e-14
3.3076538914384823 1.5494983957236442e-20 1.3604438547292757e-12 1.3423253099565952e-12 1.811854477268029e-14
3.310756385682612 1.4648706713856587e-20 1.2873479399425575e-12 1.269143595910554e-12 1.820434403200364e-14
3.313861789986515 1.386517965222243e-20 1.2196334464988844e-12 1.2013430242301684e-12 1.829042226871558e-14
3.3200813396944477 1.2773832245549144e-20 1.1257432852994606e-12 1.1072676989868034e-12 1.8475586312657112e-14
3.345076488085796 1.08896808747307e-20 9.669202120236522e-13 9.47619415358951e-13 1.9300796664701253e-14
3.3482140837626964 1.0973420054666168e-20 9.752695299844957e-13 9.558569441735688e-13 1.9412585810926788e-14
3.3513546224236106 1.1057905946732266e-20 9.837000868969714e-13 9.641752105555505e-13 1.952487634142089e-14
3.3576445397418455 1.1623393227168265e-20 1.0359459116483922e-12 1.0161862557634906e-12 1.975965588490161e-14
3.3702598118196083 1.3656739525418464e-20 1.2217429481601002e-12 1.2014908372709005e-12 2.0252110889199772e-14
3.382922481734668 1.4158939592914658e-20 1.2714292785800651e-12 1.2506985155114826e-12 2.0730763068583067e-14
3.389271646505754 1.4417726695835687e-20 1.2970974341894498e-12 1.2761240612287277e-12 2.0973372960722413e-14
3.395632727569191 1.4700944304570064e-20 1.3250594874637189e-12 1.3038360898918287e-12 2.1223397571890264e-14
3.421196662673239 1.6064555088429313e-20 1.4588685935792617e-12 1.4366102182834237e-12 2.22583752958376e-14
3.4276182099114902 1.5837139379000986e-20 1.4409158325901123e-12 1.4184264906547835e-12 2.2489341935328453e-14
3.4340518103208963 1.4765499389725e-20 1.3459360210131497e-12 1.3232282278494512e-12 2.2707793163698437e-14
3.4469541582030403 1.3235152441553764e-20 1.2109714061407573e-12 1.1878443299741034e-12 2.312707616665408e-14
3.472904465399547 1.285323007763681e-20 1.1848804977028312e-12 1.1607875723021231e-12 2.409292540070815e-14
3.4990501388274233 1.2249799680419269e-20 1.1377545618380064e-12 1.1126732936271364e-12 2.508126821086999e-14
3.5253949054701885 9.979759766021567e-21 9.338933709277685e-13 9.078519660310995e-13 2.604140489666904e-14
3.5519380250092896 7.823188935440379e-21 7.37596133459072e-13 7.105897367924604e-13 2.7006396666611574e-14
3.578680990867387 7.013937284576998e-21 6.662761963804341e-13 6.38212151742882e-13 2.8064044637552016e-14
3.605625307711299 6.735148010944178e-21 6.44610195985889e-13 6.154322887846855e-13 2.9177907201203297e-14
3.660119384959845 6.63369028784849e-21 6.444954798902312e-13 6.129776582009967e-13 3.151782168923453e-14
3.715437065384467 6.604288289347522e-21 6.513364235346134e-13 6.173522463601318e-13 3.398417717448159e-14
3.8285932144167436 6.829468813840328e-21 6.940577124912774e-13 6.547742063608964e-13 3.928350613038103e-14
3.94519561050918 7.1346191793984e-21 7.47151669600739e-13 7.020918842520026e-13 4.505978534873642e-14
4.06534921144712 7.473711771422272e-21 8.064986323331208e-13 7.551932495100144e-13 5.130538282310644e-14
4.189162171576248 7.832216671663846e-21 8.709260876574643e-13 8.1289540658565e-13 5.803068107181411e-14
4.316745939156006 8.202969118132854e-21 9.399332191863936e-13 8.747241515249705e-13 6.52090676614231e-14
4.448215356677963 8.581382574357809e-21 1.0132404105745165e-12 9.405013270712962e-13 7.273908350322022e-14
4.58368876423945 8.965504900432578e-21 1.0908356086406813e-12 1.0102077714276664e-12 8.062783721301456e-14
4.723288106065518 9.354880568047381e-21 1.1728760479797564e-12 1.0839536197554119e-12 8.892242822434431e-14
4.867139040275056 9.748244775319925e-21 1.2594171752237191e-12 1.162017290681381e-12 9.739988454233813e-14
4.940699165968905 9.949928308074044e-21 1.3049016958955276e-12 1.2031694177792467e-12 1.017322781162809e-13
5.015371051989984 1.0149150061887245e-20 1.3511456764643117e-12 1.2450323755210422e-12 1.0611330094326961e-13
5.091171501069577 1.0358438854192777e-20 1.3998498874550906e-12 1.2892121489881963e-12 1.1063773846689399e-13
5.129500256944802 1.0461901930972907e-20 1.424475990528501e-12 1.3115625324363924e-12 1.1291345809210824e-13
5.168117569889187 1.0565740055281882e-20 1.4494449973196909e-12 1.334224650242999e-12 1.1522034707669147e-13
5.20702561229733 1.0679171154635171e-20 1.476035129993195e-12 1.3582950308611911e-12 1.1774009913200387e-13
5.246226572918644 1.079206814692817e-20 1.502869099353981e-12 1.382593736543054e-12 1.2027536281092733e-13
5.265937586045735 1.0848310428875059e-20 1.5163771958664568e-12 1.3948287167669967e-12 1.2154847909946006e-13
5.285722656980489 1.0904412280154471e-20 1.5299458788074839e-12 1.4071208069752145e-12 1.2282507183226982e-13
5.305582063971359 1.0960371617431821e-20 1.5435750453303515e-12 1.4194700407584171e-12 1.2410500457193466e-13
5.3255160863122235 1.1017998437885835e-20 1.5575207468904217e-12 1.432122273070908e-12 1.2539847381951366e-13
5.365609099470188 1.1146871041082835e-20 1.5876012773982437e-12 1.459526541281454e-12 1.2807473611678984e-13
5.406003951863644 1.1275946477997139e-20 1.6180755581071994e-12 1.4873088437261652e-12 1.3076671438103436e-13
5.446702915881641 1.140526055802692e-20 1.6489532091794072e-12 1.515479889563512e-12 1.3347331961589534e-13
5.487708281020852 1.153828812253101e-20 1.6807450055447514e-12 1.5445397785273098e-12 1.3620522701744144e-13
5.529022354014368 1.1702229090137338e-20 1.717458986419798e-12 1.5784059064839394e-12 1.3905307993585892e-13
5.570647458961463 1.1868868077635725e-20 1.7550294583379637e-12 1.6131122821392025e-12 1.4191717619876146e-13
5.612585937458331 1.2038464134964558e-20 1.7935088337231721e-12 1.648712426373552e-12 1.4479640734962057e-13
5.654840148729818 1.2216478676210454e-20 1.8337317605143238e-12 1.6860275920215943e-12 1.4770416849272997e-13
5.67608639626678 1.2329766391227e-20 1.8576901507951722e-12 1.708463991539846e-12 1.492261592553261e-13
5.686739436050992 1.2387229187146666e-20 1.8698507182671175e-12 1.7198618651739667e-12 1.4998885309315066e-13
5.6974124697621304 1.2445257255286852e-20 1.8821358765668913e-12 1.7313832205967585e-12 1.5075265597013268e-13
5.718818669136295 1.2563069467567887e-20 1.9070914562885075e-12 1.7548079377113754e-12 1.52283518577132e-13
5.740305295436557 1.2689792196537871e-20 1.933565703126455e-12 1.7797354000229894e-12 1.5383030310346565e-13
5.7835210386641895 1.3004924016647051e-20 1.996501183177019e-12 1.8394738746250754e-12 1.5702730855194333e-13
5.827062130521658 1.3353021829120056e-20 2.0653736916870193e-12 1.905101161363878e-12 1.6027253032314107e-13
5.8489554468988025 1.3591153906041917e-20 2.110105049363132e-12 1.9480776831127207e-12 1.6202736625041106e-13
5.870931020387893 1.3841123977232037e-20 2.1569882011422535e-12 1.9931987029809466e-12 1.6378949816130717e-13
5.892989160043636 1.4103875017132353e-20 2.206193120666021e-12 2.040634327861948e-12 1.6555879280407286e-13
5.915130176081913 1.439813145286347e-20 2.26068407008265e-12 2.0932904813345634e-12 1.6739358874808615e-13
5.95966208400165 1.520880918439963e-20 2.4059482393704517e-12 2.23435846901118e-12 1.7158977035927132e-13
6.004529249263818 1.6349043408630966e-20 2.605797989615993e-12 2.4294776397358366e-12 1.7632034988015605e-13
6.027089341400364 1.7133047330224413e-20 2.741016670541492e-12 2.5619552889150356e-12 1.7906138162645592e-13
6.049734195844842 1.8045856446884504e-20 2.8978988666146385e-12 2.7159323466109137e-12 1.819665200037252e-13
6.095279466722835 2.0659478958040443e-20 3.342584692190289e-12 3.153450787935246e-12 1.891339042550419e-13
6.141167624020661 2.4617714498255677e-20 4.012990350175609e-12 3.814521240281673e-12 1.984691098939358e-13
6.164241091010745 2.713636074313326e-20 4.440180786521377e-12 4.235836742520028e-12 2.0434404400134888e-13
6.187401249150058 2.995925079135868e-20 4.9204934975019806e-12 4.710119380576812e-12 2.1037411692516848e-13
6.1990139391386085 3.133110314567888e-20 5.155463688173897e-12 4.942021785468499e-12 2.1344190270539768e-13
6.204828454712694 3.204981478608478e-20 5.278672717510173e-12 5.063681583444864e-12 2.1499113406530962e-13
6.210648424152782 3.257135460131932e-20 5.369603265220997e-12 5.153295769988574e-12 2.1630749523242197e-13
6.233982942956859 3.4320600210950694e-20 5.679236012124615e-12 5.4583542417573396e-12 2.2088177036727547e-13
6.239830258556775 3.453180330871431e-20 5.719544816775461e-12 5.498039716434894e-12 2.2150510034056762e-13
6.245683058788269 3.4532815159288833e-20 5.725077353896651e-12 5.5029480281362595e-12 2.2212932576039209e-13
6.257405133728602 3.444459466998079e-20 5.7211691179454364e-12 5.497953867122415e-12 2.232152508230221e-13
6.269149208991335 3.4050588941793246e-20 5.666340485547211e-12 5.44275847296228e-12 2.2358201258493055e-13
6.280915325867298 3.31234009142432e-20 5.522392783723486e-12 5.2993329291264194e-12 2.2305985459706764e-13
6.304513850009849 3.086230743148709e-20 5.164751486471947e-12 4.94353973089719e-12 2.2121175557475544e-13
6.32820103803542 2.8106145643203995e-20 4.721184722305256e-12 4.502676226054885e-12 2.1850849625037098e-13
6.3519772230701035 2.5593859112870395e-20 4.315331268183578e-12 4.099253480238655e-12 2.160777879449227e-13
6.375842739491607 2.3472214938243802e-20 3.972474362856778e-12 3.758547516993729e-12 2.1392684586304794e-13
6.399797922933955 2.179753199689827e-20 3.702908818697755e-12 3.4901195810468925e-12 2.127892376508614e-13
6.42384311029221 2.0398525346041266e-20 3.4782687196098265e-12 3.2664150042358276e-12 2.1185371537399887e-13
6.447978639727206 1.938959095277809e-20 3.318651667494444e-12 3.1069438929411782e-12 2.1170777455326675e-13
6.472204850670314 1.8546313055372858e-20 3.186245784578075e-12 2.974527532519728e-12 2.1171825205834662e-13
