Dust emission spectrum from A.P. Jones, M. Kohler, N. Ysard, M. Bocchio, and L. Verstraete (2017), A&A, 602A, 46J 
inside the DustPedia framework.

lambda    nu*dP/dnu     j_nu    j_nu(carb.) j_nu(sil)
 (um)   (erg s-1 H-1) (Jy cm2 sr-1 H-1)
0.9927057738263894 1.2427446293850096e-22 3.274702684915281e-15 3.274702558751863e-15 1.261634169749116e-22
1.0001793341362166 1.263638782988063e-22 3.3548279801114358e-15 3.3548278282318256e-15 1.51879609623634e-22
1.0077091589558085 1.284584873294988e-22 3.4361130390076934e-15 3.4361128564110576e-15 1.8259663556326014e-22
1.0114953028030835 1.2950759473823913e-22 3.4771909526294933e-15 3.4771907525169825e-15 2.0011251110122732e-22
1.0152956718711033 1.305578282142001e-22 3.5185593826183996e-15 3.518559163382284e-15 2.1923611474182597e-22
1.0229392996569957 1.326604286094701e-22 3.6021408706665966e-15 3.602140607783703e-15 2.628828938445776e-22
1.0267826658714554 1.3371036919802424e-22 3.644291006960228e-15 3.644290719228717e-15 2.8773151138831113e-22
1.0306404723013447 1.3476116248949673e-22 3.686730353068531e-15 3.686730038243803e-15 3.1482472765054464e-22
1.03451277320114 1.3581275548481983e-22 3.729459119486194e-15 3.7294587751310675e-15 3.4435512677822645e-22
1.0383996230291617 1.3686509602146588e-22 3.772477526658128e-15 3.772477150127251e-15 3.7653087707230664e-22
1.0403485208654093 1.3739153055170832e-22 3.794095417368345e-15 3.794095023687984e-15 3.936803612996373e-22
1.0423010764483396 1.3791813279770097e-22 3.81578580592178e-15 3.81578539434487e-15 4.1157691011322817e-22
1.0462171883269815 1.389718153966801e-22 3.859384200463739e-15 3.859383750727557e-15 4.497361823594963e-22
1.0471985131304309 1.3923533113419754e-22 3.870329159316533e-15 3.870328699523793e-15 4.597927400177993e-22
1.048180758391296 1.3949888337228914e-22 3.881292270438517e-15 3.8812918003740495e-15 4.70064465927248e-22
1.0501480137395462 1.40026094310377e-22 3.9032729662905325e-15 3.903272475019509e-15 4.912710244672038e-22
1.0521189612883777 1.4055344216834131e-22 3.925326322185314e-15 3.925325808793401e-15 5.13391913186277e-22
1.0531058218030118 1.4081680159029466e-22 3.936370083939831e-15 3.9363695591321944e-15 5.248076362934161e-22
1.0540936079674168 1.4107900051172206e-22 3.947398638865538e-15 3.947398102396874e-15 5.364686649484005e-22
1.058054026499678 1.42128052417009e-22 3.991692538796287e-15 3.99169195315496e-15 5.856413279789335e-22
1.0590464539527713 1.4239037583569143e-22 4.002810955670384e-15 4.002810357077996e-15 5.985923888221224e-22
1.06003981227728 1.426527220001098e-22 4.013947358265463e-15 4.013946746448207e-15 6.118172560798046e-22
1.0620293250338977 1.4317747973562126e-22 4.036274139089337e-15 4.036273499978816e-15 6.391105210528975e-22
1.0660195594769086 1.44227237245742e-22 4.0811437364962514e-15 4.081143039264352e-15 6.972318986476116e-22
1.070024785945596 1.452772807650581e-22 4.126301645996006e-15 4.126300885607206e-15 7.603888004516297e-22
1.0740450607676866 1.4632756717338246e-22 4.171748201851869e-15 4.171747372857608e-15 8.28994259229054e-22
1.07808044048254 1.4737805443506369e-22 4.2174837586818286e-15 4.217482855188686e-15 9.034931426697772e-22
1.0861967418109137 1.4947779632325414e-22 4.309775177034433e-15 4.309774104910622e-15 1.0721238111598987e-21
1.0902777775684922 1.5052316896652437e-22 4.3562214207124686e-15 4.356220253386317e-15 1.1673261528422853e-21
1.0943741465085532 1.515685190130579e-22 4.402955183199317e-15 4.402953912631518e-15 1.2705677987288393e-21
1.1026131145906286 1.5365900881568018e-22 4.4972871107267246e-15 4.497285606943911e-15 1.503782813186979e-21
1.1109141095355224 1.5574899311300908e-22 4.592774932425248e-15 4.592773154928737e-15 1.777496511364532e-21
1.1192775983109025 1.5783650515691746e-22 4.689372161068427e-15 4.6893700627523324e-15 2.0983160937236677e-21
1.1277040513999907 1.5991343336506005e-22 4.7868467239061314e-15 4.786844250053292e-15 2.473852839868535e-21
1.1361939428280308 1.619889080071163e-22 4.8854793337911085e-15 4.885476420928783e-15 2.9128623238750976e-21
1.1447477501889525 1.6406274426785777e-22 4.985275956815564e-15 4.985272531412354e-15 3.42540321037738e-21
1.1533659546722406 1.6613562083446886e-22 5.086268932490802e-15 5.086264909469525e-15 4.0230212774945135e-21
1.1707974979042381 1.7028485311635538e-22 5.2920901991565084e-15 5.2920846707985644e-15 5.528357943074037e-21
1.1884924949847024 1.7442835170064442e-22 5.5027901791026135e-15 5.502782620062756e-15 7.559039857402341e-21
1.2064549276569216 1.7859516713915116e-22 5.7193969200624285e-15 5.719386635289373e-15 1.0284773055387357e-20
1.2246888378427687 1.8275376331421163e-22 5.941026936431714e-15 5.941013011404765e-15 1.392502695089802e-20
1.2431983285522175 1.8689926851312629e-22 6.167617787060001e-15 6.167599024427799e-15 1.8762632205043563e-20
1.2619875648066055 1.9103596750832247e-22 6.399405803344417e-15 6.399380643130267e-15 2.516021415135005e-20
1.3004222497298317 1.992480259374904e-22 6.877773220926443e-15 6.877728612811843e-15 4.4608114600944756e-20
1.3400274889804893 2.0740352221427342e-22 7.377330975164677e-15 7.377253332755723e-15 7.764240895363848e-20
1.3808389325824078 2.1552252631221733e-22 7.89960044483189e-15 7.899467713800411e-15 1.3273103148016742e-19
1.4228933163050095 2.2367178524357076e-22 8.447981935528063e-15 8.447758964442671e-15 2.2297108539070806e-19
1.466228494730424 2.320083936593501e-22 9.029730436982542e-15 9.029362186005781e-15 3.6825097676178653e-19
1.5108834753276823 2.405009672323082e-22 9.645333125774397e-15 9.644734921471386e-15 5.982043030070201e-19
1.5568984535646726 2.491334779438164e-22 1.0295840623435166e-14 1.0294883823130969e-14 9.568003041953085e-19
1.6043148490894465 2.5796601258907187e-22 1.0985542967171927e-14 1.0984033354444746e-14 1.5096127271835755e-18
1.6531753430134553 2.6706565104914873e-22 1.1719427226954246e-14 1.1717080445656805e-14 2.3467812974422716e-18
1.7035239163302658 2.7651829428138104e-22 1.2503786150964575e-14 1.2500190771746613e-14 3.595379217961792e-18
1.755405889504358 2.8656226087257066e-22 1.3352604302611844e-14 1.3347173069382348e-14 5.431233229496502e-18
1.8088679632656115 2.97215447773718e-22 1.4270778922070423e-14 1.426268634312448e-14 8.092578945943615e-18
1.8639582606462262 3.0850123037870037e-22 1.5263794715639613e-14 1.5251896497784144e-14 1.1898217855472232e-17
1.9207263702978936 3.204978085878481e-22 1.6340298897657843e-14 1.6323030738414257e-14 1.7268159243589427e-17
1.979223391128241 3.333130666802656e-22 1.7511227383862038e-14 1.7486479053780544e-14 2.474833008149335e-17
2.039501978296691 3.4705802213625128e-22 1.878865324710455e-14 1.8753615580314044e-14 3.5037666790508436e-17
2.1016163906111602 3.6196646325547665e-22 2.0192552201044387e-14 2.014353009536918e-14 4.9022105675204984e-17
2.1656225393682647 3.78193532855688e-22 2.1740338107374047e-14 2.167253269032691e-14 6.780541704713673e-17
2.231578038680979 3.9577976896741564e-22 2.3444182987720793e-14 2.3351438887301813e-14 9.274410041897579e-17
2.299542257339062 4.148313372165325e-22 2.5321089264952067e-14 2.5195605047789968e-14 1.2548421716210533e-16
2.369576372248914 4.355130043414057e-22 2.7393105572303665e-14 2.722510461643072e-14 1.6800095587294203e-16
2.4417434235010123 4.580104222397955e-22 2.968553090730853e-14 2.946290106246814e-14 2.2262984484039225e-16
2.5161083711144245 4.826123188189372e-22 3.223273657553694e-14 3.194062921474468e-14 2.92107360792255e-16
2.5927381535095444 5.097452513992273e-22 3.508175250694835e-14 3.4702154785819585e-14 3.7959772112876525e-16
2.6717017477616296 5.398331167444831e-22 3.828396680513474e-14 3.7795273442918223e-14 4.886933622165194e-16
2.753070231689431 5.734619238832919e-22 4.190745727740995e-14 4.128403109248782e-14 6.234261849221214e-16
2.836916847834745 6.119711486763026e-22 4.6083662504232205e-14 4.529536988780742e-14 7.882926164247758e-16
2.9233170693905177 6.581912228849552e-22 5.107371422018207e-14 5.008566427019185e-14 9.880499499902274e-16
2.967498994190263 6.868046745361291e-22 5.4099500572787144e-14 5.2998928218084275e-14 1.1005723547028482e-15
3.0123486681368425 7.178510691716757e-22 5.739962075972791e-14 5.617533269530177e-14 1.2242880644261427e-15
3.0578761833420214 7.672360574311602e-22 6.227565935593479e-14 6.091515078423058e-14 1.3605085717042052e-15
3.1040917844459814 8.254908311021447e-22 6.801680712692837e-14 6.650788134094984e-14 1.5089257859785287e-15
3.127460860933648 8.77648960147058e-22 7.285882432122294e-14 7.127036137746847e-14 1.5884629437544435e-15
3.1510058709225794 9.437074945315284e-22 7.893253474555448e-14 7.726111371598855e-14 1.6714210295659292e-15
3.162844764501044 1.0019996490451165e-21 8.412302463512344e-14 8.240865269456763e-14 1.7143719405557864e-15
3.1747281389236908 1.068262493672117e-21 9.002309814821455e-14 8.826488804287885e-14 1.7582101053357037e-15
3.1986289994194426 1.2477700058300457e-21 1.0594192138612598e-13 1.0409309958379841e-13 1.848821802327558e-15
3.2227097969389145 1.6590908438519654e-21 1.4192561961266098e-13 1.399807284090843e-13 1.9448912035766864e-15
3.2348180950136065 2.044138876941716e-21 1.7552124667352685e-13 1.7352507366377992e-13 1.996173009746952e-15
3.240889293275058 2.331203364784908e-21 2.0054590128290464e-13 1.9852267821679597e-13 2.023223066108674e-15
3.2469718861334385 2.6634978650254408e-21 2.295621662893247e-13 2.2751095404261644e-13 2.0512122467083e-15
3.2714166318528037 4.415943872352348e-21 3.834677410637389e-13 3.813008187093175e-13 2.1669223544213103e-15
3.2744851364798273 4.525987293869698e-21 3.93392238216498e-13 3.9121166667300215e-13 2.180571543495744e-15
3.2775565192852394 4.639037896298548e-21 4.0359664080409894e-13 4.014023506453687e-13 2.1942901587302688e-15
3.283707930232385 4.533182089452529e-21 3.9512737479335404e-13 3.9290852476683856e-13 2.2188500265155463e-15
3.2898708863219004 4.192820702306829e-21 3.661462395562372e-13 3.639050141994674e-13 2.241225356769702e-15
3.29141343181113 4.1124570333080505e-21 3.5929671262171577e-13 3.5704986806647674e-13 2.2468445552389286e-15
3.292184975758714 4.072954561326642e-21 3.5592887895144627e-13 3.5367922098683155e-13 2.2496579646146674e-15
3.295272960557952 3.8250681184811875e-21 3.345800189875725e-13 3.323194127760026e-13 2.2606062115699036e-15
3.3076538914384823 2.9623310595305754e-21 2.6008965848137656e-13 2.5778506642307564e-13 2.3045920583009576e-15
3.310756385682612 2.785655227940491e-21 2.4480710748937413e-13 2.4249142588439075e-13 2.315681604983363e-15
3.313861789986515 2.622222815793012e-21 2.3066059946803597e-13 2.2833379100038456e-13 2.3268084676513693e-15
3.3200813396944477 2.394156292072805e-21 2.109942668690924e-13 2.0864353701662615e-13 2.3507298524662457e-15
3.345076488085796 1.9968063990933263e-21 1.7730110634020317e-13 1.7484380312184631e-13 2.457303218356866e-15
3.3482140837626964 2.0137039837375354e-21 1.7896919355716378e-13 1.7649745455423158e-13 2.471739002932243e-15
3.3513546224236106 2.0307621038448205e-21 1.8065453510296472e-13 1.781682939178513e-13 2.486241185113402e-15
3.3576445397418455 2.1475199275380715e-21 1.9139974408819946e-13 1.8888318667851526e-13 2.5165574096841733e-15
3.3702598118196083 2.5702313806765882e-21 2.299349752286647e-13 2.2735482575288266e-13 2.5801494757819994e-15
3.382922481734668 2.6725644231464654e-21 2.3998807496715766e-13 2.3734606061881907e-13 2.6420143483385806e-15
3.389271646505754 2.7253772913210213e-21 2.4518982543841233e-13 2.4251644335095763e-13 2.6733820874547333e-15
3.395632727569191 2.7829551478438263e-21 2.508397450829132e-13 2.4813403632858617e-13 2.7057087543270647e-15
3.421196662673239 3.0600628083472464e-21 2.778931318610353e-13 2.75053545570615e-13 2.8395862904203145e-15
3.4276182099114902 3.0116190768078748e-21 2.7400716162520893e-13 2.7113763874585936e-13 2.869522879349523e-15
3.4340518103208963 2.7874661547103152e-21 2.5408900884113616e-13 2.5119114223022275e-13 2.897866610913409e-15
3.4469541582030403 2.467585782149424e-21 2.257757013059101e-13 2.228233736664911e-13 2.9523276394189787e-15
3.472904465399547 2.3852783966708628e-21 2.1988790652122362e-13 2.1681021086261701e-13 3.0776956586066234e-15
3.4990501388274233 2.2562865543017204e-21 2.095626366914333e-13 2.063565169725139e-13 3.206119718919357e-15
3.5253949054701885 1.7778045664614324e-21 1.6636471602014498e-13 1.6303361984573258e-13 3.3310961744124642e-15
3.5519380250092896 1.3242779876516221e-21 1.248573096441282e-13 1.21400428666101e-13 3.4568809780271998e-15
3.578680990867387 1.1513276006458265e-21 1.0936826826679787e-13 1.0577349762673536e-13 3.594770640062526e-15
3.605625307711299 1.0887198761003785e-21 1.0419963029267037e-13 1.004595324548377e-13 3.740097837832669e-15
3.660119384959845 1.0585340704662192e-21 1.0284176591345672e-13 9.879588851691289e-14 4.045877396543854e-15
3.715437065384467 1.0436122195560262e-21 1.0292443649666871e-13 9.855554315664261e-14 4.368893340026092e-15
3.8285932144167436 1.0728134322234446e-21 1.0902669841466367e-13 1.0396125204435697e-13 5.0654463703067006e-15
3.94519561050918 1.1188427329861427e-21 1.171674612129387e-13 1.113389757257994e-13 5.828485487139291e-15
4.06534921144712 1.1722476482546034e-21 1.2649887418566303e-13 1.1984092284077794e-13 6.657951344885081e-15
4.189162171576248 1.230143808166673e-21 1.3678941467218859e-13 1.2923323458401322e-13 7.556180088175413e-15
4.316745939156006 1.2912359275925792e-21 1.4795563955840868e-13 1.3943489656850203e-13 8.520742989906648e-15
4.448215356677963 1.3548164499812104e-21 1.5996895187193085e-13 1.5042962889134655e-13 9.539322980584276e-15
4.58368876423945 1.4206610790910474e-21 1.7285224982785273e-13 1.622383145666125e-13 1.0613935261240225e-14
4.723288106065518 1.488846749275834e-21 1.8666541797471965e-13 1.7491341428584958e-13 1.1752003688870103e-14
4.867139040275056 1.559458012887445e-21 2.0147300880698743e-13 1.8854786526317179e-13 1.2925143543815637e-14
4.940699165968905 1.5964576219653058e-21 2.093703787430712e-13 1.95841822493932e-13 1.3528556249139217e-14
5.015371051989984 1.6334289387649983e-21 2.1745667715682807e-13 2.0331517523208672e-13 1.4141501924741417e-14
5.091171501069577 1.6729694153791732e-21 2.2608677627965265e-13 2.113098919915319e-13 1.4776884288120724e-14
5.129500256944802 1.692704061046606e-21 2.3047590294193757e-13 2.153782678902266e-13 1.509763505171096e-14
5.168117569889187 1.7126493864675404e-21 2.349472041134545e-13 2.195238383414091e-13 1.542336577204541e-14
5.20702561229733 1.7346465697967228e-21 2.3975636667559577e-13 2.2397830013032045e-13 1.5778066545275366e-14
5.246226572918644 1.756694318818745e-21 2.446316658512623e-13 2.2849588869259687e-13 1.6135777158665412e-14
5.265937586045735 1.7677370264131897e-21 2.4709434088527527e-13 2.3077861785495565e-13 1.631572303031962e-14
5.285722656980489 1.778792258575826e-21 2.4957382528682145e-13 2.3307745005644906e-13 1.6496375230372365e-14
5.305582063971359 1.7898600168385165e-21 2.520702174215019e-13 2.35392499430699e-13 1.6677717990802906e-14
5.3255160863122235 1.8013167935860047e-21 2.5463683749356906e-13 2.377757291528836e-13 1.6861108340685365e-14
5.365609099470188 1.827205156671406e-21 2.6024103356975623e-13 2.4300050481477627e-13 1.7240528754979895e-14
5.406003951863644 1.8533409779622124e-21 2.6595068920651807e-13 2.4832759806588764e-13 1.76230911406304e-14
5.446702915881641 1.879737044266473e-21 2.717691906981595e-13 2.5376051961555234e-13 1.8008671082607154e-14
5.487708281020852 1.907130475866269e-21 2.7780551050507895e-13 2.594067886593217e-13 1.8398721845757207e-14
5.529022354014368 1.9412915203591213e-21 2.849105534697916e-13 2.6610511155038905e-13 1.8805441919402578e-14
5.570647458961463 1.976317370048853e-21 2.922347085478493e-13 2.7301921300789367e-13 1.921549553995564e-14
5.612585937458331 2.0122747319028814e-21 2.9979177302723017e-13 2.8016301595399076e-13 1.9628757073239402e-14
5.654840148729818 2.050340374535575e-21 3.0776252014193316e-13 2.8771545996643955e-13 2.00470601754936e-14
5.67608639626678 2.0746901788043678e-21 3.125875534721143e-13 2.9232168000895365e-13 2.0265873463160656e-14
5.686739436050992 2.0870821798287182e-21 3.150447976763525e-13 2.9466916940828306e-13 2.037562826806941e-14
5.6974124697621304 2.0996236426426e-21 3.1753276802911795e-13 2.970471554391554e-13 2.048561258996265e-14
5.718818669136295 2.1251696998020934e-21 3.226037226108241e-13 3.0189746066768963e-13 2.0706261943134414e-14
5.740305295436557 2.1527446577867765e-21 3.280174468909623e-13 3.070880368814703e-13 2.092941000949201e-14
5.7835210386641895 2.221587579490864e-21 3.410556051928721e-13 3.196647308429477e-13 2.139087434992447e-14
5.827062130521658 2.2982264237784896e-21 3.5547731846438796e-13 3.336170294148909e-13 2.1860289049497042e-14
5.8489554468988025 2.3506644470560772e-21 3.6495421605713713e-13 3.4284059147555187e-13 2.2113624581585387e-14
5.870931020387893 2.4059552381792117e-21 3.74941881148209e-13 3.5257354782137485e-13 2.236833332683416e-14
5.892989160043636 2.4643237011149248e-21 3.85480868902325e-13 3.6285646710773115e-13 2.262440179459394e-14
5.915130176081913 2.5298314502965062e-21 3.972147134788095e-13 3.743249096611186e-13 2.2889803817690898e-14
5.95966208400165 2.710293705200392e-21 4.287532501158874e-13 4.0525937953693135e-13 2.349387057895603e-14
6.004529249263818 2.9649463925428963e-21 4.725690155626318e-13 4.4839571657726365e-13 2.417329898536809e-14
6.027089341400364 3.1402072308745002e-21 5.023835049820761e-13 4.778179740226374e-13 2.456553095943871e-14
6.049734195844842 3.344855554029168e-21 5.3713455759448e-13 5.12153601953015e-13 2.4980955641465003e-14
6.095279466722835 3.931473589519347e-21 6.360897806168212e-13 6.100888578486622e-13 2.6000922768159012e-14
6.141167624020661 4.822813221838016e-21 7.86177893212087e-13 7.588545917388145e-13 2.7323301473272758e-14
6.164241091010745 5.39064585056401e-21 8.820431877060837e-13 8.538906002639803e-13 2.8152587442103703e-14
6.187401249150058 6.029660869123689e-21 9.90308713167915e-13 9.613042519282715e-13 2.9004461239643145e-14
6.1990139391386085 6.34081771374166e-21 1.0433675228263859e-12 1.013929536472356e-12 2.943798635402986e-14
6.204828454712694 6.504050768485971e-21 1.0712310062963106e-12 1.041574016701635e-12 2.9656989594675867e-14
6.210648424152782 6.622928111740772e-21 1.0918335098254309e-12 1.061989770142356e-12 2.9843739683074914e-14
6.233982942956859 7.023641232138847e-21 1.1622441325801422e-12 1.1317486077981415e-12 3.0495524782000536e-14
6.239830258556775 7.07320836648965e-21 1.171544152758437e-12 1.1409576668295945e-12 3.0586485928842525e-14
6.245683058788269 7.075286492611546e-21 1.1729875564542714e-12 1.1423099517609924e-12 3.067760469327876e-14
6.257405133728602 7.059128563253965e-21 1.172505257287664e-12 1.1416678590096206e-12 3.0837398278043195e-14
6.269149208991335 6.974022929970128e-21 1.1605434649831102e-12 1.1296458765603052e-12 3.0897588422804654e-14
6.280915325867298 6.768425631678726e-21 1.1284440556790482e-12 1.0976094818438164e-12 3.0834573835231396e-14
6.304513850009849 6.264715725769565e-21 1.0483888778835065e-12 1.0177918619573858e-12 3.059701592612026e-14
6.32820103803542 5.6470598222628776e-21 9.485759056848075e-13 9.183351149933424e-13 3.0240790691465e-14
6.3519772230701035 5.082999955261732e-21 8.570348280180342e-13 8.271125517457607e-13 2.9922276272273594e-14
6.375842739491607 4.607085482236849e-21 7.797103517425813e-13 7.500679647944554e-13 2.964238694812583e-14
6.399797922933955 4.2302174435724145e-21 7.186184875903528e-13 6.891150595928283e-13 2.950342799752484e-14
6.42384311029221 3.91582798645604e-21 6.677101293160914e-13 6.383176094934716e-13 2.9392519822619793e-14
6.447978639727206 3.688918843323695e-21 6.313818945671891e-13 6.019902528572336e-13 2.9391641709955386e-14
6.472204850670314 3.499572779462021e-21 6.012245659335914e-13 5.718119235586294e-13 2.941264237496205e-14
