Dust emission spectrum from A.P. Jones, M. Kohler, N. Ysard, M. Bocchio, and L. Verstraete (2017), A&A, 602A, 46J 
inside the DustPedia framework.

lambda    nu*dP/dnu     j_nu    j_nu(carb.) j_nu(sil)
 (um)   (erg s-1 H-1) (Jy cm2 sr-1 H-1)
0.9927057738263894 3.448219451659442e-24 9.08625411007749e-17 9.086254110024481e-17 5.300784299421191e-28
1.0001793341362166 3.5049031758945675e-24 9.305149066625001e-17 9.305149066561121e-17 6.387930033505814e-28
1.0077091589558085 3.561499632399879e-24 9.52659149248763e-17 9.52659149241075e-17 7.688347681831747e-28
1.0114953028030835 3.589758189110089e-24 9.638256908817139e-17 9.638256908732838e-17 8.430696660988387e-28
1.0152956718711033 3.617986616698021e-24 9.750545739382969e-17 9.750545739290546e-17 9.241792772793784e-28
1.0229392996569957 3.674314276544144e-24 9.976899491389554e-17 9.976899491278603e-17 1.1095152390783651e-27
1.0267826658714554 3.702344930686461e-24 1.0090782350307672e-16 1.0090782350186158e-16 1.2151490032774004e-27
1.0306404723013447 3.730333107286669e-24 1.0205263919982947e-16 1.0205263919849904e-16 1.330416075234293e-27
1.03451277320114 3.758276117885921e-24 1.0320339272523974e-16 1.0320339272378362e-16 1.4561529275452999e-27
1.0383996230291617 3.786171289548993e-24 1.0436003420230399e-16 1.0436003420071074e-16 1.5932647247981565e-27
1.0403485208654093 3.800100104857894e-24 1.0494054717554806e-16 1.0494054717388172e-16 1.6663891694104644e-27
1.0423010764483396 3.81401596537515e-24 1.0552251316789979e-16 1.0552251316615707e-16 1.742730615824172e-27
1.0462171883269815 3.841807504997587e-24 1.0669077858476983e-16 1.0669077858286426e-16 1.9056094045671928e-27
1.0471985131304309 3.848746779567263e-24 1.0698374303737478e-16 1.0698374303542628e-16 1.948557017287669e-27
1.048180758391296 3.855682528259117e-24 1.0727706510925152e-16 1.0727706510725909e-16 1.9924327786627017e-27
1.0501480137395462 3.8695432850714185e-24 1.0786477885351555e-16 1.0786477885143254e-16 2.0830456243730454e-27
1.0521189612883777 3.8833894502542296e-24 1.0845391328177088e-16 1.0845391327959331e-16 2.1776054705600333e-27
1.0531058218030118 3.8902962679795955e-24 1.0874871232690384e-16 1.0874871232467745e-16 2.22641953641579e-27
1.0540936079674168 3.8971642875129996e-24 1.0904288340691775e-16 1.0904288340464151e-16 2.2762927640954303e-27
1.058054026499678 3.924596427227154e-24 1.1022301375371844e-16 1.1022301375123176e-16 2.4867143803744557e-27
1.0590464539527713 3.931444278123331e-24 1.1051890365286288e-16 1.1051890365032074e-16 2.542164722634399e-27
1.06003981227728 3.938287975898415e-24 1.1081513479240802e-16 1.1081513478980923e-16 2.5987996796469618e-27
1.0620293250338977 3.951962753676066e-24 1.1140861740799643e-16 1.1140861740528068e-16 2.7157203402474454e-27
1.0660195594769086 3.979260733579976e-24 1.125996401849183e-16 1.1259964018195344e-16 2.9648694438755357e-27
1.070024785945596 4.006487853437989e-24 1.1379602741215698e-16 1.1379602740892115e-16 3.235843801828365e-27
1.0740450607676866 4.033641619939577e-24 1.1499772394192274e-16 1.1499772393839232e-16 3.530457956648857e-27
1.07808044048254 4.060719560364583e-24 1.1620467416297146e-16 1.1620467415912076e-16 3.85066862839185e-27
1.0861967418109137 4.114590065458225e-24 1.1863272381562159e-16 1.1863272381104508e-16 4.5764810958066115e-27
1.0902777775684922 4.141268391148575e-24 1.198505332986509e-16 1.1985053329366407e-16 4.986806145263212e-27
1.0943741465085532 4.1678593117927945e-24 1.2107328011909028e-16 1.210732801136581e-16 5.4321957265560424e-27
1.1026131145906286 4.22076956038908e-24 1.2353335276329396e-16 1.2353335275685424e-16 6.439738634214077e-27
1.1109141095355224 4.273302289412354e-24 1.2601247199876234e-16 1.2601247199113785e-16 7.624504003433843e-27
1.1192775983109025 4.3253903069099684e-24 1.2850870507309805e-16 1.285087050640822e-16 9.015858916985863e-27
1.1277040513999907 4.376790573333304e-24 1.3101479454421752e-16 1.3101479453356983e-16 1.0647720065876156e-26
1.1361939428280308 4.427753119711757e-24 1.335381331203899e-16 1.3353813310783063e-16 1.2559199736462692e-26
1.1447477501889525 4.47826112716737e-24 1.360782280293913e-16 1.36078228014596e-16 1.4795348751561045e-26
1.1533659546722406 4.528325901330519e-24 1.3863543069477741e-16 1.3863543067736942e-16 1.740801346303581e-26
1.1707974979042381 4.6272897827177536e-24 1.438063013804583e-16 1.4380630135644816e-16 2.4010113044489014e-26
1.1884924949847024 4.724269514883785e-24 1.4903921086494052e-16 1.4903921083198642e-16 3.295408217718143e-26
1.2064549276569216 4.820030566733822e-24 1.5435842088887565e-16 1.5435842084386418e-16 4.5011473736779613e-26
1.2246888378427687 4.9135226471672404e-24 1.5973061167226753e-16 1.5973061161108187e-16 6.118566441232437e-26
1.2431983285522175 5.004528419896531e-24 1.651478828352576e-16 1.6514788275248045e-16 8.277714113440105e-26
1.2619875648066055 5.093015910557603e-24 1.7060805878415485e-16 1.70608058672692e-16 1.1146285917238335e-25
1.3004222497298317 5.2609673198471026e-24 1.816014988272225e-16 1.8160149862791077e-16 1.9931176501684775e-25
1.3400274889804893 5.416737119818936e-24 1.9267301785299399e-16 1.9267301750300436e-16 3.4998968299624383e-25
1.3808389325824078 5.5597667127913476e-24 2.0378350397537252e-16 2.037835033715689e-16 6.03803628585973e-25
1.4228933163050095 5.6907798498963885e-24 2.1493817523135131e-16 2.1493817420743015e-16 1.0239211070689437e-24
1.466228494730424 5.8129699231837065e-24 2.26239881310952e-16 2.2623987960336116e-16 1.7075907201275456e-24
1.5108834753276823 5.923973491327905e-24 2.375819873394613e-16 2.3758198453764734e-16 2.801813969572304e-24
1.5568984535646726 6.0218861015084755e-24 2.488641031519363e-16 2.4886409862419766e-16 4.5277386250361335e-24
1.6043148490894465 6.1069149162147934e-24 2.600643997076024e-16 2.600643924882856e-16 7.2193166874678e-24
1.6531753430134553 6.179347942042323e-24 2.711633571457197e-16 2.711633458008262e-16 1.1344893506029033e-23
1.7035239163302658 6.240074215894286e-24 2.821677812112259e-16 2.8216776363588665e-16 1.7575339120538221e-23
1.755405889504358 6.2940882925646866e-24 2.9327822219301343e-16 2.932781953378771e-16 2.685513635231629e-23
1.8088679632656115 6.340198221505241e-24 3.0442417384069175e-16 3.04424133352334e-16 4.048835778344376e-23
1.8639582606462262 6.377610088277956e-24 3.15546654528312e-16 3.1554659427382025e-16 6.025449174914093e-23
1.9207263702978936 6.4069623025009676e-24 3.2665333816220483e-16 3.266532496149601e-16 8.854724476768881e-23
1.979223391128241 6.429694532872477e-24 3.377960669088007e-16 3.3779593836216776e-16 1.2854663277638185e-22
2.039501978296691 6.4475224614144994e-24 3.490490238052376e-16 3.4904883938497474e-16 1.844202628374011e-22
2.1016163906111602 6.465183037423497e-24 3.6066475550896335e-16 3.606644939281842e-16 2.615807791426675e-22
2.1656225393682647 6.485442982643604e-24 3.7281368127616786e-16 3.728133143233381e-16 3.669528298304862e-22
2.231578038680979 6.508540306561991e-24 3.8553615392745895e-16 3.855356446365537e-16 5.092909052947828e-22
2.299542257339062 6.536150424326955e-24 3.989632255220598e-16 3.9896252597760314e-16 6.995444565547356e-22
2.369576372248914 6.571923092308422e-24 4.13363966830116e-16 4.1336301554778933e-16 9.512823267188624e-22
2.4417434235010123 6.620161759237103e-24 4.290797915780258e-16 4.2907851045672466e-16 1.2811213011355658e-21
2.5161083711144245 6.688206472546832e-24 4.466922807108919e-16 4.466905714431692e-16 1.709267722735698e-21
2.5927381535095444 6.788041159792019e-24 4.671674318125156e-16 4.671651717593928e-16 2.2600531230473708e-21
2.6717017477616296 6.933957665118458e-24 4.917434607948541e-16 4.917404984153168e-16 2.962379537468517e-21
2.753070231689431 7.147443290654843e-24 5.223209455956612e-16 5.223170952736922e-16 3.850321968973491e-21
2.836916847834745 7.47712702629264e-24 5.630549726506841e-16 5.630500087519539e-16 4.9638987304538076e-21
2.9233170693905177 8.030047368028282e-24 6.231081943809009e-16 6.231018455778899e-16 6.34880301094826e-21
2.967498994190263 8.495848419494316e-24 6.692166979602688e-16 6.692095486979356e-16 7.149262333231036e-21
3.0123486681368425 9.03911067780465e-24 7.227704285651929e-16 7.227623882275962e-16 8.040337596798108e-21
3.0578761833420214 1.0246672955775895e-23 8.317105385558916e-16 8.317015053085621e-16 9.033247329555208e-21
3.1040917844459814 1.1801205176076611e-23 9.723673069206867e-16 9.723571756419022e-16 1.0131278784211052e-20
3.127460860933648 1.3441697400283263e-23 1.1158746992672094e-15 1.1158639730392835e-15 1.0726227925527168e-20
3.1510058709225794 1.5626357544127712e-23 1.3070024525031577e-15 1.3069911008936908e-15 1.1351609466775753e-20
3.162844764501044 1.765834546711437e-23 1.4825089331729864e-15 1.4824972558867124e-15 1.1677286273626436e-20
3.1747281389236908 2.0021034489677018e-23 1.6871841551765476e-15 1.6871721441583073e-15 1.2011018241151079e-20
3.1986289994194426 2.660984298627233e-23 2.2593089115597786e-15 2.2592962066178422e-15 1.2704941936858499e-20
3.2227097969389145 4.21359957565247e-23 3.604490572593872e-15 3.604477126587645e-15 1.3446006226592936e-20
3.2348180950136065 5.685789024420348e-23 4.882137848588898e-15 4.882124005515826e-15 1.3843073071448075e-20
3.240889293275058 6.786401295577858e-23 5.838121996768421e-15 5.838107944144863e-15 1.4052623559138094e-20
3.2469718861334385 8.059656428599901e-23 6.9464752106321025e-15 6.946460941099626e-15 1.4269532475299864e-20
3.2714166318528037 1.4850750349646166e-22 1.2895960307228202e-14 1.2895945136540645e-14 1.5170687548846765e-20
3.2744851364798273 1.5275308909290463e-22 1.3277076516351333e-14 1.327706123823341e-14 1.5278117924110792e-20
3.2775565192852394 1.571205639649621e-22 1.3669500710072077e-14 1.3669485323861922e-14 1.53862101598657e-20
3.283707930232385 1.5292193003744287e-22 1.3329188982859742e-14 1.3329173400950781e-14 1.5581908963496304e-20
3.2898708863219004 1.3960436760290367e-22 1.219122348716383e-14 1.2191207724929622e-14 1.5762234201530825e-20
3.29141343181113 1.364637198640192e-22 1.1922547893426242e-14 1.1922532085845005e-14 1.5807581236475567e-20
3.292184975758714 1.3492051159256047e-22 1.1790484208852527e-14 1.1790468378557787e-14 1.5830294740330342e-20
3.295272960557952 1.251800454231937e-22 1.0949541466254369e-14 1.094952554719368e-14 1.5919060688766722e-20
3.3076538914384823 9.143474223139959e-23 8.027877506731442e-15 8.027861229875294e-15 1.6276856148451783e-20
3.310756385682612 8.456632444759878e-23 7.431801707324159e-15 7.431785340012008e-15 1.6367312148893747e-20
3.313861789986515 7.822897963634344e-23 6.8813158172581865e-15 6.881299359084588e-15 1.6458173602430736e-20
3.3200813396944477 6.9342007372352e-23 6.111032123175902e-15 6.1110154705372944e-15 1.6652638607046412e-20
3.345076488085796 5.34925238031388e-23 4.749726190547374e-15 4.749708673204327e-15 1.7517343045981113e-20
3.3482140837626964 5.408773587754744e-23 4.807081154684367e-15 4.8070635202216366e-15 1.7634462731263064e-20
3.3513546224236106 5.468952056558801e-23 4.865124228029862e-15 4.865106475775457e-15 1.7752254404143083e-20
3.3576445397418455 5.908402979646724e-23 5.2659200213837845e-15 5.2659020231861156e-15 1.799819766850668e-20
3.3702598118196083 7.528961683312287e-23 6.735469931482441e-15 6.735451416908488e-15 1.8514573953216928e-20
3.382922481734668 7.898302019600863e-23 7.0924325744096176e-15 7.092413553367104e-15 1.9021042512233265e-20
3.389271646505754 8.089639039958875e-23 7.277881085982992e-15 7.277861807252312e-15 1.927873068105944e-20
3.395632727569191 8.295832918490426e-23 7.477391851380836e-15 7.477372306984372e-15 1.9544396463569545e-20
3.421196662673239 9.285899419777528e-23 8.432793159896873e-15 8.432772510043073e-15 2.0649853801410237e-20
3.4276182099114902 9.08670411506037e-23 8.267386875948639e-15 8.26736597438e-15 2.0901568639394787e-20
3.4340518103208963 8.21325567612015e-23 7.486720477583999e-15 7.486699335519397e-15 2.1142064601826477e-20
3.4469541582030403 6.969291900430079e-23 6.376664907894647e-15 6.376643299207213e-15 2.1608687432959898e-20
3.472904465399547 6.621100433597882e-23 6.103689679337248e-15 6.103667001488828e-15 2.2677848418014507e-20
3.4990501388274233 6.088326031501856e-23 5.654803259657251e-15 5.6547794750123355e-15 2.3784644913931692e-20
3.5253949054701885 4.191028609858801e-23 3.921911877520135e-15 3.9218869982265745e-15 2.4879293561561682e-20
3.5519380250092896 2.4076186513619644e-23 2.269982513196921e-15 2.269956517302709e-15 2.59958942129893e-20
3.578680990867387 1.70080874053274e-23 1.6156522826409808e-15 1.615625058541822e-15 2.7224099159381936e-20
3.605625307711299 1.4152586059822084e-23 1.354521275390675e-15 1.3544927463923992e-15 2.8528998275940266e-20
3.660119384959845 1.2076679055588939e-23 1.173308479244135e-15 1.1732771601226286e-15 3.13191215065349e-20
3.715437065384467 1.0609914555498933e-23 1.0463843336053486e-15 1.0463500002242707e-15 3.4333381077992436e-20
3.8285932144167436 9.883577404301103e-24 1.0044372866243947e-15 1.0043962110017327e-15 4.107562266222951e-20
3.94519561050918 9.765190268671556e-24 1.022630364669591e-15 1.0225815175807739e-15 4.8847088817004063e-20
4.06534921144712 9.897949719787213e-24 1.0681015211791144e-15 1.0680437508906167e-15 5.77702884971274e-20
4.189162171576248 1.0177457043664836e-23 1.1317119044228288e-15 1.1316438956930769e-15 6.800872975182745e-20
4.316745939156006 1.056501064912228e-23 1.2105865970184675e-15 1.2105068897342286e-15 7.97072842389118e-20
4.448215356677963 1.1047890433557814e-23 1.3044715046652153e-15 1.304378572296907e-15 9.293236830825454e-20
4.58368876423945 1.1628113170858598e-23 1.4147959371997284e-15 1.4146880185974746e-15 1.0791860225338831e-19
4.723288106065518 1.2318660263653664e-23 1.5444624291398215e-15 1.5443374286310731e-15 1.2500050874741338e-19
4.867139040275056 1.3145081679413576e-23 1.6982689723472594e-15 1.6981248049502043e-15 1.4416739705443464e-19
4.940699165968905 1.3640862079519902e-23 1.7889560115321033e-15 1.7888013371563493e-15 1.546743757542499e-19
5.015371051989984 1.4154707392288273e-23 1.8844013122367226e-15 1.8842354792063535e-15 1.6583303036968067e-19
5.091171501069577 1.4777645920755125e-23 1.997065993264708e-15 1.9968881382191472e-15 1.7785504556040122e-19
5.129500256944802 1.509752947251262e-23 2.055655691650198e-15 2.055471549750334e-15 1.8414189986358674e-19
5.168117569889187 1.5430813595607888e-23 2.116852719611018e-15 2.116662068122408e-15 1.906514886104634e-19
5.20702561229733 1.583719361149811e-23 2.188957718963875e-15 2.1887600785396813e-15 1.9764042419391582e-19
5.246226572918644 1.6253935939195492e-23 2.263471443409022e-15 2.2632665899461043e-15 2.0485346291900568e-19
5.265937586045735 1.6466295700629268e-23 2.3016593657172222e-15 2.3014508195968946e-15 2.0854612032779052e-19
5.285722656980489 1.6681371078485553e-23 2.340483308837787e-15 2.340271011486965e-15 2.1229735082233289e-19
5.305582063971359 1.689920562287762e-23 2.37995507779073e-15 2.3797389697574987e-15 2.1610803323195043e-19
5.3255160863122235 1.713280730057844e-23 2.421919278130423e-15 2.4216992834548597e-15 2.199946755641417e-19
5.365609099470188 1.7711436022004324e-23 2.522564255875684e-15 2.5223361796554293e-15 2.280762202540922e-19
5.406003951863644 1.831184032993855e-23 2.627712123292925e-15 2.6274757016596938e-15 2.3642163323029116e-19
5.446702915881641 1.8935061135984516e-23 2.7375989936692377e-15 2.737353954494698e-15 2.450391745387875e-19
5.487708281020852 1.9607613998969747e-23 2.8561775325288674e-15 2.85592357485249e-15 2.539576763757055e-19
5.529022354014368 2.0537060268755855e-23 3.0140888920852424e-15 3.0138255448763633e-15 2.6334720887944864e-19
5.570647458961463 2.1520504780662547e-23 3.1822006615385136e-15 3.1819276111748123e-15 2.730503636995206e-19
5.612585937458331 2.256180317674682e-23 3.3612920093928645e-15 3.361008932017052e-15 2.8307737581310377e-19
5.654840148729818 2.37050215999243e-23 3.558198081752246e-15 3.557904615256856e-15 2.9346649539101815e-19
5.67608639626678 2.4481041472109884e-23 3.688487533413915e-15 3.6881886218793474e-15 2.9891153456772807e-19
5.686739436050992 2.488088637539823e-23 3.755766730176838e-15 3.75546506144084e-15 3.0166873599944856e-19
5.6974124697621304 2.528887162306039e-23 3.82451656750098e-15 3.82421211818364e-15 3.0444931733881467e-19
5.718818669136295 2.613004308866872e-23 3.9665769623813e-15 3.966266880974731e-15 3.100814065685216e-19
5.740305295436557 2.70564927463084e-23 4.1226448479924486e-15 4.122329011793985e-15 3.1583619846296013e-19
5.7835210386641895 2.945557739821371e-23 4.521986829866762e-15 4.5216589752673674e-15 3.2785459939472293e-19
5.827062130521658 3.2215911348847116e-23 4.9829841218805864e-15 4.982643760719316e-15 3.4036116127138925e-19
5.8489554468988025 3.41499012586995e-23 5.301969176377303e-15 5.301622113717425e-15 3.4706265987716833e-19
5.870931020387893 3.622396081742899e-23 5.645109184077916e-15 5.644755296022084e-15 3.5388805583135514e-19
5.892989160043636 3.844932564812997e-23 6.0144206919098996e-15 6.0140598522609264e-15 3.60839648973999e-19
5.915130176081913 4.0978846811518e-23 6.434183942579011e-15 6.433815894684524e-15 3.6804789448483886e-19
5.95966208400165 4.804623678043215e-23 7.600644954427426e-15 7.600260951484172e-15 3.8400294325368826e-19
6.004529249263818 5.822400791077158e-23 9.28005382144734e-15 9.279652032698689e-15 4.0178874865205276e-19
6.027089341400364 6.52960879583204e-23 1.0446341632358957e-14 1.0445929803337844e-14 4.1182902111910903e-19
6.049734195844842 7.36495718229582e-23 1.1827036934523053e-14 1.1826614488460318e-14 4.224460627371599e-19
6.095279466722835 9.77737236006652e-23 1.581922528006614e-14 1.5818777632694455e-14 4.47647371694143e-19
6.141167624020661 1.3488708779732904e-22 2.1988254910191848e-14 2.1987775639051268e-14 4.792711405790343e-19
6.164241091010745 1.5859240598378125e-22 2.5949645960377082e-14 2.5949147402733644e-14 4.985576434332611e-19
6.187401249150058 1.8558649654981365e-22 3.0480640382399836e-14 3.048012178906131e-14 5.185933385214262e-19
6.1990139391386085 1.9877001754031146e-22 3.2707166516353455e-14 3.270663767594899e-14 5.288404044433615e-19
6.204828454712694 2.0571367613775923e-22 3.3881480348478694e-14 3.388094630801293e-14 5.340404657869325e-19
6.210648424152782 2.107854437555326e-22 3.4749374746757344e-14 3.47488361219013e-14 5.386248560495391e-19
6.233982942956859 2.28021222232468e-22 3.7732042239112985e-14 3.7731486946010275e-14 5.552931027187814e-19
6.239830258556775 2.302277926266475e-22 3.813291087706085e-14 3.8132352771905006e-14 5.581051558345587e-19
6.245683058788269 2.304254118715483e-22 3.8201441185233436e-14 3.820088025425733e-14 5.609309760996592e-19
6.257405133728602 2.299664233305552e-22 3.8196901775992766e-14 3.8196335599631584e-14 5.661763611675288e-19
6.269149208991335 2.265955748322353e-22 3.7707649688896046e-14 3.770708016579111e-14 5.695231049253996e-19
6.280915325867298 2.181207387482857e-22 3.63654806087864e-14 3.636491011172874e-14 5.704970576683298e-19
6.304513850009849 1.9721194272049076e-22 3.30030629296533e-14 3.300249264261592e-14 5.702870373896462e-19
6.32820103803542 1.7128796472966705e-22 2.877243050193911e-14 2.877186272464898e-14 5.677772901262906e-19
6.3519772230701035 1.4751235573010995e-22 2.4871774057920514e-14 2.487120804152124e-14 5.660163992683579e-19
6.375842739491607 1.2750558189673334e-22 2.157924407809663e-14 2.1578679064663133e-14 5.650134334916862e-19
6.399797922933955 1.1147879903627144e-22 1.893773240511742e-14 1.893716551876399e-14 5.66886353429613e-19
6.42384311029221 9.815107185777368e-23 1.6736298200365994e-14 1.6735728837800973e-14 5.693625650210266e-19
6.447978639727206 8.844570596340789e-23 1.5138044443177495e-14 1.5137470282788967e-14 5.741603885283463e-19
6.472204850670314 8.036046393511355e-23 1.380588091528073e-14 1.380530143117901e-14 5.794841017195711e-19
6.496522083828205 7.511373008730734e-23 1.2952979595055118e-14 1.2952392835068943e-14 5.867599861655947e-19
6.520930681187647 7.069545830157447e-23 1.2236875201871417e-14 1.223628076839644e-14 5.944334749824846e-19
