Dust emission spectrum from A.P. Jones, M. Kohler, N. Ysard, M. Bocchio, and L. Verstraete (2017), A&A, 602A, 46J 
inside the DustPedia framework.

lambda    nu*dP/dnu     j_nu    j_nu(carb.) j_nu(sil)
 (um)   (erg s-1 H-1) (Jy cm2 sr-1 H-1)
0.9927057738263894 5.884159659891973e-24 1.5505094917411884e-16 1.5505094917403022e-16 8.863829669806921e-29
1.0001793341362166 5.9813483201261736e-24 1.5879850296856056e-16 1.5879850296845377e-16 1.0678660423808816e-28
1.0077091589558085 6.078397728478025e-24 1.6258997070022233e-16 1.6258997070009384e-16 1.2848617237794877e-28
1.0114953028030835 6.126858260181729e-24 1.645019827092563e-16 1.6450198270911541e-16 1.4086954671152247e-28
1.0152956718711033 6.1752696731834045e-24 1.664247433185709e-16 1.6642474331841648e-16 1.5439675054230504e-28
1.0229392996569957 6.271878718736562e-24 1.7030090212607864e-16 1.7030090212589335e-16 1.8529598376181569e-28
1.0267826658714554 6.3199591616341736e-24 1.7225119095280797e-16 1.7225119095260508e-16 2.029013975602485e-28
1.0306404723013447 6.367969226994659e-24 1.7421180555931574e-16 1.7421180555909365e-16 2.2210786366850925e-28
1.03451277320114 6.415904281585413e-24 1.7618266154230053e-16 1.7618266154205748e-16 2.430539074170882e-28
1.0383996230291617 6.4637597179068576e-24 1.7816367344452278e-16 1.7816367344425686e-16 2.658893794265716e-28
1.0403485208654093 6.487656146627135e-24 1.7915796087674877e-16 1.7915796087647075e-16 2.7806578840302267e-28
1.0423010764483396 6.511530955075826e-24 1.8015475477502122e-16 1.801547547747305e-16 2.907763233377093e-28
1.0462171883269815 6.559213439689459e-24 1.82155818029356e-16 1.821558180290381e-16 3.178899051909951e-28
1.0471985131304309 6.571119662339249e-24 1.8265763316925357e-16 1.8265763316892856e-16 3.2503806938500165e-28
1.048180758391296 6.583019984571959e-24 1.8316006526068684e-16 1.8316006526035453e-16 3.32340256346966e-28
1.0501480137395462 6.6068026466694995e-24 1.841667747098671e-16 1.8416677470951968e-16 3.4741940845833744e-28
1.0521189612883777 6.63056086490834e-24 1.8517593516282427e-16 1.8517593516246105e-16 3.631534025075639e-28
1.0531058218030118 6.642412386599789e-24 1.8568092094491145e-16 1.856809209445402e-16 3.7127490397778146e-28
1.0540936079674168 6.654197807626948e-24 1.8618484163691105e-16 1.8618484163653148e-16 3.795721191633658e-28
1.058054026499678 6.701272425886514e-24 1.8820647077023686e-16 1.8820647076982226e-16 4.1457347520278455e-28
1.0590464539527713 6.71302396970668e-24 1.8871335744367311e-16 1.8871335744324925e-16 4.23795567358004e-28
1.06003981227728 6.724768531955335e-24 1.892208329804464e-16 1.8922083298001325e-16 4.332140648622709e-28
1.0620293250338977 6.748236438206044e-24 1.9023754483097586e-16 1.9023754483052323e-16 4.526562797849743e-28
1.0660195594769086 6.795085470195543e-24 1.922779707580091e-16 1.92277970757515e-16 4.940779686003648e-28
1.070024785945596 6.841815180560853e-24 1.9432765462346737e-16 1.943276546229282e-16 5.391162424121428e-28
1.0740450607676866 6.888421261817465e-24 1.9638650165307007e-16 1.9638650165248197e-16 5.880705570425307e-28
1.07808044048254 6.934899440984668e-24 1.9845441624642581e-16 1.9845441624578464e-16 6.412637145057923e-28
1.0861967418109137 7.02737301756204e-24 2.0261469285615102e-16 2.026146928553892e-16 7.617849054597828e-28
1.0902777775684922 7.07317321463626e-24 2.0470143487917566e-16 2.047014348783458e-16 8.29891404844454e-28
1.0943741465085532 7.118825510132683e-24 2.0679670080717676e-16 2.0679670080627292e-16 9.037971967272003e-28
1.1026131145906286 7.209670167302883e-24 2.110124031510317e-16 2.110124031499608e-16 1.0709116594346388e-27
1.1109141095355224 7.299874923446344e-24 2.152609907013499e-16 2.1526099070008261e-16 1.2673073382643803e-27
1.1192775983109025 7.389324576020264e-24 2.1953915490867374e-16 2.1953915490717596e-16 1.4978133565342453e-27
1.1277040513999907 7.477603528008312e-24 2.238344909336196e-16 2.238344909318516e-16 1.7680025642036345e-27
1.1361939428280308 7.565138340333053e-24 2.281596158259443e-16 2.2815961582385997e-16 2.0842965696706613e-27
1.1447477501889525 7.651899820316747e-24 2.325136786442254e-16 2.3251367864177132e-16 2.454086013844045e-27
1.1533659546722406 7.73790675475275e-24 2.368972682169317e-16 2.368972682140458e-16 2.8858694636552334e-27
1.1707974979042381 7.90793489435883e-24 2.4576175733850164e-16 2.4576175733452563e-16 3.97590018190004e-27
1.1884924949847024 8.074578549974758e-24 2.5473331090951057e-16 2.5473331090405984e-16 5.4506602229832156e-27
1.2064549276569216 8.239141306045707e-24 2.638532731014018e-16 2.638532730939656e-16 7.436133943147092e-27
1.2246888378427687 8.399825267359024e-24 2.730646267945771e-16 2.7306462678448127e-16 1.0095873600588846e-26
1.2431983285522175 8.556254424186385e-24 2.8235373737440034e-16 2.8235373736075876e-16 1.364147954807794e-26
1.2619875648066055 8.708370240243611e-24 2.9171676820836877e-16 2.9171676819002356e-16 1.8345315321027588e-26
1.3004222497298317 8.997132503835281e-24 3.105688837259482e-16 3.1056888369323095e-16 3.2717363274887377e-26
1.3400274889804893 9.26498169709992e-24 3.2955484906246767e-16 3.2955484900517453e-16 5.72931375648549e-26
1.3808389325824078 9.51092422669068e-24 3.4860625725538847e-16 3.486062571568292e-16 9.855933603419819e-26
1.4228933163050095 9.736157377228279e-24 3.6773025062018634e-16 3.6773025045354746e-16 1.666388504129913e-25
1.466228494730424 9.946103453979676e-24 3.8710079265340433e-16 3.8710079237635687e-16 2.7704736479930654e-25
1.5108834753276823 1.0136679054294598e-23 4.065332767385095e-16 4.0653327628538024e-16 4.531292119521049e-25
1.5568984535646726 1.0304580198765655e-23 4.258533068037649e-16 4.2585330607392e-16 7.298449050673696e-25
1.6043148490894465 1.045011353064213e-23 4.450205282878303e-16 4.45020527128061e-16 1.159769339854947e-24
1.6531753430134553 1.0573721513709669e-23 4.639981192309752e-16 4.639981174148197e-16 1.8161553864376042e-24
1.7035239163302658 1.0676873443278414e-23 4.827938876254497e-16 4.827938848220751e-16 2.803374495153582e-24
1.755405889504358 1.0768059998623418e-23 5.017466146120991e-16 5.0174661034458365e-16 4.2675155902163815e-24
1.8088679632656115 1.0845184321937394e-23 5.207307661387264e-16 5.207307597297132e-16 6.4090131584836144e-24
1.8639582606462262 1.0906826157124161e-23 5.396398427881467e-16 5.396398332885766e-16 9.499570013482599e-24
1.9207263702978936 1.095401499137174e-23 5.584808204371158e-16 5.584808065350245e-16 1.3902091541747203e-23
1.979223391128241 1.0989147528386638e-23 5.773354853471073e-16 5.773354652520067e-16 2.0095100451055927e-23
2.039501978296691 1.1015092107892886e-23 5.963231877661875e-16 5.963231590654847e-16 2.8700702652752347e-23
2.1016163906111602 1.103988313935386e-23 6.158675988374446e-16 6.158675583173714e-16 4.052007335049317e-23
2.1656225393682647 1.1068179233318311e-23 6.362508553449401e-16 6.362507987761475e-16 5.656879262351854e-23
2.231578038680979 1.1100313728469158e-23 6.575318060099363e-16 6.575317278917538e-16 7.811818248469775e-23
2.299542257339062 1.1139075922829123e-23 6.79923406133151e-16 6.799232993916008e-16 1.0674155008093856e-22
2.369576372248914 1.1190633804639843e-23 7.038738457306383e-16 7.038737013640192e-16 1.443666192162601e-22
2.4417434235010123 1.12622707370426e-23 7.299538827435565e-16 7.299536894183774e-16 1.9332517919513814e-22
2.5161083711144245 1.1366460210686165e-23 7.591437339684278e-16 7.591434775526349e-16 2.5641579309197595e-22
2.5927381535095444 1.1523614727625123e-23 7.930796780357853e-16 7.930793410752313e-16 3.3696055372083976e-22
2.6717017477616296 1.1758105277156203e-23 8.338630924249018e-16 8.338626535814329e-16 4.388434688558441e-22
2.753070231689431 1.2106624743981954e-23 8.847280666803484e-16 8.847275001147575e-16 5.665655908635385e-22
2.836916847834745 1.2652304597033015e-23 9.527647442393113e-16 9.527640189209118e-16 7.253183994013107e-22
2.9233170693905177 1.3578235771747445e-23 1.0536313905566882e-15 1.05363046967324e-15 9.208834480099904e-22
2.967498994190263 1.4364556573246236e-23 1.1314939536295893e-15 1.1314929207340659e-15 1.0328955236489938e-21
3.0123486681368425 1.5282887539520255e-23 1.2220249945357985e-15 1.2220238375269374e-15 1.1570088611570825e-21
3.0578761833420214 1.7337646868213885e-23 1.407276652264553e-15 1.407275357583249e-15 1.2946813044972936e-21
3.1040917844459814 1.9985441070377328e-23 1.6467122824556785e-15 1.6467108363566443e-15 1.4460990349316502e-21
3.127460860933648 2.278643090593958e-23 1.891636225496531e-15 1.891634697684509e-15 1.5278120217316182e-21
3.1510058709225794 2.651837064508251e-23 2.2180201221963872e-15 2.2180185087365245e-15 1.6134598627670658e-21
3.162844764501044 2.999221356544021e-23 2.5180006031257665e-15 2.5179989451575017e-15 1.6579682654148242e-21
3.1747281389236908 3.403202065106643e-23 2.867898061947078e-15 2.8678963584362613e-15 1.7035108166204887e-21
3.1986289994194426 4.5300236991283367e-23 3.846216949982607e-15 3.846215151981039e-15 1.7980015684744106e-21
3.2227097969389145 7.186212907829868e-23 6.147389236651462e-15 6.147387337996389e-15 1.898655073561713e-21
3.2348180950136065 9.705112169622524e-23 8.333354481605177e-15 8.333352529084588e-15 1.952520588185013e-21
3.240889293275058 1.1588315170090001e-22 9.96905351648925e-15 9.969051535541462e-15 1.9809477894912785e-21
3.2469718861334385 1.3766889438158808e-22 1.1865438316989877e-14 1.1865436306617084e-14 2.0103727907257058e-21
3.2714166318528037 2.538778439210737e-22 2.2046014652511128e-14 2.2046012520092906e-14 2.1324182263057434e-21
3.2744851364798273 2.6114238944835716e-22 2.2698116987080344e-14 2.2698114840171747e-14 2.1469086030073625e-21
3.2775565192852394 2.6861559220440404e-22 2.3369576430449636e-14 2.3369574268966906e-14 2.1614827307757793e-21
3.283707930232385 2.614285489107937e-22 2.2786990283823583e-14 2.2786988096078017e-14 2.187745569970586e-21
3.2898708863219004 2.3863647901366523e-22 2.0839395627798137e-14 2.083939341596631e-14 2.211831830460341e-21
3.29141343181113 2.332615435445047e-22 2.0379569949984643e-14 2.037956773209885e-14 2.2178857959765696e-21
3.292184975758714 2.3062049113649254e-22 2.0153549870860125e-14 2.0153547649942478e-14 2.2209176512050214e-21
3.295272960557952 2.139499147789771e-22 1.8714272355903336e-14 1.8714270123158695e-14 2.2327446414010663e-21
3.3076538914384823 1.5619803135620873e-22 1.3714028518249877e-14 1.3714026237893631e-14 2.2803562470116315e-21
3.310756385682612 1.4444407277081103e-22 1.2693938321703293e-14 1.2693936029322696e-14 2.2923805967586336e-21
3.313861789986515 1.3359922457476408e-22 1.175189119829256e-14 1.1751888893838796e-14 2.3044537668305155e-21
3.3200813396944477 1.1839051756996032e-22 1.043362145639177e-14 1.0433619126047978e-14 2.33034379397342e-21
3.345076488085796 9.125949394751588e-23 8.103143724042826e-15 8.103141278452636e-15 2.445590193397296e-21
3.3482140837626964 9.227682478759055e-23 8.201160175289843e-15 8.201157714084654e-15 2.4612051914903225e-21
3.3513546224236106 9.330540315335876e-23 8.300353939711283e-15 8.300351462808009e-15 2.4769032754126265e-21
3.3576445397418455 1.0082267191140418e-22 8.985915965051808e-15 8.98591345534942e-15 2.5097023881211983e-21
3.3702598118196083 1.285496781558853e-22 1.1500158034272161e-14 1.1500155455713568e-14 2.5785585921151032e-21
3.382922481734668 1.3486458643356502e-22 1.2110425551997762e-14 1.2110422906129635e-14 2.645868122688842e-21
3.389271646505754 1.38136145301218e-22 1.2427482044779141e-14 1.2427479364707392e-14 2.6800717524284633e-21
3.395632727569191 1.4166139627969218e-22 1.2768552363633578e-14 1.2768549648302745e-14 2.715330832246769e-21
3.421196662673239 1.5858827660012272e-22 1.4401858922841837e-14 1.4401856061044898e-14 2.861796938562261e-21
3.4276182099114902 1.551768871707353e-22 1.4118511444865909e-14 1.4118508549950751e-14 2.8949151548544312e-21
3.4340518103208963 1.4022868148926703e-22 1.2782421279088182e-14 1.2782418352644382e-14 2.9264437976350655e-21
3.4469541582030403 1.1893969549042008e-22 1.0882577358291352e-14 1.0882574370904553e-14 2.9873867976855733e-21
3.472904465399547 1.1297305680726094e-22 1.0414469434395197e-14 1.0414466307058045e-14 3.1273371516836383e-21
3.4990501388274233 1.0384748691779312e-22 9.645296662686964e-15 9.645293391041035e-15 3.2716459318707474e-21
3.5253949054701885 7.137225255641175e-23 6.6789256548594335e-15 6.678922241393882e-15 3.4134655508692274e-21
3.5519380250092896 4.084946391767067e-23 3.851422596104498e-15 3.851419038708263e-15 3.557396234513007e-21
3.578680990867387 2.874674343553765e-23 2.7307445301329564e-15 2.7307408145687575e-15 3.715564199228866e-21
3.605625307711299 2.3851120719673468e-23 2.2827524468072514e-15 2.282748563671602e-15 3.883135648964351e-21
3.660119384959845 2.027893817093932e-23 1.9701980980457804e-15 1.9701938586901827e-15 4.239355597331405e-21
3.715437065384467 1.774882499407331e-23 1.750446934944991e-15 1.7504423139161829e-15 4.62102880801635e-21
3.8285932144167436 1.6462436603254674e-23 1.673026322007999e-15 1.6730208585891577e-15 5.4634188415371584e-21
3.94519561050918 1.6212876550795351e-23 1.6978450397094415e-15 1.6978386231494249e-15 6.416560017062234e-21
4.06534921144712 1.6389250978161723e-23 1.768586868628502e-15 1.76857937913088e-15 7.48949762167944e-21
4.189162171576248 1.6812474373748755e-23 1.869511933083409e-15 1.8695032378463154e-15 8.695237093915173e-21
4.316745939156006 1.74158600975436e-23 1.995587842723717e-15 1.995577799933521e-15 1.004279019583873e-20
4.448215356677963 1.81770738058776e-23 2.146244566830655e-15 2.1462330367371826e-15 1.1530093472845509e-20
4.58368876423945 1.9098904286303797e-23 2.3237692815844772e-15 2.3237561074855875e-15 1.3174098889733464e-20
4.723288106065518 2.020272485442905e-23 2.5329336824052042e-15 2.5329186812254784e-15 1.500117972567535e-20
4.867139040275056 2.153124169183727e-23 2.7817126278205228e-15 2.781695633932521e-15 1.699388800135804e-20
4.940699165968905 2.2333268499699485e-23 2.9289376805358135e-15 2.9289196169889743e-15 1.806354683916092e-20
5.015371051989984 2.3164065351133418e-23 3.083807664451932e-15 3.0837884813201897e-15 1.9183131743165725e-20
5.091171501069577 2.4178294942746758e-23 3.2674791955508065e-15 3.2674588215303597e-15 2.0374020447013832e-20
5.129500256944802 2.469893434054012e-23 3.3629677655052768e-15 3.362946775724193e-15 2.0989781083406516e-20
5.168117569889187 2.5241799921794036e-23 3.462757973275998e-15 3.4627363500144474e-15 2.162326154963239e-20
5.20702561229733 2.5908243702561066e-23 3.58094062803805e-15 3.580918322971677e-15 2.2305066374270572e-20
5.246226572918644 2.6591767667301015e-23 3.703085023213298e-15 3.7030620197045885e-15 2.3003508710679658e-20
5.265937586045735 2.6940105814634586e-23 3.765688895001264e-15 3.7656655359347705e-15 2.335906649384901e-20
5.285722656980489 2.729292229850311e-23 3.8293392544596825e-15 3.8293155355580525e-15 2.3718901629144398e-20
5.305582063971359 2.76502897093128e-23 3.89405566537264e-15 3.8940315823182236e-15 2.4083054415651937e-20
5.3255160863122235 2.803426336194051e-23 3.962965420277435e-15 3.962940966860664e-15 2.4453416771636132e-20
5.365609099470188 2.899081302361726e-23 4.1290377918140276e-15 4.129012569867974e-15 2.5221946052683985e-20
5.406003951863644 2.9983869393807534e-23 4.302624732945349e-15 4.302598723354619e-15 2.6009590730670793e-20
5.446702915881641 3.1015198857506164e-23 4.484124797432056e-15 4.484097980691276e-15 2.6816740779234974e-20
5.487708281020852 3.212971097559876e-23 4.680230782795558e-15 4.680203136652493e-15 2.764614306328399e-20
5.529022354014368 3.3679113516200246e-23 4.9428613743171704e-15 4.9428328575577515e-15 2.8516759417553783e-20
5.570647458961463 3.531998874624344e-23 5.2227070275239366e-15 5.222677617881693e-15 2.940964224161785e-20
5.612585937458331 3.7058924492934456e-23 5.521095357448076e-15 5.521065032159528e-15 3.032528854795608e-20
5.654840148729818 3.897058593234073e-23 5.849607161280067e-15 5.849575893918235e-15 3.1267361832704794e-20
5.67608639626678 4.02726669968594e-23 6.067765961855692e-15 6.067734200727958e-15 3.176112773556528e-20
5.686739436050992 4.0943846341952063e-23 6.1804685563222795e-15 6.180436545868724e-15 3.2010453555481054e-20
5.6974124697621304 4.1628880080690614e-23 6.295668068081464e-15 6.295635806660348e-15 3.22614211181319e-20
5.718818669136295 4.3041845732081047e-23 6.5338121762714954e-15 6.533779407950077e-15 3.2768321418497227e-20
5.740305295436557 4.4599440416174736e-23 6.7956942896885985e-15 6.795661004784514e-15 3.328490408476135e-20
5.7835210386641895 4.864050763356813e-23 7.467235557581276e-15 7.467201195219225e-15 3.43623620518308e-20
5.827062130521658 5.32961145525176e-23 8.243556722558087e-15 8.243521245697319e-15 3.5476860768249806e-20
5.8489554468988025 5.656227830192929e-23 8.781620006181076e-15 8.781583928981433e-15 3.6077199640109477e-20
5.870931020387893 6.006738551509875e-23 9.360846853381166e-15 9.360810166775111e-15 3.66866060536968e-20
5.892989160043636 6.383067166696787e-23 9.984687793113226e-15 9.984650487892191e-15 3.7305221034007124e-20
5.915130176081913 6.811076831810183e-23 1.0694229972959456e-14 1.06941920256508e-14 3.7947308657842563e-20
5.95966208400165 8.007836516618819e-23 1.2667947854910246e-14 1.2667908469103719e-14 3.938580652475962e-20
6.004529249263818 9.732864573844557e-23 1.5512760169405292e-14 1.5512719165009965e-14 4.1004395328684566e-20
6.027089341400364 1.0932005583440909e-22 1.748948039955698e-14 1.748943846833296e-14 4.193122402585629e-20
6.049734195844842 1.2349110588094165e-22 1.9830853516024286e-14 1.983081060043616e-14 4.291558812932327e-20
6.095279466722835 1.644261521269333e-22 2.6603204282716785e-14 2.660315898221425e-14 4.530050254100782e-20
6.141167624020661 2.2742557360375895e-22 3.7073166654837304e-14 3.707311829194533e-14 4.836289197837783e-20
6.164241091010745 2.676571880782164e-22 4.3795345850860487e-14 4.379529559032797e-14 5.026053252284829e-20
6.187401249150058 3.134880931178537e-22 5.1487139463968555e-14 5.1487087225869624e-14 5.2238098929441394e-20
6.1990139391386085 3.358665579876474e-22 5.52660988579357e-14 5.526604560944723e-14 5.324848845677691e-20
6.204828454712694 3.476548038324883e-22 5.725948622014145e-14 5.72594324581774e-14 5.376196404342736e-20
6.210648424152782 3.562602494491977e-22 5.873185877978105e-14 5.873180457280392e-14 5.420697714903664e-20
6.233982942956859 3.854973807974655e-22 6.379056875893826e-14 6.379051295805894e-14 5.580087933369434e-20
6.239830258556775 3.8923520410221996e-22 6.44695029166804e-14 6.446944686612702e-14 5.605055336323357e-20
6.245683058788269 3.895599591612926e-22 6.458381368248549e-14 6.458375738118964e-14 5.630129584276952e-20
6.257405133728602 3.88758211180192e-22 6.457185789125343e-14 6.457180113409678e-14 5.675715665949773e-20
6.269149208991335 3.830098081823887e-22 6.373645948313647e-14 6.373640247941211e-14 5.700372435583061e-20
6.280915325867298 3.685922744263163e-22 6.14523648008873e-14 6.145230781100535e-14 5.69898819316514e-20
6.304513850009849 3.330373325924525e-22 5.573319695476318e-14 5.57331402302739e-14 5.672448927133428e-20
6.32820103803542 2.8896561741194655e-22 4.8539564105143064e-14 4.853950790598321e-14 5.619915986107173e-20
6.3519772230701035 2.485488425104526e-22 4.19073414066278e-14 4.19072856575661e-14 5.574906170547143e-20
6.375842739491607 2.1454768609805296e-22 3.631038591275474e-14 3.631033052963985e-14 5.538311489996676e-20
6.399797922933955 1.872971355475578e-22 3.181755691582744e-14 3.1817501602182676e-14 5.531364475051551e-20
6.42384311029221 1.6464171502841922e-22 2.8073996409618067e-14 2.8073941101310867e-14 5.530830720527873e-20
6.447978639727206 1.481329042145418e-22 2.5353887597713797e-14 2.5353832054046077e-14 5.554366772909984e-20
6.472204850670314 1.3438116530562426e-22 2.3086605957926162e-14 2.3086550126646934e-14 5.583127922382965e-20
6.496522083828205 1.2544476455684088e-22 2.1632309748465338e-14 2.1632253428861044e-14 5.631960429955288e-20
