Dust emission spectrum from A.P. Jones, M. Kohler, N. Ysard, M. Bocchio, and L. Verstraete (2017), A&A, 602A, 46J 
inside the DustPedia framework.

lambda    nu*dP/dnu     j_nu    j_nu(carb.) j_nu(sil)
 (um)   (erg s-1 H-1) (Jy cm2 sr-1 H-1)
0.9927057738263894 1.5871656623432195e-24 4.1822716694842916e-17 4.1822716665105097e-17 2.9737824132498713e-26
1.0001793341362166 1.6133716974718167e-24 4.283332061239421e-17 4.283332057658149e-17 3.5812726103178335e-26
1.0077091589558085 1.6395441597266552e-24 4.3855872682162413e-17 4.3855872639089887e-17 4.3072535152293193e-26
1.0114953028030835 1.65261464317197e-24 4.437158065544601e-17 4.4371580608232144e-17 4.7213859807032916e-26
1.0152956718711033 1.6656729545335857e-24 4.489021671632259e-17 4.489021666458613e-17 5.173646093209779e-26
1.0229392996569957 1.6917352433572133e-24 4.593584331303073e-17 4.5935843250968024e-17 6.206270186200324e-26
1.0267826658714554 1.7047076454878932e-24 4.6461996771149986e-17 4.646199670320618e-17 6.794381400828364e-26
1.0306404723013447 1.717662250208253e-24 4.699096859346488e-17 4.6990968519106994e-17 7.435789030619244e-26
1.03451277320114 1.7305978354168058e-24 4.752273714216539e-17 4.752273706081456e-17 8.135084133189728e-26
1.0383996230291617 1.7435131861331808e-24 4.8057280514295194e-17 4.805728042532288e-17 8.897231089193022e-26
1.0403485208654093 1.7499628958819508e-24 4.8325585843382917e-17 4.832558575034758e-17 9.3035344137387e-26
1.0423010764483396 1.7564070947388188e-24 4.8594576547489456e-17 4.8594576450213483e-17 9.727596016439596e-26
1.0462171883269815 1.7692783612126164e-24 4.913460282572857e-17 4.91346027194088e-17 1.0631977186082316e-25
1.0471985131304309 1.7724925001125895e-24 4.9270033345514157e-17 4.9270033236810566e-17 1.0870360760209038e-25
1.048180758391296 1.7757051307777486e-24 4.940563273379406e-17 4.940563262265544e-17 1.1113861952180823e-25
1.0501480137395462 1.7821257933614614e-24 4.9677336685104965e-17 4.967733656893859e-17 1.1616637569467417e-25
1.0521189612883777 1.788540201199728e-24 4.994971180888842e-17 4.994971168747674e-17 1.214116522992115e-25
1.0531058218030118 1.791740103899087e-24 5.008601291559027e-17 5.008601279147144e-17 1.2411882047617839e-25
1.0540936079674168 1.7949223022235782e-24 5.0222030401172604e-17 5.022203027428826e-17 1.2688435138228723e-25
1.058054026499678 1.8076338771648247e-24 5.076773049125894e-17 5.076773035271068e-17 1.385482642900573e-25
1.0590464539527713 1.810807375700191e-24 5.090456120732147e-17 5.090456106570061e-17 1.4162084620335322e-25
1.06003981227728 1.813979080032475e-24 5.104155346043494e-17 5.104155331567632e-17 1.4475861506103025e-25
1.0620293250338977 1.8203170341216066e-24 5.1316021090297904e-17 5.1316020939062896e-17 1.5123500024190929e-25
1.0660195594769086 1.832970622220535e-24 5.1866878385190874e-17 5.186687822016128e-17 1.6502959625575291e-25
1.070024785945596 1.8455934997169166e-24 5.2420278350591924e-17 5.242027817056818e-17 1.8002374391973017e-25
1.0740450607676866 1.8581845341912333e-24 5.297619675475154e-17 5.297619655843527e-17 1.9631627513024393e-25
1.07808044048254 1.8707426027404993e-24 5.353460916535962e-17 5.353460895134594e-17 2.140136805050467e-25
1.0861967418109137 1.8957332750324305e-24 5.465817942180842e-17 5.465817916771767e-17 2.540907574320048e-25
1.0902777775684922 1.90811337241323e-24 5.522182666711599e-17 5.522182639038903e-17 2.767269510250869e-25
1.0943741465085532 1.9204552326014248e-24 5.578782702070356e-17 5.578782671942136e-17 3.0128221257647524e-25
1.1026131145906286 1.9450199868956816e-24 5.692678473323061e-17 5.692678437645369e-17 3.5677691992261938e-25
1.1109141095355224 1.9694191371826153e-24 5.807484635311827e-17 5.807484593116877e-17 4.21949495284251e-25
1.1192775983109025 1.9936218961492007e-24 5.923113293850565e-17 5.923113244011872e-17 4.983869268504614e-25
1.1277040513999907 2.017516576698396e-24 6.039231609484744e-17 6.039231550692856e-17 5.879188902931596e-25
1.1361939428280308 2.0412183094652616e-24 6.156180685044476e-17 6.156180615779294e-17 6.926518135161982e-25
1.1447477501889525 2.0647194845793847e-24 6.273938943284405e-17 6.273938861783637e-17 8.15007664692454e-25
1.1533659546722406 2.0880253491871e-24 6.392523415797278e-17 6.392523320020396e-17 9.577688213765453e-25
1.1707974979042381 2.1341264598631383e-24 6.632410056040114e-17 6.632409924265705e-17 1.3177441075324458e-24
1.1884924949847024 2.1793510623095028e-24 6.87532244934312e-17 6.875322268941499e-17 1.8040162175588084e-24
1.2064549276569216 2.22405173090285e-24 7.122384565912912e-17 7.122384320148449e-17 2.457644648969993e-24
1.2246888378427687 2.2677473955651957e-24 7.372077114993125e-17 7.372076781810761e-17 3.331823599794077e-24
1.2431983285522175 2.310338587729878e-24 7.62404555200981e-17 7.624045102486826e-17 4.495229857818683e-24
1.2619875648066055 2.351812821834783e-24 7.878204725910403e-17 7.878204122302803e-17 6.0360759981388595e-24
1.3004222497298317 2.4307397164011044e-24 8.390585778626872e-17 8.390584705508546e-17 1.073118326226432e-23
1.3400274889804893 2.5042463280914327e-24 8.907589325597247e-17 8.907587452489833e-17 1.8731074150187155e-23
1.3808389325824078 2.572090197633429e-24 9.427545796274839e-17 9.427542584825423e-17 3.2114494132895024e-23
1.4228933163050095 2.634620263925552e-24 9.950841306328331e-17 9.950835895346347e-17 5.410981987046676e-23
1.466228494730424 2.69332564069899e-24 1.0482381318597206e-16 1.0482372354556661e-16 8.964040546867067e-23
1.5108834753276823 2.7471400385715593e-24 1.1017452910940256e-16 1.1017438303470046e-16 1.460747021013566e-22
1.5568984535646726 2.7952073793319182e-24 1.155164288821169e-16 1.155161944901764e-16 2.3439194050692286e-22
1.6043148490894465 2.837645520685079e-24 1.2084179803463564e-16 1.2084142700699612e-16 3.7102763952844632e-22
1.6531753430134553 2.8746118019271157e-24 1.2614427833038253e-16 1.2614369961652233e-16 5.787138602196932e-22
1.7035239163302658 2.9065391489200826e-24 1.3142979943497496e-16 1.3142890978468736e-16 8.896502876283527e-22
1.755405889504358 2.935756272692123e-24 1.3679397879820648e-16 1.3679263017690587e-16 1.3486213006099424e-21
1.8088679632656115 2.961739063908567e-24 1.4220769385472185e-16 1.422056772069471e-16 2.0166477747387852e-21
1.8639582606462262 2.984140482306895e-24 1.4764708610286009e-16 1.4764411024556325e-16 2.975857296828809e-21
1.9207263702978936 3.0032750333762105e-24 1.531193362396716e-16 1.5311500112877996e-16 4.335110891668343e-21
1.979223391128241 3.0198252848805736e-24 1.5865218771577966e-16 1.586459509099608e-16 6.23680581885441e-21
2.039501978296691 3.034595629062425e-24 1.6428366838686458e-16 1.6427480390259634e-16 8.864484268288549e-21
2.1016163906111602 3.049790119833058e-24 1.7013467392279654e-16 1.7012222150366824e-16 1.2452419128265389e-20
2.1656225393682647 3.0666962371225666e-24 1.7628808341653166e-16 1.762707887172196e-16 1.7294699312043605e-20
2.231578038680979 3.085418632349004e-24 1.827660852883781e-16 1.8274232962951415e-16 2.3755658863995778e-20
2.299542257339062 3.106729476376923e-24 1.8963315288867898e-16 1.8960087170617795e-16 3.22811825010576e-20
2.369576372248914 3.1323019486851492e-24 1.9701702844538263e-16 1.9697361729397213e-16 4.341115141050183e-20
2.4417434235010123 3.1641058171830134e-24 2.050786542599769e-16 2.0502086404893644e-16 5.779021104044357e-20
2.5161083711144245 3.205504945022004e-24 2.1408943049221859e-16 2.1401324900086645e-16 7.61814913521959e-20
2.5927381535095444 3.2619863941842894e-24 2.2449684238878923e-16 2.2439736502355237e-16 9.947736523686097e-20
2.6717017477616296 3.340050422816696e-24 2.3687020219456997e-16 2.3674149844301414e-16 1.2870375155577568e-19
2.753070231689431 3.4494614858934124e-24 2.520797873924215e-16 2.5191475947838394e-16 1.6502791403748937e-19
2.836916847834745 3.612377083199493e-24 2.720251872988901e-16 2.718154169718817e-16 2.097703270084319e-19
2.9233170693905177 3.87756042384531e-24 3.0088735016993536e-16 3.006229900467007e-16 2.6436012323450506e-19
2.967498994190263 4.096610029152107e-24 3.226893538083243e-16 3.223940228256419e-16 2.953309826824029e-19
3.0123486681368425 4.3510154994465e-24 3.4790871019542875e-16 3.475792195307695e-16 3.2949066465926967e-19
3.0578761833420214 4.90858975544532e-24 3.984245273242668e-16 3.980573121104177e-16 3.672152138491656e-19
3.1040917844459814 5.623918788276908e-24 4.633861275103694e-16 4.629776495770121e-16 4.0847793335730314e-19
3.127460860933648 6.375243509678023e-24 5.292466213357306e-16 5.288159668646946e-16 4.3065447103593664e-19
3.1510058709225794 7.374277095842829e-24 6.167910994284407e-16 6.163372677292955e-16 4.538316991454069e-19
3.162844764501044 8.302492647894461e-24 6.9703696425178e-16 6.965711146337015e-16 4.658496180784471e-19
3.1747281389236908 9.380966750809514e-24 7.905394933695638e-16 7.900613648704886e-16 4.781284990751403e-19
3.1986289994194426 1.2385937907865447e-23 1.0516281478136825e-15 1.0511246003638427e-15 5.035474498398562e-19
3.2227097969389145 1.946283607598848e-23 1.664932984074008e-15 1.6644024373010194e-15 5.305467729887212e-19
3.2348180950136065 2.6171057577295547e-23 2.2471940162911647e-15 2.246649044419281e-15 5.449718718843313e-19
3.240889293275058 3.118594704407187e-23 2.6828263684714543e-15 2.6822737873075864e-15 5.525811638675908e-19
3.2469718861334385 3.698767714039446e-23 3.187902420292717e-15 3.187341965302729e-15 5.604549899881179e-19
3.2714166318528037 6.79213571890967e-23 5.8980934006780935e-15 5.897500353988554e-15 5.9304668953822e-19
3.2744851364798273 6.985548763545346e-23 6.0717374681624755e-15 6.071140565820209e-15 5.969023422674734e-19
3.2775565192852394 7.184506735669125e-23 6.250526184888648e-15 6.249925406220706e-15 6.007786679427198e-19
3.283707930232385 6.993363605613588e-23 6.0956505781906515e-15 6.095042837609832e-15 6.077405808225513e-19
3.2898708863219004 6.386868695558727e-23 5.577457567245014e-15 5.576843463416048e-15 6.141038289658226e-19
3.29141343181113 6.243833783414124e-23 5.455106118719805e-15 5.454490416305757e-15 6.157024140478441e-19
3.292184975758714 6.173550255354434e-23 5.394965223532962e-15 5.394348720658219e-15 6.165028747427158e-19
3.295272960557952 5.730025293302165e-23 5.012072758049467e-15 5.011453136352843e-15 6.196216966234089e-19
3.3076538914384823 4.193199460803832e-23 3.681586540423959e-15 3.680954377659083e-15 6.3216276487565e-19
3.310756385682612 3.880328706568726e-23 3.4100847701292323e-15 3.409449443295157e-15 6.353268340749953e-19
3.313861789986515 3.5916225387570547e-23 3.159326518185576e-15 3.158688015722374e-15 6.385024632019492e-19
3.3200813396944477 3.1868146730418314e-23 2.808503470773747e-15 2.8078581504330817e-15 6.453203406654436e-19
3.345076488085796 2.4652824979630747e-23 2.18898193900251e-15 2.1883062665812253e-15 6.756724212845161e-19
3.3482140837626964 2.4924606308267603e-23 2.215189882298937e-15 2.21451009932765e-15 6.797829712871245e-19
3.3513546224236106 2.51993760638649e-23 2.2417109119198726e-15 2.2410269982931884e-15 6.839136266845011e-19
3.3576445397418455 2.7202717360893745e-23 2.424467905798457e-15 2.42377536070225e-15 6.925450962077221e-19
3.3702598118196083 3.4586763289512373e-23 3.0941597787667826e-15 3.0934491252564713e-15 7.106535103107463e-19
3.382922481734668 3.62724945523786e-23 3.2571585801600675e-15 3.2564302708087436e-15 7.283093513232486e-19
3.389271646505754 3.714569355242189e-23 3.3418294585893662e-15 3.3410921891584105e-15 7.372694309567764e-19
3.395632727569191 3.808713010459486e-23 3.432957233888004e-15 3.432210730042868e-15 7.465038451363524e-19
3.421196662673239 4.260843523847275e-23 3.869394928698358e-15 3.868610136244673e-15 7.847924536854735e-19
3.4276182099114902 4.1702269358280053e-23 3.794211740849988e-15 3.793418343825605e-15 7.933970243836331e-19
3.4340518103208963 3.7723383448067124e-23 3.4386416115784625e-15 3.437840047089984e-15 8.015644884786197e-19
3.4469541582030403 3.2055982209617124e-23 2.9330132783152086e-15 2.932195978060429e-15 8.173002547800599e-19
3.472904465399547 3.047195852298369e-23 2.809070495323407e-15 2.80821702913096e-15 8.5346619244686225e-19
3.4990501388274233 2.804753157090559e-23 2.605039088443373e-15 2.604148474194623e-15 8.90614248751348e-19
3.5253949054701885 1.9408194165129043e-23 1.8161944072245554e-15 1.8152674843060194e-15 9.269229185361077e-19
3.5519380250092896 1.1284768350812887e-23 1.0639652923162266e-15 1.0630016963329276e-15 9.635959832992872e-19
3.578680990867387 8.067521141505841e-24 7.663594757541979e-16 7.653556523747563e-16 1.0038233794417458e-18
3.605625307711299 6.770376207594259e-24 6.479818300925101e-16 6.46935526289602e-16 1.0463038029080174e-18
3.660119384959845 5.8328250538358284e-24 5.666875025917014e-16 5.655514499175313e-16 1.1360526741700697e-18
3.715437065384467 5.172253824803997e-24 5.101045200123892e-16 5.088731179011017e-16 1.2314021112875165e-18
3.8285932144167436 4.8574885992760514e-24 4.936514855787464e-16 4.922125519610081e-16 1.4389336177381433e-18
3.94519561050918 4.8196282408080345e-24 5.047211626056593e-16 5.030519369684059e-16 1.6692256372535453e-18
4.06534921144712 4.895955301839567e-24 5.283293463357998e-16 5.264062819731071e-16 1.923064362692894e-18
4.189162171576248 5.038775573343375e-24 5.603012889764307e-16 5.580992822357096e-16 2.2020067407211855e-18
4.316745939156006 5.230270077644801e-24 5.993079481949753e-16 5.968016433369229e-16 2.5063048580523812e-18
4.448215356677963 5.464420713390897e-24 6.452074405507357e-16 6.423741681858351e-16 2.8332723649005478e-18
4.58368876423945 5.7419289720875045e-24 6.986221807470572e-16 6.9543759534036e-16 3.1845854066971807e-18
4.723288106065518 6.068467761505876e-24 7.608392681910208e-16 7.572755565001903e-16 3.563711690830946e-18
4.867139040275056 6.455300094206337e-24 8.339876559572684e-16 8.300243955726276e-16 3.9632603846410746e-18
4.940699165968905 6.685644759342605e-24 8.768012104712231e-16 8.726289801262821e-16 4.172230344941079e-18
5.015371051989984 6.923641782392454e-24 9.217371506602476e-16 9.173501543792075e-16 4.386996281040154e-18
5.091171501069577 7.210794136848566e-24 9.744740016342848e-16 9.69862170291344e-16 4.61183134294071e-18
5.129500256944802 7.357934333609104e-24 1.0018446805624753e-15 9.971182807498403e-16 4.726399812634872e-18
5.168117569889187 7.511002280096711e-24 1.0303854365885704e-15 1.0255421230443165e-15 4.8433135442539526e-18
5.20702561229733 7.697258429887837e-24 1.0638862962898963e-15 1.058916459889662e-15 4.969836400234635e-18
5.246226572918644 7.888012917798871e-24 1.0984596008911637e-15 1.0933613948399407e-15 5.09820605122293e-18
5.265937586045735 7.98512129991833e-24 1.1161605233193246e-15 1.1109974436146975e-15 5.163079704627206e-18
5.285722656980489 8.083408161856048e-24 1.134144297392179e-15 1.1289158869024816e-15 5.228410489697222e-18
5.305582063971359 8.182892298966011e-24 1.1524160669170318e-15 1.1471218701388968e-15 5.294196778135452e-18
5.3255160863122235 8.289504394596375e-24 1.1718167459189247e-15 1.166455886565819e-15 5.36085935310541e-18
5.365609099470188 8.553322523886847e-24 1.2182132290643963e-15 1.2127143905164224e-15 5.4988385479737525e-18
5.406003951863644 8.826758538874161e-24 1.26662203274338e-15 1.2609831989891166e-15 5.6388337542637274e-18
5.446702915881641 9.11027451295338e-24 1.3171480228978368e-15 1.3113671879175855e-15 5.780834980251678e-18
5.487708281020852 9.41593530986448e-24 1.3715887553270504e-15 1.365663424421629e-15 5.925330905420943e-18
5.529022354014368 9.838209247344742e-24 1.443889087453533e-15 1.437812865222691e-15 6.0762222308418585e-18
5.570647458961463 1.0284614132932343e-23 1.5207685057133716e-15 1.5145391653113442e-15 6.2293404020273836e-18
5.612585937458331 1.0756881755866322e-23 1.6025767270783729e-15 1.5961920486623456e-15 6.384678416027049e-18
5.654840148729818 1.1275033455628726e-23 1.6924178805067469e-15 1.6858750192046357e-15 6.542861302111402e-18
5.67608639626678 1.1626878071089089e-23 1.7517880056938471e-15 1.7451624634593062e-15 6.625542234540628e-18
5.686739436050992 1.1808119108308092e-23 1.7824341232794645e-15 1.7757670055883469e-15 6.667117691117462e-18
5.6974124697621304 1.1993018841643202e-23 1.813742421484327e-15 1.8070335717257873e-15 6.708849758539958e-18
5.718818669136295 1.2374146048994632e-23 1.8784126180170175e-15 1.8716198344542876e-15 6.792783562729444e-18
5.740305295436557 1.2793865387353483e-23 1.9494235161827563e-15 1.9425456342344333e-15 6.877881948322771e-18
5.7835210386641895 1.388092023509331e-23 2.1309831289652306e-15 2.1239289389528636e-15 7.054190012367157e-18
5.827062130521658 1.5131122852598897e-23 2.3404008070509857e-15 2.3331662422940157e-15 7.2345647569702e-18
5.8489554468988025 1.6007393571549199e-23 2.4852401963790063e-15 2.4779086646664845e-15 7.331531712522025e-18
5.870931020387893 1.6946890604647105e-23 2.6409880541784202e-15 2.6335587034983192e-15 7.429350680100145e-18
5.892989160043636 1.7954691073162567e-23 2.808555512664265e-15 2.8010274889659975e-15 7.528023698266925e-18
5.915130176081913 1.9100179185485217e-23 2.998963508682454e-15 2.9913333011525564e-15 7.630207529898098e-18
5.95966208400165 2.2301284591708535e-23 3.5279380356851113e-15 3.5200777138677564e-15 7.860321817355532e-18
6.004529249263818 2.6911021530565463e-23 4.289222558785308e-15 4.281104641695992e-15 8.117917089315323e-18
6.027089341400364 3.011421631422378e-23 4.817798453866688e-15 4.809533074259308e-15 8.265379607379516e-18
6.049734195844842 3.3897350054866206e-23 5.4434153676422135e-15 5.434994020480692e-15 8.421347161521956e-18
6.095279466722835 4.482242669443064e-23 7.252010451953623e-15 7.243210566843717e-15 8.799885109906035e-18
6.141167624020661 6.162704848134293e-23 1.0045967138133682e-14 1.0036681909724531e-14 9.2852284091496e-18
6.164241091010745 7.23588551594895e-23 1.1839701036372336e-14 1.1830114106375908e-14 9.586929996429893e-18
6.187401249150058 8.457701102413104e-23 1.389088918413226e-14 1.3880991604983778e-14 9.897579148482328e-18
6.1990139391386085 9.054285687348584e-23 1.4898626730899564e-14 1.4888570902280274e-14 1.0055828619286629e-17
6.204828454712694 9.368482599225844e-23 1.5430090261386966e-14 1.541995441321323e-14 1.0135848173743367e-17
6.210648424152782 9.597875206947065e-23 1.5822732177162524e-14 1.5812527450484413e-14 1.020472667811012e-17
6.233982942956859 1.0377087240090478e-22 1.7171590005024613e-14 1.716114212361228e-14 1.0447881412331535e-17
6.239830258556775 1.0476638686783195e-22 1.7352584793363084e-14 1.7342100922837863e-14 1.0483870525221733e-17
6.245683058788269 1.0485214248128746e-22 1.738307820136394e-14 1.7372558250425812e-14 1.051995093812937e-17
6.257405133728602 1.0463677611532461e-22 1.7379931389760195e-14 1.736934695805626e-14 1.0584431703941549e-17
6.269149208991335 1.0310290518955551e-22 1.7157299888462568e-14 1.714668538189768e-14 1.061450656488754e-17
6.280915325867298 9.925831566094963e-23 1.6548524336306067e-14 1.6537922406754066e-14 1.0601929552003715e-17
6.304513850009849 8.977814165369712e-23 1.5024210085003317e-14 1.5013672015009302e-14 1.053806999401194e-17
6.32820103803542 7.803060999793552e-23 1.3107344154230927e-14 1.3096911127482658e-14 1.0433026748269084e-17
6.3519772230701035 6.725851232458921e-23 1.1340328162541763e-14 1.1329987130546128e-14 1.0341031995636e-17
6.375842739491607 5.819436024088083e-23 9.84890453363612e-15 9.838642214175478e-15 1.0262319460643842e-17
6.399797922933955 5.093390714627095e-23 8.652521485895607e-15 8.64228853441158e-15 1.0232951484027145e-17
6.42384311029221 4.4896211905168855e-23 7.655508761030574e-15 7.645295360559614e-15 1.0213400470961379e-17
6.447978639727206 4.0498814539475296e-23 6.931629384565292e-15 6.921396771460759e-15 1.0232613104533031e-17
6.472204850670314 3.6835235969766945e-23 6.328272092797858e-15 6.318012423812285e-15 1.0259668985574727e-17
6.496522083828205 3.445631894905072e-23 5.941816439537761e-15 5.931498043751772e-15 1.0318395785988364e-17
