Dust emission spectrum from A.P. Jones, M. Kohler, N. Ysard, M. Bocchio, and L. Verstraete (2017), A&A, 602A, 46J 
inside the DustPedia framework.

lambda    nu*dP/dnu     j_nu    j_nu(carb.) j_nu(sil)
 (um)   (erg s-1 H-1) (Jy cm2 sr-1 H-1)
0.9927057738263894 5.072208612601761e-21 1.3365557789903371e-13 1.3365557080674875e-13 7.092284990893836e-21
1.0001793341362166 5.15741505961135e-21 1.3692394203127027e-13 1.3692393349709297e-13 8.534177311299002e-21
1.0077091589558085 5.242972622138532e-21 1.402433343612443e-13 1.4024332410574603e-13 1.0255498239995051e-20
1.0114953028030835 5.2858793877507954e-21 1.419222712067774e-13 1.4192225997013924e-13 1.1236638129692491e-20
1.0152956718711033 5.328869580546309e-21 1.4361409283416414e-13 1.4361408052664142e-13 1.2307522727807529e-20
1.0229392996569957 5.4150528242017985e-21 1.4703542947458438e-13 1.4703541472402018e-13 1.4750564214136983e-20
1.0267826658714554 5.4581481010898495e-21 1.4876243449750867e-13 1.4876241835669818e-13 1.6140810466360737e-20
1.0306404723013447 5.5013193425293846e-21 1.505024194460096e-13 1.5050240178982885e-13 1.7656180723111294e-20
1.03451277320114 5.544565324679432e-21 1.522554316779465e-13 1.5225541237058382e-13 1.9307362666661113e-20
1.0383996230291617 5.587884865561305e-21 1.5402151965448436e-13 1.5402149854858014e-13 2.11059041910249e-20
1.0403485208654093 5.6095718628616696e-21 1.549094825046131e-13 1.5490946044031854e-13 2.206429454899201e-20
1.0423010764483396 5.631276826100835e-21 1.5580073298824422e-13 1.5580070992396614e-13 2.3064278063238602e-20
1.0462171883269815 5.674740111163885e-21 1.5759312249213762e-13 1.5759309729618653e-13 2.519595107097534e-20
1.0471985131304309 5.685616952817452e-21 1.5804328471761792e-13 1.5804325895999195e-13 2.575762602930968e-20
1.048180758391296 5.6964981704303656e-21 1.5849427452729375e-13 1.5849424819602078e-13 2.6331273012161624e-20
1.0501480137395462 5.718273670584558e-21 1.5939874022887433e-13 1.5939871271341638e-13 2.7515457939037675e-20
1.0521189612883777 5.740066487549421e-21 1.603065263082304e-13 1.603064975577279e-13 2.8750502514691826e-20
1.0531058218030118 5.750954974677163e-21 1.607612647123522e-13 1.6076123532456721e-13 2.938778497173559e-20
1.0540936079674168 5.7618006448266915e-21 1.6121551712378122e-13 1.612154870850698e-13 3.0038711459393615e-20
1.058054026499678 5.80522397763604e-21 1.6304078500690076e-13 1.6304075222389604e-13 3.2783004746581994e-20
1.0590464539527713 5.816089903916946e-21 1.6349917085286e-13 1.6349913734720975e-13 3.3505650313050756e-20
1.06003981227728 5.826959840112136e-21 1.6395838599503938e-13 1.6395835175152548e-13 3.4243513936574014e-20
1.0620293250338977 5.8487116891624084e-21 1.6487930770639571e-13 1.648792719402772e-13 3.5766118481429785e-20
1.0660195594769086 5.892262933307648e-21 1.6673114193461734e-13 1.6673110292689157e-13 3.9007725755467093e-20
1.070024785945596 5.935876914440699e-21 1.6859634592209013e-13 1.6859630339306796e-13 4.252902217193658e-20
1.0740450607676866 5.9795528883653395e-21 1.7047497947094877e-13 1.7047493311811325e-13 4.635283548765852e-20
1.07808044048254 6.0232901632769094e-21 1.7236710400897082e-13 1.7236705350522832e-13 5.0503742507341365e-20
1.0861967418109137 6.110879415703171e-21 1.7619015708991328e-13 1.7619009719526095e-13 5.989465235956017e-20
1.0902777775684922 6.154578633594437e-21 1.7811681393105624e-13 1.7811674873732285e-13 6.519373342093946e-20
1.0943741465085532 6.198334320046782e-21 1.8005710156276593e-13 1.8005703062444004e-13 7.093832589990971e-20
1.1026131145906286 6.286013543648908e-21 1.8397884969840465e-13 1.839787657902862e-13 8.390811844447229e-20
1.1109141095355224 6.373914564708038e-21 1.8795598256593888e-13 1.879558834463784e-13 9.91195604926322e-20
1.1192775983109025 6.461967285993265e-21 1.9198707844263016e-13 1.9198696150631646e-13 1.1693631372158503e-19
1.1277040513999907 6.549856120933868e-21 1.9606331159793136e-13 1.9606317382100597e-13 1.37776925380549e-19
1.1361939428280308 6.6379548821786415e-21 2.0019637019898228e-13 2.001962080765305e-13 1.6212245171841159e-19
1.1447477501889525 6.726265136647041e-21 2.0438697410879955e-13 2.043867835837623e-13 1.9052503727374053e-19
1.1533659546722406 6.814820495115122e-21 2.0863683291219957e-13 2.0863660929431995e-13 2.2361787964183364e-19
1.1707974979042381 6.992935909386645e-21 2.1732553960103352e-13 2.1732523272109808e-13 3.0687993549104543e-19
1.1884924949847024 7.172075363328986e-21 2.2626153081377043e-13 2.262611117836688e-13 4.190301016936987e-19
1.2064549276569216 7.353448167413556e-21 2.354895122541315e-13 2.354889429185917e-13 5.693355397697773e-19
1.2246888378427687 7.53590410869811e-21 2.4497995821386365e-13 2.4497918845605183e-13 7.697578118427296e-19
1.2431983285522175 7.719306259888315e-21 2.54734708011482e-13 2.5473367232996854e-13 1.0356815134276716e-18
1.2619875648066055 7.903935502945195e-21 2.6476946402568893e-13 2.6476807723244884e-13 1.38679324014549e-18
1.3004222497298317 8.275808885609947e-21 2.856697649431684e-13 2.856673135440171e-13 2.4513991513414844e-18
1.3400274889804893 8.652746646226198e-21 3.077776846408049e-13 3.077734309281021e-13 4.253712702865092e-18
1.3808389325824078 9.03624208752852e-21 3.312076154435948e-13 3.3120036643293195e-13 7.249010662949411e-18
1.4228933163050095 9.429598334584315e-21 3.5615165454644026e-13 3.5613951614663523e-13 1.2138399805005607e-17
1.466228494730424 9.839672750990708e-21 3.829585263196268e-13 3.829385445536265e-13 1.998176600041048e-17
1.5108834753276823 1.0265833339342716e-20 4.1171303180663364e-13 4.1168068080966886e-13 3.2350996964722356e-17
1.5568984535646726 1.0707909699776977e-20 4.4252154543397685e-13 4.424699772021706e-13 5.1568231806347096e-17
1.6043148490894465 1.1168620429087206e-20 4.756183125690152e-13 4.755372292181872e-13 8.108335082806175e-17
1.6531753430134553 1.1650850868807416e-20 5.112649206391469e-13 5.111393122764455e-13 1.2560836270145753e-16
1.7035239163302658 1.2157954306234347e-20 5.497663764830668e-13 5.495746227388376e-13 1.9175374422921441e-16
1.755405889504358 1.2699214931125644e-20 5.917303674699323e-13 5.914417491139404e-13 2.886183559919154e-16
1.8088679632656115 1.3274870904665577e-20 6.373919973491344e-13 6.369635362034792e-13 4.2846114565530996e-16
1.8639582606462262 1.3884933553185514e-20 6.869884283312501e-13 6.863608358892608e-13 6.275924419890513e-16
1.9207263702978936 1.4531374125175296e-20 7.40869329638401e-13 7.399619592257559e-13 9.073704126452817e-16
1.979223391128241 1.521705506367571e-20 7.994565409233966e-13 7.981611582523501e-13 1.2953826710463154e-15
2.039501978296691 1.5944508499938193e-20 8.631866209484695e-13 8.613599058646905e-13 1.8267150837792014e-15
2.1016163906111602 1.672105028211529e-20 9.327954795624076e-13 9.302499398249577e-13 2.5455397374500754e-15
2.1656225393682647 1.7550386991901944e-20 1.0088785607679888e-12 1.0053720736189947e-12 3.50648714899431e-15
2.231578038680979 1.8430975465526567e-20 1.0917666726203272e-12 1.0869904936720462e-12 4.77617894828076e-15
2.299542257339062 1.936387271161518e-20 1.1819607282707391e-12 1.1755259280473394e-12 6.434800223399655e-15
2.369576372248914 2.0351919146065006e-20 1.2801047596964794e-12 1.2715270141422542e-12 8.577745554224735e-15
2.4417434235010123 2.1398516750593454e-20 1.3869254923586057e-12 1.3756087227688224e-12 1.1316769589783038e-14
2.5161083711144245 2.2510700083980815e-20 1.5034458045197335e-12 1.4886642579229791e-12 1.4781546596754216e-14
2.5927381535095444 2.3700115995253903e-20 1.63109239654356e-12 1.6119719517674836e-12 1.912044477607657e-14
2.6717017477616296 2.4976649324728313e-20 1.771297802954142e-12 1.7467978676464764e-12 2.4499935307665408e-14
2.753070231689431 2.6354709854120785e-20 1.925949799406169e-12 1.8948453317264723e-12 3.110446767969673e-14
2.836916847834745 2.787367936043929e-20 2.0989898546297396e-12 2.0598528375943886e-12 3.9137017035351165e-14
2.9233170693905177 2.961948877750064e-20 2.298385716143734e-12 2.2495782398256e-12 4.8807476318133665e-14
2.967498994190263 3.065644086239244e-20 2.4148032206023815e-12 2.3605855260526463e-12 5.421769454973534e-14
3.0123486681368425 3.1762600999990776e-20 2.5397486053002058e-12 2.4795989796202083e-12 6.014962567999725e-14
3.0578761833420214 3.345405123507163e-20 2.715426469614587e-12 2.6487619594535637e-12 6.666451016102397e-14
3.1040917844459814 3.540447898185192e-20 2.9171730655358893e-12 2.843435262961583e-12 7.373780257430579e-14
3.127460860933648 3.711225763568047e-20 3.0809077228199937e-12 3.0033891569411917e-12 7.751856587880143e-14
3.1510058709225794 3.924869254763042e-20 3.282795576156063e-12 3.2013407945689028e-12 8.145478158715953e-14
3.162844764501044 4.1128807355404117e-20 3.452974936337647e-12 3.3694849549924635e-12 8.348998134518333e-14
3.1747281389236908 4.3246440475435565e-20 3.644402549506705e-12 3.558837250921158e-12 8.556529858554677e-14
3.1986289994194426 4.892991412172537e-20 4.154394713042799e-12 4.064545693507597e-12 8.984901953520259e-14
3.2227097969389145 6.190498542362708e-20 5.2956132245070445e-12 5.201229791429732e-12 9.4383433077313e-14
3.2348180950136065 7.401278662604693e-20 6.3551536174593764e-12 6.258351555632452e-12 9.68020618269243e-14
3.240889293275058 8.303976484623968e-20 7.143642950663871e-12 7.045565118558178e-12 9.807783210569198e-14
3.2469718861334385 9.349580159501061e-20 8.058237641163843e-12 7.958839767546798e-12 9.939787361704399e-14
3.2714166318528037 1.482689606759987e-19 1.2875245941476719e-11 1.2770396883546159e-11 1.0484905793055861e-13
3.2744851364798273 1.5169978519744877e-19 1.3185524872466518e-11 1.308003449934903e-11 1.0549037311748877e-13
3.2775565192852394 1.5522153970939747e-19 1.3504285459090203e-11 1.339815066546459e-11 1.0613479362561211e-13
3.283707930232385 1.518892395469005e-19 1.3239176211598806e-11 1.3131891200249773e-11 1.0728501134902978e-13
3.2898708863219004 1.4122260299687075e-19 1.2332539046851813e-11 1.2224209308382546e-11 1.083297384692649e-13
3.29141343181113 1.3870200982641866e-19 1.2118102574939206e-11 1.2009510551793031e-11 1.0859202314617359e-13
3.292184975758714 1.3746271203652153e-19 1.2012642973568579e-11 1.1903919642498237e-11 1.0872333107034488e-13
3.295272960557952 1.2973031144890915e-19 1.1347554794677626e-11 1.1238321085139922e-11 1.0923370953770278e-13
3.3076538914384823 1.0274181941042323e-19 9.02062739957456e-12 8.909344779221751e-12 1.1128262035280806e-13
3.310756385682612 9.719268912587558e-20 8.541423524120281e-12 8.429624667512916e-12 1.1179885660736425e-13
3.313861789986515 9.205082723838205e-20 8.097137613346823e-12 7.984820915326148e-12 1.1231669802067518e-13
3.3200813396944477 8.488340550011663e-20 7.480677837177878e-12 7.367246364605282e-12 1.1343147257259441e-13
3.345076488085796 7.24732289720006e-20 6.435067356863981e-12 6.316665456200009e-12 1.184019006639703e-13
3.3482140837626964 7.300690790979102e-20 6.488534331876475e-12 6.369459000240233e-12 1.1907533163623977e-13
3.3513546224236106 7.354524760900214e-20 6.542510563242209e-12 6.4227588766482835e-12 1.1975168659392498e-13
3.3576445397418455 7.72112102148599e-20 6.881522115981561e-12 6.760355966765743e-12 1.2116614921581723e-13
3.3702598118196083 9.041130310978143e-20 8.088268199210322e-12 7.964135339451111e-12 1.241328597592121e-13
3.382922481734668 9.363420767381227e-20 8.40806420084631e-12 8.281051049610053e-12 1.2701315123625748e-13
3.389271646505754 9.52941330527882e-20 8.573180646556507e-12 8.444708222126861e-12 1.2847242442964715e-13
3.395632727569191 9.711858073092811e-20 8.753716369534328e-12 8.623740074984437e-12 1.2997629454989233e-13
3.421196662673239 1.0593871252658444e-19 9.620600116126024e-12 9.484402068837508e-12 1.3619804728851485e-13
3.4276182099114902 1.0442510396219989e-19 9.500944710918741e-12 9.363361786950703e-12 1.3758292396803807e-13
3.4340518103208963 9.740141493421463e-20 8.878539722729228e-12 8.73964870296473e-12 1.3889101976449896e-13
3.4469541582030403 8.734193175856515e-20 7.991489511268736e-12 7.850091328750905e-12 1.4139818251782904e-13
3.472904465399547 8.470203464388052e-20 7.808293196268379e-12 7.661114209520507e-12 1.4717898674786831e-13
3.4990501388274233 8.062748222343167e-20 7.488635577923376e-12 7.335549007394705e-12 1.530865705286731e-13
3.5253949054701885 6.573961827939715e-20 6.151830821367116e-12 5.9930179060225056e-12 1.5881291534461192e-13
3.5519380250092896 5.1574155730972015e-20 4.862582019622362e-12 4.698023966967565e-12 1.6455805265479825e-13
3.578680990867387 4.618394188320922e-20 4.38715943461069e-12 4.2163059093183725e-12 1.7085352529231814e-13
3.605625307711299 4.424829243793149e-20 4.23493298352287e-12 4.057455445852973e-12 1.7747753766989687e-13
3.660119384959845 4.3337123724241047e-20 4.210413682242589e-12 4.019048551666482e-12 1.913651305761066e-13
3.715437065384467 4.2877902386257724e-20 4.228758401412932e-12 4.022795293824819e-12 2.0596310758811253e-13
3.8285932144167436 4.3768731892752677e-20 4.448080335994076e-12 4.210891056808363e-12 2.3718927918571293e-13
3.94519561050918 4.51244296759914e-20 4.725521029847172e-12 4.454504166798181e-12 2.710168630489916e-13
4.06534921144712 4.664646973405243e-20 5.03368542891002e-12 4.7263333152832515e-12 3.0735211362676833e-13
4.189162171576248 4.8241970249469415e-20 5.364406038748242e-12 5.0181985867996666e-12 3.4620745194857427e-13
4.316745939156006 4.986628490380656e-20 5.713903956421264e-12 5.3265304558973775e-12 3.8737350052388654e-13
4.448215356677963 5.149245349877678e-20 6.079933422440877e-12 5.6497289547811296e-12 4.302044676597468e-13
4.58368876423945 5.3110151859114594e-20 6.461927741006645e-12 5.987235291148737e-12 4.746924498579088e-13
4.723288106065518 5.471871088006174e-20 6.860404566442204e-12 6.3393454873522455e-12 5.210590790899577e-13
4.867139040275056 5.631335478082469e-20 7.275361651257857e-12 6.707408460789056e-12 5.679531904688004e-13
4.940699165968905 5.7127892171917e-20 7.492142764242776e-12 6.900413463411729e-12 5.917293008310481e-13
5.015371051989984 5.791817062993271e-20 7.710585158182607e-12 7.09494552561029e-12 6.156396325723172e-13
5.091171501069577 5.876182250079048e-20 7.941132034688042e-12 7.300910667115576e-12 6.402213675724673e-13
5.129500256944802 5.917308595863616e-20 8.056913627149415e-12 7.404383123962355e-12 6.5253050318706e-13
5.168117569889187 5.958452993207531e-20 8.174013214012182e-12 7.509031654753909e-12 6.649815592582743e-13
5.20702561229733 6.005251126446676e-20 8.30023369671269e-12 7.621593021489597e-12 6.78640675223091e-13
5.246226572918644 6.051494408423444e-20 8.427118720448093e-12 7.73477342683167e-12 6.923452936164248e-13
5.265937586045735 6.074406607819042e-20 8.4908075952547e-12 7.791595079725512e-12 6.992125155291887e-13
5.285722656980489 6.097178584392764e-20 8.554659350620969e-12 7.84857083002926e-12 7.0608852059171e-13
5.305582063971359 6.119809979513308e-20 8.61867306717637e-12 7.905700634215805e-12 7.12972432960564e-13
5.3255160863122235 6.143406450802907e-20 8.684411290896867e-12 7.964487740012623e-12 7.199235508842442e-13
5.365609099470188 6.198729884517889e-20 8.828586467571869e-12 8.09427650535242e-12 7.343099622194461e-13
5.406003951863644 6.253926253845644e-20 8.974257933290559e-12 8.22551898974091e-12 7.487389435496489e-13
5.446702915881641 6.30902282940532e-20 9.12147810074563e-12 8.35827463480298e-12 7.632034659426518e-13
5.487708281020852 6.366130011970788e-20 9.27333509844904e-12 8.49557083149532e-12 7.777642669537211e-13
5.529022354014368 6.441677691594313e-20 9.454025514141387e-12 8.661083893738027e-12 7.929416204033622e-13
5.570647458961463 6.51853369527731e-20 9.638845579501286e-12 8.830685680887265e-12 8.081598986140226e-13
5.612585937458331 6.596853862344001e-20 9.828093969671179e-12 9.004682023998857e-12 8.234119456723245e-13
5.654840148729818 6.679917816979026e-20 1.0026766127356461e-11 9.187992684746646e-12 8.387734426098142e-13
5.67608639626678 6.735895112869249e-20 1.0148777852652635e-11 9.301955401171442e-12 8.468224514811931e-13
5.686739436050992 6.764333710881663e-20 1.021075339512954e-11 9.35990206529035e-12 8.508513298391882e-13
5.6974124697621304 6.793083568440034e-20 1.0273396551322096e-11 9.41851357864974e-12 8.54882972672356e-13
5.718818669136295 6.851552273514281e-20 1.0400751851977752e-11 9.537797756641778e-12 8.629540953359758e-13
5.740305295436557 6.915238862623196e-20 1.0536869703306418e-11 9.665769196966218e-12 8.711005063402015e-13
5.7835210386641895 7.079070972914443e-20 1.086770945768406e-11 9.979779591230748e-12 8.879298664533131e-13
5.827062130521658 7.261944958255564e-20 1.1232386391035069e-11 1.0327415811293955e-11 9.049705797411106e-13
5.8489554468988025 7.391243735328448e-20 1.1475332289524648e-11 1.0561121276648092e-11 9.142110128765532e-13
5.870931020387893 7.52736341226212e-20 1.1730574838190467e-11 1.0807098892999192e-11 9.234759451912722e-13
5.892989160043636 7.670852770929211e-20 1.1999101376259098e-11 1.1066336915531788e-11 9.327644607273098e-13
5.915130176081913 7.832786843344284e-20 1.229844059909577e-11 1.1356035385650844e-11 9.424052134449283e-13
5.95966208400165 8.287332302153115e-20 1.3110094498322318e-11 1.2145498528587166e-11 9.645959697351564e-13
6.004529249263818 8.935160925806123e-20 1.4241337425937296e-11 1.325164469575988e-11 9.896927301774161e-13
6.027089341400364 9.384527321038697e-20 1.5013759862053817e-11 1.4009454969080716e-11 1.0043048929731028e-12
6.049734195844842 9.90925183707444e-20 1.591279956824364e-11 1.489299247044357e-11 1.019807097800069e-12
6.095279466722835 1.1420200388356796e-19 1.8477226399270106e-11 1.7418936798222085e-11 1.0582896010480244e-12
6.141167624020661 1.3717259870953107e-19 2.2360821308934413e-11 2.1252118743548167e-11 1.1087025653862508e-12
6.164241091010745 1.5179473624111764e-19 2.4837378811874847e-11 2.369681086362346e-11 1.1405679482513871e-12
6.187401249150058 1.6818779312201257e-19 2.7623085376179407e-11 2.6449840407754448e-11 1.173244968424956e-12
6.1990139391386085 1.7614028996985464e-19 2.898349492329471e-11 2.7793631061795533e-11 1.1898638614991783e-12
6.204828454712694 1.8030725496215084e-19 2.96969886999502e-11 2.8498735483199705e-11 1.1982532167505042e-12
6.210648424152782 1.8331428255092177e-19 3.02205721007134e-11 2.9015221063913055e-11 1.2053510368003368e-12
6.233982942956859 1.933544492878682e-19 3.1995522943966766e-11 3.0765636891652635e-11 1.2298860523141267e-12
6.239830258556775 1.9453681656853649e-19 3.222137086005539e-11 3.098823968456132e-11 1.2331311754940626e-12
6.245683058788269 1.9448614207457366e-19 3.224319252577259e-11 3.100681269347679e-11 1.2363798322957897e-12
6.257405133728602 1.938562549521083e-19 3.2199084639516755e-11 3.0957111732735594e-11 1.2419729067811589e-12
6.269149208991335 1.9143568537760104e-19 3.185671109207111e-11 3.0613133975339514e-11 1.2435771167315896e-12
6.280915325867298 1.858959243401872e-19 3.099290177834424e-11 2.975264687789876e-11 1.2402549004454776e-12
6.304513850009849 1.7245519122454813e-19 2.8860065217225765e-11 2.7630902909326617e-11 1.2291623078991527e-12
6.32820103803542 1.561394313788237e-19 2.622782601830632e-11 2.5014488051852846e-11 1.2133379664534742e-12
6.3519772230701035 1.4127595134127686e-19 2.3820265930854376e-11 2.2621237195499603e-11 1.199028735354778e-12
6.375842739491607 1.2872835800022292e-19 2.1786188618073202e-11 2.0599910104968536e-11 1.1862785131046592e-12
6.399797922933955 1.1879398879083717e-19 2.018041807505856e-11 1.900129355069308e-11 1.1791245243654809e-12
6.42384311029221 1.1049054328586936e-19 1.884037174277988e-11 1.7667281345704953e-11 1.1730903970749268e-12
6.447978639727206 1.0446461377903045e-19 1.7879782278866018e-11 1.670837484627917e-11 1.1714074325868494e-12
6.472204850670314 9.941631925481103e-20 1.7079665764195825e-11 1.59090815287262e-11 1.1705842354696277e-12
6.496522083828205 9.611937695984893e-20 1.6575296247479503e-11 1.540202117334234e-11 1.1732750741371634e-12
