Dust emission spectrum from A.P. Jones, M. Kohler, N. Ysard, M. Bocchio, and L. Verstraete (2017), A&A, 602A, 46J 
inside the DustPedia framework.

lambda    nu*dP/dnu     j_nu    j_nu(carb.) j_nu(sil)
 (um)   (erg s-1 H-1) (Jy cm2 sr-1 H-1)
0.9927057738263894 1.118258633005932e-19 2.9466750137929726e-12 2.9466748604689408e-12 1.5332403136194954e-19
1.0001793341362166 1.1369927810959617e-19 3.0185961736515347e-12 3.018595989201394e-12 1.8445014156958694e-19
1.0077091589558085 1.155809237392937e-19 3.09165340007815e-12 3.091653178481324e-12 2.215968261228476e-19
1.0114953028030835 1.1652476220246144e-19 3.1286107174382323e-12 3.1286104746729876e-12 2.4276524472642097e-19
1.0152956718711033 1.1747057488197988e-19 3.1658553078444366e-12 3.1658550419781773e-12 2.658662590034927e-19
1.0229392996569957 1.1936709367372044e-19 3.241185719372099e-12 3.2411854008176955e-12 3.1855440460314684e-19
1.0267826658714554 1.2031565148080007e-19 3.2792164834925876e-12 3.2792161349624086e-12 3.485301793232673e-19
1.0306404723013447 1.2126603641048237e-19 3.317537256074679e-12 3.3175368748762564e-12 3.811984221252223e-19
1.03451277320114 1.2221822587113269e-19 3.3561492469200822e-12 3.356148830131524e-12 4.167885579685224e-19
1.0383996230291617 1.231721982319764e-19 3.3950536933560702e-12 3.3950532378076478e-12 4.555484236954432e-19
1.0403485208654093 1.2364984650864704e-19 3.41461598187956e-12 3.414615505679733e-12 4.761998262488498e-19
1.0423010764483396 1.2412793284566964e-19 3.4342518613246015e-12 3.434251363578953e-12 4.977456471773124e-19
1.0462171883269815 1.2508541007068345e-19 3.473745046485563e-12 3.473744502816442e-12 5.436691217355515e-19
1.0471985131304309 1.2532504945578024e-19 3.4836645939671286e-12 3.483664038198905e-12 5.557682230295026e-19
1.048180758391296 1.255647963049495e-19 3.493602683807562e-12 3.4936021156828795e-12 5.681246826868868e-19
1.0501480137395462 1.260446112934893e-19 3.5135345753339016e-12 3.513533981703319e-12 5.936305818045979e-19
1.0521189612883777 1.2652485287384167e-19 3.5335408918799306e-12 3.5335402716503003e-12 6.202296309472958e-19
1.0531058218030118 1.2676481844499836e-19 3.5435632210620174e-12 3.543562587108174e-12 6.339538442220427e-19
1.0540936079674168 1.2700385946540219e-19 3.553575373839876e-12 3.5535747258685745e-12 6.479713022470443e-19
1.058054026499678 1.2796103611653006e-19 3.593809275767352e-12 3.5938085687052416e-12 7.070621100339747e-19
1.0590464539527713 1.2820058224150407e-19 3.603914183861475e-12 3.603913461240867e-12 7.226206074789827e-19
1.06003981227728 1.2844022869457448e-19 3.6140377094465978e-12 3.6140369709405486e-12 7.385060496509701e-19
1.0620293250338977 1.2891982170670296e-19 3.6343407031023e-12 3.634339931818322e-12 7.712839786151726e-19
1.0660195594769086 1.2988020225630688e-19 3.675171098438565e-12 3.6751702573800886e-12 8.410584760712541e-19
1.070024785945596 1.3084216493158214e-19 3.716301941223579e-12 3.716301024383885e-12 9.168396936628277e-19
1.0740450607676866 1.3180569806520764e-19 3.757734748954275e-12 3.757733749837698e-12 9.991165790814655e-19
1.07808044048254 1.3277079117659043e-19 3.79947107838454e-12 3.799469989969117e-12 1.0884154233134839e-18
1.0861967418109137 1.3470415979653187e-19 3.883818589878809e-12 3.883817299491734e-12 1.2903870749608173e-18
1.0902777775684922 1.3566909764384785e-19 3.926336612115163e-12 3.926335207790916e-12 1.4043242479786793e-18
1.0943741465085532 1.3663550917651147e-19 3.9691621139741425e-12 3.96916058615646e-12 1.52781768329361e-18
1.1026131145906286 1.3857273869769868e-19 4.055742624181679e-12 4.0557408176268734e-12 1.806554805980483e-18
1.1109141095355224 1.4051583237414993e-19 4.143574732894757e-12 4.14357259954973e-12 2.133345028679969e-18
1.1192775983109025 1.424632931941141e-19 4.2326292033293214e-12 4.232626687368929e-12 2.5159603917716688e-18
1.1277040513999907 1.444082432351548e-19 4.322714555550752e-12 4.3227115922091445e-12 2.9633416075258394e-18
1.1361939428280308 1.4635891899932267e-19 4.4140891057539904e-12 4.414085619994056e-12 3.4857599339322504e-18
1.1447477501889525 1.4831539575651957e-19 4.506770746705228e-12 4.506766651706527e-12 4.094998701171775e-18
1.1533659546722406 1.5027843956647286e-19 4.600798760379767e-12 4.600793955815334e-12 4.804564433692862e-18
1.1707974979042381 1.542301992483433e-19 4.793145784366417e-12 4.793139195618304e-12 6.588748111654193e-18
1.1884924949847024 1.5820970999498134e-19 4.991131487002633e-12 4.991122496980371e-12 8.990022263545607e-18
1.2064549276569216 1.6224366477842114e-19 5.195750430975258e-12 5.195738225364108e-12 1.2205611149800415e-17
1.2246888378427687 1.6630732444089903e-19 5.4063800181806486e-12 5.406363528358474e-12 1.6489822175147747e-17
1.2431983285522175 1.7039790464966783e-19 5.623077906916664e-12 5.623055737518905e-12 2.216939775926864e-17
1.2619875648066055 1.7452199274922704e-19 5.846213505119034e-12 5.84618384310162e-12 2.966201741448426e-17
1.3004222497298317 1.8284848046418597e-19 6.31168302173398e-12 6.311630672200278e-12 5.2349533704686764e-17
1.3400274889804893 1.9131569262885724e-19 6.8050878316704935e-12 6.804997141340076e-12 9.069033041848991e-17
1.3808389325824078 1.999580269777724e-19 7.329111002406505e-12 7.32895670773002e-12 1.542946764839485e-16
1.4228933163050095 2.0884861857520115e-19 7.888117649984216e-12 7.88785972157425e-12 2.579284099652398e-16
1.466228494730424 2.181373123462405e-19 8.48987011920995e-12 8.489446257733042e-12 4.238614769074581e-16
1.5108834753276823 2.2780935613106523e-19 9.136333854864932e-12 9.13564881259681e-12 6.85042268126484e-16
1.5568984535646726 2.378584520276084e-19 9.829882090617836e-12 9.828792054571684e-12 1.0900360461505645e-15
1.6043148490894465 2.4833962062354503e-19 1.0575600814348137e-11 1.0573889961035128e-11 1.7108533130095037e-15
1.6531753430134553 2.59309716025963e-19 1.1379079766604569e-11 1.1376434242575993e-11 2.645524028573417e-15
1.7035239163302658 2.708330341080808e-19 1.2246706316141048e-11 1.2242675079977598e-11 4.031236163444607e-15
1.755405889504358 2.831010292356675e-19 1.3191325366905091e-11 1.3185269047468174e-11 6.0563194369170155e-15
1.8088679632656115 2.9610479775694996e-19 1.4217451139252225e-11 1.420847735003407e-11 8.973789218150458e-15
1.8639582606462262 3.0982683324074487e-19 1.532938190936287e-11 1.5316262602653462e-11 1.3119306709411299e-14
1.9207263702978936 3.242896606738408e-19 1.653362314138304e-11 1.6514692055556633e-11 1.893108582641317e-14
1.979223391128241 3.3953215416442587e-19 1.7837958814285462e-11 1.7810985421818612e-11 2.6973392466848646e-14
2.039501978296691 3.5558223289778606e-19 1.9250127784468328e-11 1.9212166277248046e-11 3.796150722028088e-14
2.1016163906111602 3.7256961181901957e-19 2.0784056256251995e-11 2.073126330520818e-11 5.279295104381236e-14
2.1656225393682647 3.9054164865749347e-19 2.2450165719954336e-11 2.2377591953574883e-11 7.257376637946328e-14
2.231578038680979 4.094275205791706e-19 2.425261336048016e-11 2.4153965665206037e-11 9.864769527412e-14
2.299542257339062 4.2921201532482016e-19 2.619887838405235e-11 2.6066252719136347e-11 1.3262566491600495e-13
2.369576372248914 4.499154690210722e-19 2.8298998694985717e-11 2.8122582451935074e-11 1.764162430506445e-13
2.4417434235010123 4.715690807687694e-19 3.056432308599998e-11 3.0332077725461e-11 2.322453605389882e-13
2.5161083711144245 4.942803485509576e-19 3.301202155033437e-11 3.270933762865235e-11 3.026839216820139e-13
2.5927381535095444 5.182532688267843e-19 3.566729236415948e-11 3.5276633676352805e-11 3.9065868780667724e-13
2.6717017477616296 5.436480559115885e-19 3.855451523928387e-11 3.805508011571187e-11 4.994351235719944e-13
2.753070231689431 5.707170160087202e-19 4.17068648671849e-11 4.1074255570397785e-11 6.326092967871305e-13
2.836916847834745 6.002328391736119e-19 4.519972492864178e-11 4.440561133168314e-11 7.941135969586381e-13
2.9233170693905177 6.339250671157444e-19 4.9190731491322855e-11 4.820276374315873e-11 9.879677481641257e-13
2.967498994190263 6.539554700621451e-19 5.151197369339284e-11 5.0415911526591014e-11 1.0960621668018048e-12
3.0123486681368425 6.752595483674316e-19 5.3993987966612975e-11 5.2779555390581346e-11 1.214432576031629e-12
3.0578761833420214 7.084820096937975e-19 5.750666156544365e-11 5.616237165094415e-11 1.344289914499507e-12
3.1040917844459814 7.468105878644444e-19 6.153390177248203e-11 6.004885307830083e-11 1.4850486941812053e-12
3.127460860933648 7.809824110543568e-19 6.483396308638038e-11 6.327376735272198e-11 1.5601957336584235e-12
3.1510058709225794 8.2387246176162e-19 6.890942595108527e-11 6.727105881246757e-11 1.6383671386177013e-12
3.162844764501044 8.62015732742577e-19 7.237065481058135e-11 7.069189457538978e-11 1.6787602351915602e-12
3.1747281389236908 9.049647181692667e-19 7.626190016685933e-11 7.454196814825777e-11 1.7199320186015644e-12
3.1986289994194426 1.0203940738778624e-18 8.663656623619914e-11 8.48317037278194e-11 1.8048625083797296e-12
3.2227097969389145 1.2851988412303038e-18 1.0994132270876415e-10 1.0804662525088061e-10 1.894697457883521e-12
3.2348180950136065 1.5326470390211445e-18 1.3160168422703069e-10 1.2965908543640922e-10 1.9425987906214807e-12
3.240889293275058 1.7172724944825886e-18 1.4773141003343075e-10 1.4576354411518524e-10 1.9678659182455027e-12
3.2469718861334385 1.931185600187476e-18 1.6644546845978126e-10 1.64451458580062e-10 1.994009879719266e-12
3.2714166318528037 3.0505450405778834e-18 2.649004719121247e-10 2.6279855317982307e-10 2.1019187323017382e-12
3.2744851364798273 3.1204942249828524e-18 2.712288231940852e-10 2.691142251208211e-10 2.114598073264052e-12
3.2775565192852394 3.1922883062889506e-18 2.7772931924622324e-10 2.7560198185068984e-10 2.1273373955333764e-12
3.283707930232385 3.123548165761223e-18 2.7225894800243557e-10 2.701089047494324e-10 2.150043253003164e-12
3.2898708863219004 2.9047296262802993e-18 2.536611758773688e-10 2.514905389694503e-10 2.170636907918472e-12
3.29141343181113 2.853011540902552e-18 2.492616115902693e-10 2.470858052600794e-10 2.175806330189887e-12
3.292184975758714 2.827581862028898e-18 2.4709778298326466e-10 2.449193887884705e-10 2.178394194794136e-12
3.295272960557952 2.6692061268522322e-18 2.33476374522337e-10 2.3128792724684867e-10 2.1884472754883145e-12
3.3076538914384823 2.1161147372500306e-18 1.8579272480300836e-10 1.8356393394561478e-10 2.228790857393577e-12
3.310756385682612 2.0022934788684827e-18 1.7596422916594366e-10 1.7372527641879624e-10 2.2389527471474114e-12
3.313861789986515 1.8967864859691904e-18 1.6684848643733958e-10 1.6459934138589967e-10 2.2491450514399093e-12
3.3200813396944477 1.7496334104865045e-18 1.541931994822516e-10 1.519220989551964e-10 2.2711005270552043e-12
3.345076488085796 1.4942636863869615e-18 1.3267916453026962e-10 1.3031013152326628e-10 2.3690330070033745e-12
3.3482140837626964 1.5049972285432203e-18 1.337575644053815e-10 1.3137526088674053e-10 2.3823035186409792e-12
3.3513546224236106 1.5158235577494918e-18 1.3484612481437256e-10 1.324504947169865e-10 2.3956300973860313e-12
3.3576445397418455 1.590434489006749e-18 1.417489776376203e-10 1.393254721037759e-10 2.423505533844417e-12
3.3702598118196083 1.85942738742501e-18 1.6634587589329124e-10 1.638639060651149e-10 2.4819698281763534e-12
3.382922481734668 1.924532002707063e-18 1.7281706159905917e-10 1.702783838853451e-10 2.5386777137140945e-12
3.389271646505754 1.9580546314629537e-18 1.7615728831972795e-10 1.7358989024384842e-10 2.5673980758795994e-12
3.395632727569191 1.9949830510510973e-18 1.7981642296970003e-10 1.7721942660542779e-10 2.596996364272214e-12
3.421196662673239 2.1739183167576807e-18 1.9741979406630168e-10 1.9470040078977102e-10 2.719393276530671e-12
3.4276182099114902 2.1425522463641072e-18 1.9493655893633344e-10 1.921899804388136e-10 2.746578497519814e-12
3.4340518103208963 1.998575562021096e-18 1.8217838548100013e-10 1.794061575845702e-10 2.7722278964298624e-12
3.4469541582030403 1.7920446238478715e-18 1.6396598434292586e-10 1.6114465330502633e-10 2.8213310378995366e-12
3.472904465399547 1.7361840632160282e-18 1.6005086849774667e-10 1.5711622732503279e-10 2.934641172713911e-12
3.4990501388274233 1.6511327495058619e-18 1.5335628883411477e-10 1.503059778946152e-10 3.05031093949961e-12
3.5253949054701885 1.3458318319788194e-18 1.259412506649589e-10 1.227790230695986e-10 3.162227595360355e-12
3.5519380250092896 1.0552423479215583e-18 9.949173950832112e-11 9.621739115835354e-11 3.274348349967583e-12
3.578680990867387 9.437511480171361e-19 8.964992125224681e-11 8.625272809710869e-11 3.3971931551381364e-12
3.605625307711299 9.027440333813816e-19 8.640018115971399e-11 8.287382669723303e-11 3.5263544624809647e-12
3.660119384959845 8.810154296098331e-19 8.559496109385686e-11 8.17982494547624e-11 3.796711639094428e-12
3.715437065384467 8.683531576933573e-19 8.563981693671003e-11 8.155954754205509e-11 4.080269394654942e-12
3.8285932144167436 8.795138933812008e-19 8.938226640809511e-11 8.469762961950437e-11 4.6846367885907615e-12
3.94519561050918 8.996035138702989e-19 9.42082892535774e-11 8.887217433317616e-11 5.336114920401225e-12
4.06534921144712 9.225591773855675e-19 9.955464400605797e-11 9.352245944667909e-11 6.032184559378859e-12
4.189162171576248 9.465194845335236e-19 1.0525098399521424e-10 9.847857908483167e-11 6.772404910382548e-12
4.316745939156006 9.70610699084874e-19 1.112169539869315e-10 1.0366494768500107e-10 7.552006301930441e-12
4.448215356677963 9.943288339327365e-19 1.1740464280786153e-10 1.09046772803675e-10 8.357870004186531e-12
4.58368876423945 1.0175036406711317e-18 1.2379996614714356e-10 1.1461075143527215e-10 9.18921471187144e-12
4.723288106065518 1.0401595030463813e-18 1.3041087572711465e-10 1.2036123826336716e-10 1.0049637463747497e-11
4.867139040275056 1.062247550792181e-18 1.3723627592877068e-10 1.2632367727661143e-10 1.0912598652159302e-11
4.940699165968905 1.0735322471668707e-18 1.4079036617679332e-10 1.2944298198526527e-10 1.1347384191528036e-11
5.015371051989984 1.0842785416573268e-18 1.4434886219141239e-10 1.3256615620525977e-10 1.1782705986152617e-11
5.091171501069577 1.0960155634237582e-18 1.4811665007673963e-10 1.3588797559519136e-10 1.2228674481548289e-11
5.129500256944802 1.1016561790939681e-18 1.4999975982290517e-10 1.3754856194185785e-10 1.2451197881047277e-11
5.168117569889187 1.10728754599164e-18 1.5190155973311626e-10 1.3922564048175933e-10 1.267591925135692e-11
5.20702561229733 1.114011159665409e-18 1.5397445954004622e-10 1.4105103259830808e-10 1.2923426941738164e-11
5.246226572918644 1.1206123545793732e-18 1.5605291378103602e-10 1.4288170298969887e-10 1.3171210791337189e-11
5.265937586045735 1.1238671003635609e-18 1.57094181010875e-10 1.437990178631114e-10 1.3295163147763609e-11
5.285722656980489 1.1270913352428615e-18 1.581367889521885e-10 1.447176563225471e-10 1.3419132629641441e-11
5.305582063971359 1.1302851193181325e-18 1.5918072536088997e-10 1.4563762358722586e-10 1.3543101773664157e-11
5.3255160863122235 1.1336639882800347e-18 1.6025643783695277e-10 1.46588229641982e-10 1.3668208194970732e-11
5.365609099470188 1.1419947888709083e-18 1.626494447555275e-10 1.4872220249579861e-10 1.3927242259728838e-11
5.406003951863644 1.1502857727951036e-18 1.6506368644353548e-10 1.50877233438071e-10 1.418645300546451e-11
5.446702915881641 1.1585431547002321e-18 1.6750020248956715e-10 1.5305450233738697e-10 1.4445700152180159e-11
5.487708281020852 1.1671769814405819e-18 1.7001888506427224e-10 1.553127515200567e-10 1.4706133544215554e-11
5.529022354014368 1.1793686795201774e-18 1.7308816306212033e-10 1.5811052826389722e-10 1.4977634798223117e-11
5.570647458961463 1.1917938576169367e-18 1.762285430002536e-10 1.6097931073507255e-10 1.52492322651811e-11
5.612585937458331 1.2044831922982047e-18 1.7944575165395686e-10 1.6392496801838038e-10 1.5520783635576445e-11
5.654840148729818 1.2180699631929272e-18 1.8283612137636453e-10 1.6704240789779338e-10 1.5793713478571136e-11
5.67608639626678 1.227642148584858e-18 1.8496528285806083e-10 1.6902840690562787e-10 1.593687595243293e-11
5.686739436050992 1.2325124644745436e-18 1.860476045250081e-10 1.7003913321092762e-10 1.6008471314080505e-11
5.6974124697621304 1.2374411012969169e-18 1.8714215737886639e-10 1.7106208430478808e-10 1.6080073074078306e-11
5.718818669136295 1.2474801068543734e-18 1.8936921902831895e-10 1.7314593231879951e-10 1.6223286709519483e-11
5.740305295436557 1.2585166155745713e-18 1.9176236513578835e-10 1.753946430589073e-10 1.6367722076881007e-11
5.7835210386641895 1.287578448291944e-18 1.976675828445836e-10 1.8100155014946699e-10 1.6666032695116642e-11
5.827062130521658 1.3202627051217964e-18 2.0421114352763616e-10 1.8724362175012766e-10 1.6967521777508553e-11
5.8489554468988025 1.343854025833701e-18 2.0864109001503355e-10 1.9150966809436573e-10 1.7131421920667844e-11
5.870931020387893 1.3687424771034036e-18 2.1330358563153908e-10 1.9600801851243923e-10 1.7295567119099802e-11
5.892989160043636 1.3950329440100004e-18 2.1821748139704515e-10 2.0075754270241937e-10 1.7459938694625718e-11
5.915130176081913 1.4248443610861415e-18 2.2371812342454493e-10 2.0608743466768594e-10 1.7630688756858965e-11
5.95966208400165 1.5094384445039717e-18 2.387846887919097e-10 2.207587860708643e-10 1.802590272104525e-11
6.004529249263818 1.6309292824901197e-18 2.5994623289549897e-10 2.4147209753011633e-10 1.847413536538252e-11
6.027089341400364 1.7156120024990109e-18 2.7447079368858937e-10 2.5573461848104975e-10 1.8736175207539596e-11
6.049734195844842 1.8146716872227962e-18 2.914095566014823e-10 2.723951369150108e-10 1.9014419686471554e-11
6.095279466722835 2.1007797794454095e-18 3.3989406735275955e-10 3.2018543823927484e-10 1.9708629113484646e-11
6.141167624020661 2.53666183595897e-18 4.135070893800226e-10 3.928847436111408e-10 2.062234576888182e-11
6.164241091010745 2.8141398330179257e-18 4.6046298305908774e-10 4.392610714521236e-10 2.1201911606964237e-11
6.187401249150058 3.125319712671225e-18 5.133010645329328e-10 4.915052170857475e-10 2.1795847447185363e-11
6.1990139391386085 3.2761178214273545e-18 5.390779376013617e-10 5.169800912685134e-10 2.2097846332848176e-11
6.204828454712694 3.3551445627405778e-18 5.525994513494297e-10 5.303491956414064e-10 2.2250255708023257e-11
6.210648424152782 3.4119899759714554e-18 5.624891178193593e-10 5.401103424364394e-10 2.2378775382919882e-11
6.233982942956859 3.601310404273223e-18 5.959304794518625e-10 5.731092601749089e-10 2.282121927695346e-11
6.239830258556775 3.623288291569654e-18 6.001296712616429e-10 5.772513195452564e-10 2.2878351716386585e-11
6.245683058788269 3.621731769899484e-18 6.004345270461461e-10 5.774989956159316e-10 2.293553143021447e-11
6.257405133728602 3.608540983707561e-18 5.99370479886087e-10 5.763373511447907e-10 2.303312874129636e-11
6.269149208991335 3.561207223728826e-18 5.926186094382166e-10 5.695616722285317e-10 2.305693720968475e-11
6.280915325867298 3.454435265206108e-18 5.759296404920505e-10 5.529399746620572e-10 2.2989665829993376e-11
6.304513850009849 3.196102843454766e-18 5.348620464719034e-10 5.120890629550543e-10 2.2772983516849087e-11
6.32820103803542 2.8832144765888894e-18 4.843135843242957e-10 4.61844645686618e-10 2.246893863767768e-11
6.3519772230701035 2.598289535384922e-18 4.380925919140623e-10 4.158996014868602e-10 2.2192990427202155e-11
6.375842739491607 2.357857706531066e-18 3.990475255574559e-10 3.7710152188320815e-10 2.1946003674247763e-11
6.399797922933955 2.1671873867102728e-18 3.6815623379573114e-10 3.463539907337924e-10 2.180224306193876e-11
6.42384311029221 2.0078181985570513e-18 3.423645148966455e-10 3.206853057970783e-10 2.1679209099567157e-11
6.447978639727206 1.891792153503875e-18 3.237922450282025e-10 3.021559300450523e-10 2.1636314983150087e-11
6.472204850670314 1.7945022757065013e-18 3.082944461421771e-10 2.8668520005888625e-10 2.1609246083290888e-11
