Dust emission spectrum from A.P. Jones, M. Kohler, N. Ysard, M. Bocchio, and L. Verstraete (2017), A&A, 602A, 46J 
inside the DustPedia framework.

lambda    nu*dP/dnu     j_nu    j_nu(carb.) j_nu(sil)
 (um)   (erg s-1 H-1) (Jy cm2 sr-1 H-1)
0.9927057738263894 2.7864961536732994e-26 7.342575634751019e-19 7.342575634383932e-19 3.6708408803018216e-29
1.0001793341362166 2.832272528979807e-26 7.519385488512814e-19 7.519385488070529e-19 4.422856024304107e-29
1.0077091589558085 2.8779757712761895e-26 7.69824577512322e-19 7.698245774591007e-19 5.322148436303523e-29
1.0114953028030835 2.9007943214008973e-26 7.788435720855823e-19 7.78843572027228e-19 5.835404449494713e-29
1.0152956718711033 2.92358783156748e-26 7.879127231492884e-19 7.879127230853273e-19 6.396109367079901e-29
1.0229392996569957 2.969068316521083e-26 8.061938622425334e-19 8.06193862165763e-19 7.677030935324281e-29
1.0267826658714554 2.991699843543156e-26 8.153911249173147e-19 8.153911248332452e-19 8.406939568592873e-29
1.0306404723013447 3.014296299593822e-26 8.246365240223297e-19 8.246365239302969e-19 9.203287611846391e-29
1.03451277320114 3.0368554988554705e-26 8.339296551592496e-19 8.339296550585311e-19 1.0071830197960547e-28
1.0383996230291617 3.0593752680509224e-26 8.432701090222183e-19 8.432701089120305e-19 1.10187936573929e-28
1.0403485208654093 3.070619690756526e-26 8.479579527499107e-19 8.4795795263467285e-19 1.152376663438036e-28
1.0423010764483396 3.081853446860373e-26 8.52657471495072e-19 8.526574713745629e-19 1.2050911685337546e-28
1.0462171883269815 3.104287888329053e-26 8.620913237486782e-19 8.620913236169237e-19 1.3175464084205248e-28
1.0471985131304309 3.1098894144453405e-26 8.644570013179211e-19 8.644570011832017e-19 1.3471953482187283e-28
1.048180758391296 3.115488040389957e-26 8.668255513944299e-19 8.668255512566814e-19 1.3774837587419318e-28
1.0501480137395462 3.1266764592655424e-26 8.715712423383478e-19 8.715712421943442e-19 1.4400318249116265e-28
1.0521189612883777 3.1378528805212356e-26 8.763283429446567e-19 8.76328342794127e-19 1.5052988589838447e-28
1.0531058218030118 3.1434278711574857e-26 8.787087402430971e-19 8.787087400891982e-19 1.5389891349017552e-28
1.0540936079674168 3.148971461662185e-26 8.810840462793699e-19 8.810840461220291e-19 1.5734090059138762e-28
1.058054026499678 3.171113024885226e-26 8.906129357190318e-19 8.906129355471706e-19 1.7186150548651125e-28
1.0590464539527713 3.176640053807895e-26 8.930020399887411e-19 8.930020398130534e-19 1.7568756653192637e-28
1.06003981227728 3.182163673316406e-26 8.953938832002711e-19 8.95393883020676e-19 1.7959519487336912e-28
1.0620293250338977 3.193200555260474e-26 9.001857586767528e-19 9.001857584890911e-19 1.876618082467111e-28
1.0660195594769086 3.2152319925271056e-26 9.09802070556666e-19 9.098020703518169e-19 2.0484885796902846e-28
1.070024785945596 3.2372052924364164e-26 9.194614227540069e-19 9.194614225304688e-19 2.2353814393276884e-28
1.0740450607676866 3.2591184270880836e-26 9.291633627528944e-19 9.2916336250904e-19 2.438542173795035e-28
1.07808044048254 3.280969385257e-26 9.389074342239075e-19 9.389074339579762e-19 2.6593135560650975e-28
1.0861967418109137 3.3244379366440915e-26 9.585089190073473e-19 9.585089186913885e-19 3.1595891129883143e-28
1.0902777775684922 3.3459631961814704e-26 9.683397345536127e-19 9.68339734209379e-19 3.4423324904040007e-28
1.0943741465085532 3.3674168723586596e-26 9.782100972344433e-19 9.78210096859525e-19 3.7491795938887934e-28
1.1026131145906286 3.410101845846797e-26 9.980675520293493e-19 9.980675515850378e-19 4.44311430671036e-28
1.1109141095355224 3.452477788635191e-26 1.0180774286542879e-18 1.0180774281284087e-18 5.258790754923833e-28
1.1192775983109025 3.494490311313944e-26 1.0382240513186354e-18 1.0382240506970031e-18 6.216317744248886e-28
1.1277040513999907 3.5359429580016483e-26 1.0584487249291565e-18 1.058448724195266e-18 7.338906927902235e-28
1.1361939428280308 3.577037639426945e-26 1.0788111160577456e-18 1.0788111151924145e-18 8.653311751948717e-28
1.1447477501889525 3.617760668512241e-26 1.0993071802335137e-18 1.099307179214481e-18 1.0190330825275607e-27
1.1533659546722406 3.658121079387846e-26 1.1199396916762725e-18 1.1199396904777331e-18 1.1985388986259866e-27
1.1707974979042381 3.737886167151028e-26 1.1616553315652895e-18 1.1616553299134476e-18 1.6518421155139416e-27
1.1884924949847024 3.81602900019309e-26 1.2038643202609428e-18 1.203864317995545e-18 2.2653978321712497e-27
1.2064549276569216 3.8931671476429664e-26 1.2467620792990758e-18 1.2467620762072901e-18 3.0917856505757728e-27
1.2246888378427687 3.968451455674274e-26 1.2900788780774231e-18 1.2900788738781209e-18 4.199302394989742e-27
1.2431983285522175 4.0417057371555856e-26 1.3337503347581334e-18 1.3337503290817733e-18 5.676360019638664e-27
1.2619875648066055 4.112903445995917e-26 1.3777582579968814e-18 1.3777582503600569e-18 7.63682455735692e-27
1.3004222497298317 4.247940298456941e-26 1.4663317185379498e-18 1.4663317049066955e-18 1.363125429203298e-26
1.3400274889804893 4.373040828792651e-26 1.5554880272757311e-18 1.5554880033841522e-18 2.3891578647119787e-26
1.3808389325824078 4.487749447080154e-26 1.644905900791625e-18 1.644905859654002e-18 4.113762286765185e-26
1.4228933163050095 4.592646007422919e-26 1.7346215779846167e-18 1.7346215083650707e-18 6.961954581502663e-26
1.466228494730424 4.6903038755969684e-26 1.825458941212246e-18 1.82545882535137e-18 1.1586087610755672e-25
1.5108834753276823 4.778809119557585e-26 1.916549710093204e-18 1.9165495204019832e-18 1.8969122166043268e-25
1.5568984535646726 4.856618650694982e-26 2.00707556483576e-18 2.0070752589832788e-18 3.0585248093531838e-25
1.6043148490894465 4.9238936353529764e-26 2.0968516183222962e-18 2.096851131779296e-18 4.865430005635699e-25
1.6531753430134553 4.980859311838289e-26 2.1857104424875573e-18 2.1857096797317443e-18 7.627558125246015e-25
1.7035239163302658 5.0282252928555044e-26 2.273695993392718e-18 2.273694814668639e-18 1.1787240781628748e-24
1.755405889504358 5.0700100173745146e-26 2.3624128790072666e-18 2.3624110825334874e-18 1.7964737787725208e-24
1.8088679632656115 5.1052402392206753e-26 2.451277527588141e-18 2.4512748263143984e-18 2.701273743314297e-24
1.8639582606462262 5.133263901954414e-26 2.5397981824725014e-18 2.539794173521962e-18 4.0089505392655184e-24
1.9207263702978936 5.154582924834157e-26 2.6280187704143662e-18 2.6280128958625177e-18 5.87455184930467e-24
1.979223391128241 5.170344157631276e-26 2.7163373191113007e-18 2.7163288161142893e-18 8.50299701127833e-24
2.039501978296691 5.18191670622718e-26 2.8053302312216155e-18 2.8053180698644974e-18 1.2161357118871987e-23
2.1016163906111602 5.193100859783775e-26 2.8970076192517478e-18 2.8969904247787147e-18 1.7194473033363937e-23
2.1656225393682647 5.206108784779646e-26 2.9927155112953303e-18 2.992691470585083e-18 2.404071024738359e-23
2.231578038680979 5.221118670497059e-26 3.0927518561924282e-18 3.0927186057047605e-18 3.3250487667760624e-23
2.299542257339062 5.239466564876832e-26 3.1981431653686236e-18 3.1980976581915146e-18 4.550717710958683e-23
2.369576372248914 5.264081039540538e-26 3.3110269089520827e-18 3.310965257970587e-18 6.165098149543948e-23
2.4417434235010123 5.298420052176731e-26 3.4341229933070587e-18 3.4340402912836965e-18 8.270202336246602e-23
2.5161083711144245 5.348388779001903e-26 3.572084671170674e-18 3.571974781692066e-18 1.0988947860806892e-22
2.5927381535095444 5.423638301650395e-26 3.732663248228803e-18 3.732518569495315e-18 1.4467873348903024e-22
2.6717017477616296 5.535698071635959e-26 3.925814749858532e-18 3.925625958679479e-18 1.8879117905271052e-22
2.753070231689431 5.701912948774173e-26 4.166844621211411e-18 4.166600389296295e-18 2.4423191511549745e-22
2.836916847834745 5.96151779003362e-26 4.489240619318821e-18 4.4889272933672395e-18 3.1332595158042727e-22
2.9233170693905177 6.400853329602075e-26 4.966875010707011e-18 4.9664763286479764e-18 3.9868205903496304e-22
2.967498994190263 6.773086885657946e-26 5.335150319087027e-18 5.334702615049015e-18 4.477040380139521e-22
3.0123486681368425 7.207731491429983e-26 5.76332712889067e-18 5.762825033265004e-18 5.020956256654884e-22
3.0578761833420214 8.177833409521631e-26 6.637852363014714e-18 6.637289855123679e-18 5.625078910328542e-22
3.1040917844459814 9.427754746435059e-26 7.76805449640313e-18 7.767425438697152e-18 6.290577059763931e-22
3.127460860933648 1.0748516409002187e-25 8.922978369689548e-18 8.922313356394469e-18 6.650132950792914e-22
3.1510058709225794 1.2508037891528212e-25 1.0461834214444484e-17 1.0461131483172805e-17 7.027312716775233e-22
3.162844764501044 1.4145038645289457e-25 1.1875487536911106e-17 1.1874765193492172e-17 7.223434189369106e-22
3.1747281389236908 1.6048846802492734e-25 1.3524456015488514e-17 1.3523713595823568e-17 7.4241966493986065e-22
3.1986289994194426 2.135910475352377e-25 1.8134949438623192e-17 1.8134165340029064e-17 7.84098594124823e-22
3.2227097969389145 3.387412624786002e-25 2.8977354521486355e-17 2.8976525998941924e-17 8.285225444341191e-22
3.2348180950136065 4.574168936562321e-25 3.927638397259597e-17 3.9275531672583294e-17 8.523000126721449e-22
3.240889293275058 5.461386974730249e-25 4.6982549426915803e-17 4.698168458107033e-17 8.648458454859345e-22
3.2469718861334385 6.487743037633205e-25 5.591670883630827e-17 5.59158310060321e-17 8.778302761728917e-22
3.2714166318528037 1.196250312967994e-24 1.0387890302062829e-16 1.0387797131738809e-16 9.317032402000112e-22
3.2744851364798273 1.2304717082889379e-24 1.0695081270809217e-16 1.0694987459932493e-16 9.38108767226053e-22
3.2775565192852394 1.2656759524476794e-24 1.1011390166956671e-16 1.1011295711762999e-16 9.445519367085053e-22
3.283707930232385 1.2318118642481306e-24 1.0736885890644923e-16 1.0736790272045511e-16 9.561859940861569e-22
3.2898708863219004 1.1244336326226316e-24 9.819335846839831e-17 9.819239159120301e-17 9.668771953097843e-22
3.29141343181113 1.0991115478656177e-24 9.602706186452714e-17 9.602609229973265e-17 9.695647944737405e-22
3.292184975758714 1.0866692284394784e-24 9.49622576058191e-17 9.496128669499912e-17 9.709108199971542e-22
3.295272960557952 1.0081312616977795e-24 8.818158689804973e-17 8.818061073210119e-17 9.761659485734218e-22
3.3076538914384823 7.360641088885137e-25 6.462568121320956e-17 6.462468388286381e-17 9.97330345746486e-22
3.310756385682612 6.806944285173919e-25 5.982033686655323e-17 5.981933418942699e-17 1.0026771262369945e-21
3.313861789986515 6.296083362269215e-25 5.5382721632011763e-17 5.5381713585711833e-17 1.0080462999338281e-21
3.3200813396944477 5.57966319158296e-25 4.9172936135478777e-17 4.9171916586448005e-17 1.0195490307921028e-21
3.345076488085796 4.301695400503777e-25 3.81957586871814e-17 3.8194687975850954e-17 1.0707113304486733e-21
3.3482140837626964 4.349628395690779e-25 3.865759280096759e-17 3.865651516088767e-17 1.0776400799198022e-21
3.3513546224236106 4.3980911899015725e-25 3.912497272564958e-17 3.912388811915186e-17 1.084606497726867e-21
3.3576445397418455 4.752207457572772e-25 4.2354498301498843e-17 4.235339914610256e-17 1.0991553962893946e-21
3.3702598118196083 6.058315976005383e-25 5.4198184036782036e-17 5.4197054344594286e-17 1.1296921877364905e-21
3.382922481734668 6.355762156529224e-25 5.707279164850901e-17 5.707163206647373e-17 1.1595820352750738e-21
3.389271646505754 6.509857613961639e-25 5.856623437346179e-17 5.856505959758192e-17 1.1747758798667184e-21
3.395632727569191 6.675887240887631e-25 6.01726497462222e-17 6.017145930839531e-17 1.190437826885803e-21
3.421196662673239 7.473011912547274e-25 6.786457713050084e-17 6.786332160558031e-17 1.255524920553603e-21
3.4276182099114902 7.3123353014693835e-25 6.653006870082539e-17 6.652879842180307e-17 1.2702790222981181e-21
3.4340518103208963 6.608316866041603e-25 6.023752718085192e-17 6.023624283646146e-17 1.2843443904523507e-21
3.4469541582030403 5.605725224656794e-25 5.129047804865644e-17 5.128916647918182e-17 1.3115694746101537e-21
3.472904465399547 5.324891702271301e-25 4.9087741309310877e-17 4.908636730445886e-17 1.3740048520272375e-21
3.4990501388274233 4.895304067537484e-25 4.546731113756702e-17 4.546587267791375e-17 1.4384596532748428e-21
3.5253949054701885 3.366082919025724e-25 3.1499380724316757e-17 3.14978787774717e-17 1.5019468450572526e-21
3.5519380250092896 1.929017707213161e-25 1.8187417100062897e-17 1.818585061603972e-17 1.5664840231769643e-21
3.578680990867387 1.3594639715915131e-25 1.2913980370197431e-17 1.2912342976858561e-17 1.6373933388686068e-21
3.605625307711299 1.1293164263930047e-25 1.0808506090205836e-17 1.0806793525699066e-17 1.712564506768338e-21
3.660119384959845 9.619335202537236e-26 9.345654965141518e-18 9.343782354146308e-18 1.8726109952113e-21
3.715437065384467 8.437645564879343e-26 8.321480899229739e-18 8.319436411874024e-18 2.0444873557157464e-21
3.8285932144167436 7.85448309450651e-26 7.982267315324552e-18 7.979842092144272e-18 2.4252231802803923e-21
3.94519561050918 7.765416123713201e-26 8.132099942671424e-18 8.129241748359489e-18 2.858194311934485e-21
4.06534921144712 7.884319587479391e-26 8.508078928723902e-18 8.504730741387541e-18 3.3481873363628605e-21
4.189162171576248 8.128739381401922e-26 9.038987918509135e-18 9.035086038666364e-18 3.901879842770719e-21
4.316745939156006 8.46953081156351e-26 9.704770609356213e-18 9.700246321170745e-18 4.524288185464782e-21
4.448215356677963 8.898873867873753e-26 1.0507279606060455e-17 1.0502064122353945e-17 5.215483706510288e-21
4.58368876423945 9.42128633073014e-26 1.1462906688349792e-17 1.1456922384758205e-17 5.984303591585534e-21
4.723288106065518 1.005058862701699e-25 1.2601010331430102e-17 1.2594166221297125e-17 6.844110132973616e-21
4.867139040275056 1.0811257025088433e-25 1.3967522458634206e-17 1.3959734151751154e-17 7.78830688305407e-21
4.940699165968905 1.126762672678212e-25 1.4777136848880243e-17 1.4768839192810602e-17 8.297656069639427e-21
5.015371051989984 1.1745882969436712e-25 1.5637170495692812e-17 1.5628337913385456e-17 8.832582307358317e-21
5.091171501069577 1.2319682995649942e-25 1.6648944013375563e-17 1.6639540793754324e-17 9.403219621238765e-21
5.129500256944802 1.2616603627408918e-25 1.717856759491482e-17 1.7168868563043186e-17 9.699031871638174e-21
5.168117569889187 1.2926572729245862e-25 1.77331224096585e-17 1.772311862944619e-17 1.00037802123137e-20
5.20702561229733 1.3297535508607463e-25 1.8379356664320706e-17 1.836902521866507e-17 1.0331445655636416e-20
5.246226572918644 1.3679339440867438e-25 1.9049413203627237e-17 1.903874554079018e-17 1.0667662837052908e-20
5.265937586045735 1.3874421897164112e-25 1.9393671584738698e-17 1.9382832550442353e-17 1.0839034296346957e-20
5.285722656980489 1.4072354467402798e-25 1.97442467960465e-17 1.973323418466505e-17 1.1012611381449886e-20
5.305582063971359 1.4273185618394841e-25 2.01012647261724e-17 2.009007630895328e-17 1.1188417219121105e-20
5.3255160863122235 1.4487350623603275e-25 2.04795356352108e-17 2.046816832125365e-17 1.1367313957150035e-20
5.365609099470188 1.5007146397332546e-25 2.1374038241491256e-17 2.1362299676667044e-17 1.1738564824211831e-20
5.406003951863644 1.5547431258576498e-25 2.2310250017542584e-17 2.229813035680076e-17 1.211966074182606e-20
5.446702915881641 1.6109161945021106e-25 2.3290352860670386e-17 2.3277842039289216e-17 1.2510821381166202e-20
5.487708281020852 1.6713712590733186e-25 2.4346323009676372e-17 2.433340968475328e-17 1.2913324923081881e-20
5.529022354014368 1.752762512810393e-25 2.5724139439579438e-17 2.5710803712809217e-17 1.3335726770224439e-20
5.570647458961463 1.838852003505787e-25 2.7190793718210298e-17 2.7177024142793025e-17 1.3769575417276936e-20
5.612585937458331 1.9299641484866832e-25 2.875290161829333e-17 2.873868647542413e-17 1.4215142869202074e-20
5.654840148729818 2.0296489326877986e-25 3.0465666983164795e-17 3.0450992876638836e-17 1.4674106525951125e-20
5.67608639626678 2.096044194933344e-25 3.1580490116419603e-17 3.156557580551725e-17 1.491431090235427e-20
5.686739436050992 2.130232888423902e-25 3.215583918176607e-17 3.2140803522566723e-17 1.503565919934547e-20
5.6974124697621304 2.1651027941243916e-25 3.274353885730754e-17 3.272838101214838e-17 1.5157845159156407e-20
5.718818669136295 2.236950087764256e-25 3.395721413092621e-17 3.394180937986315e-17 1.5404751063054123e-20
5.740305295436557 2.315756141878595e-25 3.528557901809082e-17 3.526992264978655e-17 1.5656368304271554e-20
5.7835210386641895 2.5175702942864534e-25 3.864945358266011e-17 3.863327324356518e-17 1.618033909494633e-20
5.827062130521658 2.748908704140466e-25 4.251864327818083e-17 4.2501920804942556e-17 1.672247323826232e-20
5.8489554468988025 2.90926151782974e-25 4.5167963376247064e-17 4.5150950288243254e-17 1.7013088003819198e-20
5.870931020387893 3.0810132804945946e-25 4.801423139133274e-17 4.799692325434697e-17 1.7308136985792994e-20
5.892989160043636 3.2650714978490836e-25 5.107375291036832e-17 5.1056145226195796e-17 1.7607684172536855e-20
5.915130176081913 3.4737263779020024e-25 5.454178489797837e-17 5.4523866848088703e-17 1.7918049889665917e-20
5.95966208400165 4.052950720823329e-25 6.411540530748672e-17 6.409679717419492e-17 1.860813329178438e-20
6.004529249263818 4.8829804748784715e-25 7.782755471830969e-17 7.780817675185514e-17 1.9377966454538594e-20
6.027089341400364 5.457801269196953e-25 8.731619060539543e-17 8.729637633512755e-17 1.9814270267866022e-20
6.049734195844842 6.135884763051861e-25 9.853327578473462e-17 9.851300019906766e-17 2.0275585666945824e-20
6.095279466722835 8.089487756798195e-25 1.3088325217907208e-16 1.3086187414624124e-16 2.137803283083402e-20
6.141167624020661 1.1089148142817139e-24 1.8076675839240114e-16 1.8074398756493403e-16 2.2770827467095166e-20
6.164241091010745 1.3004002709321668e-24 2.1277769530099158e-16 2.127540698740257e-16 2.3625426965880073e-20
6.187401249150058 1.518326116394723e-24 2.4936917931747976e-16 2.4934466852981514e-16 2.4510787664598555e-20
6.1990139391386085 1.6247830423882951e-24 2.673544540466918e-16 2.6732949109357745e-16 2.496295311437819e-20
6.204828454712694 1.6808402513659007e-24 2.7683796728929574e-16 2.768127751258638e-16 2.519216343205215e-20
6.210648424152782 1.7218421972830842e-24 2.838570761914841e-16 2.8383168357354834e-16 2.5392617935644808e-20
6.233982942956859 1.8613025501187256e-24 3.080009209372982e-16 3.079748064188126e-16 2.6114518485578526e-20
6.239830258556775 1.8792483829094435e-24 3.1126220811036924e-16 3.1123597659880884e-16 2.6231511560537936e-20
6.245683058788269 1.881027060823362e-24 3.1184904498265014e-16 3.1182269599495187e-16 2.6348987698375394e-20
6.257405133728602 1.877711792380217e-24 3.118836735312253e-16 3.1185710888811927e-16 2.656464310611798e-20
6.269149208991335 1.85096756645768e-24 3.0801853316495373e-16 3.079918415492508e-16 2.669161570292002e-20
6.280915325867298 1.7831454125043918e-24 2.97289199977939e-16 2.9726249188124015e-16 2.6708096698801523e-20
6.304513850009849 1.6156200956726503e-24 2.7037110913444115e-16 2.70344468618557e-16 2.66405158841634e-20
6.32820103803542 1.4077574794241527e-24 2.3647081278735647e-16 2.3644434715497453e-16 2.6465632382039764e-20
6.3519772230701035 1.2171875644300904e-24 2.0522764983839505e-16 2.0520132498038733e-16 2.6324858007640416e-20
6.375842739491607 1.0568877548750768e-24 1.7886933643479287e-16 1.7884311756962947e-16 2.6218865163403716e-20
6.399797922933955 9.287144175630423e-25 1.5776762283616746e-16 1.5774137886158575e-16 2.624397458166816e-20
6.42384311029221 8.222246529894214e-25 1.4020220787872649e-16 1.4017591190294122e-16 2.6295975785307762e-20
6.447978639727206 7.449454697364608e-25 1.2750214954788026e-16 1.2747569671087814e-16 2.645283700210727e-20
6.472204850670314 6.806940042287167e-25 1.1694283360179788e-16 1.169162012343723e-16 2.6632367425562123e-20
6.496522083828205 6.393390928661972e-25 1.1025076526743111e-16 1.1022386612640413e-16 2.6899141027006252e-20
6.520930681187647 6.04656484580563e-25 1.0466168718012051e-16 1.0463450503523625e-16 2.718214488424841e-20
6.57002334288761 5.702753217752983e-25 9.945369517806685e-17 9.942581700573828e-17 2.787817232858115e-20
