Dust emission spectrum from A.P. Jones, M. Kohler, N. Ysard, M. Bocchio, and L. Verstraete (2017), A&A, 602A, 46J 
inside the DustPedia framework.

lambda    nu*dP/dnu     j_nu    j_nu(carb.) j_nu(sil)
 (um)   (erg s-1 H-1) (Jy cm2 sr-1 H-1)
0.9927057738263894 8.782876205179276e-21 2.3143377658056793e-13 2.3143359025918625e-13 1.8632138170493928e-19
1.0001793341362166 8.930114677951449e-21 2.3708514640831784e-13 2.370849222620772e-13 2.241462406619576e-19
1.0077091589558085 9.078015644057374e-21 2.4282621235333737e-13 2.4282594306595654e-13 2.6928738083575236e-19
1.0114953028030835 9.152209659029813e-21 2.4573061284374393e-13 2.4573031783222204e-13 2.95011521844121e-19
1.0152956718711033 9.226563571812164e-21 2.486577194870484e-13 2.486573964028698e-13 3.2308417856111433e-19
1.0229392996569957 9.375671534227991e-21 2.5457847511414677e-13 2.545780880026399e-13 3.871115068305095e-19
1.0267826658714554 9.450257560815378e-21 2.5756782251743473e-13 2.5756739897897175e-13 4.2353846295680725e-19
1.0306404723013447 9.52499330002182e-21 2.6058013498289446e-13 2.6057967174555275e-13 4.632373417474627e-19
1.03451277320114 9.599877370509064e-21 2.6361552033598123e-13 2.6361501384903776e-13 5.064869434340762e-19
1.0383996230291617 9.674908489253682e-21 2.666740893708872e-13 2.666735357824445e-13 5.53588442610611e-19
1.0403485208654093 9.712478818392366e-21 2.6821210323645676e-13 2.6821152455215783e-13 5.786842989073458e-19
1.0423010764483396 9.750085474523888e-21 2.69755955982842e-13 2.6975535111577773e-13 6.048670641901183e-19
1.0462171883269815 9.82540724889772e-21 2.7286123730397513e-13 2.7286057663010004e-13 6.606738751406044e-19
1.0471985131304309 9.844260199707348e-21 2.7364123022844364e-13 2.7364055485158135e-13 6.753768623400165e-19
1.048180758391296 9.863122124578689e-21 2.744226960036217e-13 2.7442200561102686e-13 6.903925948112704e-19
1.0501480137395462 9.900872842323717e-21 2.7599005384283096e-13 2.7598933245513176e-13 7.21387699251357e-19
1.0521189612883777 9.938659298162322e-21 2.775633264362392e-13 2.7756257272502527e-13 7.537112139951452e-19
1.0531058218030118 9.957541196592711e-21 2.7835149522787825e-13 2.7835072483881957e-13 7.703890586712193e-19
1.0540936079674168 9.976351073780713e-21 2.7913888322603096e-13 2.791380958027726e-13 7.874232582289112e-19
1.058054026499678 1.0051676127703302e-20 2.82303176037529e-13 2.8230231680634305e-13 8.592311858911511e-19
1.0590464539527713 1.0070528730125902e-20 2.83097944603059e-13 2.830970664649821e-13 8.781380768426634e-19
1.06003981227728 1.008938985082455e-20 2.8389419543074963e-13 2.838932979884743e-13 8.974422753312324e-19
1.0620293250338977 1.0127137616242293e-20 2.8549115223228813e-13 2.854902149578419e-13 9.372744461904716e-19
1.0660195594769086 1.0202735054489199e-20 2.8870294583687324e-13 2.88701923771539e-13 1.0220653342091602e-18
1.070024785945596 1.0278468081727792e-20 2.919386950292622e-13 2.919375808735945e-13 1.1141556676260566e-18
1.0740450607676866 1.035433646476922e-20 2.951985423026133e-13 2.951973281629912e-13 1.214139622113859e-18
1.07808044048254 1.043034010133936e-20 2.984826346334277e-13 2.9848131197667433e-13 1.322656753408731e-18
1.0861967418109137 1.0582638617495739e-20 3.0512085636168696e-13 3.051192882663231e-13 1.5680953638201898e-18
1.0902777775684922 1.065867304200323e-20 3.084677271993334e-13 3.0846602064601673e-13 1.7065533166647e-18
1.0943741465085532 1.0734839245623251e-20 3.1183926850440737e-13 3.1183741188024213e-13 1.8566241652784383e-18
1.1026131145906286 1.0887569651689998e-20 3.186570513442508e-13 3.186548559950638e-13 2.195349186856276e-18
1.1109141095355224 1.1040836713460705e-20 3.255756398616952e-13 3.255730473927269e-13 2.5924689682772044e-18
1.1192775983109025 1.1194531896579738e-20 3.325930600137396e-13 3.3259000258554425e-13 3.057428195343773e-18
1.1277040513999907 1.1348125120852344e-20 3.396946361174047e-13 3.396910350256653e-13 3.601091739327781e-18
1.1361939428280308 1.1502274207644071e-20 3.469010540559663e-13 3.4689681811459806e-13 4.235941368178465e-18
1.1447477501889525 1.1656997279899835e-20 3.54214166826748e-13 3.5420919053040823e-13 4.9762963398809204e-18
1.1533659546722406 1.1812368015097575e-20 3.616375594382683e-13 3.6163172086830754e-13 5.8385699607832206e-18
1.1707974979042381 1.2125582787014966e-20 3.768372621044323e-13 3.76829255370974e-13 8.006733458313426e-18
1.1884924949847024 1.2441703780651216e-20 3.925054884023102e-13 3.9249456360888517e-13 1.0924793424898664e-17
1.2064549276569216 1.2762995493740809e-20 4.0872683335712564e-13 4.0871200093774693e-13 1.4832419378638945e-17
1.2246888378427687 1.3087714965985253e-20 4.2546027911651975e-13 4.2544024046749347e-13 2.003864902618753e-17
1.2431983285522175 1.3415884996862173e-20 4.4272003627444526e-13 4.426930957303872e-13 2.694054405810788e-17
1.2619875648066055 1.3748309984791247e-20 4.605468585334237e-13 4.605108128593065e-13 3.6045674117294504e-17
1.3004222497298317 1.4425613730847036e-20 4.979527367793113e-13 4.978891209366752e-13 6.361584263618012e-17
1.3400274889804893 1.5125451960359325e-20 5.380114284907978e-13 5.379012204071678e-13 1.1020808363015684e-16
1.3808389325824078 1.585543373835052e-20 5.811531330652196e-13 5.80965632142782e-13 1.8750092243752717e-16
1.4228933163050095 1.6627985831328422e-20 6.280314871824757e-13 6.277180491825822e-13 3.134379998933941e-16
1.466228494730424 1.746384252005133e-20 6.796900226873417e-13 6.791749406396851e-13 5.150820476567047e-16
1.5108834753276823 1.8373671265164897e-20 7.368792821727034e-13 7.360468097886302e-13 8.324723840733028e-16
1.5568984535646726 1.9372365770063486e-20 8.005940916236263e-13 7.992694654680075e-13 1.3246261556188425e-15
1.6043148490894465 2.0484104873471965e-20 8.723203959044141e-13 8.702413444319029e-13 2.0790514725111287e-15
1.6531753430134553 2.1738343434610446e-20 9.53926245908619e-13 9.507113702758892e-13 3.2148756327297016e-15
1.7035239163302658 2.3171418290483632e-20 1.0477804366315487e-12 1.0428816253670655e-12 4.898811264483355e-15
1.755405889504358 2.4837066197446532e-20 1.1573035331395367e-12 1.1499438140171702e-12 7.359719122366478e-15
1.8088679632656115 2.6781413752322422e-20 1.2859077068257488e-12 1.2750026400113523e-12 1.0905066814396477e-14
1.8639582606462262 2.9059131596839865e-20 1.437766127429826e-12 1.4218233731766587e-12 1.594275425316675e-14
1.9207263702978936 3.173817185207395e-20 1.618142778614252e-12 1.595137473855304e-12 2.3005304758947635e-14
1.979223391128241 3.4898949380363886e-20 1.8334817897903482e-12 1.8007033681101315e-12 3.277842168021726e-14
2.039501978296691 3.8632300903531155e-20 2.09143387997898e-12 2.045302556571578e-12 4.6131323407402125e-14
2.1016163906111602 4.3049435098476474e-20 2.401542832541147e-12 2.3373881433160544e-12 6.415468922509332e-14
2.1656225393682647 4.826714216047087e-20 2.774621718467451e-12 2.6864291219955263e-12 8.81925964719242e-14
2.231578038680979 5.440286796276782e-20 3.222577027884787e-12 3.1026990497086712e-12 1.1987797817611557e-13
2.299542257339062 6.158880791615496e-20 3.759348831819147e-12 3.5981803775515215e-12 1.6116845426762536e-13
2.369576372248914 6.996903777251446e-20 4.400946055315682e-12 4.186562713915048e-12 2.1438334140063483e-13
2.4417434235010123 7.969435907159236e-20 5.165317740562854e-12 4.8830901204969956e-12 2.822276200658584e-13
2.5161083711144245 9.092782380742684e-20 6.072892211587332e-12 5.705066724566787e-12 3.6782548702054516e-13
2.5927381535095444 1.0384049814199748e-19 7.146523966660158e-12 6.6717903854947304e-12 4.747335811654271e-13
2.6717017477616296 1.1859611521258727e-19 8.41061727631223e-12 7.80369713816222e-12 6.069201381500111e-13
2.753070231689431 1.353555304380872e-19 9.891513059286775e-12 9.122757912361911e-12 7.687551469248647e-13
2.836916847834745 1.5431433327104071e-19 1.1620432874017324e-11 1.06554155750218e-11 9.650172989955183e-13
2.9233170693905177 1.7570883317273615e-19 1.3634491648325349e-11 1.2433900232337182e-11 1.2005914159881684e-12
2.967498994190263 1.8726018331624813e-19 1.4750456381823403e-11 1.3418507205044168e-11 1.3319491767792315e-12
3.0123486681368425 1.995125041384942e-19 1.5953089110235003e-11 1.4477294653594746e-11 1.4757944566402544e-12
3.0578761833420214 2.1342223154068633e-19 1.7323234566049772e-11 1.5689635761891776e-11 1.6335988041579889e-12
3.1040917844459814 2.283069405182146e-19 1.8811485911034934e-11 1.7006835184458585e-11 1.8046507265763528e-12
3.127460860933648 2.371792149799783e-19 1.9689647617170624e-11 1.7793677218772066e-11 1.8959703983985584e-12
3.1510058709225794 2.4689408708059518e-19 2.0650441180013278e-11 1.8659475861037355e-11 1.9909653189759187e-12
3.162844764501044 2.5315616553657723e-19 2.125376228450952e-11 1.9213710742727366e-11 2.0400515417821513e-12
3.1747281389236908 2.5983336446877754e-19 2.189630789277994e-11 1.980622385769542e-11 2.0900840350845177e-12
3.1986289994194426 2.7565653371693204e-19 2.3404619992595744e-11 2.1211327308066136e-11 2.1932926845296164e-12
3.2227097969389145 3.036291308341629e-19 2.5973714872684384e-11 2.3671253574674826e-11 2.3024612980095625e-12
3.2348180950136065 3.269151538926139e-19 2.8070771518982053e-11 2.5710099890719848e-11 2.360671628262199e-12
3.240889293275058 3.434691423595175e-19 2.9547541736544785e-11 2.7156165162105502e-11 2.391376574439287e-12
3.2469718861334385 3.623661165440968e-19 3.123169415527885e-11 2.8808547094623132e-11 2.4231470606557166e-12
3.2714166318528037 4.587530063865256e-19 3.983677876130478e-11 3.7282499442171595e-11 2.5542793191331725e-12
3.2744851364798273 4.652093636285938e-19 4.043532182359546e-11 3.786563440237795e-11 2.5696874212175065e-12
3.2775565192852394 4.718132987635867e-19 4.1047791961264374e-11 3.84626235478885e-11 2.585168413375882e-12
3.283707930232385 4.68081730305017e-19 4.079957558168344e-11 3.818681471134574e-11 2.612760870337695e-12
3.2898708863219004 4.523614196076823e-19 3.950334261098895e-11 3.686555606004469e-11 2.637786550944258e-12
3.29141343181113 4.486668080459142e-19 3.919907439463332e-11 3.655500589367985e-11 2.6440685009534682e-12
3.292184975758714 4.468533599437146e-19 3.9049788811944983e-11 3.640257550385042e-11 2.6472133080945656e-12
3.295272960557952 4.351351277647178e-19 3.80614187251356e-11 3.54019887810141e-11 2.659429944121498e-12
3.3076538914384823 3.9458378502760636e-19 3.4644055585867514e-11 3.1935599589817014e-11 2.7084559960504994e-12
3.310756385682612 3.8637002384172314e-19 3.395471449897367e-11 3.1233909640694275e-11 2.7208048582793956e-12
3.313861789986515 3.7881073392832705e-19 3.332161952317165e-11 3.058842884251552e-11 2.733190680656139e-12
3.3200813396944477 3.688588827647218e-19 3.250711317585457e-11 2.974724191214636e-11 2.7598712637082103e-12
3.345076488085796 3.561510470351535e-19 3.162348372492528e-11 2.8744603622122184e-11 2.8788801028031027e-12
3.3482140837626964 3.580210674491215e-19 3.181934496594594e-11 2.8924338362670042e-11 2.8950066032758996e-12
3.3513546224236106 3.599014422011852e-19 3.201646692177488e-11 2.910526568453898e-11 2.911201237235896e-12
3.3576445397418455 3.6795286475746846e-19 3.279414698229888e-11 2.984907114764717e-11 2.945075834651704e-12
3.3702598118196083 3.937006357261457e-19 3.5220776854483374e-11 3.2204654439569136e-11 3.0161224149142285e-12
3.382922481734668 4.030523308380749e-19 3.6192861115383686e-11 3.3107826531299996e-11 3.0850345840836843e-12
3.389271646505754 4.0782163651077117e-19 3.668986168796304e-11 3.356992574161926e-11 3.119935946343788e-12
3.395632727569191 4.12938973050974e-19 3.7219969863746813e-11 3.406406568763222e-11 3.1559041761145963e-12
3.421196662673239 4.362535531282502e-19 3.9617443744493556e-11 3.6312801229021196e-11 3.3046425154723594e-12
3.4276182099114902 4.355903588414733e-19 3.963146560486227e-11 3.629378725090028e-11 3.3376783539619825e-12
3.4340518103208963 4.25630327518352e-19 3.879795558023749e-11 3.542910773899835e-11 3.3688478412391553e-12
3.4469541582030403 4.122980344130723e-19 3.772386700395681e-11 3.429534837867021e-11 3.4285186252866036e-12
3.472904465399547 4.1552471255580297e-19 3.830532288358977e-11 3.473910829053965e-11 3.566214593050116e-12
3.4990501388274233 4.164448958543702e-19 3.867916964959269e-11 3.497239163293859e-11 3.706778016654097e-12
3.5253949054701885 3.9922359566325834e-19 3.735884212135644e-11 3.3516061510911e-11 3.842780610445437e-12
3.5519380250092896 3.8314772491793477e-19 3.6124435032221336e-11 3.2145403804500505e-11 3.979031227720841e-12
3.578680990867387 3.822864148051748e-19 3.631460163528764e-11 3.218628778284491e-11 4.12831385244272e-12
3.605625307711299 3.8744473271145923e-19 3.7081712930585235e-11 3.279644055681247e-11 4.285272373772758e-12
3.660119384959845 4.0305724979331687e-19 3.915898457071795e-11 3.454517059617322e-11 4.613813974544726e-12
3.715437065384467 4.197768829888701e-19 4.139976355809431e-11 3.644136646543118e-11 4.9583970926631425e-12
3.8285932144167436 4.572438021789003e-19 4.646826803688826e-11 4.0775435729501964e-11 5.692832307386307e-12
3.94519561050918 4.965828995944981e-19 5.200315997223142e-11 4.551864286115686e-11 6.484517111074559e-12
4.06534921144712 5.370110674015858e-19 5.7949611204327744e-11 5.061922110292586e-11 7.330390101401865e-12
4.189162171576248 5.780818336539816e-19 6.428148898786284e-11 5.6051573369554e-11 8.229915618308851e-12
4.316745939156006 6.193714542047312e-19 7.09703762672854e-11 6.179307877307614e-11 9.17729749420924e-12
4.448215356677963 6.603987677719088e-19 7.797609683544368e-11 6.781950315956965e-11 1.0156593675874024e-11
4.58368876423945 7.00838493681564e-19 8.527122491194678e-11 7.41043702011064e-11 1.1166854710840372e-11
4.723288106065518 7.404153166954394e-19 9.283019533948882e-11 8.061774357151492e-11 1.2212451767973925e-11
4.867139040275056 7.785907232886415e-19 1.0058944476467481e-10 8.732831119806589e-11 1.3261133566608901e-11
4.940699165968905 7.971442619996266e-19 1.0454295419521938e-10 9.075346351641543e-11 1.3789490678803969e-11
5.015371051989984 8.1519050720999735e-19 1.0852545509675155e-10 9.420695564130483e-11 1.4318499455446716e-11
5.091171501069577 8.3297785651511885e-19 1.1256946873063723e-10 9.770902248758731e-11 1.486044624304996e-11
5.129500256944802 8.416484266237817e-19 1.1459751621664965e-10 9.946665660859723e-11 1.5130859608052415e-11
5.168117569889187 8.5020352019427e-19 1.166338782329903e-10 1.0122993425686598e-10 1.5403943976124332e-11
5.20702561229733 8.589454863749995e-19 1.1872023533289865e-10 1.0301551675252743e-10 1.570471858037122e-11
5.246226572918644 8.675303906524774e-19 1.208095240978628e-10 1.0480369532092711e-10 1.6005828776935695e-11
5.265937586045735 8.717623810098327e-19 1.2185497487783776e-10 1.0569851756531111e-10 1.6156457312526645e-11
5.285722656980489 8.759532473075972e-19 1.229008062346765e-10 1.0659369957548484e-10 1.630710665919164e-11
5.305582063971359 8.801023887734348e-19 1.239468999833624e-10 1.0748914438807176e-10 1.6457755595290645e-11
5.3255160863122235 8.842470823324844e-19 1.249984907761917e-10 1.0838870421047235e-10 1.6609786565719352e-11
5.365609099470188 8.926975994956166e-19 1.2714310985263822e-10 1.1021854168076325e-10 1.6924568171874992e-11
5.406003951863644 9.009820448200766e-19 1.2928910472052531e-10 1.1204954023744445e-10 1.7239564483080884e-11
5.446702915881641 9.09096312315784e-19 1.3143560149454492e-10 1.1388099646530798e-10 1.7554605029236947e-11
5.487708281020852 9.171008634899973e-19 1.3359110810221917e-10 1.1572002098589455e-10 1.787108711632466e-11
5.529022354014368 9.254909659904256e-19 1.3582820539124669e-10 1.176271863762369e-10 1.820101901500978e-11
5.570647458961463 9.337234488862728e-19 1.380681079288533e-10 1.195370400959142e-10 1.853106783293908e-11
5.612585937458331 9.417965051768056e-19 1.4031028648399798e-10 1.214492258502795e-10 1.886106063371849e-11
5.654840148729818 9.49801037432873e-19 1.4256811432100679e-10 1.23375385748456e-10 1.919272857255078e-11
5.67608639626678 9.541462300591436e-19 1.437584458421214e-10 1.2439174434633555e-10 1.9366701495785837e-11
5.686739436050992 9.563081485147003e-19 1.4435459709103852e-10 1.2490089196909348e-10 1.9453705121945038e-11
5.6974124697621304 9.58463034783276e-19 1.449514162001309e-10 1.2541069967666725e-10 1.9540716523463697e-11
5.718818669136295 9.627519934552867e-19 1.4614709454430425e-10 1.2643234292538062e-10 1.9714751618923652e-11
5.740305295436557 9.67124848889581e-19 1.4736249494806047e-10 1.274722235689609e-10 1.9890271379099573e-11
5.7835210386641895 9.766800138508155e-19 1.4993880785020045e-10 1.2968602548001107e-10 2.0252782370189385e-11
5.827062130521658 9.864363598835902e-19 1.5257667757151676e-10 1.319575216987445e-10 2.061915587277224e-11
5.8489554468988025 9.922697163319996e-19 1.5405559772459677e-10 1.3323726823980943e-10 2.0818329484787296e-11
5.870931020387893 9.98159436682898e-19 1.5555226088036037e-10 1.3453445998916408e-10 2.1017800891196293e-11
5.892989160043636 1.0041132060763488e-18 1.5706801463602011e-10 1.3585046724198956e-10 2.121754739403054e-11
5.915130176081913 1.0104620666908263e-18 1.5865499666183693e-10 1.3722995154394092e-10 2.1425045117896078e-11
5.95966208400165 1.0264157412827765e-18 1.6237320855695228e-10 1.4046789422605576e-10 2.1905314330896483e-11
6.004529249263818 1.0467777303862414e-18 1.6684103389041465e-10 1.4439102134830952e-10 2.2450012542105117e-11
6.027089341400364 1.0599663404906312e-18 1.695778546278973e-10 1.4680940781936477e-10 2.276844680853251e-11
6.049734195844842 1.0747001066383883e-18 1.7258101493518708e-10 1.4947444177225437e-10 2.3106573162932664e-11
6.095279466722835 1.1149909893101143e-18 1.803991194728367e-10 1.5644893387364956e-10 2.395018559918718e-11
6.141167624020661 1.1727238567685463e-18 1.9116841739985074e-10 1.6610787129025902e-10 2.5060546109591735e-11
6.164241091010745 1.2090204153008022e-18 1.9782568743633516e-10 1.7206084528925194e-10 2.5764842147083224e-11
6.187401249150058 1.2479888606368727e-18 2.0496911342956018e-10 1.784825126291789e-10 2.6486600800381255e-11
6.1990139391386085 1.2668094084973372e-18 2.0845068477091958e-10 1.815970909483083e-10 2.6853593822611305e-11
6.204828454712694 1.2765227501927875e-18 2.1024601420315676e-10 1.8320721050108204e-10 2.7038803702074726e-11
6.210648424152782 1.2835952792980582e-18 2.116091727625577e-10 1.8441419025934996e-10 2.719498250320778e-11
6.233982942956859 1.3068195413651674e-18 2.162472845769513e-10 1.885146384281237e-10 2.7732646148827654e-11
6.239830258556775 1.309340342151849e-18 2.1686764228324463e-10 1.8906556804176386e-10 2.7802074241480783e-11
6.245683058788269 1.3092014907174677e-18 2.1704803884713658e-10 1.891764790645357e-10 2.7871559782600862e-11
6.257405133728602 1.3076655708313593e-18 2.172002879441936e-10 1.8921012662411733e-10 2.7990161320076272e-11
6.269149208991335 1.3019168808099213e-18 2.1665129913497732e-10 1.8863220545063306e-10 2.8019093684344238e-11
6.280915325867298 1.2890310387755044e-18 2.1490956574656665e-10 1.8697222112857523e-10 2.7937344617991428e-11
6.304513850009849 1.257768183770465e-18 2.104852370869089e-10 1.8281120766887284e-10 2.7674029418035997e-11
6.32820103803542 1.2208208206497985e-18 2.0506976233212716e-10 1.7776521225457217e-10 2.730455007755503e-11
6.3519772230701035 1.1875758043244204e-18 2.0023486802591374e-10 1.7326565384709595e-10 2.69692141788178e-11
6.375842739491607 1.1588823665362308e-18 1.9613106401523154e-10 1.694619913906403e-10 2.6669072624591266e-11
6.399797922933955 1.137599987001887e-18 1.9325256752090812e-10 1.6675819468526856e-10 2.649437283563966e-11
6.42384311029221 1.119435971465288e-18 1.9088140231222153e-10 1.6453654196762497e-10 2.634486034459655e-11
6.447978639727206 1.1070606620779346e-18 1.8948046512018077e-10 1.631877302706344e-10 2.629273484954636e-11
6.472204850670314 1.0966014596615349e-18 1.8839549228877643e-10 1.6213565192275091e-10 2.6259840366025463e-11
6.496522083828205 1.0905053386020221e-18 1.8805208292534977e-10 1.617466147742251e-10 2.6305468151124698e-11
6.520930681187647 1.0853881157229971e-18 1.8787287382789188e-10 1.615102265094814e-10 2.6362647318410468e-11
