Dust emission spectrum from A.P. Jones, M. Kohler, N. Ysard, M. Bocchio, and L. Verstraete (2017), A&A, 602A, 46J 
inside the DustPedia framework.

lambda    nu*dP/dnu     j_nu    j_nu(carb.) j_nu(sil)
 (um)   (erg s-1 H-1) (Jy cm2 sr-1 H-1)
0.9927057738263894 5.300946982938513e-21 1.396829638782078e-13 1.3968285835349132e-13 1.0552471647713122e-19
1.0001793341362166 5.389889878739737e-21 1.4309590381641775e-13 1.430957768590614e-13 1.2695735632334833e-19
1.0077091589558085 5.4792260983614775e-21 1.465628362255181e-13 1.4656268368734088e-13 1.5253817729048777e-19
1.0114953028030835 5.524038589195282e-21 1.4831668399949466e-13 1.4831651688272317e-13 1.671167714542696e-19
1.0152956718711033 5.5689457658933305e-21 1.500841936779841e-13 1.5008401065082416e-13 1.8302715993142654e-19
1.0229392996569957 5.658995904277657e-21 1.536592384586812e-13 1.536590191406615e-13 2.1931801965765825e-19
1.0267826658714554 5.704037332863676e-21 1.5546417289997024e-13 1.554639329334552e-13 2.3996651506396305e-19
1.0306404723013447 5.749167027861458e-21 1.572829159004146e-13 1.5728265342951766e-13 2.6247089699113373e-19
1.03451277320114 5.794384085664395e-21 1.5911553000264509e-13 1.5911524301321506e-13 2.869894300240899e-19
1.0383996230291617 5.839687660808048e-21 1.6096207947456482e-13 1.6096176578147296e-13 3.1369309185764823e-19
1.0403485208654093 5.862371644507935e-21 1.6189060054882055e-13 1.6189027262733443e-13 3.279214861278067e-19
1.0423010764483396 5.885076967738479e-21 1.6282263038749613e-13 1.6282228762096947e-13 3.4276652666172207e-19
1.0462171883269815 5.930551282604584e-21 1.646972506964234e-13 1.64696876287359e-13 3.7440906439980977e-19
1.0471985131304309 5.94193306500658e-21 1.6516811226625283e-13 1.6516772952028698e-13 3.8274596588037766e-19
1.048180758391296 5.9533201091285476e-21 1.6563985864561298e-13 1.656394673852932e-13 3.9126031971927537e-19
1.0501480137395462 5.976109945075057e-21 1.6658601032238322e-13 1.6658560148657302e-13 4.0883581023887046e-19
1.0521189612883777 5.9989207181299096e-21 1.67535714787938e-13 1.6753528762285807e-13 4.2716507991341287e-19
1.0531058218030118 6.010318993784536e-21 1.6801148453083038e-13 1.680110479082667e-13 4.366225636653769e-19
1.0540936079674168 6.0216735317313745e-21 1.6848677561246298e-13 1.6848632933020647e-13 4.462822565244177e-19
1.058054026499678 6.067141662465746e-21 1.7039679144288581e-13 1.7039630443858674e-13 4.87004299065445e-19
1.0590464539527713 6.0785211551472125e-21 1.7087651416956673e-13 1.7087601644285337e-13 4.977267133638974e-19
1.06003981227728 6.089905618902666e-21 1.713571267925861e-13 1.7135661811798222e-13 5.086746038974935e-19
1.0620293250338977 6.112689436030618e-21 1.7232102657829275e-13 1.723204953133881e-13 5.312649046454518e-19
1.0660195594769086 6.1583164794914635e-21 1.7425955878788234e-13 1.7425897943283255e-13 5.793550497662276e-19
1.070024785945596 6.2040224934215964e-21 1.762124682647486e-13 1.7621183667656653e-13 6.315881820837365e-19
1.0740450607676866 6.249807253877803e-21 1.7817983772252725e-13 1.781791494206927e-13 6.883018344989513e-19
1.07808044048254 6.295670614406275e-21 1.801617524946223e-13 1.8016100263527662e-13 7.49859345676645e-19
1.0861967418109137 6.387563550235914e-21 1.8416757209213703e-13 1.8416668299259476e-13 8.890995422755376e-19
1.0902777775684922 6.433435469001484e-21 1.8618708064184031e-13 1.861861129865587e-13 9.67655281679965e-19
1.0943741465085532 6.479383523503261e-21 1.882213764079014e-13 1.8822032360306167e-13 1.0528048397045104e-18
1.1026131145906286 6.571509272351266e-21 1.9233472984338722e-13 1.9233348482976975e-13 1.2450136175498736e-18
1.1109141095355224 6.663944182320522e-21 1.965084664748717e-13 1.9650699608902885e-13 1.4703858428461601e-18
1.1192775983109025 6.7566218352910136e-21 2.0074135768389524e-13 2.007396233932943e-13 1.7342906009456129e-18
1.1277040513999907 6.84922092666029e-21 2.0502449396635038e-13 2.0502245106106386e-13 2.0429052865366235e-18
1.1361939428280308 6.942138250200618e-21 2.0937034128402133e-13 2.0936793795635784e-13 2.4033276635066234e-18
1.1447477501889525 7.035383847915249e-21 2.1377997851064732e-13 2.1377715480897183e-13 2.8237016754516366e-18
1.1533659546722406 7.129001461488892e-21 2.1825553406984623e-13 2.1825222070614257e-13 3.313363703635899e-18
1.1707974979042381 7.317670596835755e-21 2.2741760137473296e-13 2.2741305652466883e-13 4.544850064109882e-18
1.1884924949847024 7.508005622551861e-21 2.368593133032107e-13 2.3685311060256513e-13 6.2027006455790414e-18
1.2064549276569216 7.701368123685085e-21 2.4663142812006993e-13 2.466230047727688e-13 8.423347301125574e-18
1.2246888378427687 7.896692205936786e-21 2.567085911304601e-13 2.566972083627805e-13 1.1382767679461279e-17
1.2431983285522175 8.093981676762673e-21 2.6709888034812277e-13 2.6708357320852905e-13 1.5307139593695644e-17
1.2619875648066055 8.29370884946167e-21 2.7782626085939424e-13 2.778057751738931e-13 2.0485685501185004e-17
1.3004222497298317 8.700231571691443e-21 3.0032026384246887e-13 3.002840907205225e-13 3.6173121946350265e-17
1.3400274889804893 9.119653549695189e-21 3.2438553548492597e-13 3.2432283621716626e-13 6.269926775961587e-17
1.3808389325824078 9.556416099979913e-21 3.5027368213491724e-13 3.5016695242604154e-13 1.067297088757289e-16
1.4228933163050095 1.0017839486069033e-20 3.7836925618119967e-13 3.781907428017401e-13 1.7851337945968015e-16
1.466228494730424 1.0516224811207358e-20 4.0928982681262214e-13 4.0899630739035835e-13 2.9351942226377885e-16
1.5108834753276823 1.1057721666169361e-20 4.4347185090226445e-13 4.4299719869927694e-13 4.746522029874899e-16
1.5568984535646726 1.1650970929264745e-20 4.814950635539967e-13 4.807393669064136e-13 7.556966475830279e-16
1.6043148490894465 1.2310148876858275e-20 5.242305684448089e-13 5.230437895885549e-13 1.1867788562539882e-15
1.6531753430134553 1.3052532176253158e-20 5.727737744114706e-13 5.709375647246081e-13 1.8362096868623164e-15
1.7035239163302658 1.389945945651574e-20 6.285149020969403e-13 6.257152399748678e-13 2.7996621220727224e-15
1.755405889504358 1.4882674780141245e-20 6.934704754861465e-13 6.892618893227303e-13 4.208586163416189e-15
1.8088679632656115 1.6029191279209524e-20 7.696404973517196e-13 7.634007552975789e-13 6.239742054140624e-15
1.8639582606462262 1.7371068906723723e-20 8.594728437808124e-13 8.503449995855803e-13 9.127844195232176e-15
1.9207263702978936 1.8948268449443266e-20 9.660608021664402e-13 9.52881187727022e-13 1.3179614439417867e-14
1.979223391128241 2.0808158322779985e-20 1.0931956417392238e-12 1.0744052466201141e-12 1.8790395119109518e-14
2.039501978296691 2.300431434249955e-20 1.245382782706383e-12 1.2189209246459246e-12 2.6461858060458188e-14
2.1016163906111602 2.5602533029411122e-20 1.428255203605593e-12 1.3914310444981132e-12 3.682415910747967e-14
2.1656225393682647 2.8671935037270496e-20 1.6481973057449915e-12 1.5975425606292722e-12 5.065474511571967e-14
2.231578038680979 3.2282068113058275e-20 1.9122420381394323e-12 1.843342764783305e-12 6.889927335612747e-14
2.299542257339062 3.6511438307541123e-20 2.2286392218591387e-12 2.135946367190487e-12 9.269285466865131e-14
2.369576372248914 4.144587108726958e-20 2.606882253600077e-12 2.483500162926308e-12 1.233820906737697e-13
2.4417434235010123 4.7175478295714855e-20 3.057635920523439e-12 2.895096202248807e-12 1.6253971827463214e-13
2.5161083711144245 5.379805298146886e-20 3.593067152268519e-12 3.3810822738371873e-12 2.1198487843133242e-13
2.5927381535095444 6.141668535123389e-20 4.2268269284997066e-12 3.953035123759554e-12 2.7379180474015306e-13
2.6717017477616296 7.013060153028498e-20 4.973532630233918e-12 4.623253747578243e-12 3.5027888265567527e-13
2.753070231689431 8.00380231039503e-20 5.849019602005478e-12 5.405015455163062e-12 4.4400414684241466e-13
2.836916847834745 9.125911010570093e-20 6.872144282690984e-12 6.3143738527614674e-12 5.577704299295174e-13
2.9233170693905177 1.0394078815944505e-19 8.065501218638819e-12 7.371047796595554e-12 6.944534220432622e-13
2.967498994190263 1.1080204039525984e-19 8.727860001648858e-12 7.95711103201655e-12 7.70748969632308e-13
3.0123486681368425 1.1808433193823733e-19 9.442064185739444e-12 8.587734200492323e-12 8.543299852471219e-13
3.0578761833420214 1.2637253344999106e-19 1.0257511712142444e-11 9.311457956754165e-12 9.46053755388275e-13
3.1040917844459814 1.3525404505425798e-19 1.1144337343286629e-11 1.0098808974948456e-11 1.0455283683381735e-12
3.127460860933648 1.4057154851346053e-19 1.1669674576938333e-11 1.0571019588463237e-11 1.0986549884750967e-12
3.1510058709225794 1.46406585717752e-19 1.2245577131800953e-11 1.1091642902979823e-11 1.153934228821129e-12
3.162844764501044 1.5018725226848043e-19 1.2608992362924475e-11 1.1426488445886355e-11 1.182503917038119e-12
3.1747281389236908 1.5422401688508725e-19 1.299654709502462e-11 1.1784918848393266e-11 1.2116282466313515e-12
3.1986289994194426 1.6381853132880138e-19 1.3909013589472663e-11 1.2637294923356026e-11 1.2717186661166394e-12
3.2227097969389145 1.8089342223603092e-19 1.5474385341731256e-11 1.4139091682390879e-11 1.3352936593403764e-12
3.2348180950136065 1.9515865458794481e-19 1.675741836271576e-11 1.5388222038599184e-11 1.3691963241165771e-12
3.240889293275058 2.0531558535810633e-19 1.766263713198941e-11 1.6275557817727588e-11 1.3870793142618214e-12
3.2469718861334385 2.1691610355483074e-19 1.8695614998967083e-11 1.7290032125423995e-11 1.4055828735430805e-12
3.2714166318528037 2.7616112972462834e-19 2.398103047643621e-11 2.2499062448826983e-11 1.481968027609226e-12
3.2744851364798273 2.8012204429373253e-19 2.4347801004159202e-11 2.2856854167524846e-11 1.4909468366343549e-12
3.2775565192852394 2.841741427154484e-19 2.4723171478045316e-11 2.3223203043999458e-11 1.4999684340458608e-12
3.283707930232385 2.818393125787685e-19 2.45660609910028e-11 2.3050005734077502e-11 1.5160552569252904e-12
3.2898708863219004 2.721165607044619e-19 2.376310901348532e-11 2.2232456753773034e-11 1.5306522597122816e-12
3.29141343181113 2.6983108555813497e-19 2.357457384210065e-11 2.2040257278505258e-11 1.534316563595393e-12
3.292184975758714 2.6870922798034863e-19 2.348206267437508e-11 2.194591169913679e-11 1.5361509752382872e-12
3.295272960557952 2.614673386398382e-19 2.28706377029132e-11 2.1327359322949056e-11 1.5432783799641457e-12
3.3076538914384823 2.3640086279819727e-19 2.075575566480715e-11 1.9183871399410376e-11 1.5718842653967762e-12
3.310756385682612 2.3132146942093255e-19 2.032884014544673e-11 1.8749749874152022e-11 1.5790902712947059e-12
3.313861789986515 2.2664588563405185e-19 1.9936626106849096e-11 1.8350308000114028e-11 1.5863181067350731e-12
3.3200813396944477 2.204759028228422e-19 1.9430290174636704e-11 1.782840560655754e-11 1.6018845680791622e-12
3.345076488085796 2.124779500378897e-19 1.8866413705265537e-11 1.719510396268574e-11 1.67130974257979e-12
3.3482140837626964 2.1360829190093673e-19 1.898456975174593e-11 1.730385286643144e-11 1.6807168853144868e-12
3.3513546224236106 2.147450060298238e-19 1.9103497724598888e-11 1.741333360826731e-11 1.6901641163315768e-12
3.3576445397418455 2.1966136080421045e-19 1.957752647827115e-11 1.7867602671352827e-11 1.7099238069183224e-12
3.3702598118196083 2.354403360014776e-19 2.1062682618121902e-11 1.9311315602515094e-11 1.7513670156068103e-12
3.382922481734668 2.4111623613603164e-19 2.1651497285699533e-11 1.9859920246170297e-11 1.7915770395292383e-12
3.389271646505754 2.4401189601804036e-19 2.1952642806588965e-11 2.0140698686768752e-11 1.811944119820213e-12
3.395632727569191 2.4711958111350177e-19 2.2273953203857268e-11 2.04410194825538e-11 1.832933721303467e-12
3.421196662673239 2.612952397375773e-19 2.372897455339276e-11 2.180923081737616e-11 1.919743736016602e-12
3.4276182099114902 2.608508390119752e-19 2.3733080506643824e-11 2.1794042576804777e-11 1.9390379298390435e-12
3.4340518103208963 2.546836485396798e-19 2.32154624428854e-11 2.125821394694727e-11 1.957248495938131e-12
3.4469541582030403 2.464096428673309e-19 2.2545643733791628e-11 2.0553520065825675e-11 1.9921236679659536e-12
3.472904465399547 2.4825203680737166e-19 2.288521991369676e-11 2.0812639410265776e-11 2.07258050343099e-12
3.4990501388274233 2.486729090782348e-19 2.3096601094754042e-11 2.0941860498437836e-11 2.154740596316207e-12
3.5253949054701885 2.3791845795274084e-19 2.226411015021837e-11 2.0029829777516113e-11 2.234280372702259e-12
3.5519380250092896 2.278733127428522e-19 2.148464977449458e-11 1.9170648290369423e-11 2.3140014841251577e-12
3.578680990867387 2.271884316166992e-19 2.1581351235070192e-11 1.918000026591058e-11 2.401350969159608e-12
3.605625307711299 2.3020859173424245e-19 2.2032894480464812e-11 1.9539681861295516e-11 2.493212619169297e-12
3.660119384959845 2.3951339803775326e-19 2.3269898911507246e-11 2.058430715037282e-11 2.6855917611344184e-12
3.715437065384467 2.495060215208998e-19 2.4607096569345676e-11 2.1719593333879484e-11 2.8875032354661893e-12
3.8285932144167436 2.719945398454195e-19 2.7641960638674524e-11 2.4323625475945474e-11 3.3183351627290553e-12
3.94519561050918 2.9567549868749648e-19 3.096373288462215e-11 2.7180266117876742e-11 3.783466766745408e-12
4.06534921144712 3.2007787909631567e-19 3.4540049125033255e-11 3.0258794589568893e-11 4.281254535464359e-12
4.189162171576248 3.4493713994209445e-19 3.835628741788941e-11 3.3544757614629123e-11 4.811529803260293e-12
4.316745939156006 3.700035708233164e-19 4.239667886419903e-11 3.702563437361848e-11 5.371044490580548e-12
4.448215356677963 3.949934980633558e-19 4.663856560222523e-11 4.068799005409985e-11 5.950575548125374e-12
4.58368876423945 4.197141898561828e-19 5.106674848003366e-11 4.4517052924343635e-11 6.549695555690021e-12
4.723288106065518 4.440015484319271e-19 5.566706893088936e-11 4.8495958355842424e-11 7.1711105750469256e-12
4.867139040275056 4.675359922582414e-19 6.040296199537816e-11 5.2606986691649084e-11 7.795975303729069e-12
4.940699165968905 4.7901590589191175e-19 6.282142429630022e-11 5.471000861836081e-11 8.1114156779394e-12
5.015371051989984 4.902120413600013e-19 6.526141363517742e-11 5.6833738843819776e-11 8.427674791357629e-12
5.091171501069577 5.012750761287403e-19 6.774282001180405e-11 5.899079945912714e-11 8.7520205526769e-12
5.129500256944802 5.066802395975308e-19 6.898877861253199e-11 6.007474231412678e-11 8.914036298405222e-12
5.168117569889187 5.120209808088243e-19 7.024082035645653e-11 6.116308640037486e-11 9.077733956081672e-12
5.20702561229733 5.174783083036225e-19 7.15239180087558e-11 6.226611916935225e-11 9.257798839403558e-12
5.246226572918644 5.228463008805764e-19 7.280991359646038e-11 6.337172615072111e-11 9.4381874457393e-12
5.265937586045735 5.254958350497794e-19 7.345382546127209e-11 6.392535281684342e-11 9.528472644428645e-12
5.285722656980489 5.28121891594783e-19 7.409825406399666e-11 6.44794520200056e-11 9.618802043991077e-12
5.305582063971359 5.307240997642259e-19 7.474312960781059e-11 6.503396633506318e-11 9.709163272747413e-12
5.3255160863122235 5.333251654568454e-19 7.539164347505513e-11 6.559127408993782e-11 9.800369385117296e-12
5.365609099470188 5.386302494110188e-19 7.671480802627086e-11 6.672562314657304e-11 9.989184879697818e-12
5.406003951863644 5.43840548439842e-19 7.804002091134667e-11 6.78617595666859e-11 1.017826134466078e-11
5.446702915881641 5.489535176719175e-19 7.936676764638771e-11 6.899926823896184e-11 1.0367499407425873e-11
5.487708281020852 5.540061931771093e-19 8.070028520132275e-11 7.01425612506626e-11 1.0557723950660148e-11
5.529022354014368 5.593024281076513e-19 8.208512872897667e-11 7.132910965754824e-11 1.0756019071428433e-11
5.570647458961463 5.645093604452874e-19 8.347304482689611e-11 7.251851776116442e-11 1.095452706573168e-11
5.612585937458331 5.696258636659345e-19 8.486373402358045e-11 7.371058703445473e-11 1.1153146989125742e-11
5.654840148729818 5.747078341114986e-19 8.626544819980474e-11 7.491254556730583e-11 1.13529026324989e-11
5.67608639626678 5.774627258231266e-19 8.700463448976995e-11 7.554698973370945e-11 1.1457644756060495e-11
5.686739436050992 5.788343893677046e-19 8.737497969602199e-11 7.586493925461622e-11 1.151004044140579e-11
5.6974124697621304 5.802022522808287e-19 8.774583379694805e-11 7.618338339469777e-11 1.1562450402250294e-11
5.718818669136295 5.829267535447461e-19 8.848909370413575e-11 7.682178699539225e-11 1.1667306708743522e-11
5.740305295436557 5.857051917986372e-19 8.924491855066975e-11 7.747183576547703e-11 1.1773082785192735e-11
5.7835210386641895 5.917687165572494e-19 9.08476621056262e-11 7.885610059541842e-11 1.1991561510207758e-11
5.827062130521658 5.979662920287904e-19 9.249021411607225e-11 8.027771969292128e-11 1.2212494423150972e-11
5.8489554468988025 6.01658477344989e-19 9.341094949071351e-11 8.107844619447021e-11 1.2332503296243266e-11
5.870931020387893 6.053887013446428e-19 9.434322588636798e-11 8.189049189930609e-11 1.2452733987061878e-11
5.892989160043636 6.091617975563994e-19 9.528789538399692e-11 8.271472205435444e-11 1.2573173329642471e-11
5.915130176081913 6.131818706745531e-19 9.627711009832151e-11 8.357885862630122e-11 1.2698251472020285e-11
5.95966208400165 6.2324267614038365e-19 9.859349283562444e-11 8.560624689405278e-11 1.2987245941571671e-11
6.004529249263818 6.360488518991551e-19 1.013768682454778e-10 8.806215346062082e-11 1.3314714784856987e-11
6.027089341400364 6.443213932856314e-19 1.0308123512078711e-10 8.957532455162243e-11 1.3505910569164671e-11
6.049734195844842 6.535589187909651e-19 1.0495194038613797e-10 9.124306717441971e-11 1.3708873211718263e-11
6.095279466722835 6.787644558712369e-19 1.0982017912484983e-10 9.560571886863257e-11 1.4214460256217252e-11
6.141167624020661 7.148335069054291e-19 1.1652665666412438e-10 1.0164771592680348e-10 1.4878940737320903e-11
6.164241091010745 7.374909781963287e-19 1.2067179171948528e-10 1.0537182857883932e-10 1.5299963140645965e-11
6.187401249150058 7.618346785474217e-19 1.2512337534973775e-10 1.0939186547140195e-10 1.5731509878335835e-11
6.1990139391386085 7.73597909759436e-19 1.272938241104368e-10 1.1134287170395595e-10 1.595095240648086e-11
6.204828454712694 7.796704097972077e-19 1.2841337612451344e-10 1.1235166874099231e-10 1.6061707383521154e-11
6.210648424152782 7.841014025964446e-19 1.2926430304116644e-10 1.1310910644165592e-10 1.615519659951051e-11
6.233982942956859 7.986879979293581e-19 1.3216370379340963e-10 1.1568625680999105e-10 1.647744698341856e-11
6.239830258556775 8.00297798948533e-19 1.3255430325869405e-10 1.1603493368405702e-10 1.6519369574637e-11
6.245683058788269 8.002481349464774e-19 1.3267040215942994e-10 1.161090719799304e-10 1.656133017949956e-11
6.257405133728602 7.993673621475083e-19 1.3277310736356476e-10 1.161399626804975e-10 1.6633144683067265e-11
6.269149208991335 7.958710938608932e-19 1.324404875383992e-10 1.1578885606210977e-10 1.6651631476289453e-11
6.280915325867298 7.879359572066492e-19 1.3136609538917197e-10 1.1476181252210752e-10 1.6604282867064427e-11
6.304513850009849 7.68648287356928e-19 1.286319045817866e-10 1.1218171411142229e-10 1.6450190470364273e-11
6.32820103803542 7.45808298998145e-19 1.252786060279278e-10 1.0904568313586538e-10 1.6232922892062422e-11
6.3519772230701035 7.252608204266921e-19 1.2228482942620893e-10 1.0624888505275868e-10 1.603594437345023e-11
6.375842739491607 7.075493240852979e-19 1.1974675409971288e-10 1.0388688568769448e-10 1.5859868412018387e-11
6.399797922933955 6.944274629954892e-19 1.1796755600761634e-10 1.0220909880745535e-10 1.5758457200160977e-11
6.42384311029221 6.832507304061814e-19 1.1650497292852591e-10 1.0083295161542052e-10 1.5672021313105403e-11
6.447978639727206 6.756678295149164e-19 1.1564484132506973e-10 1.0000126402048322e-10 1.564357730458653e-11
6.472204850670314 6.692800310550116e-19 1.1498191965618378e-10 9.935533387177603e-11 1.5626585784407757e-11
6.496522083828205 6.656033629570572e-19 1.1477990466938198e-10 9.912352958249502e-11 1.565637508688697e-11
