Dust emission spectrum from A.P. Jones, M. Kohler, N. Ysard, M. Bocchio, and L. Verstraete (2017), A&A, 602A, 46J 
inside the DustPedia framework.

lambda    nu*dP/dnu     j_nu    j_nu(carb.) j_nu(sil)
 (um)   (erg s-1 H-1) (Jy cm2 sr-1 H-1)
0.9927057738263894 1.5162126492064488e-22 3.995306449818209e-15 3.995304321183513e-15 2.1286346955001718e-21
1.0001793341362166 1.5417367031220598e-22 4.093148690299026e-15 4.093146128464881e-15 2.5618341454939254e-21
1.0077091589558085 1.5673591307717104e-22 4.1925008288772695e-15 4.192497749780382e-15 3.0790968875741475e-21
1.0114953028030835 1.5802060574717728e-22 4.242745931184204e-15 4.242742557203238e-15 3.3739809650338626e-21
1.0152956718711033 1.5930761882453265e-22 4.293371945633273e-15 4.293368249759079e-15 3.695874194300899e-21
1.0229392996569957 1.6188717970124627e-22 4.395737542469985e-15 4.395733112124028e-15 4.43034595658409e-21
1.0267826658714554 1.6317680329371018e-22 4.447401950607831e-15 4.4473971022303206e-15 4.848377510821221e-21
1.0306404723013447 1.6446851445362176e-22 4.499449642307119e-15 4.499444338221469e-15 5.304085649681609e-21
1.03451277320114 1.6576227468834793e-22 4.551881925938341e-15 4.551876125244219e-15 5.800694122446555e-21
1.0383996230291617 1.6705804697409935e-22 4.604700147642783e-15 4.604693805956098e-15 6.341686683971975e-21
1.0403485208654093 1.6770667647909282e-22 4.6312544167482535e-15 4.631247786756693e-15 6.629991560912469e-21
1.0423010764483396 1.6835579580181266e-22 4.6579056932819146e-15 4.657898762455226e-15 6.930826688110683e-21
1.0462171883269815 1.6965548722355302e-22 4.7114999904376294e-15 4.7114924182595834e-15 7.572178044777634e-21
1.0471985131304309 1.6998070978346684e-22 4.724959478583742e-15 4.72495173740318e-15 7.741180562719744e-21
1.048180758391296 1.7030605123686417e-22 4.738443378865449e-15 4.738435465074831e-15 7.913790618475301e-21
1.0501480137395462 1.7095708889944907e-22 4.765484510464528e-15 4.765476240336901e-15 8.270127626877327e-21
1.0521189612883777 1.71608596427874e-22 4.792623576339126e-15 4.792614934547305e-15 8.641791820718077e-21
1.0531058218030118 1.719340920071277e-22 4.806217784688429e-15 4.8062089511092795e-15 8.833579146978331e-21
1.0540936079674168 1.7225828435195263e-22 4.819796813968162e-15 4.819787784489762e-15 9.029478398291952e-21
1.058054026499678 1.735561483785118e-22 4.874356404406897e-15 4.874346548956437e-15 9.855450461643771e-21
1.0590464539527713 1.7388088595242238e-22 4.888057294512508e-15 4.8880472215448475e-15 1.0072967660802054e-20
1.06003981227728 1.7420573134005942e-22 4.901782631996298e-15 4.90177233692385e-15 1.0295072448956351e-20
1.0620293250338977 1.748557439871604e-22 4.9293067515212956e-15 4.92929599810711e-15 1.0753414184313372e-20
1.0660195594769086 1.7615704618873906e-22 4.984649497708366e-15 4.9846377683973234e-15 1.1729311041584454e-20
1.070024785945596 1.7746003186064573e-22 5.040386340581941e-15 5.040373551038587e-15 1.278954335257368e-20
1.0740450607676866 1.7876467979716009e-22 5.096519035369327e-15 5.09650509436177e-15 1.3941007557382628e-20
1.07808044048254 1.8007097076042612e-22 5.1530493973699974e-15 5.153034206240295e-15 1.5191129702838867e-20
1.0861967418109137 1.8268640918295038e-22 5.2672528686171805e-15 5.267234848685648e-15 1.8019931532003987e-20
1.0902777775684922 1.8399096791147275e-22 5.324797512147973e-15 5.3247778956783684e-15 1.961646960524759e-20
1.0943741465085532 1.8529703449110924e-22 5.3827440141036454e-15 5.382722666642074e-15 2.1347461570963313e-20
1.1026131145906286 1.8791366062067922e-22 5.49985119878385e-15 5.499825942406137e-15 2.5256377711789617e-20
1.1109141095355224 1.9053624976698642e-22 5.618592416922911e-15 5.618562574799887e-15 2.9842123023613396e-20
1.1192775983109025 1.931627430367964e-22 5.73892578812379e-15 5.73889057338705e-15 3.521473674127807e-20
1.1277040513999907 1.9578371415517906e-22 5.8605872625999275e-15 5.8605457616903216e-15 4.150090960844448e-20
1.1361939428280308 1.9841046814077807e-22 5.983929724787123e-15 5.983880878485704e-15 4.8846301417588806e-20
1.1447477501889525 2.0104313632715544e-22 6.1089768934879255e-15 6.108919475332356e-15 5.74181555710907e-20
1.1533659546722406 2.0368284666058978e-22 6.23578333079612e-15 6.2357159224629865e-15 6.740833313292004e-20
1.1707974979042381 2.089921278132964e-22 6.4950297754661626e-15 6.494937220690574e-15 9.255477558897415e-20
1.1884924949847024 2.143324725973523e-22 6.761668122024297e-15 6.761541676573072e-15 1.2644545122558887e-19
1.2064549276569216 2.197419593129586e-22 7.037096834338179e-15 7.0369249413882736e-15 1.7189294990801413e-19
1.2246888378427687 2.2518769258091836e-22 7.320484804879004e-15 7.320252274602133e-15 2.325302768701268e-19
1.2431983285522175 2.306681275939427e-22 7.611976536742359e-15 7.61166350314805e-15 3.130335943090199e-19
1.2619875648066055 2.3619449967760337e-22 7.91214592555215e-15 7.911726534448044e-15 4.193911041054135e-19
1.3004222497298317 2.47368515942289e-22 8.53882765785569e-15 8.538085464742737e-15 7.421931129525652e-19
1.3400274889804893 2.5878621676987497e-22 9.205010370796355e-15 9.203720997521879e-15 1.2893732744761595e-18
1.3808389325824078 2.7054948524067816e-22 9.916517175843565e-15 9.914317248474494e-15 2.199927369073493e-18
1.4228933163050095 2.828379462956552e-22 1.0682661017729919e-14 1.0678972761780795e-14 3.688255949119689e-18
1.466228494730424 2.959682312667268e-22 1.1519037324886661e-14 1.1512958298799245e-14 6.07902608741663e-18
1.5108834753276823 3.1006869847675466e-22 1.2435359088575968e-14 1.2425504498733921e-14 9.85458984204588e-18
1.5568984535646726 3.2532941995280686e-22 1.34447601566582e-14 1.3429031461153054e-14 1.5728695505144014e-17
1.6043148490894465 3.420875139258743e-22 1.456787677201519e-14 1.4543113526611136e-14 2.47632454040529e-17
1.6531753430134553 3.607545726927904e-22 1.583070284349698e-14 1.579229069639472e-14 3.8412147102263135e-17
1.7035239163302658 3.8184296882150686e-22 1.7266426576952307e-14 1.7207707776831533e-14 5.871880012077127e-17
1.755405889504358 4.061454432438043e-22 1.8924681067319527e-14 1.883617974849805e-14 8.850131882148376e-17
1.8088679632656115 4.3429577224633215e-22 2.085268110705955e-14 2.0721116518374543e-14 1.3156458868501273e-16
1.8639582606462262 4.670521955218275e-22 2.31084615940843e-14 2.291547976349687e-14 1.9298183058742924e-16
1.9207263702978936 5.053765861378451e-22 2.5766180772829857e-14 2.5486769395538138e-14 2.7941137729171226e-16
1.979223391128241 5.504195505929253e-22 2.8917323892980574e-14 2.851785028301836e-14 3.9947360996221633e-16
2.039501978296691 6.034901758193434e-22 3.2671100877340685e-14 3.2106941971632325e-14 5.641589057083657e-16
2.1016163906111602 6.662266029089778e-22 3.716591679784706e-14 3.637857823553861e-14 7.873385623084388e-16
2.1656225393682647 7.403463344565266e-22 4.255857974647501e-14 4.1472365117309217e-14 1.086214629165804e-15
2.231578038680979 8.2757516559120995e-22 4.902176700146339e-14 4.753994227442317e-14 1.4818247270402124e-15
2.299542257339062 9.298912203927524e-22 5.676007689353925e-14 5.4760511319334916e-14 1.9995655742043283e-15
2.369576372248914 1.0494928300777914e-21 6.601150276826174e-14 6.334175635245509e-14 2.6697464158066725e-15
2.4417434235010123 1.1887228899967483e-21 7.704599803353015e-14 7.351800263695094e-14 3.5279953965792003e-15
2.5161083711144245 1.3501743912282826e-21 9.017551725575538e-14 8.555971687722792e-14 4.615800378527452e-15
2.5927381535095444 1.5366506610946125e-21 1.0575556718612614e-13 9.97747538361523e-14 5.980813349973873e-15
2.6717017477616296 1.7509236104974706e-21 1.2417226602705808e-13 1.1649553499211872e-13 7.676731034939323e-15
2.753070231689431 1.9958444264333938e-21 1.4585234267469233e-13 1.3608901407737064e-13 9.763328597321672e-15
2.836916847834745 2.2750415596483143e-21 1.713189382288845e-13 1.5901223369270943e-13 1.2306704536175091e-14
2.9233170693905177 2.5932647612440553e-21 2.0122976227563274e-13 1.858539658577019e-13 1.537579641793091e-14
2.967498994190263 2.7674971219086178e-21 2.1799533067098552e-13 2.0089819185574476e-13 1.7097138815240804e-14
3.0123486681368425 2.953107328272329e-21 2.361314874145113e-13 2.171451510102689e-13 1.898633640424236e-14
3.0578761833420214 3.168192865813438e-21 2.5715853390141693e-13 2.3609547343376157e-13 2.1063060467655326e-14
3.1040917844459814 3.400739484189286e-21 2.8020594883677273e-13 2.568853077073493e-13 2.3320641129423392e-14
3.127460860933648 3.544371296393889e-21 2.942391973778186e-13 2.697107225742871e-13 2.452847480353148e-14
3.1510058709225794 3.7043228907966855e-21 3.0983286344643264e-13 2.8404607147403454e-13 2.5786791972398057e-14
3.162844764501044 3.8116579084914106e-21 3.200082878694185e-13 2.9357057465298886e-13 2.643771321642956e-14
3.1747281389236908 3.927322032304923e-21 3.3095769894393287e-13 3.038560127546847e-13 2.7101686189248143e-14
3.1986289994194426 4.2077077450619195e-21 3.572554565828059e-13 3.287825712816473e-13 2.847288530115853e-14
3.2227097969389145 4.728459886877533e-21 4.044923771025196e-13 3.7456721013489413e-13 2.992516696762553e-14
3.2348180950136065 5.173344159995207e-21 4.442123902032018e-13 4.135123770275947e-13 3.0700013175607224e-14
3.240889293275058 5.493113801088716e-21 4.725548507393055e-13 4.4144612551552743e-13 3.1108725223778e-14
3.2469718861334385 5.859412865633283e-21 5.050124230549998e-13 4.734808015866466e-13 3.153162146835321e-14
3.2714166318528037 7.74486003878034e-21 6.725411530975521e-13 6.392624709071409e-13 3.3278682190411265e-14
3.2744851364798273 7.869415227860887e-21 6.83998135420376e-13 6.50513718909182e-13 3.348441651119382e-14
3.2775565192852394 7.99696404823676e-21 6.957364648981938e-13 6.620452998825043e-13 3.3691165015689514e-14
3.283707930232385 7.914597034805065e-21 6.898628573041656e-13 6.558022657259612e-13 3.406059157820443e-14
3.2898708863219004 7.593475647609408e-21 6.631150604661809e-13 6.287185519560878e-13 3.439650851009297e-14
3.29141343181113 7.51791656078197e-21 6.568245416732071e-13 6.2234368993792e-13 3.448085173528702e-14
3.292184975758714 7.480815824194128e-21 6.537363355903435e-13 6.192132575844724e-13 3.452307800587127e-14
3.295272960557952 7.242694651411052e-21 6.335209828766393e-13 5.988337058971333e-13 3.4687276979506144e-14
3.3076538914384823 6.417612721856909e-21 5.634598792472584e-13 5.281132424489593e-13 3.5346636798299205e-14
3.310756385682612 6.2500694230048076e-21 5.492644609091856e-13 5.137516564780312e-13 3.551280443115437e-14
3.313861789986515 6.095691832945159e-21 5.362000223212641e-13 5.00520518394037e-13 3.567950392722699e-14
3.3200813396944477 5.889154699491408e-21 5.190044954091386e-13 4.829663071175408e-13 3.6038188291597797e-14
3.345076488085796 5.5983119351701354e-21 4.970871989362237e-13 4.594502286087264e-13 3.763697032749723e-14
3.3482140837626964 5.6305565482845054e-21 5.004192139770966e-13 4.625656499287334e-13 3.785356404836355e-14
3.3513546224236106 5.663003566525475e-21 5.037750481261033e-13 4.657039299903346e-13 3.807111813576861e-14
3.3576445397418455 5.813050446477699e-21 5.180936174609261e-13 4.795675958421496e-13 3.8526021618776534e-14
3.3702598118196083 6.305799479860973e-21 5.641219145091446e-13 5.246417422988483e-13 3.948017221029632e-14
3.382922481734668 6.472055834817244e-21 5.811707315362363e-13 5.40763525590224e-13 4.04072059460122e-14
3.389271646505754 6.5570559073274166e-21 5.899085599734478e-13 5.490315500113312e-13 4.087700996211679e-14
3.395632727569191 6.648406176556908e-21 5.992495106603806e-13 5.578883391552728e-13 4.1361171505107875e-14
3.421196662673239 7.068299176430605e-21 6.418926401481178e-13 5.98527687025808e-13 4.336495312230979e-14
3.4276182099114902 7.046703434234744e-21 6.411326125865327e-13 5.973209020892777e-13 4.3811710497254994e-14
3.4340518103208963 6.84147057148884e-21 6.236281913550467e-13 5.79394130514769e-13 4.423406084027767e-14
3.4469541582030403 6.562347248896688e-21 6.004324401002081e-13 5.553881467138024e-13 4.5044293386405566e-14
3.472904465399547 6.592496960038121e-21 6.077321445218038e-13 5.608208163878533e-13 4.691132813395058e-14
3.4990501388274233 6.57649975608777e-21 6.108216292202503e-13 5.620006913609334e-13 4.882093785931677e-14
3.5253949054701885 6.2000044736272246e-21 5.801886231126398e-13 5.295140278979408e-13 5.0674595214699034e-14
3.5519380250092896 5.847229743912571e-21 5.512961640257271e-13 4.987597110944628e-13 5.253645293126437e-14
3.578680990867387 5.793687087829558e-21 5.503607516402702e-13 4.957838314119198e-13 5.457692022835038e-14
3.605625307711299 5.8587278962805245e-21 5.607294347967797e-13 5.040043036402548e-13 5.672513115652497e-14
3.660119384959845 6.093779591076389e-21 5.920405131198634e-13 5.308057969227614e-13 6.123471619710174e-14
3.715437065384467 6.3513330995702974e-21 6.263891587567014e-13 5.604058407921375e-13 6.598331796456381e-14
3.8285932144167436 6.948606273414045e-21 7.061652826285309e-13 6.2999521206193e-13 7.617007056660084e-14
3.94519561050918 7.58805177448738e-21 7.946360429013327e-13 7.073869118658992e-13 8.724913103543376e-14
4.06534921144712 8.256493185792535e-21 8.909696635173034e-13 7.917696918476114e-13 9.919997166969203e-14
4.189162171576248 8.947334400497824e-21 9.949248432542677e-13 8.828882111794959e-13 1.1203663207477173e-13
4.316745939156006 9.65467413516901e-21 1.1062761311639068e-12 9.805746041488027e-13 1.25701527015104e-13
4.448215356677963 1.0371845831573719e-20 1.2246480375087812e-12 1.084654373753393e-12 1.3999366375538806e-13
4.58368876423945 1.1094309810261447e-20 1.3498479258809968e-12 1.1949274561351396e-12 1.5492046974585687e-13
4.723288106065518 1.181814598531688e-20 1.481710028992866e-12 1.3111445888376916e-12 1.7056544015517425e-13
4.867139040275056 1.2535653502964667e-20 1.61953435599579e-12 1.4330393095303868e-12 1.8649504646540313e-13
4.940699165968905 1.2892086958933234e-20 1.6907565175814735e-12 1.4961438451806764e-12 1.9461267240079664e-13
5.015371051989984 1.3244290727463357e-20 1.7631984989017797e-12 1.5603934261716478e-12 2.0280507273013164e-13
5.091171501069577 1.359671258589167e-20 1.83747346979951e-12 1.626221648140846e-12 2.1125182165866395e-13
5.129500256944802 1.377080532021236e-20 1.8750110332051683e-12 1.6595174549193167e-12 2.1549357828585176e-13
5.168117569889187 1.3944017737028395e-20 1.9128888885894168e-12 1.6930988108971851e-12 2.197900776922317e-13
5.20702561229733 1.4121252686081882e-20 1.9517867765534184e-12 1.7272967795663234e-12 2.244899969870947e-13
5.246226572918644 1.4296948428504106e-20 1.9909475844416474e-12 1.7617335375372827e-12 2.2921404690436406e-13
5.265937586045735 1.4384191851109473e-20 2.0106228197465353e-12 1.7790383647964595e-12 2.3158445495007563e-13
5.285722656980489 1.447101794285318e-20 2.030359243121331e-12 1.7963991511093526e-12 2.339600920119783e-13
5.305582063971359 1.4557416039304755e-20 2.050155314718042e-12 1.8138146291383712e-12 2.3634068557967014e-13
5.3255160863122235 1.4644064656048907e-20 2.0701068936598494e-12 1.831361155282941e-12 2.387457383769086e-13
5.365609099470188 1.482131167351646e-20 2.1109361774141804e-12 1.8672138680623234e-12 2.437223093518573e-13
5.406003951863644 1.499690645793657e-20 2.1520258041449468e-12 1.903302949351478e-12 2.487228547934689e-13
5.446702915881641 1.5170776014418418e-20 2.1933650412845035e-12 1.939619847608104e-12 2.537451936763998e-13
5.487708281020852 1.534406931785777e-20 2.2351208079439768e-12 1.976311238396943e-12 2.588095695470342e-13
5.529022354014368 1.55262263293326e-20 2.278681841647915e-12 2.0145933149490747e-12 2.640885266988402e-13
5.570647458961463 1.5707008302899507e-20 2.3225687650779592e-12 2.0531769258606796e-12 2.6939183921728004e-13
5.612585937458331 1.588638971728428e-20 2.3667786832678235e-12 2.0920613981650003e-12 2.7471728510282313e-13
5.654840148729818 1.6066138985736174e-20 2.4115778456153778e-12 2.131487643198842e-12 2.800902024165359e-13
5.67608639626678 1.6163317948991247e-20 2.435280248243517e-12 2.1523767777008214e-12 2.829034705426957e-13
5.686739436050992 1.6211878754806866e-20 2.4471810988682985e-12 2.162868439030425e-12 2.843126598378734e-13
5.6974124697621304 1.6260422711940704e-20 2.45911549488346e-12 2.173391989094341e-12 2.8572350578911825e-13
5.718818669136295 1.635746738438667e-20 2.4830863489064894e-12 2.194536322563889e-12 2.885500263426005e-13
5.740305295436557 1.6456661174624142e-20 2.507530079484466e-12 2.2161252500600953e-12 2.9140482942437055e-13
5.7835210386641895 1.6672675177000807e-20 2.5595701808790976e-12 2.2622660074741967e-12 2.973041734049005e-13
5.827062130521658 1.6894975597665718e-20 2.613224075243831e-12 2.309937035271791e-12 3.032870399720391e-13
5.8489554468988025 1.702592994776828e-20 2.64337384457973e-12 2.3368485101512126e-12 3.065253344285166e-13
5.870931020387893 1.715878050200801e-20 2.674008783513735e-12 2.3642334670750296e-12 3.097753164387057e-13
5.892989160043636 1.729370585754562e-20 2.7051611594255506e-12 2.392124448266707e-12 3.1303671115884363e-13
5.915130176081913 1.7437218787228202e-20 2.7378582330551603e-12 2.4214384139331725e-12 3.164198191219885e-13
5.95966208400165 1.7791477737246416e-20 2.814511906798989e-12 2.4903375024221042e-12 3.2417440437688594e-13
6.004529249263818 1.823900286751832e-20 2.907029837579921e-12 2.5741036296935373e-12 3.3292620788638364e-13
6.027089341400364 1.8525519163467467e-20 2.9637901465386946e-12 2.625784264391011e-12 3.380058821476829e-13
6.049734195844842 1.88454520496977e-20 3.0263021484407243e-12 2.682910651149311e-12 3.433914972914139e-13
6.095279466722835 1.971200255132421e-20 3.1892884672596707e-12 2.8325807483001132e-12 3.5670771895955775e-13
6.141167624020661 2.094839221665602e-20 3.41484567233449e-12 3.0407582558882204e-12 3.7408741644626983e-13
6.164241091010745 2.1722917302258872e-20 3.5544073483431185e-12 3.1693651695271197e-12 3.8504217881599867e-13
6.187401249150058 2.255984880443819e-20 3.7052191364840115e-12 3.3089367247619077e-12 3.9628241172210366e-13
6.1990139391386085 2.2965476672802764e-20 3.778918364850761e-12 3.376918229245781e-12 4.0200013560497923e-13
6.204828454712694 2.3175268750313424e-20 3.8170160947813094e-12 3.4121289153054276e-12 4.048871794758805e-13
6.210648424152782 2.332989199738436e-20 3.846087022777186e-12 3.438750579690828e-12 4.0733644308635823e-13
6.233982942956859 2.384537193839198e-20 3.945837025070785e-12 3.5300057760156334e-12 4.158312490551518e-13
6.239830258556775 2.3906823271089393e-20 3.9597163780676384e-12 3.542739849006555e-12 4.1697652906108403e-13
6.245683058788269 2.3911369565800412e-20 3.9641842048025115e-12 3.546060896375575e-12 4.181233084269368e-13
6.257405133728602 2.3894331068994005e-20 3.9687942423381965e-12 3.5486832771828974e-12 4.2011096515529835e-13
6.269149208991335 2.3789863741687058e-20 3.9588586351797115e-12 3.538112018365025e-12 4.2074661681468784e-13
6.280915325867298 2.3535608009956212e-20 3.923898761821828e-12 3.5041871288810097e-12 4.197116329408179e-13
6.304513850009849 2.2911332842390352e-20 3.834170229088647e-12 3.4180384206196608e-12 4.1613180846898666e-13
6.32820103803542 2.2163269695192977e-20 3.722918524994449e-12 3.3119728270146595e-12 4.109456979797887e-13
6.3519772230701035 2.1490264615661007e-20 3.6234321072302097e-12 3.217159780130619e-12 4.062723270995908e-13
6.375842739491607 2.0914279057302655e-20 3.5395652941725927e-12 3.137439547600593e-12 4.021257465719989e-13
6.399797922933955 2.0488530160010074e-20 3.4805389446131747e-12 3.0806578883560406e-12 3.9988105625713313e-13
6.42384311029221 2.0129821344359895e-20 3.4324504701027033e-12 3.0344343949106462e-12 3.980160751920586e-13
6.447978639727206 1.9890825985316338e-20 3.4044412275006796e-12 3.0068093968036035e-12 3.9763183069707534e-13
6.472204850670314 1.9692991708283413e-20 3.383244509510279e-12 2.9857039276518574e-12 3.975405818584216e-13
6.496522083828205 1.9586015793149212e-20 3.377508514384889e-12 2.978861552975057e-12 3.986469614098311e-13
6.520930681187647 1.950018484245036e-20 3.37534169893309e-12 2.975409192777935e-12 3.9993250615515466e-13
6.57002334288761 1.9456388740299668e-20 3.393115011570103e-12 2.988960980150905e-12 4.0415403141919903e-13
