Dust emission spectrum from A.P. Jones, M. Kohler, N. Ysard, M. Bocchio, and L. Verstraete (2017), A&A, 602A, 46J 
inside the DustPedia framework.

lambda    nu*dP/dnu     j_nu    j_nu(carb.) j_nu(sil)
 (um)   (erg s-1 H-1) (Jy cm2 sr-1 H-1)
0.9927057738263894 5.4250559358551715e-27 1.429533052800397e-19 1.4295330403487506e-19 1.2451646253981568e-27
1.0001793341362166 5.514630986915752e-27 1.464076489576157e-19 1.4640764745808634e-19 1.4995293362441424e-27
1.0077091589558085 5.6040914108683806e-27 1.4990283607561921e-19 1.4990283427211144e-19 1.8035077771289394e-27
1.0114953028030835 5.648767849267858e-27 1.516655799119632e-19 1.5166557793505235e-19 1.976910879501038e-27
1.0152956718711033 5.693402721159172e-27 1.534383333237837e-19 1.5343833115750514e-19 2.1662785652680177e-27
1.0229392996569957 5.782486873670691e-27 1.5701240015634458e-19 1.5701239755769176e-19 2.5986528325300667e-27
1.0267826658714554 5.8268282330693365e-27 1.5881085256318562e-19 1.588108497182823e-19 2.8449032901936785e-27
1.0306404723013447 5.8711088092664006e-27 1.6061893985945315e-19 1.6061893674598344e-19 3.113469708341021e-27
1.03451277320114 5.915324428228108e-27 1.6243658818954296e-19 1.6243658478326858e-19 3.406274427528048e-27
1.0383996230291617 5.959470940452347e-27 1.6426372279826982e-19 1.6426371907287374e-19 3.725396103929745e-27
1.0403485208654093 5.9815169917317546e-27 1.6518082385507098e-19 1.6518081995955e-19 3.8955210346078654e-27
1.0423010764483396 6.003544221801823e-27 1.6610026805088086e-19 1.661002639777993e-19 4.073081606733164e-27
1.0462171883269815 6.0475401743204206e-27 1.6794614745314411e-19 1.6794614300138538e-19 4.451758753822978e-27
1.0471985131304309 6.058526602148715e-27 1.684090667202206e-19 1.6840906216864733e-19 4.551573317409086e-27
1.048180758391296 6.069507879012862e-27 1.688725633258933e-19 1.6887255867236256e-19 4.653530699742987e-27
1.0501480137395462 6.0914547270326634e-27 1.6980128367150523e-19 1.6980127880745534e-19 4.864049939606884e-27
1.0521189612883777 6.113380213852014e-27 1.7073229869545917e-19 1.7073229361178212e-19 5.083677066638711e-27
1.0531058218030118 6.124318008073463e-27 1.7119819452834309e-19 1.7119818933131305e-19 5.1970300151914914e-27
1.0540936079674168 6.1351952921528675e-27 1.7166312107099346e-19 1.7166311575816674e-19 5.312826693502224e-27
1.058054026499678 6.178645623372608e-27 1.7352840072922316e-19 1.7352839492801202e-19 5.801211172533707e-27
1.0590464539527713 6.189493195561873e-27 1.7399610772733272e-19 1.7399610179746818e-19 5.929864509443224e-27
1.06003981227728 6.200334640186382e-27 1.7446436703338063e-19 1.7446436097213324e-19 6.0612473156245796e-27
1.0620293250338977 6.2219989010699455e-27 1.7540253749544688e-19 1.7540253116302415e-19 6.332422694554559e-27
1.0660195594769086 6.265251196527106e-27 1.77285450145008e-19 1.7728544323498616e-19 6.910021879402965e-27
1.070024785945596 6.308398612519038e-27 1.7917705673836519e-19 1.7917704920051726e-19 7.537847983155371e-27
1.0740450607676866 6.3514372840001526e-27 1.8107727464167388e-19 1.810772664216346e-19 8.220039236662611e-27
1.07808044048254 6.3943633787741996e-27 1.8298602054739768e-19 1.8298601158634306e-19 8.961054552236881e-27
1.0861967418109137 6.479787055748158e-27 1.868265795472391e-19 1.8682656890810084e-19 1.0639138270012087e-26
1.0902777775684922 6.522105181128717e-27 1.8875322977349306e-19 1.8875321818654539e-19 1.1586947611750973e-26
1.0943741465085532 6.564292739676835e-27 1.9068792735058509e-19 1.906879147354741e-19 1.2615111034702093e-26
1.1026131145906286 6.648261645863908e-27 1.9458111593409896e-19 1.9458110099534628e-19 1.49387526762816e-26
1.1109141095355224 6.731665128037883e-27 1.9850544286408757e-19 1.9850542519646727e-19 1.7667620297020354e-26
1.1192775983109025 6.81439802868572e-27 2.0245790654316125e-19 2.024578856749979e-19 2.0868163329976289e-26
1.1277040513999907 6.896078677769073e-27 2.064271333048019e-19 2.06427108687809e-19 2.4616992875291162e-26
1.1361939428280308 6.977100693153748e-27 2.1042478565683515e-19 2.104247566545271e-19 2.900230803926617e-26
1.1447477501889525 7.057438167263632e-27 2.1445012985111206e-19 2.14450095725592e-19 3.4125520044163903e-26
1.1533659546722406 7.137109150179098e-27 2.185037522718921e-19 2.1850371216876116e-19 4.0103130961221214e-26
1.1707974979042381 7.294709592008897e-27 2.2670402229601135e-19 2.267039671202076e-19 5.517580374124026e-26
1.1884924949847024 7.449320148216164e-27 2.350079293470941e-19 2.3500785381039154e-19 7.553670260945448e-26
1.2064549276569216 7.602147396729629e-27 2.4345394728872566e-19 2.434538443836791e-19 1.029050466188017e-25
1.2246888378427687 7.751548744142672e-27 2.5199021378748173e-19 2.5199007427932995e-19 1.395081518421012e-25
1.2431983285522175 7.897186314980278e-27 2.606046945581193e-19 2.6060450633650707e-19 1.8822161221514697e-25
1.2619875648066055 8.03901996714955e-27 2.692945820725476e-19 2.69294329333535e-19 2.527390126328607e-25
1.3004222497298317 8.308995787469888e-27 2.868153320514188e-19 2.868148827216451e-19 4.493297736680636e-25
1.3400274889804893 8.560545175074758e-27 3.044980837843713e-19 3.0449729948788676e-19 7.8429648462525755e-25
1.3808389325824078 8.792884278207023e-27 3.222877614883546e-19 3.222864168092054e-19 1.3446791493106318e-24
1.4228933163050095 9.007267935638994e-27 3.402004268257459e-19 3.4019816117129553e-19 2.265654450344961e-24
1.466228494730424 9.208870849647703e-27 3.5840781486292575e-19 3.584040614927599e-19 3.7533701658406325e-24
1.5108834753276823 9.394162248098386e-27 3.7675451106589287e-19 3.767483947121573e-19 6.116353735625514e-24
1.5568984535646726 9.560366955111367e-27 3.9509750068026093e-19 3.9508768635922996e-19 9.814321030928985e-24
1.6043148490894465 9.708086278423032e-27 4.1342112424133497e-19 4.134055887909358e-19 1.553545039903972e-23
1.6531753430134553 9.838113305390811e-27 4.317180157018377e-19 4.316937841365502e-19 2.4231565287444182e-23
1.7035239163302658 9.952254345155037e-27 4.500275845228429e-19 4.499903336109338e-19 3.7250911909170716e-23
1.755405889504358 1.0058882211941666e-26 4.687018921949544e-19 4.686454235196036e-19 5.64686753508235e-23
1.8088679632656115 1.0156718013385274e-26 4.876741045209179e-19 4.8758966463520855e-19 8.443988570934006e-23
1.8639582606462262 1.0245205358955989e-26 5.069046604018729e-19 5.067800570610323e-19 1.2460334084075668e-22
1.9207263702978936 1.032618424750768e-26 5.26471422129278e-19 5.26289904923936e-19 1.8151720534202116e-22
1.979223391128241 1.0402908880295268e-26 5.46536337956395e-19 5.4627519410314905e-19 2.611438532460772e-22
2.039501978296691 1.0479219873531004e-26 5.673127141450826e-19 5.669415456902523e-19 3.71168454830186e-22
2.1016163906111602 1.0563937667176891e-26 5.893166479417509e-19 5.887952475955095e-19 5.214003462412899e-22
2.1656225393682647 1.0662960137088546e-26 6.129569610969883e-19 6.122328076520587e-19 7.241534449294317e-22
2.231578038680979 1.0778348391170486e-26 6.384600522843063e-19 6.374653693532794e-19 9.946829310268127e-22
2.299542257339062 1.09146781792904e-26 6.662262844713126e-19 6.6487462584500435e-19 1.3516586263085658e-21
2.369576372248914 1.1079847547737815e-26 6.969055586737068e-19 6.950878725564134e-19 1.8176861172935557e-21
2.4417434235010123 1.1283001625099212e-26 7.312975364864802e-19 7.288777788686652e-19 2.419757617814928e-21
2.5161083711144245 1.1538317054822844e-26 7.706217177864058e-19 7.674318913310744e-19 3.1898264553311647e-21
2.5927381535095444 1.1867458800061256e-26 8.167437585094612e-19 8.125785009684639e-19 4.1652575409976324e-21
2.6717017477616296 1.2295766536484889e-26 8.71993035116597e-19 8.666040275725598e-19 5.389007544037127e-21
2.753070231689431 1.2859904478225667e-26 9.397762520367341e-19 9.328663005941817e-19 6.90995144255242e-21
2.836916847834745 1.3639148816242142e-26 1.0270777180464163e-18 1.0182943386880167e-18 8.783379358399475e-21
2.9233170693905177 1.480371357326073e-26 1.1487248844251207e-18 1.137655753329622e-18 1.106913109549836e-20
2.967498994190263 1.569416281886623e-26 1.2362268369563996e-18 1.223860912308324e-18 1.2365924648075619e-20
3.0123486681368425 1.6716168756296663e-26 1.3366306583261134e-18 1.3228344196300792e-18 1.379623869603457e-20
3.0578761833420214 1.8786819710627554e-26 1.5249043281381193e-18 1.5095285093776168e-18 1.5375818760502597e-20
3.1040917844459814 2.1408082035731843e-26 1.76393162942552e-18 1.746828082420667e-18 1.710354700485354e-20
3.127460860933648 2.406918062261189e-26 1.998124856485698e-18 1.9800927465803373e-18 1.803210990536066e-20
3.1510058709225794 2.758020464059311e-26 2.3068328626168265e-18 2.2878302894916917e-18 1.9002573125134623e-20
3.162844764501044 3.080277810837498e-26 2.5860516658967364e-18 2.56654588556116e-18 1.9505780335576447e-20
3.1747281389236908 3.453975869280672e-26 2.910685440363827e-18 2.890665525968259e-18 2.0019914395567983e-20
3.1986289994194426 4.491533554526408e-26 3.81353688991941e-18 3.792452648215767e-18 2.108424170364338e-20
3.2227097969389145 6.921640202321015e-26 5.921062599378471e-18 5.898847857946778e-18 2.221474143169579e-20
3.2348180950136065 9.220581947035916e-26 7.917309614601613e-18 7.89449087394043e-18 2.281874066118395e-20
3.240889293275058 1.0937922005277916e-25 9.409541268884393e-18 9.386403916439116e-18 2.313735244527632e-20
3.2469718861334385 1.292429890110091e-25 1.1139224447920193e-17 1.1115757407273516e-17 2.3467040646677117e-20
3.2714166318528037 2.3511146697834187e-25 2.041639698023157e-17 2.039156527917193e-17 2.483170105964399e-20
3.2744851364798273 2.41737900892591e-25 2.1011507041281628e-17 2.0986513898605918e-17 2.499314267571164e-20
3.2775565192852394 2.4855392789079394e-25 2.1624210148278737e-17 2.1599054698381563e-17 2.5155449897175926e-20
3.283707930232385 2.420473751201462e-25 2.1097662088044635e-17 2.1072215133039196e-17 2.5446955005432868e-20
3.2898708863219004 2.213406379855987e-25 1.9329002600759125e-17 1.930328920758205e-17 2.571339317708017e-20
3.29141343181113 2.164575484552944e-25 1.8911440278218063e-17 1.8885659950029664e-17 2.5780328188396185e-20
3.292184975758714 2.1405818367202024e-25 1.870619674184347e-17 1.8680382897237172e-17 2.581384460630339e-20
3.295272960557952 1.9890982206980716e-25 1.7398710293127053e-17 1.7372765859051213e-17 2.5944434075844057e-20
3.3076538914384823 1.4642678396950756e-25 1.2856122921382905e-17 1.2829653375097008e-17 2.6469546285897423e-20
3.310756385682612 1.3574442240840322e-25 1.1929401411310216e-17 1.190279938098575e-17 2.66020303244667e-20
3.313861789986515 1.258880607640267e-25 1.1073588173672206e-17 1.1046853175278706e-17 2.6734998393503928e-20
3.3200813396944477 1.1207752682144767e-25 9.877264772768344e-18 9.85024430023255e-18 2.7020472535795497e-20
3.345076488085796 8.75347651056071e-26 7.772416346172067e-18 7.744124989225706e-18 2.829135694636002e-20
3.3482140837626964 8.848041465763163e-26 7.86375186460561e-18 7.835288393134955e-18 2.8463471470656537e-20
3.3513546224236106 8.943634824007273e-26 7.956166742538265e-18 7.927530314702085e-18 2.863642783617968e-20
3.3576445397418455 9.631947996153826e-26 8.58456472461304e-18 8.555566884977948e-18 2.8997839635093764e-20
3.3702598118196083 1.2163385849324705e-25 1.0881463221513308e-17 1.0851707157047683e-17 2.9756064465622147e-20
3.382922481734668 1.2746597106305253e-25 1.1446052620586329e-17 1.1415557281163587e-17 3.049533942274305e-20
3.389271646505754 1.3048613478884969e-25 1.1739245319499746e-17 1.1708374808909448e-17 3.0870510590300884e-20
3.395632727569191 1.3374081663573924e-25 1.2054636373885276e-17 1.2023379205353175e-17 3.1257168532100915e-20
3.421196662673239 1.4934918701914175e-25 1.3562830543358943e-17 1.3529970176801707e-17 3.2860366557237574e-20
3.4276182099114902 1.4628336372066898e-25 1.3309348979344919e-17 1.3276128327280498e-17 3.3220652064420234e-20
3.4340518103208963 1.3270809481674768e-25 1.2096888860947343e-17 1.2063326225645518e-17 3.356263530182773e-20
3.4469541582030403 1.1338949322523674e-25 1.0374752739639234e-17 1.0340531225615655e-17 3.4221514023579034e-20
3.472904465399547 1.0810911666281642e-25 9.966085037295397e-18 9.930349204469395e-18 3.5735832826004235e-20
3.4990501388274233 9.995793792067897e-26 9.284037521279711e-18 9.24674624695918e-18 3.7291274320531577e-20
3.5253949054701885 7.05534315559873e-26 6.60230141517819e-18 6.563489845660211e-18 3.881156951798141e-20
3.5519380250092896 4.2913787811533023e-26 4.046053882001511e-18 4.005706759554553e-18 4.034712244695791e-20
3.578680990867387 3.2062887875632836e-26 3.0457556308243133e-18 3.003724130582084e-18 4.2031500242229346e-20
3.605625307711299 2.778462086664096e-26 2.659221426631762e-18 2.6154112111635474e-18 4.381021546821419e-20
3.660119384959845 2.4906920325589247e-26 2.419829215909126e-18 2.3722610886593698e-18 4.756812724975553e-20
3.715437065384467 2.299253785807285e-26 2.267598978169521e-18 2.2160384355493165e-18 5.156054262020362e-20
3.8285932144167436 2.2657209739982356e-26 2.3025818833375096e-18 2.2423317039322957e-18 6.025017940521332e-20
3.94519561050918 2.334044057257421e-26 2.444257879014941e-18 2.3743650480514144e-18 6.989283096352646e-20
4.06534921144712 2.448983397415987e-26 2.6427320467118373e-18 2.5622106304131845e-18 8.05214162986525e-20
4.189162171576248 2.594678316655781e-26 2.885227937105342e-18 2.7930268101426646e-18 9.220112696267825e-20
4.316745939156006 2.7654768071844304e-26 3.168808123653931e-18 3.063865605472184e-18 1.0494251818174812e-19
4.448215356677963 2.9597162392794864e-26 3.494663093605327e-18 3.376029984902632e-18 1.186331087026948e-19
4.58368876423945 3.1782548132410005e-26 3.8669919453723626e-18 3.7336488642743395e-18 1.333430810980234e-19
4.723288106065518 3.4237632816924476e-26 4.292572115528157e-18 4.143354482362751e-18 1.4921763316540593e-19
4.867139040275056 3.7005955059244e-26 4.780956619509939e-18 4.615009319189338e-18 1.6594730032060032e-19
4.940699165968905 3.8560164350644886e-26 5.057043859736755e-18 4.882346692540318e-18 1.7469716719643753e-19
5.015371051989984 4.017015201891047e-26 5.3478101015655294e-18 5.164120381814488e-18 1.8368971975104226e-19
5.091171501069577 4.1982353578913346e-26 5.6735376594663015e-18 5.4804337786663385e-18 1.931038807999614e-19
5.129500256944802 4.291251469759595e-26 5.8429000083584465e-18 5.6449989841960925e-18 1.9790102416235257e-19
5.168117569889187 4.3871518138899817e-26 6.018447563401834e-18 5.815651196453583e-18 2.0279636694825205e-19
5.20702561229733 4.495635763605524e-26 6.213699755018328e-18 6.00560569769873e-18 2.0809405731959705e-19
5.246226572918644 4.606517535981467e-26 6.4148898674526386e-18 6.2014207918508316e-18 2.1346907560180732e-19
5.265937586045735 4.662877613139155e-26 6.517771892718263e-18 6.3015864657795376e-18 2.161854269387252e-19
5.285722656980489 4.719861470850089e-26 6.622211651893843e-18 6.403290732870819e-18 2.1892091902302257e-19
5.305582063971359 4.7774775521638554e-26 6.728234576843657e-18 6.506559093168072e-18 2.2167548367558583e-19
5.3255160863122235 4.8378072907019955e-26 6.838796780744445e-18 6.614330041063689e-18 2.2446673968075637e-19
5.365609099470188 4.9768503135493837e-26 7.088315533650691e-18 6.858071410536451e-18 2.3024412311424107e-19
5.406003951863644 5.120131424173321e-26 7.347285239352266e-18 7.111179319563832e-18 2.361059197884333e-19
5.446702915881641 5.267826627961388e-26 7.616134308710956e-18 7.374082597375178e-18 2.4205171133577573e-19
5.487708281020852 5.424180032309242e-26 7.901227115898644e-18 7.653125156443391e-18 2.481019594552514e-19
5.529022354014368 5.622297136890437e-26 8.251474712807439e-18 7.997054720806955e-18 2.5441999200048515e-19
5.570647458961463 5.829739364069569e-26 8.620337046001278e-18 8.359505780283642e-18 2.6083126571763373e-19
5.612585937458331 6.047120288725161e-26 9.009092467963003e-18 8.741756980579716e-18 2.6733548738328697e-19
5.654840148729818 6.281467985001572e-26 9.428680434061329e-18 9.154721606207064e-18 2.7395882785426567e-19
5.67608639626678 6.431488471081338e-26 9.690137192040928e-18 9.41271639696952e-18 2.7742079507140632e-19
5.686739436050992 6.50843264060012e-26 9.824471045104265e-18 9.545309427046495e-18 2.791616180577686e-19
5.6974124697621304 6.586705225310559e-26 9.961284012559262e-18 9.680375013998207e-18 2.809089985610528e-19
5.718818669136295 6.74735749817397e-26 1.0242582730685867e-17 9.95815930540058e-18 2.8442342528528744e-19
5.740305295436557 6.921734269586082e-26 1.054676686784368e-17 1.0258780253168776e-17 2.8798661467490743e-19
5.7835210386641895 7.357802588706623e-26 1.1295615072515483e-17 1.100024619061274e-17 2.953688819027436e-19
5.827062130521658 7.85151268444699e-26 1.2144298081681765e-17 1.184137665490236e-17 3.029214267794042e-19
5.8489554468988025 8.186738325976574e-26 1.271038353246691e-17 1.2403401962539581e-17 3.069815699273267e-19
5.870931020387893 8.544010157411333e-26 1.3314907900753687e-17 1.30038305127336e-17 3.1107738802008804e-19
5.892989160043636 8.925069315712984e-26 1.396100468975717e-17 1.3645795723341999e-17 3.1520896641516876e-19
5.915130176081913 9.354338861967855e-26 1.4687464773215474e-17 1.4367977225695385e-17 3.1948754752009e-19
5.95966208400165 1.053167398411564e-25 1.6660517054614395e-17 1.6331394297427853e-17 3.2912275718654192e-19
6.004529249263818 1.2200830567384145e-25 1.944633638158358e-17 1.9106427747162537e-17 3.3990863442103737e-19
6.027089341400364 1.3349292830273801e-25 2.1356757780719467e-17 2.1010674682751683e-17 3.4608309796778384e-19
6.049734195844842 1.4699141000164107e-25 2.360465637636076e-17 2.3252042696993918e-17 3.5261367936683806e-19
6.095279466722835 1.8570481227444827e-25 3.0045968924741887e-17 2.9677505327755037e-17 3.684635969868546e-19
6.141167624020661 2.448797115250197e-25 3.991840588505166e-17 3.9529620279813646e-17 3.8878560523801237e-19
6.164241091010745 2.8261105550296463e-25 4.6242168969555815e-17 4.5840750693472963e-17 4.0141827608286263e-19
6.187401249150058 3.2545355452654316e-25 5.345234131317667e-17 5.303791571909628e-17 4.144255940803789e-19
6.1990139391386085 3.463821144303815e-25 5.699641040009203e-17 5.657535867754456e-17 4.210517225474632e-19
6.204828454712694 3.573937272676855e-25 5.886350764049663e-17 5.843910538638017e-17 4.244022541164747e-19
6.210648424152782 3.654608804028022e-25 6.024864365456693e-17 5.982135736035706e-17 4.27286294209848e-19
6.233982942956859 3.929062860861043e-25 6.501656485070339e-17 6.457909732493464e-17 4.37467525768741e-19
6.239830258556775 3.9644841687947303e-25 6.566423617122853e-17 6.522526173056008e-17 4.389744406684546e-19
6.245683058788269 3.9682812486756577e-25 6.57887780242982e-17 6.534829284586957e-17 4.404851784286276e-19
6.257405133728602 3.962411653826567e-25 6.581475962676004e-17 6.537157454775193e-17 4.43185079008111e-19
6.269149208991335 3.910679341490138e-25 6.507740796072021e-17 6.46329636048801e-17 4.444443558400965e-19
6.280915325867298 3.7785518242875895e-25 6.299669342950306e-17 6.255277569092543e-17 4.439177385776385e-19
6.304513850009849 3.451872037256063e-25 5.776645597581024e-17 5.732521212696475e-17 4.412438488454702e-19
6.32820103803542 3.0466367076738505e-25 5.117647528508458e-17 5.073962974504453e-17 4.368455400400498e-19
6.3519772230701035 2.6754131501044284e-25 4.5109625598233346e-17 4.467663200819442e-17 4.329935900389136e-19
6.375842739491607 2.363101258894232e-25 3.999349525594572e-17 3.9563797470727994e-17 4.2969778521772146e-19
6.399797922933955 2.11432198570018e-25 3.591755950870863e-17 3.5489091402079356e-17 4.284681066292781e-19
6.42384311029221 1.907705393617558e-25 3.252937104170943e-17 3.210172156356324e-17 4.2764947814618104e-19
6.447978639727206 1.7585486970078256e-25 3.009867809954513e-17 2.9670224161342385e-17 4.284539382027598e-19
6.472204850670314 1.634754476670002e-25 2.808498672786592e-17 2.7655399921776397e-17 4.295868060895292e-19
6.496522083828205 1.555961090396178e-25 2.6831755301161728e-17 2.639970952113678e-17 4.3204578002494763e-19
