Dust emission spectrum from A.P. Jones, M. Kohler, N. Ysard, M. Bocchio, and L. Verstraete (2017), A&A, 602A, 46J 
inside the DustPedia framework.

lambda    nu*dP/dnu     j_nu    j_nu(carb.) j_nu(sil)
 (um)   (erg s-1 H-1) (Jy cm2 sr-1 H-1)
0.9927057738263894 1.3344818610586673e-26 3.516435500946106e-19 3.516435500946095e-19 1.1023474833129503e-33
1.0001793341362166 1.3565379783223987e-26 3.601465566764559e-19 3.6014655667645465e-19 1.3285535045320569e-33
1.0077091589558085 1.3785629054825776e-26 3.687493191843969e-19 3.687493191843954e-19 1.5991738317356327e-33
1.0114953028030835 1.3895609606632596e-26 3.730876795535745e-19 3.730876795535727e-19 1.7536752562320573e-33
1.0152956718711033 1.4005479723389253e-26 3.7745045825940887e-19 3.774504582594069e-19 1.9224973252978108e-33
1.0229392996569957 1.4224737976299513e-26 3.8624562407974858e-19 3.862456240797462e-19 2.3083017476836057e-33
1.0267826658714554 1.4333860303750709e-26 3.9067095927781488e-19 3.9067095927781228e-19 2.5282192810379492e-33
1.0306404723013447 1.4442823955127156e-26 3.951197546514383e-19 3.9511975465143557e-19 2.7682115352147743e-33
1.03451277320114 1.4551618416217267e-26 3.995918189857403e-19 3.9959181898573725e-19 3.0300237997139594e-33
1.0383996230291617 1.466023323098704e-26 4.0408695867053777e-19 4.040869586705346e-19 3.315544914277339e-33
1.0403485208654093 1.4714470019893523e-26 4.0634312062249426e-19 4.063431206224908e-19 3.467828515745506e-33
1.0423010764483396 1.4768658003585474e-26 4.0860497774614546e-19 4.086049777461419e-19 3.626818350223071e-33
1.0462171883269815 1.4876882400305848e-26 4.131456779492359e-19 4.1314567794923197e-19 3.966054086537458e-33
1.0471985131304309 1.4903905985846372e-26 4.142843734765674e-19 4.1428437347656337e-19 4.055507986692245e-33
1.048180758391296 1.493091624589365e-26 4.154244708976908e-19 4.154244708976868e-19 4.146897078026768e-33
1.0501480137395462 1.4984896151502583e-26 4.1770885875873856e-19 4.1770885875873437e-19 4.335641332960327e-33
1.0521189612883777 1.5038820843743765e-26 4.1999881612200875e-19 4.1999881612200422e-19 4.532615742602424e-33
1.0531058218030118 1.5065720705792657e-26 4.21144718595586e-19 4.211447185955813e-19 4.634301993233464e-33
1.0540936079674168 1.509247070726863e-26 4.222882081025242e-19 4.222882081025194e-19 4.7381968168721106e-33
1.058054026499678 1.5199319161160482e-26 4.268756790698626e-19 4.268756790698575e-19 5.1765672608039335e-33
1.0590464539527713 1.522599260521991e-26 4.280259087275592e-19 4.2802590872755405e-19 5.2920931355298194e-33
1.06003981227728 1.5252650269943873e-26 4.2917747659621304e-19 4.291774765962075e-19 5.410089716659293e-33
1.0620293250338977 1.5305917640542332e-26 4.314846137928089e-19 4.3148461379280336e-19 5.653697379666378e-33
1.0660195594769086 1.5412256216731037e-26 4.361148013742754e-19 4.361148013742693e-19 6.172842777759148e-33
1.070024785945596 1.5518325035937634e-26 4.407660289460186e-19 4.40766028946012e-19 6.73751704613791e-33
1.0740450607676866 1.5624114320888232e-26 4.454380817147213e-19 4.45438081714714e-19 7.351510888098652e-33
1.07808044048254 1.5729614372400614e-26 4.501307430079944e-19 4.501307430079864e-19 8.018912556614739e-33
1.0861967418109137 1.5939522025698833e-26 4.595716424103015e-19 4.59571642410292e-19 9.531913979563251e-33
1.0902777775684922 1.6043486862398805e-26 4.643071336642118e-19 4.643071336642013e-19 1.0387385537477297e-32
1.0943741465085532 1.6147117066442703e-26 4.690620007661029e-19 4.690620007660916e-19 1.1316053612931301e-32
1.1026131145906286 1.6353336733138477e-26 4.786289529925209e-19 4.786289529925075e-19 1.341717026509929e-32
1.1109141095355224 1.6558108227775807e-26 4.882706647209846e-19 4.882706647209688e-19 1.5888367662767538e-32
1.1192775983109025 1.6761170175726953e-26 4.979796323470458e-19 4.979796323470271e-19 1.8791074634159941e-32
1.1277040513999907 1.6961579820520756e-26 5.077277192265706e-19 5.077277192265484e-19 2.2196256929644144e-32
1.1361939428280308 1.7160304619729776e-26 5.17543544262715e-19 5.175435442626888e-19 2.6185774123920636e-32
1.1447477501889525 1.7357278281871533e-26 5.274251779739597e-19 5.274251779739288e-19 3.085394242946158e-32
1.1533659546722406 1.7552543331687438e-26 5.37373956203604e-19 5.373739562035677e-19 3.630933687287791e-32
1.1707974979042381 1.793857757063463e-26 5.574927470706805e-19 5.574927470706304e-19 5.009973012931918e-32
1.1884924949847024 1.8316945607508645e-26 5.77855075837324e-19 5.7785507583725515e-19 6.879052390471688e-32
1.2064549276569216 1.8690603746986506e-26 5.985547269671206e-19 5.985547269670267e-19 9.399977727732064e-32
1.2246888378427687 1.9055473185214555e-26 6.194623707155602e-19 6.194623707154323e-19 1.2783308896474036e-31
1.2431983285522175 1.9410700125291734e-26 6.405470727865856e-19 6.405470727864125e-19 1.7302140198678678e-31
1.2619875648066055 1.9756151153753503e-26 6.618001311170469e-19 6.618001311168138e-19 2.3308865083992185e-31
1.3004222497298317 2.0411984186676217e-26 7.045941738421018e-19 7.045941738416847e-19 4.17200301741143e-31
1.3400274889804893 2.10204013059635e-26 7.476944268316984e-19 7.47694426830965e-19 7.333518843469208e-31
1.3808389325824078 2.1579141480574067e-26 7.909456081267637e-19 7.909456081254969e-19 1.2665605550653954e-30
1.4228933163050095 2.2090913920151803e-26 8.343638046860545e-19 8.343638046839044e-19 2.150314448947166e-30
1.466228494730424 2.2568014416246607e-26 8.783435955159902e-19 8.783435955123998e-19 3.590571966316757e-30
1.5108834753276823 2.3001172525973453e-26 9.224660251870306e-19 9.224660251811313e-19 5.899466363280153e-30
1.5568984535646726 2.33828848435056e-26 9.663352258068006e-19 9.663352257972524e-19 9.547958548122689e-30
1.6043148490894465 2.3713840147367526e-26 1.0098594277631925e-18 1.0098594277479426e-18 1.5249627868695592e-29
1.6531753430134553 2.399503570021093e-26 1.052954858073604e-18 1.0529548580495934e-18 2.4010722806442293e-29
1.7035239163302658 2.4229799054424918e-26 1.0956389943194169e-18 1.0956389942821353e-18 3.7281546535310736e-29
1.755405889504358 2.443739127036803e-26 1.1386803510962892e-18 1.1386803510391682e-18 5.712079257726915e-29
1.8088679632656115 2.4613049601797425e-26 1.1817938539070258e-18 1.1817938538206228e-18 8.640267487370086e-29
1.8639582606462262 2.4753545842846922e-26 1.2247375537711187e-18 1.2247375536420115e-18 1.2910717874720566e-28
1.9207263702978936 2.486121170486601e-26 1.2675270136959784e-18 1.2675270135052844e-18 1.906936308728431e-28
1.979223391128241 2.4941481979525202e-26 1.3103475557798234e-18 1.3103475555012194e-18 2.7860380502266435e-28
2.039501978296691 2.500086277862539e-26 1.3534697706587611e-18 1.3534697702558358e-18 4.0292543460636572e-28
2.1016163906111602 2.5057586601825344e-26 1.3978549861743112e-18 1.3978549855969727e-18 5.773384202698011e-28
2.1656225393682647 2.5122226144181482e-26 1.444143389392183e-18 1.4441433885718416e-18 8.203415288156822e-28
2.231578038680979 2.5195539407910397e-26 1.4924684955334662e-18 1.492468494376475e-18 1.1569913524233366e-27
2.299542257339062 2.528386175570006e-26 1.5433137833186677e-18 1.5433137816972897e-18 1.6213781025265147e-27
2.369576372248914 2.540120207298312e-26 1.5976969760085107e-18 1.5976969737483204e-18 2.2601899462705097e-27
2.4417434235010123 2.5564108446861324e-26 1.6569145472846214e-18 1.6569145441469206e-18 3.1377004460791967e-27
2.5161083711144245 2.5800921243641947e-26 1.7231932659482981e-18 1.7231932616051743e-18 4.3431236174482035e-27
2.5927381535095444 2.6158017331429044e-26 1.8002503948289842e-18 1.80025038882797e-18 6.001014450524425e-27
2.6717017477616296 2.6690782733207816e-26 1.8928609758575617e-18 1.8928609675720486e-18 8.285513489082023e-27
2.753070231689431 2.748260946333346e-26 2.008374460430232e-18 2.008374448989655e-18 1.1440577450228504e-26
2.836916847834745 2.872234177593068e-26 2.1628972339565684e-18 2.162897218146773e-18 1.5809794942159267e-26
2.9233170693905177 3.0825767220063904e-26 2.391989395900203e-18 2.3919893740259113e-18 2.1874291971391748e-26
2.967498994190263 3.261172219918075e-26 2.568820436444692e-18 2.5688204107204172e-18 2.57242743212588e-26
3.0123486681368425 3.469759556860525e-26 2.774431790162946e-18 2.774431759887051e-18 3.027589527656549e-26
3.0578761833420214 3.9363056011187644e-26 3.1950535218181528e-18 3.1950534861332886e-18 3.568486369870861e-26
3.1040917844459814 4.537479112274919e-26 3.7386828538121056e-18 3.738682811729723e-18 4.208238429815147e-26
3.127460860933648 5.17332058345373e-26 4.294678996532567e-18 4.29467895077929e-18 4.5753277451152084e-26
3.1510058709225794 6.020450288802068e-26 5.03555820377006e-18 5.035558153999964e-18 4.977009595505693e-26
3.162844764501044 6.80894150659445e-26 5.716456633934096e-18 5.716456581957607e-18 5.197649003787191e-26
3.1747281389236908 7.725873682246774e-26 6.5106384329456925e-18 6.5106383786619164e-18 5.428377681101709e-26
3.1986289994194426 1.0283380699181534e-25 8.731105127756086e-18 8.731105068462862e-18 5.929322679590985e-26
3.2227097969389145 1.6311811545883505e-25 1.395381072250097e-17 1.3953810657139076e-17 6.536189285206293e-26
3.2348180950136065 2.2028556055141853e-25 1.891495565605062e-17 1.8914955586953282e-17 6.909733576325951e-26
3.240889293275058 2.6302543963506763e-25 2.262722963117111e-17 2.2627229559854127e-17 7.131697787058387e-26
3.2469718861334385 3.124688769366216e-25 2.6931139397357137e-17 2.693113932356816e-17 7.378897361600723e-26
3.2714166318528037 5.762078075294814e-25 5.0036212579603565e-17 5.0036212494650617e-17 8.495295787595432e-26
3.2744851364798273 5.926953395469727e-25 5.151621758211314e-17 5.151621749595451e-17 8.615863150270335e-26
3.2775565192852394 6.096564340220925e-25 5.304015494511222e-17 5.304015485772904e-17 8.738317997759157e-26
3.283707930232385 5.933469777259529e-25 5.1718115227694426e-17 5.1718115138748794e-17 8.894566126960773e-26
3.2898708863219004 5.416218939758814e-25 4.7298187502147926e-17 4.729818741234367e-17 8.980425191507486e-26
3.29141343181113 5.294238278674423e-25 4.625464519038742e-17 4.625464510036751e-17 9.001990708962884e-26
3.292184975758714 5.234301302513144e-25 4.574170830157186e-17 4.574170821144396e-17 9.012788630549415e-26
3.295272960557952 4.855970805657374e-25 4.2475343027487396e-17 4.24753429370786e-17 9.040879556749691e-26
3.3076538914384823 3.545315557276688e-25 3.1127510530403897e-17 3.112751043894453e-17 9.14593736762745e-26
3.310756385682612 3.278563474267901e-25 2.881245434845982e-17 2.8812454256735454e-17 9.172436738696079e-26
3.313861789986515 3.0324430907258915e-25 2.667451205697811e-17 2.66745119649878e-17 9.199031425595571e-26
3.3200813396944477 2.6872897685100684e-25 2.368277862431016e-17 2.3682778531353376e-17 9.295679061903635e-26
3.345076488085796 2.0715927375226114e-25 1.8394156009108555e-17 1.8394155909598845e-17 9.950971009543531e-26
3.3482140837626964 2.094687604882865e-25 1.8616666323729902e-17 1.861666622308467e-17 1.0064523887945054e-25
3.3513546224236106 2.1180378174684133e-25 1.8841849398352423e-17 1.884184929655836e-17 1.0179406225063066e-25
3.3576445397418455 2.2886581851314464e-25 2.0397882474678747e-17 2.0397882370146822e-17 1.0453192445477545e-25
3.3702598118196083 2.917960270224231e-25 2.6104308253975848e-17 2.6104308142999953e-17 1.1097589602726054e-25
3.382922481734668 3.0613118211771497e-25 2.7489639706179867e-17 2.748963958973367e-17 1.1644619560660502e-25
3.389271646505754 3.1355779443585584e-25 2.820937164458279e-17 2.8209371525297495e-17 1.1928530177772825e-25
3.395632727569191 3.215603370170352e-25 2.8983619455247954e-17 2.8983619332924477e-17 1.2232347002555143e-25
3.421196662673239 3.5998514008237935e-25 3.269128912257737e-17 3.269128898704219e-17 1.3553518623872795e-25
3.4276182099114902 3.5224452764867936e-25 3.204838352974225e-17 3.2048383391732083e-17 1.3801015743793023e-25
3.4340518103208963 3.183199423198564e-25 2.901617244813703e-17 2.9016172308147826e-17 1.3998921736382737e-25
3.4469541582030403 2.7000576632255476e-25 2.4704608726920844e-17 2.4704608583687006e-17 1.432338513030712e-25
3.472904465399547 2.564705579232888e-25 2.364284778866588e-17 2.3642847634047444e-17 1.5461843854964295e-25
3.4990501388274233 2.357662877188228e-25 2.189784130172172e-17 2.1897841135191827e-17 1.665298928228904e-25
3.5253949054701885 1.6206767855807458e-25 1.516608958487741e-17 1.516608940867735e-17 1.762000577237907e-25
3.5519380250092896 9.279946828696936e-26 8.749440868728465e-18 8.749440683209312e-18 1.8551914992677553e-25
3.578680990867387 6.533855931110859e-26 6.206717426816612e-18 6.206717228079441e-18 1.9873717133852198e-25
3.605625307711299 5.423598556220757e-26 5.190839047031038e-18 5.190838832571463e-18 2.144595746655212e-25
3.660119384959845 4.6148381001126094e-26 4.483541086318092e-18 4.483540835187558e-18 2.5113053264758256e-25
3.715437065384467 4.042914790357489e-26 3.987254257894908e-18 3.9872539640129795e-18 2.938819298174723e-25
3.8285932144167436 3.756917802049442e-26 3.818038923355069e-18 3.818038520257536e-18 4.030975313138807e-25
3.94519561050918 3.7084056995538883e-26 3.883517031966123e-18 3.883516480717412e-18 5.512487095515391e-25
4.06534921144712 3.7593737469329095e-26 4.056792498907734e-18 4.056791747993486e-18 7.509142492804549e-25
4.189162171576248 3.869973929210062e-26 4.303329944506371e-18 4.303328926088661e-18 1.0184177097881602e-24
4.316745939156006 4.0260436660057547e-26 4.613222516233408e-18 4.613221141591788e-18 1.3746416197160066e-24
4.448215356677963 4.223685859600421e-26 4.987085889058588e-18 4.987084043130442e-18 1.8459281471720467e-24
4.58368876423945 4.464931924928008e-26 5.432495757860837e-18 5.432493291792552e-18 2.4660682868033837e-24
4.723288106065518 4.7562798382659917e-26 5.9632259965405426e-18 5.963222718597832e-18 3.277942708980697e-24
4.867139040275056 5.109354955642767e-26 6.60099282872156e-18 6.6009884938639795e-18 4.3348575806737306e-24
4.940699165968905 5.321891847721733e-26 6.979493200799646e-18 6.979488224064653e-18 4.9767349940665014e-24
5.015371051989984 5.544487438510799e-26 7.381317829644466e-18 7.381312123972421e-18 5.705672044758514e-24
5.091171501069577 5.81265232342968e-26 7.855277050243014e-18 7.855270512951598e-18 6.537291414725537e-24
5.129500256944802 5.951359940163978e-26 8.103277398021211e-18 8.103270404322445e-18 6.99369876915021e-24
5.168117569889187 6.096217376352089e-26 8.363003190022326e-18 8.362995710147488e-18 7.479874841119341e-24
5.20702561229733 6.270346804121713e-26 8.666639036033309e-18 8.666631033561702e-18 8.00247160485948e-24
5.246226572918644 6.449552715396703e-26 8.981442063431754e-18 8.981433505002254e-18 8.558429504332778e-24
5.265937586045735 6.541113520507242e-26 9.143170674458189e-18 9.143161824947133e-18 8.849511054718924e-24
5.285722656980489 6.634009284410176e-26 9.307860803397791e-18 9.307851653742514e-18 9.149655277363637e-24
5.305582063971359 6.728262837875394e-26 9.475571611504836e-18 9.475562152389377e-18 9.459115457655056e-24
5.3255160863122235 6.828906363468025e-26 9.653444225496158e-18 9.653434446078908e-18 9.779417247982996e-24
5.365609099470188 7.074181992764778e-26 1.0075455548797669e-17 1.0075445088581793e-17 1.0460215879161252e-23
5.406003951863644 7.329170956195636e-26 1.05172123764069e-17 1.051720119214176e-17 1.1184265140006929e-23
5.446702915881641 7.594330193070228e-26 1.0979753666932108e-17 1.0979741712909686e-17 1.1954022427158107e-23
5.487708281020852 7.879960378377263e-26 1.1478482691020631e-17 1.1478469915603065e-17 1.277541756213773e-23
5.529022354014368 8.266356803410328e-26 1.213198670750248e-17 1.213197302869422e-17 1.3678808262889918e-23
5.570647458961463 8.675232126853817e-26 1.282791909132183e-17 1.2827904450797897e-17 1.4640523934639694e-23
5.612585937458331 9.108147094225905e-26 1.3569457107820921e-17 1.3569441443888999e-17 1.5663931920931744e-23
5.654840148729818 9.582210799714404e-26 1.438319891115321e-17 1.4383182151942174e-17 1.6759211040381167e-23
5.67608639626678 9.898970971616063e-26 1.4914492532529216e-17 1.4914475170256648e-17 1.7362272565671412e-23
5.686739436050992 1.0062114408134632e-25 1.5188749290970623e-17 1.518873161973342e-17 1.7671237197039482e-23
5.6974124697621304 1.0228532290670414e-25 1.546893502801279e-17 1.5468917042757385e-17 1.7985255403005936e-23
5.718818669136295 1.05714992959667e-25 1.6047683282771058e-17 1.6047664654019823e-17 1.8628751235772134e-23
5.740305295436557 1.0947968120892252e-25 1.6681609398816186e-17 1.668159009543038e-17 1.930338580257816e-23
5.7835210386641895 1.1913854499664551e-25 1.829001428561339e-17 1.828999348320199e-17 2.0802411396227027e-23
5.827062130521658 1.3021957546072718e-25 2.0141664466743554e-17 2.0141642036131514e-17 2.243061204064826e-23
5.8489554468988025 1.3791312420710584e-25 2.1411808134516858e-17 2.1411784747345652e-17 2.3387171210870482e-23
5.870931020387893 1.4615634434229035e-25 2.2776872079679918e-17 2.2776847697820814e-17 2.438185910049454e-23
5.892989160043636 1.5499305602234302e-25 2.4244728029149933e-17 2.424470261307791e-17 2.541607203134927e-23
5.915130176081913 1.6501543746154386e-25 2.5909457210354956e-17 2.5909430682635878e-17 2.652771907355277e-23
5.95966208400165 1.928648821697703e-25 3.0510141725541397e-17 3.051011249072181e-17 2.9234819574518975e-23
6.004529249263818 2.3280664673076613e-25 3.710596864034324e-17 3.710593597830131e-17 3.266204194878949e-23
6.027089341400364 2.604818576072489e-25 4.167297856088584e-17 4.1672943714365176e-17 3.4846520656856855e-23
6.049734195844842 2.9313798411502676e-25 4.707364454710009e-17 4.707360725340308e-17 3.7293697021875897e-23
6.095279466722835 3.8725658150581655e-25 6.265588420309613e-17 6.265584027035114e-17 4.393274497691865e-23
6.141167624020661 5.318214160262261e-25 8.669343413992372e-17 8.669338055492776e-17 5.358499594348565e-23
6.164241091010745 6.241107628685654e-25 1.0211998005854318e-16 1.0211992012218792e-16 5.993635527523452e-23
6.187401249150058 7.2916206684921665e-25 1.197572407114912e-16 1.1975717375870739e-16 6.69527838421807e-23
6.1990139391386085 7.804774969575819e-25 1.284258449596471e-16 1.2842577439297525e-16 7.056667185207086e-23
6.204828454712694 8.075005111280783e-25 1.329970530537353e-16 1.3299698060714938e-16 7.244658589049724e-23
6.210648424152782 8.272614036484737e-25 1.3637951471758008e-16 1.3637944070792174e-16 7.400965836672225e-23
6.233982942956859 8.944674688436202e-25 1.480129085595011e-16 1.480128289949278e-16 7.956457330395319e-23
6.239830258556775 9.03109891645535e-25 1.4958319591830738e-16 1.4958311558470312e-16 8.033360422109191e-23
6.245683058788269 9.039552966305268e-25 1.4986365790923073e-16 1.4986357679973129e-16 8.110949945641619e-23
6.257405133728602 9.023315836904105e-25 1.4987523122911102e-16 1.4987514876205085e-16 8.246706009428529e-23
6.269149208991335 8.89408441732122e-25 1.4800598809580438e-16 1.4800590518974172e-16 8.290606267687225e-23
6.280915325867298 8.566749690418237e-25 1.4282638667694311e-16 1.4282630447423783e-16 8.220270524220823e-23
6.304513850009849 7.758349249255772e-25 1.2983457541732973e-16 1.2983449568556205e-16 7.973176770899079e-23
6.32820103803542 6.755377173939246e-25 1.134747678030459e-16 1.1347469187370623e-16 7.592933965043341e-23
6.3519772230701035 5.835800381433562e-25 9.839630573028322e-17 9.839623339936415e-17 7.233091907310322e-23
6.375842739491607 5.062293557506667e-25 8.567504782722859e-17 8.567497865740967e-17 6.916981891059479e-23
6.399797922933955 4.443602094379056e-25 7.548677246764182e-17 7.548670543094443e-17 6.703669740452868e-23
6.42384311029221 3.929550309222983e-25 6.700500007151733e-17 6.700493483891604e-17 6.523260127734644e-23
6.447978639727206 3.556305432476358e-25 6.086842668496954e-17 6.08683622951925e-17 6.438977703834103e-23
6.472204850670314 3.245918813105308e-25 5.576469622000316e-17 5.576463243271561e-17 6.378728753031705e-23
6.496522083828205 3.045899768876464e-25 5.25249877871619e-17 5.2524923763787177e-17 6.402337470691965e-23
