Dust emission spectrum from A.P. Jones, M. Kohler, N. Ysard, M. Bocchio, and L. Verstraete (2017), A&A, 602A, 46J 
inside the DustPedia framework.

lambda    nu*dP/dnu     j_nu    j_nu(carb.) j_nu(sil)
 (um)   (erg s-1 H-1) (Jy cm2 sr-1 H-1)
0.9927057738263894 1.3533898918647694e-27 3.5662592360748936e-20 3.566259236053861e-20 2.103176222429237e-31
1.0001793341362166 1.375668138386641e-27 3.6522541284259633e-20 3.652254128400624e-20 2.5340367313990145e-31
1.0077091589558085 1.3979123346503404e-27 3.739250632899744e-20 3.7392506328692516e-20 3.049278464838462e-31
1.0114953028030835 1.4090189216650496e-27 3.783120099172719e-20 3.7831200991392856e-20 3.343344015062874e-31
1.0152956718711033 1.4201137143072646e-27 3.82723464552654e-20 3.827234645489895e-20 3.664595000674955e-31
1.0229392996569957 1.4422526549771568e-27 3.916161954831616e-20 3.9161619547876326e-20 4.398487826310817e-31
1.0267826658714554 1.4532698657118434e-27 3.960903207481553e-20 3.960903207433388e-20 4.816682603133418e-31
1.0306404723013447 1.4642704074844165e-27 4.005879777709376e-20 4.005879777656647e-20 5.272943259684185e-31
1.03451277320114 1.475253218119782e-27 4.0510897140903237e-20 4.0510897140326156e-20 5.770567149087879e-31
1.0383996230291617 1.4862172414544489e-27 4.096531041222802e-20 4.096531041159671e-20 6.313121593009729e-31
1.0403485208654093 1.4916918795265072e-27 4.1193378525665776e-20 4.119337852500552e-20 6.602441450083254e-31
1.0423010764483396 1.4971614275384477e-27 4.142201760195256e-20 4.142201760126211e-20 6.904464603311068e-31
1.0462171883269815 1.5080847328327771e-27 4.188099849053594e-20 4.1880998489781067e-20 7.548767079215196e-31
1.0471985131304309 1.5108121748693191e-27 4.1996096587089535e-20 4.199609658631768e-20 7.718638090472091e-31
1.048180758391296 1.5135382308784403e-27 4.211133519143723e-20 4.211133519064802e-20 7.892172893404274e-31
1.0501480137395462 1.5189861204023e-27 4.234223263268901e-20 4.234223263186396e-20 8.250536576058444e-31
1.0521189612883777 1.5244282728502298e-27 4.25736882241247e-20 4.257368822326226e-20 8.624478347870108e-31
1.0531058218030118 1.527142961555971e-27 4.268950721703167e-20 4.2689507216149916e-20 8.817503841505694e-31
1.0540936079674168 1.5298424205075032e-27 4.2805079894851626e-20 4.280507989395019e-20 9.014709486520374e-31
1.058054026499678 1.5406245491764317e-27 4.3268724319042314e-20 4.326872431805763e-20 9.846654862922917e-31
1.0590464539527713 1.5433160756982222e-27 4.3384972190786203e-20 4.3384972189779604e-20 1.0065865689174303e-30
1.06003981227728 1.5460059685195816e-27 4.35013541010247e-20 4.350135409999573e-20 1.0289749842422682e-30
1.0620293250338977 1.5513807904125519e-27 4.3734518695151185e-20 4.373451869407601e-20 1.0751919411001877e-30
1.0660195594769086 1.5621101423341145e-27 4.4202441541896434e-20 4.420244154072277e-20 1.1736636415304232e-30
1.070024785945596 1.5728116107531037e-27 4.467247118142027e-20 4.467247118013954e-20 1.2807422733252622e-30
1.0740450607676866 1.5834842093380587e-27 4.514458574398081e-20 4.5144585742583655e-20 1.3971414419488182e-30
1.07808044048254 1.594126959772338e-27 4.561876317263362e-20 4.5618763171109983e-20 1.5236304774524967e-30
1.0861967418109137 1.61530015655794e-27 4.657267292821494e-20 4.6572672926404685e-20 1.8102589890037116e-30
1.0902777775684922 1.625785739704987e-27 4.7051113216775253e-20 4.7051113214803e-20 1.9722543379956084e-30
1.0943741465085532 1.6362368969544e-27 4.7531491191562545e-20 4.753149118941448e-20 2.1480597063756212e-30
1.1026131145906286 1.657032220670118e-27 4.849796771120487e-20 4.849796770865921e-20 2.5456435403572117e-30
1.1109141095355224 1.677678792500119e-27 4.947191599027052e-20 4.947191598725754e-20 3.012978238703635e-30
1.1192775983109025 1.6981501698070387e-27 5.045257511049082e-20 5.045257510692923e-20 3.561584966143241e-30
1.1277040513999907 1.7183508741020027e-27 5.14370936770445e-20 5.143709367283975e-20 4.2047626368174574e-30
1.1361939428280308 1.7383789920387402e-27 5.242837145077109e-20 5.242837144581324e-20 4.957839404199033e-30
1.1447477501889525 1.7582278534511826e-27 5.3426212535510155e-20 5.342621252967169e-20 5.83846106253898e-30
1.1533659546722406 1.7779018228204313e-27 5.44307521831234e-20 5.443075217625646e-20 6.866923963960657e-30
1.1707974979042381 1.816789163764301e-27 5.646193393913406e-20 5.646193392966998e-20 9.464085172573256e-30
1.1884924949847024 1.854893205721226e-27 5.851736839917185e-20 5.851736838619247e-20 1.2979399096559218e-29
1.2064549276569216 1.892513848723489e-27 6.060655532258126e-20 6.060655530486719e-20 1.7714115983778598e-29
1.2246888378427687 1.9292382346303162e-27 6.271639013543297e-20 6.271639011137346e-20 2.4059536541954782e-29
1.2431983285522175 1.9649804093977412e-27 6.484374294581468e-20 6.484374291329244e-20 3.2522209371710144e-29
1.2619875648066055 1.9997272329226423e-27 6.698773129679637e-20 6.698773125304186e-20 4.3754520014888023e-29
1.3004222497298317 2.0656555388039106e-27 7.130364419721318e-20 7.13036441191141e-20 7.809908300800937e-29
1.3400274889804893 2.1267668142620295e-27 7.564896935355808e-20 7.564896921667334e-20 1.3688471915070806e-28
1.3808389325824078 2.1828362255642302e-27 8.000803588151366e-20 8.000803564581924e-20 2.356944338522774e-28
1.4228933163050095 2.2341420152596474e-27 8.438253115279893e-20 8.438253075391974e-20 3.9887915187109697e-28
1.466228494730424 2.2819317949793826e-27 8.881242897831309e-20 8.881242831449821e-20 6.638148873458627e-28
1.5108834753276823 2.3252708356245923e-27 9.32553913414535e-20 9.325539025463389e-20 1.0868195844222508e-27
1.5568984535646726 2.3634039322184704e-27 9.767145875276092e-20 9.767145700040506e-20 1.7523558123216155e-27
1.6043148490894465 2.3964044467301735e-27 1.0205144372337146e-19 1.0205144093576405e-19 2.7876073982542387e-27
1.6531753430134553 2.4243766751151187e-27 1.0638697227861826e-19 1.063869679084713e-19 4.3701469590896785e-27
1.7035239163302658 2.447660280147479e-27 1.1067991285245994e-19 1.1067990609905385e-19 6.753406131913752e-27
1.755405889504358 2.4682049488917163e-27 1.150080402072022e-19 1.150080299144415e-19 1.0292760710839015e-26
1.8088679632656115 2.485531336342826e-27 1.1934261314651388e-19 1.1934259766975604e-19 1.547675782980606e-26
1.8639582606462262 2.4993157209707897e-27 1.236592866992431e-19 1.2365926373021385e-19 2.2969029250424784e-26
1.9207263702978936 2.5097957924261008e-27 1.279597311476952e-19 1.2795969748976172e-19 3.365793341849235e-26
1.979223391128241 2.5175226178732885e-27 1.3226277458808338e-19 1.3226272587049577e-19 4.871758758822861e-26
2.039501978296691 2.523155140905671e-27 1.3659585431658606e-19 1.3659578463834154e-19 6.96782444939164e-26
2.1016163906111602 2.5285357079919566e-27 1.4105613215276178e-19 1.410560336369548e-19 9.851580697125986e-26
2.1656225393682647 2.5347328197575115e-27 1.4570833112160426e-19 1.4570819337945563e-19 1.37742148678014e-25
2.231578038680979 2.5418240822391622e-27 1.5056603085620697e-19 1.5056584034484476e-19 1.905113622032155e-25
2.299542257339062 2.5504499935795697e-27 1.5567814231815208e-19 1.556778815785076e-19 2.607396445397523e-25
2.369576372248914 2.5620256815050646e-27 1.6114751861095932e-19 1.6114716536862766e-19 3.532423316991935e-25
2.4417434235010123 2.5782226535313672e-27 1.671051673738056e-19 1.6710469350727434e-19 4.738665313049746e-25
2.5161083711144245 2.6019026529740945e-27 1.737760093106307e-19 1.7377537965205547e-19 6.296585753086464e-25
2.5927381535095444 2.6377487867539432e-27 1.8153548239713015e-19 1.8153465337671692e-19 8.290204132421667e-25
2.6717017477616296 2.691355807979782e-27 1.908659791656947e-19 1.9086489734151977e-19 1.081824174827733e-24
2.753070231689431 2.7711468478299107e-27 2.0250990222412007e-19 2.025085026515775e-19 1.3995725425162619e-24
2.836916847834745 2.8961952266791412e-27 2.1809407790112383e-19 2.1809228229250784e-19 1.7956086160263432e-24
2.9233170693905177 3.1084951415219964e-27 2.41210133154068e-19 2.412078482419173e-19 2.2849121506360743e-24
2.967498994190263 3.288806536787918e-27 2.5905879461422407e-19 2.5905622865304215e-19 2.5659611819316793e-24
3.0123486681368425 3.4994204404552694e-27 2.7981487356806464e-19 2.798119957494998e-19 2.877818564790666e-24
3.0578761833420214 3.9705478420690354e-27 3.222847550948415e-19 3.222815308688646e-19 3.224225976912817e-24
3.1040917844459814 4.577722166325727e-27 3.771841357122407e-19 3.771805298484631e-19 3.605863777674257e-24
3.127460860933648 5.219885058865306e-27 4.333334918064718e-19 4.3332967973276314e-19 3.812073708685161e-24
3.1510058709225794 6.075498714201642e-27 5.081601196707156e-19 5.081560912653411e-19 4.0284053742152026e-24
3.162844764501044 6.87181243838556e-27 5.769240015135247e-19 5.769198606123625e-19 4.140901162121278e-24
3.1747281389236908 7.797912722522204e-27 6.571346148807977e-19 6.571303588175884e-19 4.256063209290033e-24
3.1986289994194426 1.0381168995682861e-26 8.814132287986106e-19 8.814087336363314e-19 4.495162279309336e-24
3.2227097969389145 1.647014531360144e-26 1.4089256097130378e-18 1.4089208596406435e-18 4.7500723951418294e-24
3.2348180950136065 2.2244335390701826e-26 1.9100235914701803e-18 1.9100187049170013e-18 4.886553178969075e-24
3.240889293275058 2.656121392313322e-26 2.284975504860884e-18 2.2849705462737575e-18 4.9585871277019094e-24
3.2469718861334385 3.155511586495941e-26 2.7196795802205495e-18 2.719674547065829e-18 5.03315472072875e-24
3.2714166318528037 5.819360122087035e-26 5.053363323805997e-18 5.053357981187619e-18 5.3426183797767146e-24
3.2744851364798273 5.98587270128858e-26 5.202833562587425e-18 5.202828183184423e-18 5.3794030000538145e-24
3.2775565192852394 6.157167866582552e-26 5.356740607362641e-18 5.356735190957824e-18 5.4164048155575985e-24
3.283707930232385 5.992390687085429e-26 5.223168966526473e-18 5.223163483366837e-18 5.483159635649485e-24
3.2898708863219004 5.469906518727311e-26 4.776702474909671e-18 4.776696930456136e-18 5.544453534843972e-24
3.29141343181113 5.346692986667203e-26 4.671293093029161e-18 4.671287533167329e-18 5.5598618322703736e-24
3.292184975758714 5.286150409006686e-26 4.619480921568736e-18 4.6194753539899966e-18 5.567578739415883e-24
3.295272960557952 4.90399892860775e-26 4.289544666462352e-18 4.289539068767805e-18 5.5976945484535416e-24
3.3076538914384823 3.5801506259692467e-26 3.143335889567266e-18 3.1433301705921238e-18 5.718975142416942e-24
3.310756385682612 3.3107235371166463e-26 2.9095081282464795e-18 2.90950237863217e-18 5.749614309429009e-24
3.313861789986515 3.062138720184746e-26 2.6935726003074016e-18 2.6935668199256257e-18 5.780381776147122e-24
3.3200813396944477 2.7135248102059985e-26 2.3913985058378016e-18 2.3913926595059206e-18 5.846331882210179e-24
3.345076488085796 2.091622576153951e-26 1.8572005626916503e-18 1.857194422825919e-18 6.1398657310985856e-24
3.3482140837626964 2.1149393110795068e-26 1.8796654621684335e-18 1.879659282528515e-18 6.179639918154711e-24
3.3513546224236106 2.138513827361309e-26 1.9024001903609502e-18 1.9023939707299954e-18 6.219630954645121e-24
3.3576445397418455 2.3108115226604472e-26 2.0595326190072396e-18 2.0595263158278668e-18 6.303179373060058e-24
3.3702598118196083 2.9463307045892956e-26 2.6358112451216662e-18 2.635804766520581e-18 6.47860108526627e-24
3.382922481734668 3.091046711651297e-26 2.775664988795309e-18 2.7756583385629053e-18 6.650232405004568e-24
3.389271646505754 3.1660192149852533e-26 2.84832379402642e-18 2.848317056543952e-18 6.737482468188617e-24
3.395632727569191 3.246800690615142e-26 2.9264814353904664e-18 2.9264746079600675e-18 6.82743039877388e-24
3.421196662673239 3.634660661715896e-26 3.3007402063157797e-18 3.3007330050333822e-18 7.201282396867076e-24
3.4276182099114902 3.556462725269673e-26 3.2357885639703898e-18 3.2357812779883875e-18 7.2859820030813e-24
3.4340518103208963 3.213863921836738e-26 2.9295691969922717e-18 2.929561830298138e-18 7.36669413299339e-24
3.4469541582030403 2.725956391085791e-26 2.494157327291057e-18 2.4941498044215275e-18 7.522869529035285e-24
3.472904465399547 2.589227039952109e-26 2.3868899920354895e-18 2.386882110661116e-18 7.881374372863918e-24
3.4990501388274233 2.3801085733404378e-26 2.2106315675646597e-18 2.2106233160768435e-18 8.251487816826296e-24
3.5253949054701885 1.635882198535186e-26 1.5308379927463804e-18 1.5308293768841951e-18 8.615862185094674e-24
3.5519380250092896 9.364727060441778e-27 8.82937447591194e-19 8.829284613745726e-19 8.986216621407655e-24
3.578680990867387 6.592085331742477e-27 6.262031385291344e-19 6.261937451290696e-19 9.39340006492071e-24
3.605625307711299 5.471089885716697e-27 5.236292235534489e-19 5.236193983474371e-19 9.825206011744881e-24
3.660119384959845 4.654460980012747e-27 4.522036653472697e-19 4.521929205080222e-19 1.074483924745139e-23
3.715437065384467 4.0771299772973926e-27 4.0209983897613976e-19 4.020881062375375e-19 1.1732738602367298e-23
3.8285932144167436 3.7884486831419206e-27 3.8500827788882115e-19 3.8499435552447955e-19 1.3922364341679604e-23
3.94519561050918 3.7395734527302535e-27 3.9161565299377407e-19 3.9159923851906194e-19 1.6414474712223797e-23
4.06534921144712 3.791172424103053e-27 4.091106893725295e-19 4.090914517991708e-19 1.923757335872945e-23
4.189162171576248 3.903017100524396e-27 4.340073258848917e-19 4.339848945655902e-19 2.243131930168035e-23
4.316745939156006 4.060811817388774e-27 4.653061433074338e-19 4.652801170489362e-19 2.602625849751534e-23
4.448215356677963 4.260624121770351e-27 5.030700469346393e-19 5.030400218328108e-19 3.00251018284337e-23
4.58368876423945 4.504505668163779e-27 5.480645247229474e-19 5.480300433181723e-19 3.4481404774930794e-23
4.723288106065518 4.799013843835445e-27 6.016804116754971e-19 6.01640936246749e-19 3.947542874828723e-23
4.867139040275056 5.155876135874757e-27 6.661095518740364e-19 6.6606457779975535e-19 4.497407428095248e-23
4.940699165968905 5.370646823954485e-27 7.043433813434852e-19 7.042954347367283e-19 4.794660675710634e-23
5.015371051989984 5.595596410904057e-27 7.449358667208792e-19 7.448847935165371e-19 5.107320434203614e-23
5.091171501069577 5.8665151945415504e-27 7.928067878209761e-19 7.927523745604544e-19 5.441326052193924e-23
5.129500256944802 6.006653632474436e-27 8.17856441336852e-19 8.178002944110008e-19 5.614692585104872e-23
5.168117569889187 6.1530020095439454e-27 8.440902326357244e-19 8.440322982724055e-19 5.793436331874948e-23
5.20702561229733 6.328862269315195e-27 8.747516925359004e-19 8.746918363270567e-19 5.985620884377285e-23
5.246226572918644 6.509852136015393e-27 9.065413119510169e-19 9.064794820105306e-19 6.182994048649529e-23
5.265937586045735 6.602325390387563e-27 9.228732646722369e-19 9.228104280362278e-19 6.283663600904516e-23
5.285722656980489 6.696147552444716e-27 9.395044032216734e-19 9.39440546467647e-19 6.385675402661339e-23
5.305582063971359 6.79134168379546e-27 9.564407041405405e-19 9.56375813691357e-19 6.4890449183259e-23
5.3255160863122235 6.89297872323197e-27 9.744017872059242e-19 9.743358444138038e-19 6.594279212069109e-23
5.365609099470188 7.140591957471834e-27 1.0170040427740212e-18 1.0169359147175195e-18 6.812805650195056e-23
5.406003951863644 7.398010411592314e-27 1.0615995605316442e-18 1.0615291870513411e-18 7.037348030320203e-23
5.446702915881641 7.665695169334138e-27 1.1082931938076968e-18 1.108220513270659e-18 7.268053703801711e-23
5.487708281020852 7.954026537708833e-27 1.158637246292998e-18 1.1585621892262869e-18 7.505706671040874e-23
5.529022354014368 8.343917684606183e-27 1.2245817697631303e-18 1.2245042150354615e-18 7.755472766814291e-23
5.570647458961463 8.756483482322525e-27 1.294806409710058e-18 1.294726286666081e-18 8.012304397717145e-23
5.612585937458331 9.193297910245499e-27 1.3696316098318156e-18 1.3695488459628884e-18 8.276386892711164e-23
5.654840148729818 9.671602657519413e-27 1.4517378893071925e-18 1.451652401604531e-18 8.548770266158013e-23
5.67608639626678 9.99110593554423e-27 1.5053309611135836e-18 1.5052440452275631e-18 8.691588602068314e-23
5.686739436050992 1.0155660614223709e-26 1.5329957173705465e-18 1.532908079605575e-18 8.763776497159884e-23
5.6974124697621304 1.0323517013812442e-26 1.561258344884028e-18 1.5611699800003604e-18 8.836488366776483e-23
5.718818669136295 1.0669445417264173e-26 1.6196366860128662e-18 1.6195468510260864e-18 8.983498678005812e-23
5.740305295436557 1.104914163068846e-26 1.6835769234987692e-18 1.683485588696687e-18 9.133480208201212e-23
5.7835210386641895 1.2023148109761407e-26 1.8457800596085286e-18 1.8456855932727663e-18 9.446633576216768e-23
5.827062130521658 1.3140512395765008e-26 2.0325038740155124e-18 2.032406160795514e-18 9.771321999817332e-23
5.8489554468988025 1.391617129947985e-26 2.1605658746738775e-18 2.160466413547121e-18 9.94611267560588e-23
5.870931020387893 1.4747237797300935e-26 2.2981961566519052e-18 2.298094918876873e-18 1.0123777503230757e-22
5.892989160043636 1.56381291803893e-26 2.446188226707375e-18 2.4460851830531563e-18 1.0304365421899262e-22
5.915130176081913 1.6648519571091288e-26 2.614022736772564e-18 2.6139178184806876e-18 1.0491829187618848e-22
5.95966208400165 1.945584406260756e-26 3.0778053166655285e-18 3.0776962094080887e-18 1.091072574398873e-22
6.004529249263818 2.3481835394920206e-26 3.742660529745364e-18 3.742546713472125e-18 1.1381627324019836e-22
6.027089341400364 2.627125671716393e-26 4.2029856819918256e-18 4.202869175500355e-18 1.165064914704414e-22
6.049734195844842 2.9562658071888206e-26 4.7473276523504215e-18 4.747208289286633e-18 1.193630637887006e-22
6.095279466722835 3.90484526804682e-26 6.31781471587655e-18 6.31768845635797e-18 1.2625951857979135e-22
6.141167624020661 5.361795903799071e-26 8.740387018088695e-18 8.740251934128828e-18 1.3508395986998607e-22
6.164241091010745 6.291878289234171e-26 1.0295071382428429e-17 1.0294930846020489e-17 1.4053640793813449e-22
6.187401249150058 7.35056104414421e-26 1.2072527471593254e-17 1.20723812479611e-17 1.462236321552864e-22
6.1990139391386085 7.867697659818171e-26 1.2946122390305148e-17 1.2945973259438272e-17 1.4913086687527922e-22
6.204828454712694 8.140023766880838e-26 1.3406792415154337e-17 1.3406641806327436e-17 1.5060882690447275e-22
6.210648424152782 8.339161567967848e-26 1.3747659479520647e-17 1.3747507585308154e-17 1.5189421249294805e-22
6.233982942956859 9.016408477813686e-26 1.4919993069027603e-17 1.4919836552311288e-17 1.5651671630893825e-22
6.239830258556775 9.103493338967161e-26 1.5078227359270267e-17 1.5078070105022977e-17 1.572542472893203e-22
6.245683058788269 9.112001991207166e-26 1.510647655219884e-17 1.5106318557049982e-17 1.5799514885195013e-22
6.257405133728602 9.095616680775444e-26 1.5107613186133295e-17 1.5107453836789182e-17 1.593493441082744e-22
6.269149208991335 8.965361010345457e-26 1.4919209810822004e-17 1.4919049696016474e-17 1.6011480553495203e-22
6.280915325867298 8.635467844558593e-26 1.4397206806249282e-17 1.439704665931275e-17 1.6014693653016673e-22
6.304513850009849 7.820769915956442e-26 1.3087917401659047e-17 1.3087757859947557e-17 1.595417114913075e-22
6.32820103803542 6.810014081130586e-26 1.1439254192540455e-17 1.143909598783255e-17 1.582047079123481e-22
6.3519772230701035 5.883319152871185e-26 9.919751057909522e-18 9.919593976955213e-18 1.5708095431062403e-22
6.375842739491607 5.103838698503835e-26 8.637816429044579e-18 8.637660234149562e-18 1.5619489501774286e-22
6.399797922933955 4.480384901101513e-26 7.611162935239565e-18 7.611006785200789e-18 1.5615003877856175e-22
6.42384311029221 3.962388669718102e-26 6.7564945656679956e-18 6.75633827751413e-18 1.562881538667049e-22
6.447978639727206 3.5862933703115135e-26 6.138168929140478e-18 6.1380118177770955e-18 1.5711136338333542e-22
6.472204850670314 3.273546853224634e-26 5.623934434064863e-18 5.623776348521104e-18 1.580855437564581e-22
6.496522083828205 3.072022083463712e-26 5.297545377710932e-18 5.297385744567185e-18 1.5963314374728433e-22
6.520930681187647 2.9029348159383615e-26 5.0247713099575705e-18 5.024610022640674e-18 1.6128731689603917e-22
6.57002334288761 2.7347190640048776e-26 4.7692387484436e-18 4.7690732925069085e-18 1.6545593669078568e-22
