Dust emission spectrum from A.P. Jones, M. Kohler, N. Ysard, M. Bocchio, and L. Verstraete (2017), A&A, 602A, 46J 
inside the DustPedia framework.

lambda    nu*dP/dnu     j_nu    j_nu(carb.) j_nu(sil)
 (um)   (erg s-1 H-1) (Jy cm2 sr-1 H-1)
0.9927057738263894 2.168871308128491e-22 5.715099086349556e-15 5.715095371599134e-15 3.714750421723477e-21
1.0001793341362166 2.2053256216755956e-22 5.854907431187814e-15 5.8549029612125084e-15 4.4699753051259535e-21
1.0077091589558085 2.2419333363214513e-22 5.996907273055789e-15 5.996901901498321e-15 5.3715574685620026e-21
1.0114953028030835 2.2602932799540655e-22 6.068733929644119e-15 6.0687280441916486e-15 5.885452471893496e-21
1.0152956718711033 2.2786898831097916e-22 6.141114460895677e-15 6.14110801454231e-15 6.446353368793815e-21
1.0229392996569957 2.3155730513096466e-22 6.287496893057081e-15 6.287489167103498e-15 7.725953582728044e-21
1.0267826658714554 2.3340179527587274e-22 6.361391929690401e-15 6.361383475562772e-15 8.454127627958676e-21
1.0306404723013447 2.3524966025855735e-22 6.435845810486238e-15 6.435836562647936e-15 9.247838301959935e-21
1.03451277320114 2.3710085579614125e-22 6.510860822536922e-15 6.5108507098533945e-15 1.0112683528712571e-20
1.0383996230291617 2.3895533986617076e-22 6.58643931670278e-15 6.5864282619909906e-15 1.1054711788250338e-20
1.0403485208654093 2.398838026040114e-22 6.624440622402366e-15 6.624429065711175e-15 1.1556691191363036e-20
1.0423010764483396 2.408130727761392e-22 6.662583710638216e-15 6.66257163018223e-15 1.2080455984519758e-20
1.0462171883269815 2.426740172338935e-22 6.739296491898081e-15 6.739283294928419e-15 1.3196969663063946e-20
1.0471985131304309 2.431397510168108e-22 6.7585637961556016e-15 6.758550304995521e-15 1.3491160081387937e-20
1.048180758391296 2.436056828132699e-22 6.777866825031963e-15 6.777853033410833e-15 1.3791621128033086e-20
1.0501480137395462 2.445381384189458e-22 6.816580221126313e-15 6.816565809260587e-15 1.441186572651713e-20
1.0521189612883777 2.4547138009641035e-22 6.855437012218759e-15 6.855421953469501e-15 1.5058749257586343e-20
1.0531058218030118 2.4593767981364306e-22 6.8749021025820594e-15 6.8748867100411854e-15 1.539254087468856e-20
1.0540936079674168 2.464021608041233e-22 6.8943467889886845e-15 6.894331055509811e-15 1.5733478872476768e-20
1.058054026499678 2.4826194597202257e-22 6.9724824941383245e-15 6.97246532327155e-15 1.7170866774824885e-20
1.0590464539527713 2.487273555038506e-22 6.9921058761344844e-15 6.992088326765161e-15 1.754936932037165e-20
1.06003981227728 2.491929495447666e-22 7.0117651279225135e-15 7.011747192079834e-15 1.7935842679828675e-20
1.0620293250338977 2.5012468966763503e-22 7.051191418632356e-15 7.051172685289875e-15 1.8733342481709632e-20
1.0660195594769086 2.519903682961588e-22 7.130476412558568e-15 7.130455981348334e-15 2.0431210235720224e-20
1.070024785945596 2.538589611267157e-22 7.210340416833754e-15 7.21031814126202e-15 2.2275571730624673e-20
1.0740450607676866 2.5573045036946605e-22 7.290786466937527e-15 7.290762188553991e-15 2.427838353886531e-20
1.07808044048254 2.5760482125383653e-22 7.371817696744597e-15 7.37179124422626e-15 2.6452518337692464e-20
1.0861967418109137 2.613593126568025e-22 7.535566523466577e-15 7.53553515223919e-15 3.1371227382617696e-20
1.0902777775684922 2.6323293586668984e-22 7.618102659760815e-15 7.61806851301558e-15 3.414674523515462e-20
1.0943741465085532 2.6510930200000067e-22 7.701232307051137e-15 7.701195151441008e-15 3.715561013007685e-20
1.1026131145906286 2.6887027491408924e-22 7.869286878448826e-15 7.869242929605995e-15 4.3948842831024437e-20
1.1109141095355224 2.7264229100759967e-22 8.039760993832736e-15 8.039709077640762e-15 5.191619197674775e-20
1.1192775983109025 2.7642253918563656e-22 8.212600492264259e-15 8.21253924413037e-15 6.124813389052781e-20
1.1277040513999907 2.8019773348937383e-22 8.38743546664785e-15 8.387363302755348e-15 7.216389249984939e-20
1.1361939428280308 2.839840834047598e-22 8.564773895127526e-15 8.564688979695241e-15 8.491543228523203e-20
1.1447477501889525 2.8778190795885747e-22 8.74465578980855e-15 8.744555997856664e-15 9.979195188436878e-20
1.1533659546722406 2.9159292335861828e-22 8.927164563286734e-15 8.927047438183357e-15 1.1712510337232237e-19
1.1707974979042381 2.992673135999069e-22 9.300590089171295e-15 9.300429353615511e-15 1.6073555578315283e-19
1.1884924949847024 3.070004502740027e-22 9.685117392195254e-15 9.684897915362471e-15 2.194768327809852e-19
1.2064549276569216 3.148475232802151e-22 1.008279218180139e-14 1.0082493978974066e-14 2.9820282732256627e-19
1.2246888378427687 3.22763499537366e-22 1.0492515229640366e-14 1.0492112050952557e-14 4.031786878050066e-19
1.2431983285522175 3.3074753918981644e-22 1.0914566022446306e-14 1.0914023559989749e-14 5.424624565589799e-19
1.2619875648066055 3.388176223634734e-22 1.1349859856802676e-14 1.1349133491353416e-14 7.263654492576266e-19
1.3004222497298317 3.552001860810128e-22 1.226103152792345e-14 1.2259747550186669e-14 1.2839777367872926e-18
1.3400274889804893 3.7203767971015205e-22 1.3233358185781161e-14 1.3231130204097242e-14 2.2279816839209053e-18
1.3808389325824078 3.8949669493569563e-22 1.4276318662473628e-14 1.4272521823309403e-14 3.796839164224779e-18
1.4228933163050095 4.078587942064759e-22 1.5404641769861345e-14 1.539828399858557e-14 6.3577712757718616e-18
1.466228494730424 4.2760603112640525e-22 1.6642359931031737e-14 1.663189401295708e-14 1.0465918074655625e-17
1.5108834753276823 4.489612783442545e-22 1.800567016439893e-14 1.798872557182091e-14 1.6944592578016467e-17
1.5568984535646726 4.722434907669363e-22 1.951621980522241e-14 1.948920973567556e-14 2.7010069546855478e-17
1.6043148490894465 4.979912685974785e-22 2.1207074620208365e-14 2.116460531559497e-14 4.246930461339716e-17
1.6531753430134553 5.268615660090004e-22 2.3119842470439293e-14 2.3054052147727176e-14 6.579032271212059e-17
1.7035239163302658 5.596682837526172e-22 2.5307448657986628e-14 2.520701314204824e-14 1.0043551593839106e-16
1.755405889504358 5.9764099990346095e-22 2.784757407492955e-14 2.7696403449240554e-14 1.5117062568899707e-16
1.8088679632656115 6.418016509922595e-22 3.081606135123722e-14 3.059164478823125e-14 2.24416563005965e-16
1.8639582606462262 6.933670905047161e-22 3.4305901856704566e-14 3.3977185612004506e-14 3.287162447000705e-16
1.9207263702978936 7.538648235009655e-22 3.843513501297278e-14 3.795987850151545e-14 4.752565114573412e-16
1.979223391128241 8.251126083262462e-22 4.334883911272674e-14 4.2670352090597636e-14 6.784870221291157e-16
2.039501978296691 9.091721290826196e-22 4.9219781090548773e-14 4.826299626921826e-14 9.567848213305106e-16
2.1016163906111602 1.0085949652154844e-21 5.626517523655161e-14 5.4931889162268404e-14 1.3332860742832044e-15
2.1656225393682647 1.1260615185912453e-21 6.473129764812304e-14 6.289469285400957e-14 1.8366047941134606e-15
2.231578038680979 1.2642698342481203e-21 7.48895614783397e-14 7.238792585806599e-14 2.5016356202737254e-15
2.299542257339062 1.4262858798866297e-21 8.705974896756358e-14 8.368937159633959e-14 3.3703773712239984e-15
2.369576372248914 1.6154856092176453e-21 1.0161158771999715e-13 9.711879252692396e-14 4.4927951930731954e-15
2.4417434235010123 1.835438144433301e-21 1.1896226181617578e-13 1.1303483861474351e-13 5.927423201432265e-15
2.5161083711144245 2.0900502902191146e-21 1.3959038716442684e-13 1.318482058329491e-13 7.742181331477725e-15
2.5927381535095444 2.3834863028650512e-21 1.6403659740093423e-13 1.5402181649651944e-13 1.0014780904414739e-14
2.6717017477616296 2.719804364695868e-21 1.928834982233263e-13 1.8005108312252278e-13 1.2832415100803481e-14
2.753070231689431 3.10309099080326e-21 2.267677202426938e-13 2.1047602658134308e-13 1.6291693661350675e-14
2.836916847834745 3.538424611119803e-21 2.6645629606595273e-13 2.459573664933628e-13 2.0498929572589963e-14
2.9233170693905177 4.032196026293824e-21 3.128866207361755e-13 2.8732256155513073e-13 2.556405918104476e-14
2.967498994190263 4.300682289943723e-21 3.387640949959007e-13 3.1036630726569833e-13 2.8397787730202456e-14
3.0123486681368425 4.586089494065561e-21 3.6670530843296864e-13 3.3520053280026837e-13 3.150477563270041e-14
3.0578761833420214 4.913143318665911e-21 3.9879413476025036e-13 3.638770357501833e-13 3.491709901006707e-14
3.1040917844459814 5.264859905344427e-21 4.3380125767599207e-13 3.951793560516832e-13 3.8621901624308965e-14
3.127460860933648 5.477965352545463e-21 4.547582614260491e-13 4.1415609644545314e-13 4.0602164980596035e-14
3.1510058709225794 5.713152913408894e-21 4.778531944033929e-13 4.351893442280546e-13 4.266385017533821e-14
3.162844764501044 5.8676394659837635e-21 4.926185152034413e-13 4.4888868147426714e-13 4.372983372917417e-14
3.1747281389236908 6.033185210528725e-21 5.084200068531901e-13 4.636031770989341e-13 4.4816829754256116e-14
3.1986289994194426 6.4297349512025e-21 5.459166926205972e-13 4.988561636601317e-13 4.706052896046557e-14
3.2227097969389145 7.147714520991023e-21 6.114456094825995e-13 5.620100751974112e-13 4.94355342851882e-14
3.2348180950136065 7.753060775049664e-21 6.657213500133133e-13 6.150190022569875e-13 5.0702347756325765e-14
3.240889293275058 8.185764277995084e-21 7.041948804716981e-13 6.528243181431776e-13 5.1370562328520694e-14
3.2469718861334385 8.680592086573957e-21 7.481648662965431e-13 6.96102901300577e-13 5.206196499596615e-14
3.2714166318528037 1.1215865442130985e-20 9.739531818092934e-13 9.190360313190159e-13 5.4917150490277314e-14
3.2744851364798273 1.1384539947144163e-20 9.895276676844136e-13 9.342746133402776e-13 5.5253054344136156e-14
3.2775565192852394 1.1557167555480473e-20 1.0054744338958203e-12 9.49883849213099e-13 5.559058468272123e-14
3.283707930232385 1.145278342593625e-20 9.982630655177467e-13 9.420700273551345e-13 5.619303816261181e-14
3.2898708863219004 1.103021267514625e-20 9.632348195305191e-13 9.064945810628627e-13 5.674023846765626e-14
3.29141343181113 1.0930837906837437e-20 9.550042941040348e-13 8.981266778920534e-13 5.687761621198113e-14
3.292184975758714 1.0882051754926049e-20 9.509648152227007e-13 8.940184234091588e-13 5.694639181354215e-14
3.295272960557952 1.0567903397323911e-20 9.24378131268267e-13 8.671644167753217e-13 5.72137144929453e-14
3.3076538914384823 9.47999012018828e-21 8.323335046682162e-13 7.740466251340665e-13 5.828687953414973e-14
3.310756385682612 9.259326844303803e-21 8.137220282384323e-13 7.551647578715986e-13 5.855727036683393e-14
3.313861789986515 9.056114192254877e-21 7.966099279800435e-13 7.377814260410219e-13 5.882850193902152e-14
3.3200813396944477 8.786385657871181e-21 7.743341595742668e-13 7.14921768346788e-13 5.941239122747872e-14
3.345076488085796 8.423919140963052e-21 7.479794656564284e-13 6.859636962691194e-13 6.201576938730898e-14
3.3482140837626964 8.470221310443436e-21 7.527961852502089e-13 6.904276906140621e-13 6.23684946361465e-14
3.3513546224236106 8.516796439628835e-21 7.576455649111833e-13 6.949228135203349e-13 6.272275139084851e-14
3.3576445397418455 8.723639981717373e-21 7.775026618413952e-13 7.140390525143622e-13 6.346360932703308e-14
3.3702598118196083 9.393704923784361e-21 8.403684295486108e-13 7.753509360705098e-13 6.50174934781011e-14
3.382922481734668 9.628686689625457e-21 8.646264849939855e-13 7.981003713754388e-13 6.652611361854647e-14
3.389271646505754 9.748670943657264e-21 8.770436792526636e-13 8.097532371112909e-13 6.72904421413729e-14
3.395632727569191 9.877515868596387e-21 8.903030882300764e-13 8.222249588806215e-13 6.807812934945478e-14
3.421196662673239 1.0467063844005077e-20 9.505442649953296e-13 8.792073468860699e-13 7.133691810925958e-14
3.4276182099114902 1.0443978120972223e-20 9.502280095916475e-13 8.781657298766573e-13 7.206227971499024e-14
3.4340518103208963 1.017511923653014e-20 9.275039832435222e-13 8.547565577091245e-13 7.274742553439775e-14
3.4469541582030403 9.81234927255621e-21 8.977965647622464e-13 8.237359539980927e-13 7.40606107641538e-14
3.472904465399547 9.875617538999059e-21 9.103880156234964e-13 8.332995732114305e-13 7.708844241206577e-14
3.4990501388274233 9.877591151280623e-21 9.17425156780654e-13 8.37242478960777e-13 8.018267781987692e-14
3.5253949054701885 9.398654432795372e-21 8.795142644929188e-13 7.96332279419138e-13 8.318198507378098e-14
3.5519380250092896 8.950670775782489e-21 8.438988512950494e-13 7.577077159582328e-13 8.61911353368169e-14
3.578680990867387 8.904079013934937e-21 8.458267670457513e-13 7.563382304249753e-13 8.948853662077577e-14
3.605625307711299 9.016494139610527e-21 8.629541689352095e-13 7.699961506446044e-13 9.295801829060514e-14
3.660119384959845 9.381814533106088e-21 9.114892009401351e-13 8.112572305069826e-13 1.002319704331522e-13
3.715437065384467 9.777118065794555e-21 9.642512310860124e-13 8.563732281920547e-13 1.0787800289395775e-13
3.8285932144167436 1.0676987304669886e-20 1.0850690715447561e-12 9.608356297111717e-13 1.242334418335846e-13
3.94519561050918 1.163125009784831e-20 1.2180479029973823e-12 1.0760964716042487e-12 1.419514313931332e-13
4.06534921144712 1.2620819500160239e-20 1.3619301863798498e-12 1.2009473162359434e-12 1.6098287014390652e-13
4.189162171576248 1.363542740520282e-20 1.5162309651767957e-12 1.3348967012856756e-12 1.813342638911206e-13
4.316745939156006 1.4665551038570454e-20 1.6804450193960405e-12 1.4775490731272134e-12 2.0289594626882737e-13
4.448215356677963 1.5700376151097607e-20 1.8538103201514687e-12 1.6284806514032082e-12 2.2532966874826051e-13
4.58368876423945 1.6732507868301643e-20 2.0358491359168352e-12 1.7872178442297846e-12 2.486312916870506e-13
4.723288106065518 1.775558554068051e-20 2.2261215252336065e-12 1.9532046252109073e-12 2.729169000226997e-13
4.867139040275056 1.8757257964116372e-20 2.423329879848526e-12 2.1258510903579644e-12 2.974787894905606e-13
4.940699165968905 1.9249939858974027e-20 2.52456886020763e-12 2.214636775889167e-12 3.099320843184623e-13
5.015371051989984 1.973335006107812e-20 2.627080145095867e-12 2.3046244643577068e-12 3.224556807381591e-13
5.091171501069577 2.021373516152562e-20 2.7317045830178576e-12 2.3963736426735546e-12 3.353309403443013e-13
5.129500256944802 2.0449642566427625e-20 2.7843909303455725e-12 2.442612791845237e-12 3.417781385003353e-13
5.168117569889187 2.06834805454915e-20 2.837431854935217e-12 2.4891321841147863e-12 3.482996708204313e-13
5.20702561229733 2.0922498955951952e-20 2.8918296203939857e-12 2.53637566758181e-12 3.554539528121759e-13
5.246226572918644 2.1158454273770854e-20 2.946459073944545e-12 2.58382700617766e-12 3.626320677668853e-13
5.265937586045735 2.1275243143191133e-20 2.9738542006485184e-12 2.6076252645198478e-12 3.6622893612867034e-13
5.285722656980489 2.139121841548447e-20 3.001299438852252e-12 2.63146903398134e-12 3.69830404870912e-13
5.305582063971359 2.150636450311769e-20 3.0287921542727244e-12 2.655356139022627e-12 3.734360152500974e-13
5.3255160863122235 2.162162986127924e-20 3.056465952539176e-12 2.6793891264260645e-12 3.770768261131118e-13
5.365609099470188 2.1856973094246074e-20 3.1129954115906982e-12 2.728383365496559e-12 3.846120460941399e-13
5.406003951863644 2.2089042947250114e-20 3.169733074262885e-12 2.777563511155508e-12 3.921695631073778e-13
5.446702915881641 2.231773192110349e-20 3.2266597931433636e-12 2.8269140975584517e-12 3.997456955849115e-13
5.487708281020852 2.254461034725494e-20 3.2840002642254554e-12 2.8766280079811867e-12 4.0737225624426875e-13
5.529022354014368 2.278258873167576e-20 3.3436502951476365e-12 2.9283285444597457e-12 4.153217506878917e-13
5.570647458961463 2.3017573804662326e-20 3.4035697273246296e-12 2.980277046890747e-12 4.232926804338818e-13
5.612585937458331 2.324951966346562e-20 3.463749065392629e-12 3.0324677679876715e-12 4.3128129740495933e-13
5.654840148729818 2.3480817257332647e-20 3.5245443068182175e-12 3.085217065503769e-12 4.3932724131444876e-13
5.67608639626678 2.3605932817675313e-20 3.5566374499139193e-12 3.113094351631258e-12 4.435430982826614e-13
5.686739436050992 2.3668329675721866e-20 3.5727314458872676e-12 3.1270781281762182e-12 4.456533177110477e-13
5.6974124697621304 2.3730621791904518e-20 3.588857484549772e-12 3.1410924994516997e-12 4.4776498509807117e-13
5.718818669136295 2.385490005864683e-20 3.6212070792018606e-12 3.169214654518809e-12 4.5199242468305105e-13
5.740305295436557 2.3981738319389273e-20 3.654139169306151e-12 3.197879871005874e-12 4.562592983002754e-13
5.7835210386641895 2.4258019325851758e-20 3.724063610337079e-12 3.2589895404000494e-12 4.65074069937031e-13
5.827062130521658 2.454117455729347e-20 3.795897059285564e-12 3.321897516534963e-12 4.739995427506012e-13
5.8489554468988025 2.4708750699073016e-20 3.8361760873291966e-12 3.357336651239444e-12 4.788394360897529e-13
5.870931020387893 2.4878332516813023e-20 3.87701676476066e-12 3.393324603312644e-12 4.836921614480162e-13
5.892989160043636 2.5050139723371646e-20 3.918458286271874e-12 3.429901047200922e-12 4.885572390709521e-13
5.915130176081913 2.5232947040406442e-20 3.961883637625857e-12 3.46827682845592e-12 4.936068091699381e-13
5.95966208400165 2.5686920381409148e-20 4.063526612582714e-12 3.5582968749217015e-12 5.052297376610137e-13
6.004529249263818 2.6261988292428033e-20 4.1857761696076e-12 3.667401415699147e-12 5.183747539084539e-13
6.027089341400364 2.6631575382706948e-20 4.260630971234586e-12 3.734602754728778e-12 5.260282165058065e-13
6.049734195844842 2.7044046529564818e-20 4.3428757187209945e-12 3.808727859252087e-12 5.341478594689072e-13
6.095279466722835 2.816476556127255e-20 4.556896832463358e-12 4.00259286035193e-12 5.543039721114281e-13
6.141167624020661 2.9764914826227516e-20 4.852047332822608e-12 4.2713383895663094e-12 5.807089432562998e-13
6.164241091010745 3.0768466959432474e-20 5.034483330951454e-12 4.437084146878742e-12 5.973991840727121e-13
6.187401249150058 3.184900907848896e-20 5.230866524799347e-12 4.616351985854927e-12 6.145145389444194e-13
6.1990139391386085 3.237180586859415e-20 5.326709018197118e-12 4.703489944658374e-12 6.232190735387441e-13
6.204828454712694 3.2641875306124995e-20 5.376186345439409e-12 4.748573150542336e-12 6.276131948970743e-13
6.210648424152782 3.283988189538932e-20 5.41387176595387e-12 4.782540921518278e-12 6.313308444355919e-13
6.233982942956859 3.349547034993828e-20 5.542696814309365e-12 4.8985151806931534e-12 6.441816336162104e-13
6.239830258556775 3.3570517080745053e-20 5.560325803118224e-12 4.914444460209918e-12 6.458813429083061e-13
6.245683058788269 3.357205990569797e-20 5.565797025328049e-12 4.9182141223104496e-12 6.475829030176004e-13
6.257405133728602 3.354091092126014e-20 5.571069295169017e-12 4.920556888355401e-12 6.505124068136171e-13
6.269149208991335 3.3395236542944485e-20 5.557283639680458e-12 4.9059309903219425e-12 6.513526493585159e-13
6.280915325867298 3.30543849057408e-20 5.51088631105476e-12 4.8612737503088325e-12 6.496125607459265e-13
6.304513850009849 3.2222172316924175e-20 5.392322422444694e-12 4.74851986692168e-12 6.438025555230156e-13
6.32820103803542 3.1231762355110745e-20 5.24621629566168e-12 4.610702109702819e-12 6.355141859588614e-13
6.3519772230701035 3.03409655268004e-20 5.115731733431334e-12 4.487712342496455e-12 6.280193909348785e-13
6.375842739491607 2.957550633754573e-20 5.0054049438250015e-12 4.384063780505272e-12 6.21341163319729e-13
6.399797922933955 2.9009515154002975e-20 4.928062016616803e-12 4.310467922502554e-12 6.175940941142492e-13
6.42384311029221 2.8529744433186807e-20 4.8647691907628305e-12 4.25033561218428e-12 6.144335785785508e-13
6.447978639727206 2.8207222864554284e-20 4.827845384816038e-12 4.2142932983165365e-12 6.135520864995019e-13
6.472204850670314 2.793766444776832e-20 4.799674485806796e-12 4.186553568083266e-12 6.131209177235307e-13
6.496522083828205 2.7787014909008096e-20 4.791728978250992e-12 4.17719867073449e-12 6.145303075165035e-13
6.520930681187647 2.766349660815625e-20 4.788352233284303e-12 4.17213953665396e-12 6.162126966303421e-13
