Dust emission spectrum from A.P. Jones, M. Kohler, N. Ysard, M. Bocchio, and L. Verstraete (2017), A&A, 602A, 46J 
inside the DustPedia framework.

lambda    nu*dP/dnu     j_nu    j_nu(carb.) j_nu(sil)
 (um)   (erg s-1 H-1) (Jy cm2 sr-1 H-1)
0.9927057738263894 1.0959419455247363e-26 2.887869274717479e-19 2.8878692747174155e-19 6.360176012279577e-33
1.0001793341362166 1.114053754855585e-26 2.9576954731477475e-19 2.957695473147671e-19 7.664594026732915e-33
1.0077091589558085 1.1321399006125499e-26 3.028340715625361e-19 3.028340715625269e-19 9.224907589177443e-33
1.0114953028030835 1.141171122462783e-26 3.063966951474853e-19 3.063966951474751e-19 1.0115619274695896e-32
1.0152956718711033 1.1501932628231221e-26 3.0997936715759434e-19 3.0997936715758326e-19 1.1088817611650801e-32
1.0229392996569957 1.1681979251981144e-26 3.1720186158690374e-19 3.1720186158689045e-19 1.33125818507349e-32
1.0267826658714554 1.1771586180679917e-26 3.2083589263279833e-19 3.208358926327838e-19 1.4580034692368085e-32
1.0306404723013447 1.1861062679567234e-26 3.24489185107891e-19 3.2448918510787504e-19 1.5963073353854035e-32
1.03451277320114 1.1950400114538955e-26 3.281615819484475e-19 3.2816158194842995e-19 1.7471734305051004e-32
1.0383996230291617 1.2039589899290849e-26 3.3185292412414195e-19 3.318529241241229e-19 1.9116878221652136e-32
1.0403485208654093 1.2084126753090548e-26 3.3370564948720556e-19 3.3370564948718553e-19 1.999426615688364e-32
1.0423010764483396 1.2128623496965286e-26 3.3556305067567587e-19 3.35563050675655e-19 2.0910253484756788e-32
1.0462171883269815 1.2217492421761712e-26 3.392917987524472e-19 3.3929179875242437e-19 2.2864564223328136e-32
1.0471985131304309 1.2239682933383014e-26 3.402268761238739e-19 3.402268761238505e-19 2.3379873689787592e-32
1.048180758391296 1.2261862494367028e-26 3.41163104464108e-19 3.4116310446408413e-19 2.3906319605271036e-32
1.0501480137395462 1.2306188240510625e-26 3.4303900365024945e-19 3.4303900365022437e-19 2.4993543197149147e-32
1.0521189612883777 1.2350468614522218e-26 3.4491947543940944e-19 3.449194754393833e-19 2.612812511970277e-32
1.0531058218030118 1.2372557476151666e-26 3.458604694960365e-19 3.4586046949600985e-19 2.671382358860756e-32
1.0540936079674168 1.2394523258451564e-26 3.467994815836093e-19 3.4679948158358207e-19 2.7312230476839885e-32
1.058054026499678 1.2482261856370478e-26 3.505666240552294e-19 3.5056662405519954e-19 2.9836986789935397e-32
1.0590464539527713 1.2504164731363094e-26 3.5151116979959187e-19 3.5151116979956135e-19 3.05023110385571e-32
1.06003981227728 1.252605464071082e-26 3.524568142101861e-19 3.52456814210155e-19 3.118184896234516e-32
1.0620293250338977 1.2569795052658542e-26 3.54351388209806e-19 3.543513882097734e-19 3.258472852472022e-32
1.0660195594769086 1.265711469425509e-26 3.581536008247904e-19 3.581536008247549e-19 3.5574159055166386e-32
1.070024785945596 1.2744212689625671e-26 3.6197308705941593e-19 3.6197308705937717e-19 3.8825461305896944e-32
1.0740450607676866 1.2831081010092996e-26 3.658096704925473e-19 3.658096704925049e-19 4.2360407198405196e-32
1.07808044048254 1.2917711691131415e-26 3.696631731604632e-19 3.6966317316041706e-19 4.6202474584154425e-32
1.0861967418109137 1.3090075565776575e-26 3.7741580439738103e-19 3.7741580439732604e-19 5.49111804685417e-32
1.0902777775684922 1.317544514667609e-26 3.8130446475078483e-19 3.813044647507251e-19 5.983449129842481e-32
1.0943741465085532 1.3260539808766308e-26 3.8520903194942794e-19 3.8520903194936275e-19 6.517852634359592e-32
1.1026131145906286 1.342987412298663e-26 3.930651398671968e-19 3.9306513986711956e-19 7.726759448788015e-32
1.1109141095355224 1.359801873150002e-26 4.0098262154008027e-19 4.009826215399887e-19 9.148307922460985e-32
1.1192775983109025 1.3764758992419313e-26 4.089553146066887e-19 4.0895531460658054e-19 1.0817734418374797e-31
1.1277040513999907 1.3929320692941675e-26 4.1696011224416807e-19 4.169601122440404e-19 1.2775734207792042e-31
1.1361939428280308 1.40924983499255e-26 4.250205171271463e-19 4.250205171269956e-19 1.5069236573300027e-31
1.1447477501889525 1.4254237530991844e-26 4.3313494457933206e-19 4.3313494457915444e-19 1.7752296245897766e-31
1.1533659546722406 1.4414573168810823e-26 4.41304491567691e-19 4.413044915674822e-19 2.0887121692414115e-31
1.1707974979042381 1.4731551215788496e-26 4.578252051236525e-19 4.578252051233644e-19 2.880870379251414e-31
1.1884924949847024 1.504223212526367e-26 4.745458315901574e-19 4.745458315897619e-19 3.954020382235852e-31
1.2064549276569216 1.5349043769345052e-26 4.915433886959364e-19 4.915433886953964e-19 5.400738337842911e-31
1.2246888378427687 1.5648636584810515e-26 5.087116663581199e-19 5.087116663573857e-19 7.341416602645338e-31
1.2431983285522175 1.5940309511197178e-26 5.260252608511236e-19 5.260252608501303e-19 9.932097628687192e-31
1.2619875648066055 1.622395305399164e-26 5.434770251962025e-19 5.434770251948652e-19 1.3373996561119333e-30
1.3004222497298317 1.676243752912059e-26 5.78616743693145e-19 5.786167436907536e-19 2.3914721745752552e-30
1.3400274889804893 1.7261979433670504e-26 6.140075839074108e-19 6.140075839032116e-19 4.199425096428634e-30
1.3808389325824078 1.77207227600196e-26 6.495220327688688e-19 6.495220327616238e-19 7.244923412491015e-30
1.4228933163050095 1.814089312146933e-26 6.851733097119514e-19 6.851733096996654e-19 1.2285985900333204e-29
1.466228494730424 1.8532588538281196e-26 7.2128545075786085e-19 7.212854507373713e-19 2.0489703484224982e-29
1.5108834753276823 1.888819675041469e-26 7.575144162598826e-19 7.575144162262622e-19 3.362047907145866e-29
1.5568984535646726 1.920155675315602e-26 7.935351349966831e-19 7.9353513494235e-19 5.433316112033965e-29
1.6043148490894465 1.9473234922668546e-26 8.292722626743065e-19 8.292722625876686e-19 8.663785550757838e-29
1.6531753430134553 1.9704050912214634e-26 8.646570228509244e-19 8.646570227147637e-19 1.3616100784225241e-28
1.7035239163302658 1.9896737932776468e-26 8.997037858191849e-19 8.997037856082177e-19 2.1096706405119947e-28
1.755405889504358 2.0067113382309002e-26 9.350436574367023e-19 9.350436571142826e-19 3.2241978271446836e-28
1.8088679632656115 2.0211266611286227e-26 9.704425517084255e-19 9.704425512221953e-19 4.862299665551332e-28
1.8639582606462262 2.0326547213662161e-26 1.0057018040616434e-18 1.0057018033377675e-18 7.238756884350577e-28
1.9207263702978936 2.041487035337621e-26 1.0408342103832695e-18 1.0408342093189455e-18 1.0643237886724001e-27
1.979223391128241 2.04806993169806e-26 1.075991968428249e-18 1.0759919668820536e-18 1.5461955562362978e-27
2.039501978296691 2.0529377040030147e-26 1.1113972937722982e-18 1.11139729155194e-18 2.2203585521218015e-27
2.1016163906111602 2.0575875520359472e-26 1.1478396003604447e-18 1.1478395972071246e-18 3.1533201317103172e-27
2.1656225393682647 2.0628876736463605e-26 1.185844590307136e-18 1.1858445858761954e-18 4.430940860341195e-27
2.231578038680979 2.068900326337636e-26 1.225521909837895e-18 1.2255219036748149e-18 6.163080109764159e-27
2.299542257339062 2.0761457487034538e-26 1.267268576735571e-18 1.2672685682462524e-18 8.489318477954357e-27
2.369576372248914 2.0857742900513318e-26 1.3119203045101987e-18 1.3119202929240331e-18 1.1586165688132999e-26
2.4417434235010123 2.099144804911989e-26 1.3605417029681874e-18 1.3605416872927268e-18 1.567546035736335e-26
2.5161083711144245 2.118584466279894e-26 1.4149612919483732e-18 1.4149612709125264e-18 2.1035846963719727e-26
2.5927381535095444 2.1479015281712894e-26 1.4782315208187447e-18 1.4782314928020824e-18 2.801666271633902e-26
2.6717017477616296 2.1916440786209927e-26 1.554273469930718e-18 1.554273432876691e-18 3.7054026891295335e-26
2.753070231689431 2.2566599480420494e-26 1.6491222245726802e-18 1.6491221758792721e-18 4.869340843519217e-26
2.836916847834745 2.358456307343147e-26 1.7760037337326845e-18 1.7760036701109527e-18 6.36217314229133e-26
2.9233170693905177 2.531176077698209e-26 1.9641186199153533e-18 1.9641185372199474e-18 8.269540549857734e-26
2.967498994190263 2.6778292060007845e-26 2.1093220246602264e-18 2.1093219306627187e-18 9.399750784596061e-26
3.0123486681368425 2.8491106840892266e-26 2.278158796335234e-18 2.2781586895411383e-18 1.0679409568306295e-25
3.0578761833420214 3.232217833905809e-26 2.6235536617301913e-18 2.6235535404037754e-18 1.2132641645351025e-25
3.1040917844459814 3.725877734610026e-26 3.0699590801648647e-18 3.0699589424307136e-18 1.3773415158788324e-25
3.127460860933648 4.24800596768351e-26 3.526520677049502e-18 3.526520530259063e-18 1.4679043815095652e-25
3.1510058709225794 4.9436375554657773e-26 4.134902449936978e-18 4.13490229349856e-18 1.5643841912931665e-25
3.162844764501044 5.591116106482654e-26 4.694029567891574e-18 4.694029406335317e-18 1.615562559360819e-25
3.1747281389236908 6.344067113270276e-26 5.346182045890326e-18 5.346181879052006e-18 1.6683832167550024e-25
3.1986289994194426 8.444202319500279e-26 7.169550591224027e-18 7.169550413229995e-18 1.7799403189526468e-25
3.2227097969389145 1.3394536641044733e-25 1.1458250880289869e-17 1.1458250689793791e-17 1.904960769512447e-25
3.2348180950136065 1.808892634739925e-25 1.5532168285118186e-17 1.5532168087526815e-17 1.9759137610136502e-25
3.240889293275058 2.159857387110763e-25 1.858055598596962e-17 1.858055578443001e-17 2.015396097819558e-25
3.2469718861334385 2.565869254885495e-25 2.2114772919521882e-17 2.2114772713752285e-17 2.0576959311650194e-25
3.2714166318528037 4.731599891984698e-25 4.1087839307845966e-17 4.10878390837703e-17 2.2407565379982194e-25
3.2744851364798273 4.866989277731581e-25 4.2303163509447654e-17 4.230316328329275e-17 2.26154916456596e-25
3.2775565192852394 5.006267378764374e-25 4.355456329961422e-17 4.355456307135786e-17 2.2825635127163625e-25
3.283707930232385 4.87233882723645e-25 4.24689415055501e-17 4.246894127402689e-17 2.31523211749297e-25
3.2898708863219004 4.447589730595859e-25 3.883944414915363e-17 3.883944391509767e-17 2.3405596508425263e-25
3.29141343181113 4.347423318024109e-25 3.798252222186924e-17 3.7982521987176574e-17 2.346926568681933e-25
3.292184975758714 4.2982050950961555e-25 3.7561315697631173e-17 3.7561315462619655e-17 2.350115299552586e-25
3.295272960557952 3.987532892286253e-25 3.487908684210446e-17 3.4879086605962634e-17 2.3614182693207316e-25
3.3076538914384823 2.911268143770497e-25 2.5560638633717313e-17 2.5560638393086902e-17 2.406304200331012e-25
3.310756385682612 2.692220789790135e-25 2.365959640879725e-17 2.3659596167032624e-17 2.417646332633355e-25
3.313861789986515 2.490115538993951e-25 2.1903994561778496e-17 2.1903994318874785e-17 2.429037092573294e-25
3.3200813396944477 2.2066878705400145e-25 1.944728884221693e-17 1.9447288596549065e-17 2.4566786330630463e-25
3.345076488085796 1.7010984949257082e-25 1.5104451051485546e-17 1.5104450791675362e-17 2.5981018089476966e-25
3.3482140837626964 1.7200629436904084e-25 1.5287166355427796e-17 1.5287166093498618e-17 2.61929178850224e-25
3.3513546224236106 1.739237070024111e-25 1.5472076405413253e-17 1.547207614134739e-17 2.6406586092223686e-25
3.3576445397418455 1.8793436649770735e-25 1.6749828111851773e-17 1.6749827843046202e-17 2.688055757666266e-25
3.3702598118196083 2.3961020241250123e-25 2.14357222351517e-17 2.1435721955824004e-17 2.793276968792411e-25
3.382922481734668 2.5138155056006207e-25 2.2573290985495652e-17 2.257329069654647e-17 2.8894918609315376e-25
3.389271646505754 2.5747993062823785e-25 2.3164300754128474e-17 2.316430046023835e-17 2.9389012620112586e-25
3.395632727569191 2.6405122555239896e-25 2.3800075311207102e-17 2.380007501213188e-17 2.9907522269698595e-25
3.421196662673239 2.9560374651473046e-25 2.684462903335033e-17 2.6844628712233494e-17 3.211168254966213e-25
3.4276182099114902 2.892473913734163e-25 2.631669367751911e-17 2.6316693351822306e-17 3.2569680452715546e-25
3.4340518103208963 2.6138983357630107e-25 2.3826758801114173e-17 2.3826758471358546e-17 3.297556203600889e-25
3.4469541582030403 2.2171612003716065e-25 2.0286270432556752e-17 2.0286270095415708e-17 3.3714103601069926e-25
3.472904465399547 2.106014280480591e-25 1.941438248403246e-17 1.941438212672642e-17 3.5730603377097637e-25
3.4990501388274233 1.9359980225478021e-25 1.798144165070731e-17 1.798144127242625e-17 3.7828106311417646e-25
3.5253949054701885 1.3308144333604691e-25 1.2453594138426786e-17 1.2453593741137893e-17 3.9728889384419576e-25
3.5519380250092896 7.620132745886907e-26 7.184513241587274e-18 7.18451282536081e-18 4.162264633995403e-25
3.578680990867387 5.365161042690334e-26 5.096537005474213e-18 5.096536565983425e-18 4.394907879823075e-25
3.605625307711299 4.4534642784177137e-26 4.262339115134841e-18 4.26233864955217e-18 4.655826689941313e-25
3.660119384959845 3.789340629672825e-26 3.681529890025394e-18 3.681529366160196e-18 5.238651999369252e-25
3.715437065384467 3.3197009999675393e-26 3.273997260250973e-18 3.2739966708682676e-18 5.89382706069199e-25
3.8285932144167436 3.0848459185862936e-26 3.1350331336209752e-18 3.1350323866078703e-18 7.47013104937862e-25
3.94519561050918 3.045002525865179e-26 3.1887878861257933e-18 3.1887869392627652e-18 9.468630279645101e-25
4.06534921144712 3.086847396906506e-26 3.3310599605213075e-18 3.3310587600740716e-18 1.2004472358226246e-24
4.189162171576248 3.1776590547330737e-26 3.533490306084795e-18 3.533488783327477e-18 1.5227573195884333e-24
4.316745939156006 3.305807751099156e-26 3.7879437027665245e-18 3.787941770442177e-18 1.9323243483763847e-24
4.448215356677963 3.4680932593339e-26 4.094925505941758e-18 4.094923054585962e-18 2.4513557966780467e-24
4.58368876423945 3.6661835244580094e-26 4.460656238219928e-18 4.460653128369293e-18 3.1098506353212682e-24
4.723288106065518 3.9054141231157106e-26 4.8964459237349394e-18 4.896441977486778e-18 3.946248162560177e-24
4.867139040275056 4.195330850371282e-26 5.420126238602907e-18 5.420121234555793e-18 5.004047113093149e-24
4.940699165968905 4.3698491782455666e-26 5.7309192859944e-18 5.7309136509809865e-18 5.63501341263056e-24
5.015371051989984 4.552627161322407e-26 6.0608646714904624e-18 6.06085832774106e-18 6.3437494012791774e-24
5.091171501069577 4.7728229826032e-26 6.450041178102625e-18 6.450034032933326e-18 7.145169300631644e-24
5.129500256944802 4.8867188358520954e-26 6.653678939128953e-18 6.653671357265379e-18 7.581863575207088e-24
5.168117569889187 5.005664481625006e-26 6.866944769784668e-18 6.866936724632988e-18 8.045151680568985e-24
5.20702561229733 5.1486457629262503e-26 7.116265773745232e-18 7.116257230676001e-18 8.543069231403324e-24
5.246226572918644 5.295795535202382e-26 7.374756495230101e-18 7.374747424698563e-18 9.070531536981401e-24
5.265937586045735 5.370978085401999e-26 7.50755497051777e-18 7.507545624670212e-18 9.345847558365765e-24
5.285722656980489 5.447256820855471e-26 7.642785241201214e-18 7.642775612034825e-18 9.62916639056508e-24
5.305582063971359 5.524650488940897e-26 7.780495886962877e-18 7.780485966258788e-18 9.920704091948772e-24
5.3255160863122235 5.607291055863667e-26 7.926550545996049e-18 7.926540324118387e-18 1.0221877664000669e-23
5.365609099470188 5.808691709311801e-26 8.273071738004217e-18 8.273060877774129e-18 1.08602300899383e-23
5.406003951863644 6.018068271729383e-26 8.63580648995363e-18 8.635794953332934e-18 1.1536620698443071e-23
5.446702915881641 6.235795951422342e-26 9.015607923704183e-18 9.015595670560963e-18 1.2253143219815512e-23
5.487708281020852 6.470332718633544e-26 9.425123801355216e-18 9.425110786408767e-18 1.3014946450952547e-23
5.529022354014368 6.787609668750524e-26 9.961727062522141e-18 9.961713213885179e-18 1.3848636964085217e-23
5.570647458961463 7.12334457180648e-26 1.0533169198307013e-17 1.0533154465098746e-17 1.473320826898586e-23
5.612585937458331 7.478818997173545e-26 1.114205914215395e-17 1.114204347063479e-17 1.5671519159200422e-23
5.654840148729818 7.868081375662515e-26 1.1810236890078318e-17 1.1810220217780958e-17 1.6672297358609876e-23
5.67608639626678 8.128178250356502e-26 1.2246490485284986e-17 1.2246473264667822e-17 1.7220617164741176e-23
5.686739436050992 8.262137970606845e-26 1.2471687078165558e-17 1.2471669576954948e-17 1.7501210613800613e-23
5.6974124697621304 8.398786404581272e-26 1.2701752071030455e-17 1.2701734284854808e-17 1.7786175650820254e-23
5.718818669136295 8.680402239243901e-26 1.3176971591493126e-17 1.3176953222020178e-17 1.8369472944887934e-23
5.740305295436557 8.98952683199112e-26 1.3697498351797513e-17 1.3697479372287303e-17 1.8979510211372652e-23
5.7835210386641895 9.782630391243936e-26 1.501818320945292e-17 1.5018162882019948e-17 2.0327432975937913e-23
5.827062130521658 1.0692510217837974e-25 1.6538600464096216e-17 1.6538578678030482e-17 2.178606573373881e-23
5.8489554468988025 1.132423770105294e-25 1.7581532310187104e-17 1.7581509673501574e-17 2.2636685530188857e-23
5.870931020387893 1.2001099596322425e-25 1.8702404712639018e-17 1.8702381192854223e-17 2.3519784796839016e-23
5.892989160043636 1.2726694060173589e-25 1.9907681293452712e-17 1.9907656856921757e-17 2.4436530954513084e-23
5.915130176081913 1.3549645293040346e-25 2.1274612868709957e-17 2.127458744938083e-17 2.5419329122529406e-23
5.95966208400165 1.5836398019170353e-25 2.505229270104534e-17 2.5052264903942642e-17 2.7797102694427454e-23
6.004529249263818 1.9116064193824027e-25 3.046820563173739e-17 3.046817484793454e-17 3.078380284854079e-23
6.027089341400364 2.1388507503654115e-25 3.4218230123076306e-17 3.4218197448211765e-17 3.267486455350717e-23
6.049734195844842 2.406993951242285e-25 3.86527791783334e-17 3.865274439116652e-17 3.478716687683499e-23
6.095279466722835 3.1798120887220247e-25 5.1447527952621774e-17 5.144748746994679e-17 4.0482674980991896e-23
6.141167624020661 4.366849211543137e-25 7.118501495269299e-17 7.118496623839857e-17 4.8714294414876716e-23
6.164241091010745 5.124646230345507e-25 8.385190610151071e-17 8.3851851985442e-17 5.411606869319522e-23
6.187401249150058 5.987232867416332e-25 9.833403577852341e-17 9.833397570756096e-17 6.007096245671835e-23
6.1990139391386085 6.408588702344007e-25 1.0545190890264812e-16 1.0545184576528161e-16 6.313736646983676e-23
6.204828454712694 6.6304772142156955e-25 1.092053711023298e-16 1.0920530637112964e-16 6.473120014302611e-23
6.210648424152782 6.792735608645769e-25 1.119827398965158e-16 1.1198267383759616e-16 6.605891961524271e-23
6.233982942956859 7.344569991843234e-25 1.2153501434959447e-16 1.2153494356867107e-16 7.078092344013803e-23
6.239830258556775 7.415533386842375e-25 1.228243864566331e-16 1.228243150171835e-16 7.143944961125813e-23
6.245683058788269 7.422474655175281e-25 1.2305466948525196e-16 1.2305459738151105e-16 7.210374088873497e-23
6.257405133728602 7.409141304936604e-25 1.230641580498555e-16 1.2306408478095845e-16 7.326889704000592e-23
6.269149208991335 7.3030272166709625e-25 1.2152928942173094e-16 1.2152921576029363e-16 7.366143731418365e-23
6.280915325867298 7.034248580835311e-25 1.17276253432715e-16 1.172761803397021e-16 7.309301291711499e-23
6.304513850009849 6.370461571768801e-25 1.0660852544919373e-16 1.0660845438775012e-16 7.106144361182423e-23
6.32820103803542 5.546910353348855e-25 9.317531029929629e-17 9.317524238490137e-17 6.791439495162306e-23
6.3519772230701035 4.791836289909826e-25 8.079422834466619e-17 8.07941634025271e-17 6.494213909439619e-23
6.375842739491607 4.156702130678569e-25 7.034867689988964e-17 7.034861456363029e-17 6.233625935134546e-23
6.399797922933955 3.6486885152725567e-25 6.198298450396361e-17 6.198292390161671e-17 6.060234691123498e-23
6.42384311029221 3.226595822765475e-25 5.501852281359605e-17 5.501846366920972e-17 5.914438631727628e-23
6.447978639727206 2.9201210548883888e-25 4.9979726914778e-17 4.997966841660933e-17 5.849816864935808e-23
6.472204850670314 2.6652599407808364e-25 4.5789010601530704e-17 4.5788952547199074e-17 5.805433163138033e-23
6.496522083828205 2.501022634071933e-25 4.312885954172437e-17 4.312880122384061e-17 5.831788376063733e-23
