Dust emission spectrum from A.P. Jones, M. Kohler, N. Ysard, M. Bocchio, and L. Verstraete (2017), A&A, 602A, 46J 
inside the DustPedia framework.

lambda    nu*dP/dnu     j_nu    j_nu(carb.) j_nu(sil)
 (um)   (erg s-1 H-1) (Jy cm2 sr-1 H-1)
0.9927057738263894 5.718468549804783e-27 1.5068489431264962e-19 1.5068489430577467e-19 6.874961754003133e-30
1.0001793341362166 5.812890906631528e-27 1.5432613592936078e-19 1.54326135921079e-19 8.281780136120105e-30
1.0077091589558085 5.907177249277555e-27 1.580100248098679e-19 1.5801002479990427e-19 9.963657784242111e-30
1.0114953028030835 5.954257803295355e-27 1.5986777767812997e-19 1.5986777766720665e-19 1.0923362794493553e-29
1.0152956718711033 6.001290456294786e-27 1.6173596889318968e-19 1.6173596888121803e-19 1.1971639649018816e-29
1.0229392996569957 6.09514751433797e-27 1.655021034099945e-19 1.6550210339562865e-19 1.4365881180751284e-29
1.0267826658714554 6.141858037169724e-27 1.67397024966219e-19 1.6739702495048908e-19 1.5729898478626096e-29
1.0306404723013447 6.188500007491572e-27 1.6930197392265912e-19 1.6930197390544126e-19 1.7217849102622536e-29
1.03451277320114 6.235068924628582e-27 1.7121686824313159e-19 1.7121686822429113e-19 1.8840443742665067e-29
1.0383996230291617 6.2815603129572475e-27 1.7314162486878443e-19 1.7314162484817518e-19 2.0609267521945484e-29
1.0403485208654093 6.3047755422476804e-27 1.7410767531536547e-19 1.7410767529381308e-19 2.1552391155949627e-29
1.0423010764483396 6.327969722763678e-27 1.750761597377639e-19 1.7507615971522704e-19 2.2536846878822067e-29
1.0462171883269815 6.374292731082906e-27 1.7702038780490673e-19 1.7702038778027002e-19 2.4636721190167563e-29
1.0471985131304309 6.3858594672275874e-27 1.7750794932564451e-19 1.775079493004542e-19 2.5190300098890666e-29
1.048180758391296 6.397420460024662e-27 1.779961099471522e-19 1.7799610992139637e-19 2.5755795744149274e-29
1.0501480137395462 6.4205249425190786e-27 1.7897422306144823e-19 1.7897422303452474e-19 2.6923519443141447e-29
1.0521189612883777 6.443605633580818e-27 1.79954716249372e-19 1.7995471622123e-19 2.814190462161334e-29
1.0531058218030118 6.455119155697195e-27 1.8044535627703576e-19 1.80445356248265e-19 2.877078623182858e-29
1.0540936079674168 6.466568431460412e-27 1.8093496078005431e-19 1.8093496075064103e-19 2.941326156653794e-29
1.058054026499678 6.51230027026181e-27 1.8289915296196788e-19 1.8289915292984445e-19 3.212336913230246e-29
1.0590464539527713 6.523716579499202e-27 1.8339163755168921e-19 1.8339163751885187e-19 3.2837386900938096e-29
1.06003981227728 6.535126095218928e-27 1.838846939479747e-19 1.8388469391440807e-19 3.3566596217482117e-29
1.0620293250338977 6.557924480428239e-27 1.848725165111841e-19 1.8487251647611224e-19 3.507182584064704e-29
1.0660195594769086 6.603436813191524e-27 1.8685496099178028e-19 1.8685496095350167e-19 3.827851918610126e-29
1.070024785945596 6.648833051987681e-27 1.888463951272418e-19 1.8884639508547697e-19 4.1764899773905605e-29
1.0740450607676866 6.694109013150345e-27 1.9084672682025026e-19 1.9084672677469617e-19 4.555409602945631e-29
1.07808044048254 6.739260546585141e-27 1.9285586317243323e-19 1.928558631227622e-19 4.967103667614958e-29
1.0861967418109137 6.829094059849145e-27 1.9689787235773193e-19 1.968978722987343e-19 5.899766850386745e-29
1.0902777775684922 6.873586352909872e-27 1.9892528381675265e-19 1.9892528375248523e-19 6.426745978870036e-29
1.0943741465085532 6.917934793988249e-27 2.0096097168833146e-19 2.0096097161834598e-19 6.998546665690916e-29
1.1026131145906286 7.00618435923003e-27 2.050567868229348e-19 2.0505678674002162e-19 8.291315274829082e-29
1.1109141095355224 7.0938116155164e-27 2.091845315459024e-19 2.0918453144779917e-19 9.810321066452531e-29
1.1192775983109025 7.18070463357097e-27 2.133409908692912e-19 2.1334099075336297e-19 1.1592819910713994e-28
1.1277040513999907 7.266459573525971e-27 2.175141104282554e-19 2.1751411029143746e-19 1.3681794795889875e-28
1.1361939428280308 7.35149097835826e-27 2.2171615136601355e-19 2.2171615120474595e-19 1.6126763315133482e-28
1.1447477501889525 7.43577050251798e-27 2.259462870258942e-19 2.2594628683604716e-19 1.8984701011861816e-28
1.1533659546722406 7.519316426539794e-27 2.302050899245937e-19 2.302050897013826e-19 2.232110810378925e-28
1.1707974979042381 7.684477632472854e-27 2.3881718203473647e-19 2.3881718172732416e-19 3.074123032096366e-28
1.1884924949847024 7.846348761866934e-27 2.475332162899513e-19 2.4753321586866517e-19 4.212861749768608e-28
1.2064549276569216 8.006196759785851e-27 2.5639337179631265e-19 2.563933712217817e-19 5.745309633959915e-28
1.2246888378427687 8.162274733789073e-27 2.6534224618194733e-19 2.653422454022172e-19 7.797301146173794e-28
1.2431983285522175 8.314217540580434e-27 2.74366595421794e-19 2.7436659436863927e-19 1.0531547738027765e-27
1.2619875648066055 8.461968529366864e-27 2.8346269668924534e-19 2.834626952735084e-19 1.415736887476786e-27
1.3004222497298317 8.74243831971578e-27 3.0177718387938423e-19 3.017771813566108e-19 2.5227734976925593e-27
1.3400274889804893 9.002587912781136e-27 3.2022151772807626e-19 3.202215133140851e-19 4.413991207422981e-27
1.3808389325824078 9.241454234383505e-27 3.387293070009412e-19 3.387292994144285e-19 7.586512624034655e-27
1.4228933163050095 9.460203241293786e-27 3.573075879992832e-19 3.5730757518415173e-19 1.2815131524143458e-26
1.466228494730424 9.66410622400403e-27 3.761255045162234e-19 3.7612548323041995e-19 2.1285803552154147e-26
1.5108834753276823 9.849198457102983e-27 3.9500381738115363e-19 3.9500378260079883e-19 3.478035472927045e-26
1.5568984535646726 1.0012273097833217e-26 4.137732469533683e-19 4.137731909897455e-19 5.59636227847559e-26
1.6043148490894465 1.0153631911016296e-26 4.3239478918876306e-19 4.3239470035062903e-19 8.883813396670266e-26
1.6531753430134553 1.0273709075852715e-26 4.508329146498789e-19 4.508327756802225e-19 1.3896965635102304e-25
1.7035239163302658 1.0373936906785845e-26 4.690955040177363e-19 4.690952897419487e-19 2.1427578742747877e-25
1.755405889504358 1.0462570244633198e-26 4.875120681958579e-19 4.875117423761382e-19 3.25819719689366e-25
1.8088679632656115 1.0537577758313313e-26 5.059610585163985e-19 5.059605697647009e-19 4.887516976307141e-25
1.8639582606462262 1.0597586458947085e-26 5.24339510711328e-19 5.2433878714247575e-19 7.235688523521312e-25
1.9207263702978936 1.0643604461325353e-26 5.426548125642788e-19 5.426537549727836e-19 1.0575914949774765e-24
1.979223391128241 1.0677969485449095e-26 5.609871629695403e-19 5.609856362048139e-19 1.526764726361077e-24
2.039501978296691 1.0703478737095447e-26 5.794533988616221e-19 5.79451221152755e-19 2.1777088671338897e-24
2.1016163906111602 1.0727950232050335e-26 5.984662035333049e-19 5.984631332177384e-19 3.0703155664010956e-24
2.1656225393682647 1.0755924272383506e-26 6.183009756228615e-19 6.182966953234275e-19 4.280299434013561e-24
2.231578038680979 1.0787741209595353e-26 6.390164398796033e-19 6.390105377125323e-19 5.902167071088772e-24
2.299542257339062 1.0826130852670165e-26 6.608214016662477e-19 6.60813349156081e-19 8.052510166541738e-24
2.369576372248914 1.0877109504083976e-26 6.841536440856904e-19 6.841427703766883e-19 1.0873709002298837e-23
2.4417434235010123 1.094778263327635e-26 7.09570620985714e-19 7.095560836258613e-19 1.4537359852550238e-23
2.5161083711144245 1.1050305714201469e-26 7.380283910627571e-19 7.380091424557462e-19 1.9248607010765434e-23
2.5927381535095444 1.1204557439875365e-26 7.711214768094849e-19 7.710962268797688e-19 2.5249929716098146e-23
2.6717017477616296 1.1434275923681335e-26 8.108977132467509e-19 8.108648897861254e-19 3.282346062539919e-23
2.753070231689431 1.1775188964263063e-26 8.605073988377153e-19 8.604651044054433e-19 4.2294432272082946e-23
2.836916847834745 1.2308166901930197e-26 9.26849918956443e-19 9.26795883093304e-19 5.403586313902013e-23
2.9233170693905177 1.3211224069626535e-26 1.0251523556837748e-18 1.0250838958531145e-18 6.845983066006451e-23
2.967498994190263 1.39771816498339e-26 1.1009804893681769e-18 1.1009037903947348e-18 7.669897344178894e-23
3.0123486681368425 1.4871636110370356e-26 1.189141187456791e-18 1.1890553715915898e-18 8.58158652008692e-23
3.0578761833420214 1.6870381749498181e-26 1.3693492854780142e-18 1.369253370074218e-18 9.591540379601851e-23
3.1040917844459814 1.9445578781325667e-26 1.6022300086301745e-18 1.6021230033360283e-18 1.0700529414592637e-22
3.127460860933648 2.216825390493575e-26 1.8403177011653318e-18 1.8402047184365185e-18 1.1298272881333967e-22
3.1510058709225794 2.5795422005099898e-26 2.1575520545214492e-18 2.1574328119063383e-18 1.1924261511152622e-22
3.162844764501044 2.917103297464709e-26 2.4490582685301338e-18 2.448935775065768e-18 1.2249346436639264e-22
3.1747281389236908 3.309648777073815e-26 2.7890601650766447e-18 2.788934346705556e-18 1.2581837108870096e-22
3.1986289994194426 4.4045113660344434e-26 3.739650694474831e-18 3.739517982370576e-18 1.3271210425516347e-22
3.2227097969389145 6.985111885485976e-26 5.975358950867767e-18 5.975218902490646e-18 1.4004837711903801e-22
3.2348180950136065 9.432241240113731e-26 8.099052173339293e-18 8.098908201479665e-18 1.4397185962849667e-22
3.240889293275058 1.1261760956891006e-25 9.688129466734525e-18 9.687983424928818e-18 1.4604180570687993e-22
3.2469718861334385 1.3378224838249385e-25 1.1530455178137885e-17 1.1530306994194394e-17 1.4818394348848503e-22
3.2714166318528037 2.466770176866807e-25 2.1420715815000254e-17 2.142055875264286e-17 1.5706235739490353e-22
3.2744851364798273 2.5373449872011086e-25 2.2054233890458475e-17 2.205407577485943e-17 1.5811559905191676e-22
3.2775565192852394 2.609946796548388e-25 2.2706556473807232e-17 2.2706397299021625e-17 1.591747856080934e-22
3.283707930232385 2.5401325405033e-25 2.214064828085156e-17 2.2140487198204266e-17 1.6108264730012515e-22
3.2898708863219004 2.3187216071110607e-25 2.0248688348500264e-17 2.024852551690631e-17 1.6283159395669415e-22
3.29141343181113 2.266507502349194e-25 1.9801998856908683e-17 1.9801835585786666e-17 1.6327112201296675e-22
3.292184975758714 2.2408513585516443e-25 1.958243579536333e-17 1.9582272304132767e-17 1.6349123056365366e-22
3.295272960557952 2.0789062421369712e-25 1.818426413393536e-17 1.818409978415446e-17 1.643497808998208e-22
3.3076538914384823 1.5178812199871995e-25 1.3326842955369257e-17 1.3326675150339997e-17 1.6780502926077028e-22
3.310756385682612 1.4036990002958542e-25 1.2335894571641341e-17 1.2335725894235637e-17 1.686774057034294e-22
3.313861789986515 1.2983483946069535e-25 1.1420761699376563e-17 1.142059214615318e-17 1.6955322338378866e-22
3.3200813396944477 1.1506079043453499e-25 1.0140176396794205e-17 1.0140004965436986e-17 1.7143135721827336e-22
3.345076488085796 8.870688918664899e-26 7.876491982363477e-18 7.876312193964112e-18 1.7978839936733085e-22
3.3482140837626964 8.96955556784858e-26 7.971748278337115e-18 7.971567358152788e-18 1.8092018432883513e-22
3.3513546224236106 9.069515148321659e-26 8.068148601095555e-18 8.067966543253153e-18 1.8205784240150909e-22
3.3576445397418455 9.799863445804933e-26 8.734220956806992e-18 8.734036522409703e-18 1.8443439728621933e-22
3.3702598118196083 1.2493579561348517e-25 1.1176857183184066e-17 1.1176667761593288e-17 1.8942159077410535e-22
3.382922481734668 1.310720527073992e-25 1.176986767421272e-17 1.1769673379783245e-17 1.9429442947869785e-22
3.389271646505754 1.3425104570463726e-25 1.2077957267079556e-17 1.2077760497510866e-17 1.9676956868851375e-22
3.395632727569191 1.3767652637051183e-25 1.2409378859532443e-17 1.2409179538793007e-17 1.9932073943824453e-22
3.421196662673239 1.541238893397166e-25 1.399643503603449e-17 1.3996225124232846e-17 2.0991180163883446e-22
3.4276182099114902 1.5081073376016964e-25 1.3721264225766278e-17 1.3721051922519931e-17 2.1230324634788994e-22
3.4340518103208963 1.3629003634997496e-25 1.2423397569355038e-17 1.2423182990757927e-17 2.1457859711086084e-22
3.4469541582030403 1.1561039947638297e-25 1.057795810336541e-17 1.0577739129798073e-17 2.189735673411896e-22
3.472904465399547 1.0981785737033308e-25 1.0123606028341072e-17 1.0123376965816605e-17 2.290625244696573e-22
3.4990501388274233 1.009568392327842e-25 9.376814917998318e-18 9.376575464020714e-18 2.3945397760359564e-22
3.5253949054701885 6.941299746059786e-26 6.495581026447955e-18 6.495331372954519e-18 2.4965349343729455e-22
3.5519380250092896 3.976611600810241e-26 3.749280971265478e-18 3.7490209797093385e-18 2.5999155613972483e-22
3.578680990867387 2.8013970480821803e-26 2.6611360980541442e-18 2.6608647562778973e-18 2.7134177624759375e-22
3.605625307711299 2.326359091457304e-26 2.226520913038739e-18 2.2262375599787104e-18 2.8335306002853493e-22
3.660119384959845 1.9805526714714498e-26 1.9242038579733964e-18 1.9238950210494698e-18 3.0883692392642176e-22
3.715437065384467 1.7361502001763154e-26 1.7122478797991189e-18 1.7119118090395288e-18 3.36070759589392e-22
3.8285932144167436 1.6145705008223888e-26 1.6408378733434e-18 1.6404419544950843e-18 3.9591884831547823e-22
3.94519561050918 1.594730581242188e-26 1.6700339378715476e-18 1.6695707119566366e-18 4.632259149108408e-22
4.06534921144712 1.6175702639314398e-26 1.745542570362153e-18 1.7450040768945976e-18 5.384934675554722e-22
4.189162171576248 1.666042773632665e-26 1.8526046654958567e-18 1.851982185909512e-18 6.224795863447198e-22
4.316745939156006 1.7340950693423723e-26 1.9870043851551535e-18 1.986288764229876e-18 7.1562092527741255e-22
4.448215356677963 1.820067796647277e-26 2.149031610662517e-18 2.1482140756182773e-18 8.175350442401094e-22
4.58368876423945 1.9248407753902441e-26 2.3419594123002598e-18 2.3410302611951796e-18 9.291511050799542e-22
4.723288106065518 2.0512063657654747e-26 2.5717172959826325e-18 2.5706652910716464e-18 1.0520049109860259e-21
4.867139040275056 2.2041494390281285e-26 2.847634342645697e-18 2.846449859921738e-18 1.1844827239593225e-21
4.940699165968905 2.2960918131233907e-26 3.0112519488660552e-18 3.009996967914574e-18 1.2549809514813877e-21
5.015371051989984 2.392383933319179e-26 3.1849555758226853e-18 3.1836272569024007e-18 1.3283189202847423e-21
5.091171501069577 2.5082257814936975e-26 3.3896416509855704e-18 3.3882357458260843e-18 1.4059051594872266e-21
5.129500256944802 2.568144026672013e-26 3.496744215679402e-18 3.495298390772648e-18 1.4458249067532439e-21
5.168117569889187 2.6307066417499544e-26 3.608894939066742e-18 3.607408161285818e-18 1.4867777809238535e-21
5.20702561229733 2.7058112376531215e-26 3.739871179209332e-18 3.738340270639892e-18 1.5309085694413307e-21
5.246226572918644 2.7831009943126613e-26 3.875657962671756e-18 3.87408199440946e-18 1.5759682622965144e-21
5.265937586045735 2.822588552302672e-26 3.945415225796892e-18 3.943816376008042e-18 1.598849788849538e-21
5.285722656980489 2.862650651740056e-26 4.0164480712693805e-18 4.0148261037071005e-18 1.621967562281155e-21
5.305582063971359 2.903297088551253e-26 4.088781924091412e-18 4.087136601155866e-18 1.64532293554566e-21
5.3255160863122235 2.946681763690732e-26 4.16547343631011e-18 4.1638043919172455e-18 1.669044392865257e-21
5.365609099470188 3.052288586308333e-26 4.347244388807834e-18 4.345526181726804e-18 1.718207081028043e-21
5.406003951863644 3.162065551088831e-26 4.537500236750332e-18 4.53573181898064e-18 1.7684177696911694e-21
5.446702915881641 3.276208388081369e-26 4.7366864684780635e-18 4.734866778401802e-18 1.819690076261777e-21
5.487708281020852 3.399126250451204e-26 4.951396955936576e-18 4.949524762565953e-18 1.872193370623241e-21
5.529022354014368 3.565187359293134e-26 5.2323903602680225e-18 5.230463193651527e-18 1.9271666164943263e-21
5.570647458961463 3.740881645922037e-26 5.531578450282009e-18 5.529595114946984e-18 1.9833353350254522e-21
5.612585937458331 3.9268770935978e-26 5.850321666746044e-18 5.848280949692334e-18 2.040717053707372e-21
5.654840148729818 4.1304968871641996e-26 6.200005361158673e-18 6.197905828937035e-18 2.0995322216359454e-21
5.67608639626678 4.2664368941029753e-26 6.4281167588086886e-18 6.425986464605626e-18 2.130294203062452e-21
5.686739436050992 4.336446472266899e-26 6.5458606023926494e-18 6.5437147985776226e-18 2.1458038150292908e-21
5.6974124697621304 4.407858075178985e-26 6.6661440996610626e-18 6.663982700019964e-18 2.161399641096981e-21
5.718818669136295 4.555019099644507e-26 6.91458248367444e-18 6.9123896323286674e-18 2.1928513457738243e-21
5.740305295436557 4.7165219913602135e-26 7.186646573317339e-18 7.18442173935093e-18 2.224833966408721e-21
5.7835210386641895 5.1306804965592215e-26 7.87656249953601e-18 7.874271201768833e-18 2.2912977671748205e-21
5.827062130521658 5.605711910952166e-26 8.670614076888795e-18 8.668254337827969e-18 2.3597390608225475e-21
5.8489554468988025 5.935385859729522e-26 9.215028951269665e-18 9.212632473228916e-18 2.396478040749783e-21
5.870931020387893 6.288582197667849e-26 9.800069434097647e-18 9.797635756020679e-18 2.433678076964607e-21
5.892989160043636 6.667175663478095e-26 1.0429103395463855e-17 1.0426632051439257e-17 2.4713440245926105e-21
5.915130176081913 7.096514390326556e-26 1.1142402115055658e-17 1.1139891752251133e-17 2.5103628045235787e-21
5.95966208400165 8.289233019215548e-26 1.3113101326019647e-17 1.3110503726290074e-17 2.5975997295714504e-21
6.004529249263818 9.999472663064789e-26 1.5937694402889982e-17 1.593499928351319e-17 2.6951193767888657e-21
6.027089341400364 1.1184324195325442e-25 1.7893150282755947e-17 1.7890399618458846e-17 2.7506642970983567e-21
6.049734195844842 1.2582325127750482e-25 2.0205361731878337e-17 2.0202552306207308e-17 2.8094256710295386e-21
6.095279466722835 1.661114937022588e-25 2.687588284165995e-17 2.6872931909236685e-17 2.950932423259312e-21
6.141167624020661 2.2798820455531973e-25 3.716488242233813e-17 3.7161751320783196e-17 3.1311015549189984e-21
6.164241091010745 2.674890659746844e-25 4.3767836910330167e-17 4.376459455188574e-17 3.2423584444255012e-21
6.187401249150058 3.124502721366281e-25 5.1316688225876685e-17 5.131333080999586e-17 3.357415880852608e-21
6.1990139391386085 3.344129763716042e-25 5.502691521973235e-17 5.502349910426025e-17 3.4161154721033405e-21
6.204828454712694 3.4597849285056346e-25 5.698339423317026e-17 5.697994838251805e-17 3.445850652220833e-21
6.210648424152782 3.5443625294928844e-25 5.843116089105193e-17 5.842768923363825e-17 3.4716574136651944e-21
6.233982942956859 3.832011606462981e-25 6.341059940834062e-17 6.340703562239664e-17 3.563785943983192e-21
6.239830258556775 3.8690059395836754e-25 6.40828185831665e-17 6.407924044900315e-17 3.57813416335756e-21
6.245683058788269 3.8726329775974806e-25 6.420305804125261e-17 6.41994655086661e-17 3.59253258651724e-21
6.257405133728602 3.8657024621662935e-25 6.420844186907012e-17 6.420482320540972e-17 3.618663660385897e-21
6.269149208991335 3.81041622877521e-25 6.340893480815668e-17 6.340530212080435e-17 3.632687352336987e-21
6.280915325867298 3.6703516890009826e-25 6.119276137599304e-17 6.118912971389192e-17 3.631662101119583e-21
6.304513850009849 3.324432823338088e-25 5.56337837153876e-17 5.563016779394933e-17 3.6159214382609395e-21
6.32820103803542 2.8952536858809817e-25 4.86335894024815e-17 4.8630003867056025e-17 3.585535425453657e-21
6.3519772230701035 2.5017662691621413e-25 4.218179899870354e-17 4.2178239276656524e-17 3.559722047013391e-21
6.375842739491607 2.170782996662202e-25 3.673867091049743e-17 3.6735132282053856e-17 3.5386284435808015e-21
6.399797922933955 1.9060653960505262e-25 3.2379749987541955e-17 3.2376214906235826e-17 3.5350813061326026e-21
6.42384311029221 1.6861230467163706e-25 2.875104426087815e-17 2.874750915740497e-17 3.535103473174887e-21
6.447978639727206 1.5264450419097797e-25 2.6126076594445702e-17 2.6122527516067862e-17 3.549078377842372e-21
6.472204850670314 1.3936648107872876e-25 2.3943080305114167e-17 2.3939514326770497e-17 3.565978343667701e-21
6.496522083828205 1.3081207088339832e-25 2.2557874345610227e-17 2.2554279947441363e-17 3.59439816886877e-21
