Dust emission spectrum from A.P. Jones, M. Kohler, N. Ysard, M. Bocchio, and L. Verstraete (2017), A&A, 602A, 46J 
inside the DustPedia framework.

lambda    nu*dP/dnu     j_nu    j_nu(carb.) j_nu(sil)
 (um)   (erg s-1 H-1) (Jy cm2 sr-1 H-1)
0.9927057738263894 2.6061650081641546e-22 6.867392823729835e-15 6.86739282372975e-15 8.571247171247497e-29
1.0001793341362166 2.6492293763947257e-22 7.033425182349878e-15 7.0334251823497765e-15 1.0328158011583577e-28
1.0077091589558085 2.692232557609804e-22 7.201404584124941e-15 7.201404584124815e-15 1.2429439069040898e-28
1.0114953028030835 2.7137059072524874e-22 7.286116036567401e-15 7.286116036567264e-15 1.362883638139079e-28
1.0152956718711033 2.7351576218713354e-22 7.371304076524828e-15 7.371304076524678e-15 1.4939209965439598e-28
1.0229392996569957 2.777966721912101e-22 7.54303869755246e-15 7.54303869755228e-15 1.7933077362760115e-28
1.0267826658714554 2.7992721985549636e-22 7.629447559238643e-15 7.629447559238448e-15 1.9639264714058774e-28
1.0306404723013447 2.8205466207088184e-22 7.716314290196581e-15 7.716314290196367e-15 2.1500901302577033e-28
1.03451277320114 2.8417879354049975e-22 7.803635154524655e-15 7.80363515452442e-15 2.3531468551644767e-28
1.0383996230291617 2.8629941010488455e-22 7.89140636957402e-15 7.89140636957376e-15 2.574555330659949e-28
1.0403485208654093 2.873583368184418e-22 7.935459663979143e-15 7.935459663978871e-15 2.6926296198006866e-28
1.0423010764483396 2.884163087811225e-22 7.979624106843374e-15 7.979624106843093e-15 2.815893283869837e-28
1.0462171883269815 2.905292878011419e-22 8.068284492874917e-15 8.06828449287461e-15 3.0788665915852164e-28
1.0471985131304309 2.910568965838746e-22 8.090518295123087e-15 8.090518295122773e-15 3.148203334356112e-28
1.048180758391296 2.9158424472895743e-22 8.112779456648808e-15 8.112779456648486e-15 3.2190370171261805e-28
1.0501480137395462 2.9263814664913306e-22 8.157383610150986e-15 8.157383610150648e-15 3.365319033639607e-28
1.0521189612883777 2.936909686988565e-22 8.202096456954595e-15 8.202096456954243e-15 3.517966373900573e-28
1.0531058218030118 2.9421615886228594e-22 8.224470893230491e-15 8.224470893230128e-15 3.596764077454725e-28
1.0540936079674168 2.947384219726647e-22 8.246798187513416e-15 8.24679818751305e-15 3.677269856241866e-28
1.058054026499678 2.9682451079540965e-22 8.336371074709119e-15 8.336371074708715e-15 4.01691544783247e-28
1.0590464539527713 2.973452768397059e-22 8.358829905219477e-15 8.358829905219064e-15 4.106414053375626e-28
1.06003981227728 2.978657343361979e-22 8.38131485115064e-15 8.381314851150219e-15 4.197822644924222e-28
1.0620293250338977 2.989057115641679e-22 8.426362831922298e-15 8.426362831921863e-15 4.38652581709183e-28
1.0660195594769086 3.009818304272367e-22 8.516769339166957e-15 8.516769339166476e-15 4.788610902280919e-28
1.070024785945596 3.0305267499665555e-22 8.607586437995593e-15 8.607586437995072e-15 5.225878859015883e-28
1.0740450607676866 3.051180543798471e-22 8.698809932399456e-15 8.698809932398885e-15 5.701250692308826e-28
1.07808044048254 3.0717777921039185e-22 8.790435589707142e-15 8.79043558970652e-15 6.217875886895787e-28
1.0861967418109137 3.112758763375749e-22 8.974771357668322e-15 8.974771357667582e-15 7.388729002044598e-28
1.0902777775684922 3.1330560212814457e-22 9.067232536961621e-15 9.067232536960816e-15 8.050556884775088e-28
1.0943741465085532 3.1532878701472743e-22 9.160071802765562e-15 9.160071802764686e-15 8.768872566235518e-28
1.1026131145906286 3.1935481478092456e-22 9.346866827610384e-15 9.346866827609345e-15 1.039357777817938e-27
1.1109141095355224 3.2335253841423544e-22 9.535120600666855e-15 9.535120600665621e-15 1.2303683975412593e-27
1.1192775983109025 3.273168540949569e-22 9.72468657941592e-15 9.724686579414464e-15 1.4546407219446254e-27
1.1277040513999907 3.3122935176509327e-22 9.915015292922342e-15 9.915015292920623e-15 1.7176263520572793e-27
1.1361939428280308 3.351089249310243e-22 1.0106665619645714e-14 1.0106665619643689e-14 2.0256103384646422e-27
1.1447477501889525 3.3895427950030844e-22 1.0299599873166835e-14 1.0299599873164448e-14 2.3858299916499362e-27
1.1533659546722406 3.4276624648746053e-22 1.0493844136849574e-14 1.0493844136846767e-14 2.806611979645484e-27
1.1707974979042381 3.503023227128112e-22 1.0886649369239605e-14 1.0886649369235736e-14 3.869553258648211e-27
1.1884924949847024 3.5768861136958753e-22 1.1284205569971832e-14 1.1284205569966524e-14 5.308891866758686e-27
1.2064549276569216 3.6498284796107974e-22 1.1688344146948648e-14 1.1688344146941399e-14 7.248376171007152e-27
1.2246888378427687 3.7210538441007435e-22 1.2096539474104595e-14 1.2096539474094748e-14 9.848839304450936e-27
1.2431983285522175 3.790395533657671e-22 1.2508187484820454e-14 1.2508187484807137e-14 1.331860885811553e-26
1.2619875648066055 3.857827534194266e-22 1.2923118213092072e-14 1.2923118213074144e-14 1.7926151953745513e-26
1.3004222497298317 3.9858415511294737e-22 1.3758587646843057e-14 1.3758587646811033e-14 3.2025305134958046e-26
1.3400274889804893 4.1045942744068377e-22 1.4600017472114672e-14 1.460001747205849e-14 5.6182582201476e-26
1.3808389325824078 4.213644627838128e-22 1.5444375836711175e-14 1.5444375836614344e-14 9.683031570199736e-26
1.4228933163050095 4.313522089205649e-22 1.6291977393763852e-14 1.6291977393599817e-14 1.6403425236914482e-25
1.466228494730424 4.406628021057505e-22 1.7150527417825392e-14 1.7150527417552128e-14 2.7326719348910024e-25
1.5108834753276823 4.491152572806525e-22 1.8011845516427668e-14 1.8011845515979794e-14 4.478801545525144e-25
1.5568984535646726 4.565631028457365e-22 1.8868202620688437e-14 1.8868202619965487e-14 7.229474286347972e-25
1.6043148490894465 4.630198307247256e-22 1.9717807760907437e-14 1.971780775975608e-14 1.151358883031907e-24
1.6531753430134553 4.685049535837029e-22 2.055902616986612e-14 2.0559026168058995e-14 1.807124297722344e-24
1.7035239163302658 4.730834824106559e-22 2.139220014715227e-14 2.1392200144356206e-14 2.7960674889216193e-24
1.755405889504358 4.771315329369163e-22 2.2232336317440995e-14 2.2232336313174115e-14 4.266886834103991e-24
1.8088679632656115 4.805561329901864e-22 2.3073869090307932e-14 2.3073869083883462e-14 6.4244738947485965e-24
1.8639582606462262 4.832942782273389e-22 2.3912075297235624e-14 2.3912075287687785e-14 9.547837803376828e-24
1.9207263702978936 4.8539151593162945e-22 2.474725954494654e-14 2.4747259530935048e-14 1.4011494280048573e-23
1.979223391128241 4.869539756305636e-22 2.5583040826065758e-14 2.5583040805753824e-14 2.0311929552898603e-23
2.039501978296691 4.881086932102301e-22 2.642470249549209e-14 2.6424702466393647e-14 2.909844253544932e-23
2.1016163906111602 4.89211634227106e-22 2.7291013019946137e-14 2.7291012978733506e-14 4.121262837772156e-23
2.1656225393682647 4.90469186115984e-22 2.8194469262590118e-14 2.8194469204860978e-14 5.772913769343679e-23
2.231578038680979 4.918960780892331e-22 2.9137673448426327e-14 2.913767336842199e-14 8.000433845648565e-23
2.299542257339062 4.93615872458103e-22 3.0130056357301385e-14 3.0130056247568915e-14 1.0973246103922257e-22
2.369576372248914 4.959018556921808e-22 3.1191472472836326e-14 3.119147232382494e-14 1.4901139185870362e-22
2.4417434235010123 4.990767410306635e-22 3.234720718479167e-14 3.234720698438172e-14 2.004099469503789e-22
2.5161083711144245 5.036932382969918e-22 3.364069011880563e-14 3.364068985175118e-14 2.670544677359668e-22
2.5927381535095444 5.106558510622024e-22 3.514442191273823e-14 3.5144421560021036e-14 3.5271719472688707e-22
2.6717017477616296 5.210444676572762e-22 3.6951510541047436e-14 3.695151007915257e-14 4.618948616473624e-22
2.753070231689431 5.364849893120604e-22 3.9205256414098844e-14 3.9205255814181125e-14 5.999177119046779e-22
2.836916847834745 5.606610781637187e-22 4.221982680268839e-14 4.22198260295923e-14 7.730960934802495e-22
2.9233170693905177 6.016857445565573e-22 4.6689054334609995e-14 4.6689053345895635e-14 9.887143729745843e-22
2.967498994190263 6.365261291679107e-22 5.013906714128209e-14 5.013906602780802e-14 1.1134740741391354e-21
3.0123486681368425 6.772157230254037e-22 5.415040437153239e-14 5.41504031189934e-14 1.2525390033804195e-21
3.0578761833420214 7.682622723902595e-22 6.235895603184024e-14 6.235895462407004e-14 1.4077701919156234e-21
3.1040917844459814 8.855853961097652e-22 7.2968334489192e-14 7.296833290944081e-14 1.5797511690244675e-21
3.127460860933648 1.0096993862262244e-21 8.38211101919115e-14 8.382110851878893e-14 1.6731225725192863e-21
3.1510058709225794 1.1750639328752668e-21 9.828339315665587e-14 9.828339138523766e-14 1.7714182252217086e-21
3.162844764501044 1.328994370445348e-21 1.1157591349603401e-13 1.1157591167328527e-13 1.822748716006978e-21
3.1747281389236908 1.5080022481754303e-21 1.2708022157416718e-13 1.2708021969877296e-13 1.875394170843605e-21
3.1986289994194426 2.0073055633829357e-21 1.7043029340361757e-13 1.7043029141850986e-13 1.9851077650896364e-21
3.2227097969389145 3.1842892002232535e-21 2.723975118314342e-13 2.723975097281348e-13 2.103299421372874e-21
3.2348180950136065 4.300438722535248e-21 3.692598259037063e-13 3.6925982373634513e-13 2.1673611663064972e-21
3.240889293275058 5.1349061941824906e-21 4.417394064676601e-13 4.4173940426610005e-13 2.201559940747665e-21
3.2469718861334385 6.100256905693461e-21 5.257703445461661e-13 5.257703423089323e-13 2.237233760775903e-21
3.2714166318528037 1.1249605983697925e-20 9.768831124494783e-13 9.768831100627133e-13 2.3867649464506123e-21
3.2744851364798273 1.1571509407203236e-20 1.0057787814403877e-12 1.0057787790360179e-12 2.404369777315213e-21
3.2775565192852394 1.1902658813161173e-20 1.0355321989204114e-12 1.0355321964983126e-12 2.422098784797692e-21
3.283707930232385 1.1584201518006825e-20 1.0097179077666424e-12 1.009717905313526e-12 2.453116180264256e-21
3.2898708863219004 1.0574267311477139e-20 9.234185020193277e-13 9.234184995385916e-13 2.48073577977989e-21
3.29141343181113 1.0336099545772973e-20 9.030432556616222e-13 9.030432531739424e-13 2.487679677346182e-21
3.292184975758714 1.0219072330666048e-20 8.930281209405345e-13 8.930281184493768e-13 2.4911574931628892e-21
3.295272960557952 9.480384586782109e-21 8.292524882705948e-13 8.292524857660766e-13 2.504518095070535e-21
3.3076538914384823 6.921340630653988e-21 6.076866780532406e-13 6.076866754950227e-13 2.5582178511337934e-21
3.310756385682612 6.400509202247601e-21 5.624853099354298e-13 5.62485307363642e-13 2.5717877049442184e-21
3.313861789986515 5.919960890685027e-21 5.207420664821656e-13 5.207420638967498e-13 2.585415878643317e-21
3.3200813396944477 5.246045374944109e-21 4.623280031939811e-13 4.623280005787518e-13 2.6152292021252337e-21
3.345076488085796 4.043842156701164e-21 3.5906219479956693e-13 3.590621920481721e-13 2.751394692592546e-21
3.3482140837626964 4.0889228274528205e-21 3.6340555854116557e-13 3.634055557709358e-13 2.7702298434775086e-21
3.3513546224236106 4.134501915679316e-21 3.678010930208096e-13 3.6780109023162855e-13 2.7891809996765657e-21
3.3576445397418455 4.467606592577725e-21 3.9817966182340365e-13 3.9817965899411087e-13 2.8292928944829285e-21
3.3702598118196083 5.696239528205198e-21 5.095901889072805e-13 5.095901859926788e-13 2.9146016696361747e-21
3.382922481734668 5.976073304417615e-21 5.366330239857442e-13 5.366330209889023e-13 2.9968419828732712e-21
3.389271646505754 6.121046688511934e-21 5.506827894383568e-13 5.506827863996015e-13 3.0387551305801563e-21
3.395632727569191 6.277262845798992e-21 5.657967622218481e-13 5.65796759139709e-13 3.0821391124118185e-21
3.421196662673239 7.027355356688187e-21 6.381744137550064e-13 6.381744104915524e-13 3.2634540644335727e-21
3.4276182099114902 6.87619511932137e-21 6.256191966426972e-13 6.256191933388934e-13 3.3038037066854682e-21
3.4340518103208963 6.213812863815714e-21 5.664146088458313e-13 5.664146055041304e-13 3.341700861001771e-21
3.4469541582030403 5.270457446588751e-21 4.822289197865359e-13 4.822289163723382e-13 3.4141977928887594e-21
3.472904465399547 5.0060708609204845e-21 4.61486777828977e-13 4.614867742423261e-13 3.5866510487096156e-21
3.4990501388274233 4.601704170991571e-21 4.274037167435087e-13 4.274037129783769e-13 3.7651319120919855e-21
3.5253949054701885 3.162656830626449e-21 2.959574496670389e-13 2.959574457290893e-13 3.937949571292021e-21
3.5519380250092896 1.810112189911704e-21 1.7066336546694305e-13 1.7066336135387992e-13 4.1130631569563335e-21
3.578680990867387 1.273804997630169e-21 1.2100278549932907e-13 1.2100278118904847e-13 4.310280600426054e-21
3.605625307711299 1.0568639315297177e-21 1.0115074901498479e-13 1.0115074449273476e-13 4.522250027140883e-21
3.660119384959845 8.985663358225415e-22 8.730011753487854e-14 8.730011255548897e-14 4.9793895791735406e-21
3.715437065384467 7.8644246865385155e-22 7.756151797233844e-14 7.756151249552431e-14 5.476814107220178e-21
3.8285932144167436 7.29427005634944e-22 7.412940197257746e-14 7.412939536669035e-14 6.605887104425738e-21
3.94519561050918 7.1835584364429555e-22 7.522766870249967e-14 7.522766076801407e-14 7.934485623914027e-21
4.06534921144712 7.261585401060398e-22 7.836077806638324e-14 7.836076856946027e-14 9.496922984158248e-21
4.189162171576248 7.448993177013475e-22 8.283124377948684e-14 8.283123244084657e-14 1.1338640300861895e-20
4.316745939156006 7.71623155783423e-22 8.841606330213304e-14 8.841604979335546e-14 1.350877754543427e-20
4.448215356677963 8.053404328214845e-22 9.508997690449265e-14 9.508996085125628e-14 1.6053236370427398e-20
4.58368876423945 8.461748496771922e-22 1.029543419377888e-13 1.0295432288530553e-13 1.9052483272213206e-20
4.723288106065518 8.950737070595584e-22 1.1222062158359857e-13 1.1222059896969196e-13 2.2613906604408663e-20
4.867139040275056 9.539297541653813e-22 1.232422394023639e-13 1.2324221259063717e-13 2.6811726786002332e-20
4.940699165968905 9.894631453602323e-22 1.2976496879469594e-13 1.2976493959470736e-13 2.919998855711251e-20
5.015371051989984 1.026271287953268e-21 1.3662641749723736e-13 1.3662638569475253e-13 3.1802484822358636e-20
5.091171501069577 1.0712087837822455e-21 1.447642368243084e-13 1.4476420215296214e-13 3.4671346256805214e-20
5.129500256944802 1.094276811241487e-21 1.4899499678837347e-13 1.4899496058649034e-13 3.6201883121795423e-20
5.168117569889187 1.1183298098896632e-21 1.5341637592983617e-13 1.5341633812392854e-13 3.780590759812088e-20
5.20702561229733 1.147859666080208e-21 1.586528736081978e-13 1.5865283407858952e-13 3.9529608318499936e-20
5.246226572918644 1.17814642751212e-21 1.6406492586189143e-13 1.6406488452988695e-13 4.133200451160682e-20
5.265937586045735 1.1935812303070518e-21 1.6683882443429727e-13 1.6683878217044116e-13 4.226385610602002e-20
5.285722656980489 1.2092144904122875e-21 1.6965909566419695e-13 1.696590524474231e-13 4.321677380642366e-20
5.305582063971359 1.2250494248840113e-21 1.7252660653766577e-13 1.725265623464218e-13 4.419124395941501e-20
5.3255160863122235 1.2420635164030409e-21 1.7557995734519387e-13 1.755799121532677e-13 4.519192612747498e-20
5.365609099470188 1.284450426947843e-21 1.8293879341220243e-13 1.8293874611722133e-13 4.729498109141099e-20
5.406003951863644 1.3284552324305817e-21 1.906306442505702e-13 1.9063059475394294e-13 4.9496627253827816e-20
5.446702915881641 1.3741562180835134e-21 1.9867317315498883e-13 1.9867312135342896e-13 5.1801559873475073e-20
5.487708281020852 1.4235437510203334e-21 2.0736300084496666e-13 2.073629466222125e-13 5.422275415223269e-20
5.529022354014368 1.4922053610604848e-21 2.1900113962877922e-13 2.190010827977905e-13 5.683098870529914e-20
5.570647458961463 1.5649209942886276e-21 2.314022219290836e-13 2.314021623621204e-13 5.956696320811905e-20
5.612585937458331 1.6419826250240304e-21 2.446250875348254e-13 2.4462502509782087e-13 6.243700455975444e-20
5.654840148729818 1.7266993765780322e-21 2.59182991401382e-13 2.5918292593941195e-13 6.546197004548363e-20
5.67608639626678 1.7844033982200645e-21 2.6885088595656425e-13 2.688508188636811e-13 6.709288309273947e-20
5.686739436050992 1.8141479664904123e-21 2.738454118298509e-13 2.738453439058567e-13 6.792399415277231e-20
5.6974124697621304 1.8445065652812857e-21 2.789506002058983e-13 2.7895053144017686e-13 6.876572144921737e-20
5.718818669136295 1.9071250221885857e-21 2.8950423662617774e-13 2.895041661446034e-13 7.04815743671025e-20
5.740305295436557 1.9761533934196536e-21 3.0110992886673764e-13 3.0110985660578423e-13 7.226095353588094e-20
5.7835210386641895 2.1552447207367343e-21 3.3087072477154724e-13 3.30870648653813e-13 7.611773443218513e-20
5.827062130521658 2.3615725937021385e-21 3.652753637685693e-13 3.6527528353382617e-13 8.023474302551465e-20
5.8489554468988025 2.506324261189143e-21 3.8912130018081056e-13 3.891212176063518e-13 8.257445880980726e-20
5.870931020387893 2.6616661014845147e-21 4.147916300530476e-13 4.1479154506461373e-13 8.498843389287899e-20
5.892989160043636 2.8284506517347027e-21 4.4243928441087267e-13 4.4243919693176307e-13 8.747910962721127e-20
5.915130176081913 3.0181402881557436e-21 4.738852185817065e-13 4.738851284580539e-13 9.012365249880374e-20
5.95966208400165 3.548535232754525e-21 5.613583543639406e-13 5.613582579907477e-13 9.637319299525182e-20
6.004529249263818 4.3130591947129494e-21 6.874384450373724e-13 6.874383410466189e-13 1.0399075343603534e-19
6.027089341400364 4.844514271438376e-21 7.750456835115056e-13 7.750455748213836e-13 1.0869012235019682e-19
6.049734195844842 5.472572011512021e-21 8.788144955218027e-13 8.788143816445979e-13 1.1387720487989226e-19
6.095279466722835 7.286808687868868e-21 1.1789636720489653e-12 1.1789635445297515e-12 1.2751921373019635e-19
6.141167624020661 1.0078946242297367e-20 1.6429922450008085e-12 1.6429920982507051e-12 1.4675010399006967e-19
6.164241091010745 1.1862015576228829e-20 1.9409195709603883e-12 1.9409194117361248e-12 1.5922426339838033e-19
6.187401249150058 1.389325252392755e-20 2.281821370608387e-12 2.281821197764794e-12 1.7284359389604142e-19
6.1990139391386085 1.4885072623210493e-20 2.449305760093443e-12 2.4493055802450445e-12 1.7984839860938166e-19
6.204828454712694 1.5407531697899005e-20 2.5376532675996836e-12 2.537653084123932e-12 1.8347575089148757e-19
6.210648424152782 1.5788928373789888e-20 2.602909286026702e-12 2.602909099505249e-12 1.865214535154812e-19
6.233982942956859 1.7084732365909352e-20 2.8271133579716502e-12 2.8271131605906622e-12 1.973809883476014e-19
6.239830258556775 1.725039601938174e-20 2.857204191102302e-12 2.8572039921635727e-12 1.9893872878669307e-19
6.245683058788269 1.726479175380603e-20 2.8622707947072587e-12 2.862270594198383e-12 2.0050887505054677e-19
6.257405133728602 1.7229263114935386e-20 2.8617415592360547e-12 2.8617413559476296e-12 2.0328842555185278e-19
6.269149208991335 1.6974497293444738e-20 2.8247171113567246e-12 2.8247169069895186e-12 2.0436720553029617e-19
6.280915325867298 1.6335512943540092e-20 2.72348600409073e-12 2.72348580076085e-12 2.0332987979969787e-19
6.304513850009849 1.4759716015925007e-20 2.470011855153092e-12 2.470011655862679e-12 1.992904126499322e-19
6.32820103803542 1.2806448898267492e-20 2.1511882722383514e-12 2.1511880793949984e-12 1.928433535261144e-19
6.3519772230701035 1.1015166767830525e-20 1.857246043585987e-12 1.857245856771713e-12 1.8681427373962806e-19
6.375842739491607 9.508226757656427e-21 1.6091871657786137e-12 1.609186984203362e-12 1.8157525173514155e-19
6.399797922933955 8.300471314373634e-21 1.410062773790881e-12 1.410062595460667e-12 1.7833021412712242e-19
6.42384311029221 7.296374122258837e-21 1.244146302024169e-12 1.2441461263416608e-12 1.756825077248624e-19
6.447978639727206 6.5646947832668826e-21 1.123589215581636e-12 1.1235890407299685e-12 1.7485166782927237e-19
6.472204850670314 5.955210135599711e-21 1.0231016339570646e-12 1.023101459490569e-12 1.7446649539277125e-19
6.496522083828205 5.559141950763874e-21 9.58645671977181e-13 9.586454963214975e-13 1.7565568346496686e-19
