Dust emission spectrum from A.P. Jones, M. Kohler, N. Ysard, M. Bocchio, and L. Verstraete (2017), A&A, 602A, 46J 
inside the DustPedia framework.

lambda    nu*dP/dnu     j_nu    j_nu(carb.) j_nu(sil)
 (um)   (erg s-1 H-1) (Jy cm2 sr-1 H-1)
0.9927057738263894 3.2670248840641197e-21 8.608796132817834e-14 8.608795715951961e-14 4.1686587403342235e-21
1.0001793341362166 3.3219543544844027e-21 8.819439199803804e-14 8.819438698144694e-14 5.016591118841131e-21
1.0077091589558085 3.3771021103607823e-21 9.033349867888685e-14 9.033349264993132e-14 6.0289555220319936e-21
1.0114953028030835 3.404755322904676e-21 9.141536779097949e-14 9.141536118493724e-14 6.606042235307131e-21
1.0152956718711033 3.432460123184709e-21 9.250548157158664e-14 9.250547433563672e-14 7.235949951887893e-21
1.0229392996569957 3.487993707397773e-21 9.470981529113279e-14 9.470980661803244e-14 8.673100330238305e-21
1.0267826658714554 3.515759416338457e-21 9.582241452510552e-14 9.582240503410707e-14 9.490998462547198e-21
1.0306404723013447 3.543571654210811e-21 9.694331018308394e-14 9.694329980052399e-14 1.0382559931372301e-20
1.03451277320114 3.5714295688755075e-21 9.807253028405101e-14 9.807251892996882e-14 1.1354082162524704e-20
1.0383996230291617 3.599332334554276e-21 9.921010350915407e-14 9.92100910967841e-14 1.2412369956488778e-20
1.0403485208654093 3.6133002858413686e-21 9.978203169464592e-14 9.978201871832036e-14 1.2976325518591918e-20
1.0423010764483396 3.627279152500218e-21 1.0035605923209714e-13 1.0035604566732347e-13 1.3564773674466278e-20
1.0462171883269815 3.655269251663989e-21 1.0151042754997299e-13 1.0151041273074291e-13 1.481923007789105e-20
1.0471985131304309 3.66227345147869e-21 1.0180033769580667e-13 1.0180032254602733e-13 1.5149779337774436e-20
1.048180758391296 3.669280298486131e-21 1.0209077604283946e-13 1.020907605554602e-13 1.548737930229463e-20
1.0501480137395462 3.683301889355496e-21 1.0267323931452901e-13 1.0267322313022304e-13 1.618430598884982e-20
1.0521189612883777 3.697333935974732e-21 1.0325782134462488e-13 1.0325780443343777e-13 1.6911187091582296e-20
1.0531058218030118 3.704344558988784e-21 1.0355064834545803e-13 1.0355063105919214e-13 1.7286265886088858e-20
1.0540936079674168 3.711327315033224e-21 1.0384315410945503e-13 1.0384313644007443e-13 1.766938062314051e-20
1.058054026499678 3.739282716817035e-21 1.0501844405335856e-13 1.0501842476871127e-13 1.9284647273354274e-20
1.0590464539527713 3.746277611283511e-21 1.0531358581939724e-13 1.0531356610939105e-13 1.9710006197474232e-20
1.06003981227728 3.7532749036307845e-21 1.0560925633274106e-13 1.0560923618841168e-13 2.0144329370875277e-20
1.0620293250338977 3.7672766434933826e-21 1.0620218569991047e-13 1.0620216465932088e-13 2.104058960030647e-20
1.0660195594769086 3.795308481515232e-21 1.0739441268652795e-13 1.0739438973772133e-13 2.2948806599170498e-20
1.070024785945596 3.823377649242376e-21 1.0859515957520372e-13 1.085951345534078e-13 2.502179590887387e-20
1.0740450607676866 3.8514835975658144e-21 1.0980446188631692e-13 1.0980443461329829e-13 2.727301861335422e-20
1.07808044048254 3.8796258105253855e-21 1.1102235613283266e-13 1.1102232641586431e-13 2.9716968336314776e-20
1.0861967418109137 3.935974055360679e-21 1.134828295472139e-13 1.1348279430057722e-13 3.524663668009339e-20
1.0902777775684922 3.9640812775859454e-21 1.147226429886389e-13 1.147226046214363e-13 3.836720259152188e-20
1.0943741465085532 3.992221353992614e-21 1.159711252540934e-13 1.1597108350374898e-13 4.175034439460783e-20
1.1026131145906286 4.048598774172517e-21 1.1849426352496467e-13 1.1849421413560862e-13 4.938935607528594e-20
1.1109141095355224 4.105104098641182e-21 1.2105259123925974e-13 1.2105253288941149e-13 5.834984824847753e-20
1.1192775983109025 4.1616914642582745e-21 1.236451610230901e-13 1.2364509217665742e-13 6.884643268271619e-20
1.1277040513999907 4.218156471841505e-21 1.2626624332468177e-13 1.2626616219852822e-13 8.112615352898653e-20
1.1361939428280308 4.274739877626063e-21 1.2892335399012256e-13 1.2892325851712604e-13 9.547299656298343e-20
1.1447477501889525 4.3314420640052e-21 1.316169254414646e-13 1.3161681322849457e-13 1.1221297002325325e-19
1.1533659546722406 4.388284269506248e-21 1.3434803346096684e-13 1.3434790174096356e-13 1.3172000330488868e-19
1.1707974979042381 4.502561544582564e-21 1.3993001365131853e-13 1.3992983284074442e-13 1.8081057412714648e-19
1.1884924949847024 4.6174187497759974e-21 1.456683291525809e-13 1.456680822004337e-13 2.4695214721690734e-19
1.2064549276569216 4.733633465066406e-21 1.51591608521585e-13 1.5159127289980005e-13 3.3562178490764745e-19
1.2246888378427687 4.850455324182746e-21 1.5768039580877632e-13 1.5767994191723465e-13 4.538915416784528e-19
1.2431983285522175 4.967791830904245e-21 1.6393558681340973e-13 1.639349759527779e-13 6.108606318471424e-19
1.2619875648066055 5.0858169479611845e-21 1.7036690480871005e-13 1.703660866317713e-13 8.181769387023602e-19
1.3004222497298317 5.323221765074842e-21 1.837504383424642e-13 1.8374899125915455e-13 1.4470833096340115e-18
1.3400274889804893 5.563413611511171e-21 1.978902919568141e-13 1.9788777950601015e-13 2.5124508039720894e-18
1.3808389325824078 5.807311637873442e-21 2.1285682931984962e-13 2.1285254518030865e-13 4.284139540996451e-18
1.4228933163050095 6.057009189639451e-21 2.28770491377264e-13 2.287633133181175e-13 7.178059146490011e-18
1.466228494730424 6.316901510873493e-21 2.458528199798889e-13 2.458409965017096e-13 1.1823478179301386e-17
1.5108834753276823 6.586543389378965e-21 2.6415446835422517e-13 2.641353139009961e-13 1.9154453229026795e-17
1.5568984535646726 6.865798015539215e-21 2.8374011676034465e-13 2.837095647873887e-13 3.055197295587386e-17
1.6043148490894465 7.156405533084315e-21 3.047572030329359e-13 3.0470913389005423e-13 4.8069142881756174e-17
1.6531753430134553 7.460220807740853e-21 3.2737087120664144e-13 3.272963576862689e-13 7.451352037251454e-17
1.7035239163302658 7.779418519031881e-21 3.517748646382341e-13 3.5166103730328786e-13 1.138273349462871e-16
1.755405889504358 8.120015349812654e-21 3.7835879563148983e-13 3.781873536346273e-13 1.7144199686257097e-16
1.8088679632656115 8.482191741517789e-21 4.072718427810999e-13 4.0701715994415826e-13 2.546828369417435e-16
1.8639582606462262 8.866003706306996e-21 4.386655455313652e-13 4.382922392078057e-13 3.7330632355947122e-16
1.9207263702978936 9.272780874978055e-21 4.727645776339066e-13 4.722244751082545e-13 5.401025256519157e-16
1.979223391128241 9.704437613122508e-21 5.098408393299061e-13 5.090692286113978e-13 7.716107185085101e-16
2.039501978296691 1.0162692671480553e-20 5.50176905538799e-13 5.490880147687174e-13 1.0888907700816888e-15
2.1016163906111602 1.0652354328671942e-20 5.9424903321475e-13 5.927305443491817e-13 1.5184888655682754e-15
2.1656225393682647 1.1175911403245274e-20 6.424438057678839e-13 6.403505260161848e-13 2.0932797516991413e-15
2.231578038680979 1.1732482685933913e-20 6.949786031431687e-13 6.921251935115321e-13 2.8534096316365425e-15
2.299542257339062 1.2322852374881654e-20 7.521805056408583e-13 7.483332370086666e-13 3.8472686321917295e-15
2.369576372248914 1.294897856066134e-20 8.144710565005948e-13 8.093385427688954e-13 5.1325137316995404e-15
2.4417434235010123 1.3613185163727208e-20 8.823262731631904e-13 8.755494714403749e-13 6.776801722815629e-15
2.5161083711144245 1.4320166135841154e-20 9.564159984645234e-13 9.475572251330259e-13 8.858773331497101e-15
2.5927381535095444 1.50776536811581e-20 1.03767619879915e-12 1.0262076241326054e-12 1.1468574666544344e-14
2.6717017477616296 1.5892336329782552e-20 1.1270551169120175e-12 1.1123475544531418e-12 1.470756245887555e-14
2.753070231689431 1.6773958775852296e-20 1.2258075584371796e-12 1.2071192630819112e-12 1.8688295355268448e-14
2.836916847834745 1.774877646277655e-20 1.336547688796832e-12 1.3130127600314389e-12 2.3534928765392926e-14
2.9233170693905177 1.88740875981272e-20 1.4645740062108408e-12 1.4351976190968349e-12 2.937638711400586e-14
2.967498994190263 1.9546276076692133e-20 1.5396572169824905e-12 1.5070087843018677e-12 3.2648432680623493e-14
3.0123486681368425 2.026456714312745e-20 1.6203618254936132e-12 1.5841241125517207e-12 3.6237712941892613e-14
3.0578761833420214 2.1371011024193837e-20 1.7346601345753829e-12 1.6944787033929011e-12 4.018143118248176e-14
3.1040917844459814 2.265082011903032e-20 1.866327771619063e-12 1.8218619735680542e-12 4.4465798051009265e-14
3.127460860933648 2.3777425687723242e-20 1.9739045559884016e-12 1.927147674338835e-12 4.675688164956658e-14
3.1510058709225794 2.5189787945221927e-20 2.1068962827368454e-12 2.0577533625233357e-12 4.914292021350985e-14
3.162844764501044 2.643499663397947e-20 2.2193539440746154e-12 2.1689770464687864e-12 5.0376897605829574e-14
3.1747281389236908 2.783915963376101e-20 2.346022082511773e-12 2.294386681177284e-12 5.163540133448966e-14
3.1986289994194426 3.1613199347574026e-20 2.6841189196695555e-12 2.6298851882178024e-12 5.423373145175205e-14
3.2227097969389145 4.023949066643935e-20 3.442255538263863e-12 3.3852706513465524e-12 5.698488691731079e-14
3.2348180950136065 4.829436205663887e-20 4.1468252138358115e-12 4.0883726877724165e-12 5.845252606339376e-14
3.240889293275058 5.430043937161198e-20 4.671291539098479e-12 4.6120648692476184e-12 5.922666985085996e-14
3.2469718861334385 6.125729892064491e-20 5.279658161513729e-12 5.219630483045851e-12 6.002767846787697e-14
3.2714166318528037 9.772911936004583e-20 8.48651289971719e-12 8.423176783387753e-12 6.333611632943867e-14
3.2744851364798273 1.0001432630785563e-19 8.693099897397818e-12 8.629374371835953e-12 6.372552556186521e-14
3.2775565192852394 1.023603287877027e-19 8.905356191050448e-12 8.84123935424253e-12 6.411683680792043e-14
3.283707930232385 1.0014267964198475e-19 8.728772268772475e-12 8.663956614740793e-12 6.48156540316806e-14
3.2898708863219004 9.304088138628884e-20 8.124976301954586e-12 8.059525580413244e-12 6.545072154134163e-14
3.29141343181113 9.136278192035847e-20 7.98217390092805e-12 7.916563733525965e-12 6.561016740208592e-14
3.292184975758714 9.053772721598898e-20 7.911944821771466e-12 7.846254829490059e-12 6.568999228140691e-14
3.295272960557952 8.538696144567212e-20 7.468826775594223e-12 7.402826448722062e-12 6.600032687215996e-14
3.3076538914384823 6.741342189270615e-20 5.91882997706318e-12 5.851583645834632e-12 6.724633122854781e-14
3.310756385682612 6.371912428586318e-20 5.599721872153855e-12 5.532161567730032e-12 6.75603044238224e-14
3.313861789986515 6.029645017131208e-20 5.30390295536474e-12 5.236027687635688e-12 6.787526772905106e-14
3.3200813396944477 5.552450147316728e-20 4.893311067616182e-12 4.824757929031501e-12 6.855313858468005e-14
3.345076488085796 4.725350193451792e-20 4.195748859400257e-12 4.124173751896773e-12 7.157510750348448e-14
3.3482140837626964 4.7607922306992935e-20 4.231183694835046e-12 4.1591991682650355e-12 7.19845265700095e-14
3.3513546224236106 4.7965474159927426e-20 4.2669598861182515e-12 4.1945641446285826e-12 7.239574148966824e-14
3.3576445397418455 5.040481796735571e-20 4.492377060651574e-12 4.419121407046958e-12 7.325565360461595e-14
3.3702598118196083 5.919548864634357e-20 5.2956762250574945e-12 5.220616954754625e-12 7.505927030287008e-14
3.382922481734668 6.133845890736528e-20 5.508005175530981e-12 5.431194207684375e-12 7.681096784660459e-14
3.389271646505754 6.24424786290639e-20 5.6176663993486625e-12 5.539967830690634e-12 7.769856865802832e-14
3.395632727569191 6.365503894239251e-20 5.7375030833406365e-12 5.658889788502658e-12 7.861329483797927e-14
3.421196662673239 6.951579205220814e-20 6.312929628272011e-12 6.230531302103462e-12 8.239832616854704e-14
3.4276182099114902 6.850679627565662e-20 6.232977119877176e-12 6.149735617734597e-12 8.324150214257926e-14
3.4340518103208963 6.382828332173519e-20 5.818210641892571e-12 5.734172379931223e-12 8.403826196134874e-14
3.4469541582030403 5.712927038762074e-20 5.227133816448198e-12 5.141567772570026e-12 8.556604387817141e-14
3.472904465399547 5.537090473256824e-20 5.10439047317234e-12 5.015302841480818e-12 8.908763169152336e-14
3.4990501388274233 5.265471446331309e-20 4.890540510525449e-12 4.797852576401187e-12 9.26879341242616e-14
3.5253949054701885 4.27256346564055e-20 3.998211170388266e-12 3.902030987238239e-12 9.618018315002678e-14
3.5519380250092896 3.3279974107553884e-20 3.1377460554668276e-12 3.0380602354929705e-12 9.968581997385635e-14
3.578680990867387 2.968024782681057e-20 2.8194210793928726e-12 2.7158935862572735e-12 1.0352749313559837e-13
3.605625307711299 2.838192086991036e-20 2.7163880503710204e-12 2.6088172614055845e-12 1.0757078896543588e-13
3.660119384959845 2.775834912292715e-20 2.696859479815093e-12 2.580806493364023e-12 1.1605298645107067e-13
3.715437065384467 2.743713147850982e-20 2.7059392785875975e-12 2.5809626550263863e-12 1.2497662356121183e-13
3.8285932144167436 2.8002642665288783e-20 2.8458216358780174e-12 2.7017303252334348e-12 1.440913106445825e-13
3.94519561050918 2.8881667937288733e-20 3.0245463531550373e-12 2.8597085336133034e-12 1.6483781954173328e-13
4.06534921144712 2.9875783668708313e-20 3.2239373694910532e-12 3.0367696444283105e-12 1.8716772506274185e-13
4.189162171576248 3.0923579575947814e-20 3.438637272878604e-12 3.2275397954925023e-12 2.1109747738610111e-13
4.316745939156006 3.199595545917024e-20 3.6662409650187445e-12 3.4297326018354436e-12 2.365083631833005e-13
4.448215356677963 3.3075768281642723e-20 3.905396915166348e-12 3.642383388233641e-12 2.630135269327069e-13
4.58368876423945 3.415665647354534e-20 4.1558504029876525e-12 3.865233569275088e-12 2.906168337125643e-13
4.723288106065518 3.523863482367654e-20 4.418073587103248e-12 4.0986099311064545e-12 3.194636559967928e-13
4.867139040275056 3.6319675921523273e-20 4.6922933008342095e-12 4.343560296057815e-12 3.487330047763937e-13
4.940699165968905 3.687503352264024e-20 4.836044269871898e-12 4.47243501442227e-12 3.6360925544962857e-13
5.015371051989984 3.741640564333963e-20 4.981206741999089e-12 4.602611793853869e-12 3.785949481452185e-13
5.091171501069577 3.799586944139337e-20 5.134800167282327e-12 4.740777448453638e-12 3.940227188286903e-13
5.129500256944802 3.827944596779958e-20 5.2120687109894055e-12 4.810310024618915e-12 4.017586863704915e-13
5.168117569889187 3.856372873423725e-20 5.290306537864426e-12 4.8807176138456626e-12 4.0958892401876317e-13
5.20702561229733 3.8886253655093903e-20 5.374712666144709e-12 4.956545872394729e-12 4.181667937499815e-13
5.246226572918644 3.92057340328612e-20 5.459665876206407e-12 5.032885224740996e-12 4.2678065146541083e-13
5.265937586045735 3.9364324751152263e-20 5.502346634960615e-12 5.07124684692408e-12 4.310997880365342e-13
5.285722656980489 3.9522145889182823e-20 5.54516306530615e-12 5.109736696877394e-12 4.354263684287568e-13
5.305582063971359 3.9679195559125047e-20 5.5881149126766205e-12 5.148355045679899e-12 4.397598669967211e-13
5.3255160863122235 3.9842913585154367e-20 5.6322538867002846e-12 5.1881171663081e-12 4.441367203921831e-13
5.365609099470188 4.0225635658871675e-20 5.729165639470541e-12 5.275971384965305e-12 4.53194254505237e-13
5.406003951863644 4.060830934620876e-20 5.827210419752509e-12 5.3649237664579436e-12 4.622866532945636e-13
5.446702915881641 4.099112668516256e-20 5.9264275069811976e-12 5.45501780435548e-12 4.714097026257163e-13
5.487708281020852 4.1388346852056854e-20 6.028906239870283e-12 5.548305288570428e-12 4.806009512998552e-13
5.529022354014368 4.1911041447117447e-20 6.151007146512778e-12 5.660825785625315e-12 4.901813608874625e-13
5.570647458961463 4.2443629378920736e-20 6.276067725375115e-12 5.77627132881081e-12 4.997963965643055e-13
5.612585937458331 4.298718751562858e-20 6.404297066622554e-12 5.894855301326966e-12 5.094417652955871e-13
5.654840148729818 4.356394839327223e-20 6.539085271577652e-12 6.019920915485067e-12 5.191643560925852e-13
5.67608639626678 4.395061498864512e-20 6.621911721205904e-12 6.0976548129219024e-12 5.242569082840011e-13
5.686739436050992 4.414713201145001e-20 6.664004133119433e-12 6.137197292235765e-12 5.268068408836681e-13
5.6974124697621304 4.434584932901956e-20 6.706563977495998e-12 6.1772048570648805e-12 5.293591204311181e-13
5.718818669136295 4.4750127463949733e-20 6.793131724268169e-12 6.258661277448508e-12 5.344704468196597e-13
5.740305295436557 4.519016657421603e-20 6.885704261596564e-12 6.34607316380964e-12 5.396310977869249e-13
5.7835210386641895 4.6318940473484476e-20 7.1108312005855075e-12 6.5605375281075984e-12 5.502936724779088e-13
5.827062130521658 4.7579001304693977e-20 7.359264354466575e-12 6.798166081887176e-12 5.610982725794005e-13
5.8489554468988025 4.8466999981701326e-20 7.52478134644673e-12 6.95782951113179e-12 5.669518353149411e-13
5.870931020387893 4.940212312982203e-20 7.69878204094469e-12 7.125958445951384e-12 5.728235949933077e-13
5.892989160043636 5.0388144426305816e-20 7.881945739125276e-12 7.303232729184344e-12 5.787130099409328e-13
5.915130176081913 5.1500345381040406e-20 8.086188877204484e-12 7.501364889068943e-12 5.84823988135542e-13
5.95966208400165 5.461630755513633e-20 8.6399932703464e-12 8.041131943643477e-12 5.988613267029221e-13
6.004529249263818 5.905330453340682e-20 9.412231553076424e-12 8.797510858399567e-12 6.147206946768587e-13
6.027089341400364 6.21287768212403e-20 9.93962193094233e-12 9.315681410024178e-12 6.239405209181535e-13
6.049734195844842 6.572023596051841e-20 1.055370233406201e-11 9.919983489275227e-12 6.33718844786779e-13
6.095279466722835 7.605790180496472e-20 1.2305730401513525e-11 1.1647784487869646e-11 6.579459136438786e-13
6.141167624020661 9.177534334835695e-20 1.4960510134566136e-11 1.4270883192063585e-11 6.896269425025506e-13
6.164241091010745 1.0178237342456312e-19 1.6654117446483625e-11 1.5944492286834788e-11 7.096251596488371e-13
6.187401249150058 1.1300731069691151e-19 1.8560268456870905e-11 1.78301301539233e-11 7.301383029476032e-13
6.1990139391386085 1.1845554477247954e-19 1.9491597755044298e-11 1.8751025884422846e-11 7.405718706214564e-13
6.204828454712694 1.213107886319694e-19 1.99801451136388e-11 1.9234305696387148e-11 7.458394172516566e-13
6.210648424152782 1.2337378044739123e-19 2.0338983823108676e-11 1.9588681973482792e-11 7.503018496258842e-13
6.233982942956859 1.3027092419544683e-19 2.1556712862716085e-11 2.0790960963948873e-11 7.65751898767212e-13
6.239830258556775 1.3108884861233144e-19 2.171240632627242e-11 2.0944591997524215e-11 7.678143287482027e-13
6.245683058788269 1.3106342945150848e-19 2.172855784898352e-11 2.0958678628319605e-11 7.698792206639166e-13
6.257405133728602 1.3065134825694324e-19 2.170089286946964e-11 2.0927447031134376e-11 7.734458383352659e-13
6.269149208991335 1.2901510784917014e-19 2.146933581979016e-11 2.069480987013662e-11 7.74525949653536e-13
6.280915325867298 1.2524526822745559e-19 2.08811156573418e-11 2.0108581278042695e-11 7.725343792991018e-13
6.304513850009849 1.1608749262518952e-19 1.942703251944954e-11 1.8661256012835457e-11 7.657765066140786e-13
6.32820103803542 1.049557846484245e-19 1.7630152966901637e-11 1.687408612321141e-11 7.560668436902212e-13
6.3519772230701035 9.481127307013786e-20 1.5985946060401343e-11 1.5238645172408738e-11 7.473008879926049e-13
6.375842739491607 8.624810921130446e-20 1.459676488086954e-11 1.3857259598188136e-11 7.395052826814012e-13
6.399797922933955 7.946716583390743e-20 1.3499678275740808e-11 1.2764475782529393e-11 7.352024932114138e-13
6.42384311029221 7.380076502594359e-20 1.2584188715525554e-11 1.18525908753595e-11 7.315978401660532e-13
6.447978639727206 6.969077132632191e-20 1.1928018235884194e-11 1.1197307617959137e-11 7.307106179250552e-13
6.472204850670314 6.624911463329528e-20 1.1381559321366855e-11 1.0651198670470651e-11 7.303606508962034e-13
6.496522083828205 6.400563551319539e-20 1.1037445348637393e-11 1.0305238523876075e-11 7.322068247613181e-13
