Dust emission spectrum from A.P. Jones, M. Kohler, N. Ysard, M. Bocchio, and L. Verstraete (2017), A&A, 602A, 46J 
inside the DustPedia framework.

lambda    nu*dP/dnu     j_nu    j_nu(carb.) j_nu(sil)
 (um)   (erg s-1 H-1) (Jy cm2 sr-1 H-1)
0.9927057738263894 2.447264386930192e-23 6.448680661403239e-16 6.448680552039079e-16 1.0936416136990054e-23
1.0001793341362166 2.488267524607727e-23 6.606088405910757e-16 6.606088274242557e-16 1.316681989283016e-23
1.0077091589558085 2.5293332153384424e-23 6.765668055024564e-16 6.765667896711853e-16 1.583127125090646e-23
1.0114953028030835 2.5498861186269755e-23 6.846271031321457e-16 6.846270857813782e-16 1.735076745940188e-23
1.0152956718711033 2.5704506038304435e-23 6.927415393909743e-16 6.927415203811379e-16 1.9009836385141643e-23
1.0229392996569957 2.611588992793036e-23 7.091271712996152e-16 7.091271485028388e-16 2.2796776324963988e-23
1.0267826658714554 2.6321148516482335e-23 7.173858348219901e-16 7.1738580986906415e-16 2.4952925980189434e-23
1.0306404723013447 2.652646007263945e-23 7.256979956438302e-16 7.256979683398353e-16 2.730399487625775e-23
1.03451277320114 2.6731811855071956e-23 7.340635947440921e-16 7.340635648773693e-16 2.986672295532838e-23
1.0383996230291617 2.6937191269649984e-23 7.424825733517043e-16 7.424825406924981e-16 3.265920635752429e-23
1.0403485208654093 2.7039887444674067e-23 7.467120617117115e-16 7.467120275640542e-16 3.414765732641694e-23
1.0423010764483396 2.7142585873894096e-23 7.509548731024045e-16 7.509548374014041e-16 3.5701000179033814e-23
1.0462171883269815 2.7347983381382297e-23 7.594804361976631e-16 7.594803971844349e-16 3.901322843019248e-23
1.0471985131304309 2.7399331787283633e-23 7.616201426626743e-16 7.616201027764994e-16 3.988617516444167e-23
1.048180758391296 2.745067942808253e-23 7.637631736317313e-16 7.637631328539168e-16 4.077781450014122e-23
1.0501480137395462 2.755337166611239e-23 7.680592055656719e-16 7.680591629469701e-16 4.261870165272288e-23
1.0521189612883777 2.7656058605495425e-23 7.723685250058077e-16 7.723684804667825e-16 4.453902535740807e-23
1.0531058218030118 2.770732683370627e-23 7.745261305641084e-16 7.745260850340539e-16 4.5530054402383877e-23
1.0540936079674168 2.775835469664496e-23 7.766803787185809e-16 7.766803321761852e-16 4.654239584173904e-23
1.058054026499678 2.7962433877696604e-23 7.853301074491359e-16 7.853300566376739e-16 5.081146202475791e-23
1.0590464539527713 2.8013444704419574e-23 7.875007191378602e-16 7.875006672019661e-16 5.193589401509165e-23
1.06003981227728 2.806445158582959e-23 7.896746008395336e-16 7.896745477554152e-16 5.308411837834666e-23
1.0620293250338977 2.816645280257295e-23 7.940321707494139e-16 7.940321152955464e-16 5.545386754190282e-23
1.0660195594769086 2.837040012090729e-23 8.027865122179033e-16 8.027864517173545e-16 6.05005488098205e-23
1.070024785945596 2.8574264666764344e-23 8.115930770914721e-16 8.115930111066185e-16 6.598485347660694e-23
1.0740450607676866 2.877803546267412e-23 8.204518124188325e-16 8.204517404761168e-16 7.194271556525615e-23
1.07808044048254 2.8981701723613895e-23 8.293626672359045e-16 8.293625888230623e-16 7.841284232696968e-23
1.0861967418109137 2.9388345742993423e-23 8.473309487608139e-16 8.47330855701009e-16 9.305980510634945e-23
1.0902777775684922 2.9590546247183687e-23 8.563663142199184e-16 8.563662128901076e-16 1.0132981088778862e-22
1.0943741465085532 2.9792587806218945e-23 8.654529961529247e-16 8.654528858540883e-16 1.10298836316797e-22
1.1026131145906286 3.0196155551598495e-23 8.837801454166695e-16 8.837800148551873e-16 1.3056148224015587e-22
1.1109141095355224 3.0598974102203e-23 9.023121010648069e-16 9.023119467184013e-16 1.543464055734012e-22
1.1192775983109025 3.1000631576193096e-23 9.210385046501865e-16 9.210383224212314e-16 1.8222895529029597e-22
1.1277040513999907 3.1399495043506437e-23 9.399120938025967e-16 9.399118789305507e-16 2.148720458344883e-22
1.1361939428280308 3.179735654638749e-23 9.589874404841288e-16 9.589871874457287e-16 2.5303840001850004e-22
1.1447477501889525 3.219415689147767e-23 9.782644866588116e-16 9.782641890543785e-16 2.976044326687765e-22
1.1533659546722406 3.259001456108747e-23 9.977485727557516e-16 9.977482231794189e-16 3.495763325637689e-22
1.1707974979042381 3.338012578226732e-23 1.0373831451599707e-15 1.0373826646392904e-15 4.805206801279777e-22
1.1884924949847024 3.416578385194794e-23 1.0778473683251986e-15 1.077846711103934e-15 6.572212642963005e-22
1.2064549276569216 3.4952627411477646e-23 1.1193357175759296e-15 1.1193348230943756e-15 8.94481554071198e-22
1.2246888378427687 3.57341040102609e-23 1.161657470818843e-15 1.161656259364855e-15 1.2114539880455208e-21
1.2431983285522175 3.650908477092906e-23 1.2047884532338289e-15 1.2047868204027754e-15 1.6328310531741885e-21
1.2619875648066055 3.727812036906641e-23 1.2487586653920685e-15 1.248756475106734e-15 2.190285334780081e-21
1.3004222497298317 3.879046769687542e-23 1.3389946459819984e-15 1.3389907601457047e-15 3.885836293739991e-21
1.3400274889804893 4.027177138322931e-23 1.4324645178557238e-15 1.4324577498283323e-15 6.768027391602042e-21
1.3808389325824078 4.172371582951522e-23 1.5293096724812922e-15 1.5292980944195334e-15 1.1578061758766561e-20
1.4228933163050095 4.315711971511965e-23 1.63002484799648e-15 1.6300053845486665e-15 1.9463447813663788e-20
1.466228494730424 4.460050303299585e-23 1.7358446105751245e-15 1.7358124421087367e-15 3.2168466387828015e-20
1.5108834753276823 4.604450886496896e-23 1.8466230374296678e-15 1.8465707426302407e-15 5.229479942685943e-20
1.5568984535646726 4.7482740161254263e-23 1.9623004065897045e-15 1.9622167000536397e-15 8.37065360636655e-20
1.6043148490894465 4.892366578203071e-23 2.0834257473142236e-15 2.083293575873371e-15 1.321714408521619e-19
1.6531753430134553 5.037673765886433e-23 2.2106418725325914e-15 2.2104362430370127e-15 2.056294955789827e-19
1.7035239163302658 5.185502495490307e-23 2.3448146335998053e-15 2.3444993471922794e-15 3.1528640752629265e-19
1.755405889504358 5.340117565528341e-23 2.4882717132677386e-15 2.487795047545511e-15 4.7666572222843215e-19
1.8088679632656115 5.501381517277046e-23 2.641484484978624e-15 2.6407736566986816e-15 7.108282799418056e-19
1.8639582606462262 5.669265794831155e-23 2.804997217498123e-15 2.8039512228194263e-15 1.0459946786972624e-18
1.9207263702978936 5.844758545762523e-23 2.9798987407497906e-15 2.9783793439940834e-15 1.5193967557082083e-18
1.979223391128241 6.02937157100483e-23 3.1676434894447004e-15 3.1654639904997178e-15 2.1794989449813553e-18
2.039501978296691 6.224650906257359e-23 3.369834436964267e-15 3.3667459917906374e-15 3.0884451736294597e-18
2.1016163906111602 6.434430484873845e-23 3.589492028660769e-15 3.585166897311043e-15 4.325131349724784e-18
2.1656225393682647 6.660952275058956e-23 3.8290277859437e-15 3.82303976395642e-15 5.988021987280406e-18
2.231578038680979 6.904236861556452e-23 4.089754077000907e-15 4.0815557289873345e-15 8.198348013572429e-18
2.299542257339062 7.165453094776944e-23 4.3737553352187554e-15 4.362651831751081e-15 1.1103503467674172e-17
2.369576372248914 7.446916546773069e-23 4.683997242800479e-15 4.669116527499841e-15 1.4880715300637164e-17
2.4417434235010123 7.751301546645238e-23 5.023935929439044e-15 5.0041959224556115e-15 1.9740006983433612e-17
2.5161083711144245 8.083285088123218e-23 5.39866863630954e-15 5.372740605988311e-15 2.592803032122763e-17
2.5927381535095444 8.450378650099188e-23 5.815730339400457e-15 5.781999624745711e-15 3.373071465474457e-17
2.6717017477616296 8.860434719938447e-23 6.283656525980507e-15 6.240182921557762e-15 4.347360442274469e-17
2.753070231689431 9.325003222079562e-23 6.814526961000821e-15 6.759003764297605e-15 5.552319670321415e-17
2.836916847834745 9.871675548423673e-23 7.433732216115728e-15 7.363442686009085e-15 7.028953010664314e-17
2.9233170693905177 1.0560812528276068e-22 8.19488170379884e-15 8.106672987503338e-15 8.820871629549875e-17
2.967498994190263 1.1017424607276674e-22 8.678408737601702e-15 8.580089848891877e-15 9.831888870982276e-17
3.0123486681368425 1.1520498238215035e-22 9.211830395400745e-15 9.102387881707243e-15 1.0944251369350464e-16
3.0578761833420214 1.2411162147253287e-22 1.0073996113809695e-14 9.952297690325307e-15 1.2169842348438765e-16
3.1040917844459814 1.3492143707142305e-22 1.1116931911069829e-14 1.0981868676757139e-14 1.3506323431269286e-16
3.127460860933648 1.4528462219203778e-22 1.2060934662409066e-14 1.1918704616447519e-14 1.4223004596155016e-16
3.1510058709225794 1.5867921496293294e-22 1.3272070764550405e-14 1.3122362307143785e-14 1.4970845740662222e-16
3.162844764501044 1.7081604963999989e-22 1.434088601291832e-14 1.418730437515105e-14 1.5358163776726933e-16
3.1747281389236908 1.8472590396459268e-22 1.556695875931999e-14 1.5409423025857577e-14 1.5753573346241834e-16
3.1986289994194426 2.2285754924719744e-22 1.8921721833620607e-14 1.8756010371719102e-14 1.6571146190150562e-16
3.2227097969389145 3.114628124918001e-22 2.6643841000634796e-14 2.646945788275267e-14 1.7438311788212626e-16
3.2348180950136065 3.949012039376838e-22 3.3908435679145514e-14 3.372942273839215e-14 1.7901294075336733e-16
3.240889293275058 4.572100840093403e-22 3.9332307836534776e-14 3.9150852746986566e-14 1.8145508954821326e-16
3.2469718861334385 5.293430500051131e-22 4.562314048192842e-14 4.543915843800612e-14 1.839820439222937e-16
3.2714166318528037 9.112127282204791e-22 7.912706696905986e-14 7.893263537885537e-14 1.9443159020451098e-16
3.2744851364798273 9.351409377086515e-22 8.128109131710527e-14 8.108542629886817e-14 1.956650182371074e-16
3.2775565192852394 9.597345393190446e-22 8.349697605227496e-14 8.330007125733788e-14 1.96904794937066e-16
3.283707930232385 9.363918249010217e-22 8.161905616188976e-14 8.141993024116511e-14 1.9912592072465597e-16
3.2898708863219004 8.61838493777369e-22 7.526172617583653e-14 7.506057521355379e-14 2.0115096228274315e-16
3.29141343181113 8.442401727807178e-22 7.375948643025726e-14 7.355782687263154e-14 2.0165955762571064e-16
3.292184975758714 8.355904727333861e-22 7.302089324699723e-14 7.281897904093366e-14 2.0191420606356046e-16
3.295272960557952 7.812399315053614e-22 6.833532450154176e-14 6.813241906494574e-14 2.029054365960175e-16
3.3076538914384823 5.92304548813469e-22 5.2003737840926143e-14 5.1796849257529086e-14 2.0688858339704907e-16
3.310756385682612 5.536730555236399e-22 4.86575287056455e-14 4.8449635747841376e-14 2.0789295780415232e-16
3.313861789986515 5.179600707051152e-22 4.5561719503694097e-14 4.5352818727914037e-14 2.0890077578007562e-16
3.3200813396944477 4.68014939657249e-22 4.1245623522460034e-14 4.1034556739920754e-14 2.1106678253928506e-16
3.345076488085796 3.8010830661373547e-22 3.375070478656186e-14 3.352998982705908e-14 2.207149595027803e-16
3.3482140837626964 3.83635041883766e-22 3.4095802869085105e-14 3.387378108985526e-14 2.220217792298552e-16
3.3513546224236106 3.8719726389161315e-22 3.4444675508295987e-14 3.422134081469381e-14 2.2333469360217217e-16
3.3576445397418455 4.123322550732351e-22 3.674950210627476e-14 3.6523423075531527e-14 2.260790307432424e-16
3.3702598118196083 5.040266331205019e-22 4.5090629689005693e-14 4.485879389145758e-14 2.3183579754812165e-16
3.382922481734668 5.256606661404414e-22 4.720271296752374e-14 4.6965273981001396e-14 2.3743898652233865e-16
3.389271646505754 5.368414296608022e-22 4.8297186905391074e-14 4.8056906345108774e-14 2.402805602822945e-16
3.395632727569191 5.489984027299631e-22 4.948359282700107e-14 4.924038380409213e-14 2.43209022908953e-16
3.421196662673239 6.075608725594642e-22 5.5174355641073404e-14 5.491901556167417e-14 2.553400793992321e-16
3.4276182099114902 5.966911829131404e-22 5.4288956613369274e-14 5.4030900856962863e-14 2.5805575640643035e-16
3.4340518103208963 5.475961853527502e-22 4.991564534204263e-14 4.9655016934967374e-14 2.6062840707525554e-16
3.4469541582030403 4.775122699213603e-22 4.369074761395414e-14 4.342517299624266e-14 2.655746177114862e-16
3.472904465399547 4.585939667242208e-22 4.2275680451805605e-14 4.19987239962367e-14 2.7695645556890673e-16
3.4990501388274233 4.294149276474505e-22 3.988381896833616e-14 3.959519626914997e-14 2.886226991861955e-16
3.5253949054701885 3.2378256401259706e-22 3.0299165234706194e-14 2.9999178467980235e-14 2.999867667259552e-16
3.5519380250092896 2.2385433495501273e-22 2.1105727253099358e-14 2.0794293947899756e-14 3.114333051996068e-16
3.578680990867387 1.8494678672923655e-22 1.7568683122630837e-14 1.724470017956614e-14 3.2398294306470194e-16
3.605625307711299 1.7000179686283427e-22 1.627059886666731e-14 1.59333837539103e-14 3.372151127570061e-16
3.660119384959845 1.6074700026834547e-22 1.5617357848110108e-14 1.525227620776139e-14 3.650816403487154e-16
3.715437065384467 1.548131235025798e-22 1.5268174519431056e-14 1.4873618823369603e-14 3.94555696061453e-16
3.8285932144167436 1.55599734165372e-22 1.5813117901674908e-14 1.5354874822479508e-14 4.582430791953971e-16
3.94519561050918 1.5985556678584995e-22 1.674039645506227e-14 1.6212190095451193e-14 5.282063596110794e-16
4.06534921144712 1.6554463316743264e-22 1.7864151618763176e-14 1.725966046639521e-14 6.044911523679685e-16
4.189162171576248 1.7206251063585326e-22 1.913299076144815e-14 1.844562620412361e-14 6.873645573245333e-16
4.316745939156006 1.7916285984888613e-22 2.0529288991732227e-14 1.975262481221633e-14 7.766641795158952e-16
4.448215356677963 1.8673974653126354e-22 2.2049157674348107e-14 2.1177835474040935e-14 8.713222003071701e-16
4.58368876423945 1.9477897887215037e-22 2.3698815440741215e-14 2.2727229812280714e-14 9.71585628460506e-16
4.723288106065518 2.0333025570299439e-22 2.5492702446485525e-14 2.4414496880356415e-14 1.078205566129113e-15
4.867139040275056 2.1248362415701434e-22 2.7451662518224255e-14 2.626301825693327e-14 1.1886442612909856e-15
4.940699165968905 2.1746378300887147e-22 2.8519688831713906e-14 2.7274031699304285e-14 1.2456571324096166e-15
5.015371051989984 2.2247775438312343e-22 2.9618229517866587e-14 2.8314510524065568e-14 1.3037189938010221e-15
5.091171501069577 2.280732260340991e-22 3.082204609105967e-14 2.945801107397246e-14 1.3640350170871975e-15
5.129500256944802 2.308845930208361e-22 3.1436880359911777e-14 3.00423342326513e-14 1.3945461272604776e-15
5.168117569889187 2.337531900488614e-22 3.206707624370017e-14 3.0641513004273696e-14 1.4255632394264798e-15
5.20702561229733 2.3705150325727144e-22 3.2764372942329e-14 3.130508657466023e-14 1.4592863676687673e-15
5.246226572918644 2.4037911280625126e-22 3.3474431021774794e-14 3.198109056268732e-14 1.4933404590874765e-15
5.265937586045735 2.4205416787818747e-22 3.3834339710444295e-14 3.2323851204189485e-14 1.5104885062548078e-15
5.285722656980489 2.437368724287625e-22 3.419755360538589e-14 3.266983807895863e-14 1.5277155264272576e-15
5.305582063971359 2.454273438372692e-22 3.456411302573037e-14 3.3019092799130934e-14 1.5450202265994342e-15
5.3255160863122235 2.472047123068017e-22 3.4945228057302345e-14 3.3382700407524577e-14 1.5625276497777722e-15
5.365609099470188 2.5140296746182124e-22 3.5806251890155916e-14 3.4207501860087606e-14 1.5987500300682978e-15
5.406003951863644 2.5568125010974635e-22 3.668974327575549e-14 3.505442109473017e-14 1.6353221810253166e-15
5.446702915881641 2.6004361290002286e-22 3.759666408640834e-14 3.5924430062384506e-14 1.6722340240238393e-15
5.487708281020852 2.6464762248271153e-22 3.8550360763528835e-14 3.684073928571564e-14 1.7096214778131974e-15
5.529022354014368 2.707246889942295e-22 3.9732477152640307e-14 3.79838612710591e-14 1.7486158815812113e-15
5.570647458961463 2.7703229386419066e-22 4.0964296971059185e-14 3.9176311526407884e-14 1.7879854446513e-15
5.612585937458331 2.835874914764368e-22 4.224929902969568e-14 4.042157892852264e-14 1.827720101173012e-15
5.654840148729818 2.906449339140207e-22 4.362671605104884e-14 4.175872417855786e-14 1.867991872490979e-15
5.67608639626678 2.9533490068696714e-22 4.449725313389745e-14 4.260820085116938e-14 1.8890522827280843e-15
5.686739436050992 2.9773395955831975e-22 4.494290448022898e-14 4.304328276009707e-14 1.8996217201319216e-15
5.6974124697621304 3.0017022368343006e-22 4.5395698576796545e-14 4.348548146787787e-14 1.9102171089186845e-15
5.718818669136295 3.0515796669979356e-22 4.632340469133877e-14 4.439191956772779e-14 1.9314851236109728e-15
5.740305295436557 3.1060277738924447e-22 4.732708529455011e-14 4.537407982045615e-14 1.9530054740939646e-15
5.7835210386641895 3.245201686486828e-22 4.9819968178402675e-14 4.782244358701467e-14 1.9975245913880175e-15
5.827062130521658 3.4025343634074787e-22 5.2628573885181355e-14 5.058570769042121e-14 2.042866194760153e-15
5.8489554468988025 3.512216075823257e-22 5.4529180725077467e-14 5.246186872401302e-14 2.067312001064426e-15
5.870931020387893 3.6286816996047357e-22 5.6549046339179554e-14 5.4457138264398275e-14 2.091908074781281e-15
5.892989160043636 3.7524672212531127e-22 5.869782140721637e-14 5.658116794239716e-14 2.1166534648192116e-15
5.915130176081913 3.8923621098639215e-22 6.111488178566848e-14 5.897258748220951e-14 2.1422943034589736e-15
5.95966208400165 4.281922701282024e-22 6.773761350650101e-14 6.553710796576182e-14 2.2005055407391875e-15
6.004529249263818 4.838018843744242e-22 7.711093219128415e-14 7.484503098723216e-14 2.2659012040519886e-15
6.027089341400364 5.2231694462516475e-22 8.356245243064542e-14 8.125887331167658e-14 2.303579118968809e-15
6.049734195844842 5.675201598274525e-22 9.113538239571139e-14 8.879191162516826e-14 2.3434707705431414e-15
6.095279466722835 6.977023039223791e-22 1.1288421385328316e-13 1.1044305919283036e-13 2.4411546604528296e-15
6.141167624020661 8.967108043761964e-22 1.4617489390068523e-13 1.436074137642386e-13 2.5674801364466364e-15
6.164241091010745 1.0236981260406743e-21 1.6750237047146918e-13 1.648558256041336e-13 2.646544867335585e-15
6.187401249150058 1.167274726925989e-21 1.9171266142924965e-13 1.8898485904996232e-13 2.727802379287385e-15
6.1990139391386085 1.2372673560544589e-21 2.0358960541679564e-13 2.0082044235922878e-13 2.7691630575668694e-15
6.204828454712694 1.2740435980638351e-21 2.0983769257031718e-13 2.0704763125308389e-13 2.7900613172332727e-15
6.210648424152782 1.3008436278433691e-21 2.1445267711790987e-13 2.1164475880172932e-13 2.807918316180577e-15
6.233982942956859 1.3914342147248392e-21 2.3024898318200893e-13 2.273785858110492e-13 2.8703973709597897e-15
6.239830258556775 1.4027692812014839e-21 2.32342391728007e-13 2.2946315853192905e-13 2.879233196077939e-15
6.245683058788269 1.4033994421384346e-21 2.3266479514042056e-13 2.297767092890632e-13 2.888085851357313e-15
6.257405133728602 1.4000975710907738e-21 2.3255303372218253e-13 2.296493550017875e-13 2.903678720394963e-15
6.269149208991335 1.3812838098187837e-21 2.2985870778876673e-13 2.2694882810482163e-13 2.909879683945115e-15
6.280915325867298 1.3353202703259084e-21 2.2262698941751996e-13 2.1972253126230822e-13 2.9044581552117537e-15
6.304513850009849 1.2224777148336829e-21 2.0457944075900432e-13 2.016963529778539e-13 2.8830877811504354e-15
6.32820103803542 1.0835559442005023e-21 1.8201242655125202e-13 1.7916191057221833e-13 2.850515979033656e-15
6.3519772230701035 9.564561703825779e-22 1.6126623189167657e-13 1.5844473247711783e-13 2.8214994145587904e-15
6.375842739491607 8.493158130102856e-22 1.437395363849994e-13 1.4094341684643487e-13 2.796119538564516e-15
6.399797922933955 7.640127615959956e-22 1.2978852802757697e-13 1.2700446478555586e-13 2.7840632420211168e-15
6.42384311029221 6.929090968034616e-22 1.181518759841289e-13 1.1537721899584457e-13 2.774656988284354e-15
6.447978639727206 6.413313196831299e-22 1.0976792953839424e-13 1.0699226385338922e-13 2.7756656850050254e-15
6.472204850670314 5.982831690788968e-22 1.0278470010563095e-13 1.0000594892621564e-13 2.7787511794153198e-15
6.496522083828205 5.704353482015971e-22 9.83686659811081e-14 9.557836760769813e-14 2.790298373409977e-15
