Dust emission spectrum from A.P. Jones, M. Kohler, N. Ysard, M. Bocchio, and L. Verstraete (2017), A&A, 602A, 46J 
inside the DustPedia framework.

lambda    nu*dP/dnu     j_nu    j_nu(carb.) j_nu(sil)
 (um)   (erg s-1 H-1) (Jy cm2 sr-1 H-1)
0.9927057738263894 2.1502176673393412e-21 5.665945683364502e-14 5.6659453163864395e-14 3.669780617131314e-21
1.0001793341362166 2.1863388930059455e-21 5.804499664783948e-14 5.804499223197655e-14 4.415862944083391e-21
1.0077091589558085 2.2226090275094213e-21 5.945217025989038e-14 5.945216495335957e-14 5.3065307878180686e-21
1.0114953028030835 2.240798376508177e-21 6.016391438053998e-14 6.01639085663353e-14 5.814204711599894e-21
1.0152956718711033 2.259023111244574e-21 6.088112120385965e-14 6.088111483554416e-14 6.36831548780148e-21
1.0229392996569957 2.2955586391857644e-21 6.233151574962234e-14 6.233150811719714e-14 7.6324251936143e-21
1.0267826658714554 2.3138279867219112e-21 6.30636395235393e-14 6.306363117175512e-14 8.351784152821491e-21
1.0306404723013447 2.3321295618673345e-21 6.380126650877502e-14 6.380125737288864e-14 9.135886371378791e-21
1.03451277320114 2.350462847374338e-21 6.454441683228721e-14 6.45444068420252e-14 9.990262006251959e-21
1.0383996230291617 2.3688273438329903e-21 6.529311109197372e-14 6.52931001710874e-14 1.0920886316145094e-20
1.0403485208654093 2.37802114509107e-21 6.56695437685614e-14 6.566953235177252e-14 1.1416788886872165e-20
1.0423010764483396 2.3872225701178033e-21 6.604737037727263e-14 6.60473584430595e-14 1.1934213119364898e-20
1.0462171883269815 2.405648063831785e-21 6.6807216290062e-14 6.680720325285143e-14 1.30372105730626e-20
1.0471985131304309 2.4102591141779085e-21 6.69980532607792e-14 6.69980399329396e-14 1.3327839598527578e-20
1.048180758391296 2.4148720217053682e-21 6.718924112768311e-14 6.718922750301976e-14 1.3624663341714555e-20
1.0501480137395462 2.4241033817476364e-21 6.757267096585587e-14 6.757265672845646e-14 1.4237399420048753e-20
1.0521189612883777 2.433342091622323e-21 6.795750865842558e-14 6.795749378197364e-14 1.4876451946963293e-20
1.0531058218030118 2.4379580919485878e-21 6.81502859791333e-14 6.815027077293052e-14 1.520620276937099e-20
1.0540936079674168 2.442555943599181e-21 6.834285735044756e-14 6.834284180743409e-14 1.5543013460234636e-20
1.058054026499678 2.4609646074395223e-21 6.911664442523854e-14 6.911662746223784e-14 1.6963000717652823e-20
1.0590464539527713 2.465571058226409e-21 6.931096842697348e-14 6.931095109005227e-14 1.7336921209608222e-20
1.06003981227728 2.4701792114378065e-21 6.950564406464964e-14 6.950562634593361e-14 1.7718716022869192e-20
1.0620293250338977 2.4794006027834665e-21 6.98960517529464e-14 6.989603324638489e-14 1.8506561499107387e-20
1.0660195594769086 2.497863573398362e-21 7.068110345778554e-14 7.068108327391024e-14 2.018387530670084e-20
1.070024785945596 2.5163531845828792e-21 7.147182431259401e-14 7.14718023066846e-14 2.2005909439977406e-20
1.0740450607676866 2.5348691235842016e-21 7.2268239761768e-14 7.226821577729228e-14 2.398447572821627e-20
1.07808044048254 2.553411100010862e-21 7.307037594446353e-14 7.307034981217251e-14 2.613229101537757e-20
1.0861967418109137 2.590543842014653e-21 7.46911034277623e-14 7.469107243630685e-14 3.099145544505692e-20
1.0902777775684922 2.6090698562631015e-21 7.550788409534613e-14 7.550785036197253e-14 3.373337359874445e-20
1.0943741465085532 2.6276198725714297e-21 7.633044521876729e-14 7.633040851295334e-14 3.6705813956077926e-20
1.1026131145906286 2.6647912674111777e-21 7.799302827783487e-14 7.799298486102532e-14 4.3416809544856624e-20
1.1109141095355224 2.702056990039578e-21 7.967910008146076e-14 7.967904879375277e-14 5.1287708029425035e-20
1.1192775983109025 2.739387360950884e-21 8.138805922023282e-14 8.138799871355295e-14 6.050667987612496e-20
1.1277040513999907 2.776648636782702e-21 8.311616573248921e-14 8.31160944421941e-14 7.129029514446574e-20
1.1361939428280308 2.8139993285068073e-21 8.486837607497243e-14 8.486829218750432e-14 8.388746809835292e-20
1.1447477501889525 2.8514401493688924e-21 8.664499720752438e-14 8.664489862362795e-14 9.858389641182147e-20
1.1533659546722406 2.8889854019370763e-21 8.844675586419057e-14 8.844664015697331e-14 1.1570721726598027e-19
1.1707974979042381 2.9645036469031658e-21 9.213045322604294e-14 9.213029443631007e-14 1.5878973285725423e-19
1.1884924949847024 3.0404589122031225e-21 9.591908241356468e-14 9.591886559366143e-14 2.168199031996734e-19
1.2064549276569216 3.117364526909645e-21 9.983162119962186e-14 9.98313266067606e-14 2.945928612814817e-19
1.2246888378427687 3.1947336979292027e-21 1.0385558474925006e-13 1.0385518645133882e-13 3.982979112391603e-19
1.2431983285522175 3.2725093538225096e-21 1.0799179183271344e-13 1.0799125593716658e-13 5.358955468340665e-19
1.2619875648066055 3.3508117269852146e-21 1.1224694643248028e-13 1.1224622886022264e-13 7.175722576276872e-19
1.3004222497298317 3.5085503701576155e-21 1.2111042840500798e-13 1.2110915997077244e-13 1.268434235510234e-18
1.3400274889804893 3.668482253188577e-21 1.3048769601091904e-13 1.3048549500060319e-13 2.20101031583789e-18
1.3808389325824078 3.8312603918427756e-21 1.4042813442073283e-13 1.4042438354511825e-13 3.7508756146187095e-18
1.4228933163050095 3.998312330571183e-21 1.5101444424240523e-13 1.5100816343665866e-13 6.2808057466097505e-18
1.466228494730424 4.17258176254521e-21 1.6239623035954897e-13 1.623858911391625e-13 1.033922038644957e-17
1.5108834753276823 4.353849351713613e-21 1.7461188559857598e-13 1.7459514613283848e-13 1.6739465737550646e-17
1.5568984535646726 4.5421062848151206e-21 1.8770982843865692e-13 1.8768314534600272e-13 2.668309265429233e-17
1.6043148490894465 4.738587140694516e-21 2.017938414263539e-13 2.0175188624412105e-13 4.195518223293764e-17
1.6531753430134553 4.9446188073431746e-21 2.169807313297033e-13 2.1691573744756467e-13 6.49938821385849e-17
1.7035239163302658 5.1617531662396894e-21 2.3340755056534863e-13 2.3330833089570223e-13 9.921966964641678e-17
1.755405889504358 5.3940878429030994e-21 2.5134196080286544e-13 2.511926202095409e-13 1.493405933246276e-16
1.8088679632656115 5.6419204886438245e-21 2.708964173713963e-13 2.7067471753706377e-13 2.2169983433245674e-16
1.8639582606462262 5.9054923730565254e-21 2.9218756491330266e-13 2.9186282802215586e-13 3.2473689114673717e-16
1.9207263702978936 6.185919718514589e-21 3.153836764214193e-13 3.14914173241956e-13 4.695031794632434e-16
1.979223391128241 6.4847455622102025e-21 3.406882760323431e-13 3.4001800259803007e-13 6.702734343130848e-16
2.039501978296691 6.803423081261442e-21 3.683163880792972e-13 3.6737118584671895e-13 9.45202232578285e-16
2.1016163906111602 7.145488844937202e-21 3.9861609057836293e-13 3.972989449192947e-13 1.3171456590684053e-15
2.1656225393682647 7.513004423874416e-21 4.3188273248329866e-13 4.300683611502063e-13 1.814371333092412e-15
2.231578038680979 7.905852979030137e-21 4.683065645269493e-13 4.658352130582961e-13 2.471351468653035e-15
2.299542257339062 8.325069851454146e-21 5.08157937777972e-13 5.048283613205589e-13 3.3295764574130875e-15
2.369576372248914 8.772491844472919e-21 5.517763943495014e-13 5.473379877691123e-13 4.438406580389125e-15
2.4417434235010123 9.25022670592064e-21 5.995450702526801e-13 5.936894028983015e-13 5.8556673543786715e-15
2.5161083711144245 9.761957561191156e-21 6.519821278111538e-13 6.443336713177048e-13 7.648456493448876e-15
2.5927381535095444 1.0313334493229036e-20 7.09785617854572e-13 6.998920732888548e-13 9.893544565717211e-15
2.6717017477616296 1.090925465762827e-20 7.736641755142386e-13 7.609871063005111e-13 1.2677069213727464e-14
2.753070231689431 1.1556501322774884e-20 8.445261407784119e-13 8.284316701326754e-13 1.6094470645736505e-14
2.836916847834745 1.2272429167275492e-20 9.241587370174652e-13 9.039079621666131e-13 2.0250774850852244e-14
2.9233170693905177 1.3093994233004543e-20 1.0160556631641349e-12 9.908010758494184e-13 2.525458731471661e-14
2.967498994190263 1.3577155527460915e-20 1.0694704920737296e-12 1.0414164805922919e-12 2.8054011481437823e-14
3.0123486681368425 1.409236980055739e-20 1.1268307827293731e-12 1.0957073957346921e-12 3.1123386994681184e-14
3.0578761833420214 1.4858932004734685e-20 1.2060822467313206e-12 1.171587845060549e-12 3.449440167077196e-14
3.1040917844459814 1.573792206323852e-20 1.2967354320880044e-12 1.2585810771820064e-12 3.815435490599752e-14
3.127460860933648 1.6489118377122968e-20 1.3688591152086013e-12 1.3287484695006108e-12 4.0110645707990637e-14
3.1510058709225794 1.7422760808500942e-20 1.4572552203404594e-12 1.4151078476636673e-12 4.2147372676792254e-14
3.162844764501044 1.8234185717752505e-20 1.53085368422803e-12 1.4876532325176715e-12 4.320045171035839e-14
3.1747281389236908 1.914647525192152e-20 1.6134845424285074e-12 1.5692102535848603e-12 4.427428884364656e-14
3.1986289994194426 2.1585667242223672e-20 1.8327312336070173e-12 1.7862404071974899e-12 4.649082640952701e-14
3.2227097969389145 2.711779778451704e-20 2.3197706547296413e-12 2.2709335741935162e-12 4.883708053612513e-14
3.2348180950136065 3.2267586908244107e-20 2.7706762711518378e-12 2.720587712859707e-12 5.0088558292131285e-14
3.240889293275058 3.610339677168826e-20 3.1058586969826967e-12 3.055110013350573e-12 5.07486836321233e-14
3.2469718861334385 4.0545212982597143e-20 3.4945201372850167e-12 3.443088420926714e-12 5.143171635830226e-14
3.2714166318528037 6.380228094809867e-20 5.540404782556366e-12 5.486152444838397e-12 5.4252337717967185e-14
3.2744851364798273 6.526095242730774e-20 5.672387144853993e-12 5.61780296964705e-12 5.458417520694148e-14
3.2775565192852394 6.675818369927282e-20 5.80796692967466e-12 5.753049310183821e-12 5.491761949084002e-14
3.283707930232385 6.535295815902357e-20 5.6963833092955454e-12 5.640870529470299e-12 5.5512779825245454e-14
3.2898708863219004 6.083766197581288e-20 5.312767403476547e-12 5.256714047611146e-12 5.6053355865400766e-14
3.29141343181113 5.977076272283492e-20 5.222045697564987e-12 5.165856627014584e-12 5.6189070550403654e-14
3.292184975758714 5.924621558117387e-20 5.177430481093882e-12 5.1211734675215026e-12 5.6257013572380124e-14
3.295272960557952 5.597149107369593e-20 4.895845502912454e-12 4.839324402799656e-12 5.652110011279919e-14
3.3076538914384823 4.454334480689264e-20 3.910860435794358e-12 3.8532791620978455e-12 5.758127369651135e-14
3.310756385682612 4.219418026872158e-20 3.708081000428678e-12 3.650232609180734e-12 5.784839124794411e-14
3.313861789986515 4.001767248380002e-20 3.5201052591090956e-12 3.461988919747988e-12 5.811633936110598e-14
3.3200813396944477 3.698639350127722e-20 3.259568728563373e-12 3.2008755683260114e-12 5.869316023736196e-14
3.345076488085796 3.175815158788285e-20 2.8198804923743344e-12 2.758615469797543e-12 6.126502257679082e-14
3.3482140837626964 3.1988954536340335e-20 2.8430382232644003e-12 2.781424745439098e-12 6.16134778253015e-14
3.3513546224236106 3.222174760223821e-20 2.866413954774203e-12 2.8044505087345383e-12 6.196344603966408e-14
3.3576445397418455 3.378556474966969e-20 3.011170403608482e-12 2.948475068266548e-12 6.269533534193292e-14
3.3702598118196083 3.940190137314176e-20 3.5249259207981176e-12 3.4606955122234016e-12 6.423040857471589e-14
3.382922481734668 4.078704997666531e-20 3.662551788355046e-12 3.5968310226038035e-12 6.572076575124238e-14
3.389271646505754 4.15002548401112e-20 3.7335895739280715e-12 3.66711373241675e-12 6.6475841511322e-14
3.395632727569191 4.228355915114258e-20 3.811199475093407e-12 3.743945481910932e-12 6.72539931824752e-14
3.421196662673239 4.606389318551878e-20 4.183195033813638e-12 4.112721701922398e-12 7.047333189124063e-14
3.4276182099114902 4.5430336403785357e-20 4.133403731415452e-12 4.062213818957842e-12 7.118991245761055e-14
3.4340518103208963 4.2458963042398954e-20 3.870309175820917e-12 3.798442411741386e-12 7.186676407953022e-14
3.4469541582030403 3.820763061594172e-20 3.4958681720224938e-12 3.422704119792815e-12 7.316405222967895e-14
3.472904465399547 3.712276621438592e-20 3.422178039490497e-12 3.3460228097570844e-12 7.615522973341255e-14
3.4990501388274233 3.542973068469079e-20 3.290693624617644e-12 3.211481617487284e-12 7.921200713036037e-14
3.5253949054701885 2.914909808491385e-20 2.727735948385106e-12 2.6455609428361086e-12 8.217500554899758e-14
3.5519380250092896 2.317471917680762e-20 2.184989190453558e-12 2.0998414626337057e-12 8.514772781985243e-14
3.578680990867387 2.0925442037874952e-20 1.9877742504530245e-12 1.8993690388334495e-12 8.840521161957481e-14
3.605625307711299 2.014282344577809e-20 1.927837272171834e-12 1.836004579527161e-12 9.183269264467285e-14
3.660119384959845 1.9835153924042417e-20 1.927082286369214e-12 1.828063698158972e-12 9.901858821024232e-14
3.715437065384467 1.972114650764992e-20 1.9449637071436626e-12 1.8383916473573667e-12 1.0657205978629587e-13
3.8285932144167436 2.026632193597672e-20 2.0596033786683697e-12 1.9368738746418577e-12 1.2272950402651225e-13
3.94519561050918 2.1015275011988757e-20 2.2007618651413536e-12 2.0605288609389135e-12 1.4023300420244048e-13
4.06534921144712 2.1840225153032424e-20 2.3568090735209136e-12 2.1977750202263765e-12 1.5903405329453709e-13
4.189162171576248 2.2700573702683666e-20 2.5242562445936815e-12 2.345117166243253e-12 1.7913907835042846e-13
4.316745939156006 2.357591399108948e-20 2.7014346163904917e-12 2.500994875793758e-12 2.0043974059673331e-13
4.448215356677963 2.4452938783809058e-20 2.8872626897087595e-12 2.664660803455164e-12 2.2260188625359572e-13
4.58368876423945 2.5325919664558536e-20 3.0814120675279276e-12 2.8357906417358452e-12 2.456214257920826e-13
4.723288106065518 2.6193342006221085e-20 3.2840123646871043e-12 3.0143993258315364e-12 2.696130388555677e-13
4.867139040275056 2.7050819818480554e-20 3.494810385714643e-12 3.200932797251067e-12 2.938775884635756e-13
4.940699165968905 2.748512837148509e-20 3.6045878435881366e-12 3.298407716652097e-12 3.061801269360397e-13
5.015371051989984 2.79075522397386e-20 3.715303086415597e-12 3.3967509704681244e-12 3.1855211594747256e-13
5.091171501069577 2.83515704652029e-20 3.831459864130481e-12 3.5001883531284053e-12 3.312715110020756e-13
5.129500256944802 2.856835666771715e-20 3.8898221786555645e-12 3.5521815176052226e-12 3.3764066105034234e-13
5.168117569889187 2.878481558756093e-20 3.9488011946028284e-12 3.6047179492102582e-12 3.4408324539257106e-13
5.20702561229733 2.9025779023757643e-20 4.0118347102144085e-12 3.660683790711279e-12 3.511509195031282e-13
5.246226572918644 2.926384096994053e-20 4.075189456123936e-12 3.71694731806295e-12 3.5824213806098534e-13
5.265937586045735 2.938177037917141e-20 4.106984849785514e-12 3.74518938611771e-12 3.617954636678043e-13
5.285722656980489 2.9498958842969045e-20 4.1388576799365794e-12 3.773504345972511e-12 3.6535333396406775e-13
5.305582063971359 2.961540184053797e-20 4.170807052361273e-12 3.8018917566015805e-12 3.689152957596931e-13
5.3255160863122235 2.973587896486875e-20 4.20350834826334e-12 3.830996316352115e-12 3.725120319112252e-13
5.365609099470188 3.001155981434451e-20 4.2744184015731325e-12 3.894462369098509e-12 3.7995603247462435e-13
5.406003951863644 3.0286076212156385e-20 4.345990801347482e-12 3.958568741199335e-12 3.874220601481479e-13
5.446702915881641 3.0559520598986737e-20 4.418243608403888e-12 4.0233371304719e-12 3.949064779319874e-13
5.487708281020852 3.0840969263011035e-20 4.492503957648997e-12 4.09006324422183e-12 4.02440713427168e-13
5.529022354014368 3.120121611316624e-20 4.5791967144060316e-12 4.1689027410520045e-12 4.1029397335402623e-13
5.570647458961463 3.1566318556821054e-20 4.667658162187349e-12 4.249489753094306e-12 4.181684090930437e-13
5.612585937458331 3.1936915351959833e-20 4.7580105870189385e-12 4.331950269078748e-12 4.2606031794019173e-13
5.654840148729818 3.232710171244651e-20 4.852399345723619e-12 4.418390485982905e-12 4.340088597407122e-13
5.67608639626678 3.258407127058653e-20 4.909347537618087e-12 4.471173856979564e-12 4.3817368063852273e-13
5.686739436050992 3.27143947969848e-20 4.938233860425289e-12 4.497975506127157e-12 4.402583542981311e-13
5.6974124697621304 3.2845991582632796e-20 4.967403878519695e-12 4.525059420131931e-12 4.4234445838776525e-13
5.718818669136295 3.311315287874469e-20 5.026622761965393e-12 4.580102040279202e-12 4.4652072168619023e-13
5.740305295436557 3.340249782734306e-20 5.089596677188087e-12 4.638860735549389e-12 4.5073594163869897e-13
5.7835210386641895 3.4137108620550455e-20 5.240690192724644e-12 4.781246188787106e-12 4.594440039375374e-13
5.827062130521658 3.4952195475576425e-20 5.40621785284049e-12 4.937956425547017e-12 4.682614272934719e-13
5.8489554468988025 3.552214999285072e-20 5.515018708663698e-12 5.04197597852384e-12 4.730427301398583e-13
5.870931020387893 3.6120842672822196e-20 5.629039345992049e-12 5.1512026363277845e-12 4.778367096642632e-13
5.892989160043636 3.6750597013649524e-20 5.748697731183385e-12 5.266054839263355e-12 4.8264289192003e-13
5.915130176081913 3.7459147654635926e-20 5.881547800764638e-12 5.393916467530828e-12 4.876313332338093e-13
5.95966208400165 3.9436532515375883e-20 6.238638069676698e-12 5.739524512107865e-12 4.99113557568833e-13
6.004529249263818 4.224076029523046e-20 6.732558321978281e-12 6.2204588783174415e-12 5.12099443660839e-13
6.027089341400364 4.418021541986412e-20 7.068135903665636e-12 6.5484756482394994e-12 5.196602554261345e-13
6.049734195844842 4.644120227959835e-20 7.457773359019702e-12 6.930091754921053e-12 5.276816040986489e-13
6.095279466722835 5.2938708342092124e-20 8.56517807094722e-12 8.017584358874997e-12 5.475937120722233e-13
6.141167624020661 6.279656297664056e-20 1.023661239012701e-11 9.662933358638256e-12 5.736790314887574e-13
6.164241091010745 6.906874518657654e-20 1.1301357548623443e-11 1.0711190324042321e-11 5.901672245811232e-13
6.187401249150058 7.609190401738083e-20 1.249729913266257e-11 1.1890223747254216e-11 6.070753854083518e-13
6.1990139391386085 7.949866470979202e-20 1.30813293507085e-11 1.2465654805542712e-11 6.156745451657873e-13
6.204828454712694 8.128299420361645e-20 1.3387482166869107e-11 1.2767466694437835e-11 6.200154724312699e-13
6.210648424152782 8.257123431471179e-20 1.3612414184691144e-11 1.2988726067621908e-11 6.2368811706924e-13
6.233982942956859 8.687146401000831e-20 1.437514331914885e-11 1.3738759981217908e-11 6.363833379309409e-13
6.239830258556775 8.737745552494977e-20 1.4472434827191245e-11 1.3834372356207809e-11 6.38062470983437e-13
6.245683058788269 8.735669469991067e-20 1.448256773248317e-11 1.384282430003555e-11 6.397434324476191e-13
6.257405133728602 8.70888526515415e-20 1.44652610687138e-11 1.3822623596282884e-11 6.426374724309153e-13
6.269149208991335 8.605452319892499e-20 1.4320287663748424e-11 1.3676820120530807e-11 6.434675432176167e-13
6.280915325867298 8.368588739516251e-20 1.395226117774087e-11 1.331051265807467e-11 6.417485196662018e-13
6.304513850009849 7.79380163195261e-20 1.3042786464769252e-11 1.2406777615910481e-11 6.360088488587677e-13
6.32820103803542 7.096450493726985e-20 1.1920401352392673e-11 1.1292580536247026e-11 6.278208161456459e-13
6.3519772230701035 6.461393887864762e-20 1.0894431729653266e-11 1.0274014978488011e-11 6.204167511652524e-13
6.375842739491607 5.925024160192869e-20 1.0027603546405762e-11 9.413784177965214e-12 6.138193684405482e-13
6.399797922933955 5.501140042169585e-20 9.345195583582455e-12 8.735077923299987e-12 6.101176602824695e-13
6.42384311029221 5.146714691196467e-20 8.775956308341274e-12 8.168960903213612e-12 6.069954051276623e-13
6.447978639727206 4.8900018744531205e-20 8.369548854448462e-12 7.763424270285493e-12 6.061245841629667e-13
6.472204850670314 4.67495004232661e-20 8.031536953465273e-12 7.42583831846097e-12 6.05698635004305e-13
6.496522083828205 4.5349975696430676e-20 7.820371976592508e-12 7.2132810135023154e-12 6.070909630901942e-13
6.520930681187647 4.416322035923388e-20 7.644335704612812e-12 7.035582718974798e-12 6.087529856380169e-13
