Dust emission spectrum from A.P. Jones, M. Kohler, N. Ysard, M. Bocchio, and L. Verstraete (2017), A&A, 602A, 46J 
inside the DustPedia framework.

lambda    nu*dP/dnu     j_nu    j_nu(carb.) j_nu(sil)
 (um)   (erg s-1 H-1) (Jy cm2 sr-1 H-1)
0.9927057738263894 5.221098694560264e-25 1.3757891612651852e-17 1.3757891327861667e-17 2.847901871141238e-25
1.0001793341362166 5.308576875328973e-25 1.4093712915183933e-17 1.4093712572312825e-17 3.428711064033352e-25
1.0077091589558085 5.396188563525685e-25 1.4434168009867963e-17 1.4434167597613102e-17 4.122548598485358e-25
1.0114953028030835 5.440037222606601e-25 1.460613043632575e-17 1.460612998450239e-17 4.518233623740545e-25
1.0152956718711033 5.483910607400363e-25 1.477924792793883e-17 1.4779247432912418e-17 4.950264138927847e-25
1.0229392996569957 5.571677524395368e-25 1.512882744249352e-17 1.5128826848853138e-17 5.936403766885325e-25
1.0267826658714554 5.6154685579587e-25 1.5305022107394798e-17 1.5305021457607115e-17 6.497876790649315e-25
1.0306404723013447 5.659270912908672e-25 1.548235817013259e-17 1.548235745912181e-17 7.110107838227001e-25
1.03451277320114 5.703081872306961e-25 1.5660834375920557e-17 1.5660833598174948e-17 7.7774560810326305e-25
1.0383996230291617 5.746898750699511e-25 1.5840449475586734e-17 1.5840448625123348e-17 8.504633851760123e-25
1.0403485208654093 5.768808579158128e-25 1.593068372261969e-17 1.5930682833396236e-17 8.892234528829643e-25
1.0423010764483396 5.7907188950703595e-25 1.6021202228936252e-17 1.6021201299262914e-17 9.296733403148167e-25
1.0462171883269815 5.834539685786369e-25 1.6203091408159377e-17 1.6203090392233825e-17 1.0159255541659054e-24
1.0471985131304309 5.845494680722883e-25 1.6248741127082215e-17 1.624874008842465e-17 1.038657558935424e-24
1.048180758391296 5.856449514246972e-25 1.6294461778018442e-17 1.6294460716142114e-17 1.0618763291496734e-24
1.0501480137395462 5.8783585375326495e-25 1.6386115801284586e-17 1.638611469147056e-17 1.1098140255643607e-24
1.0521189612883777 5.900266437993173e-25 1.647805332950994e-17 1.6478052169689642e-17 1.159820292729639e-24
1.0531058218030118 5.911204338820643e-25 1.652408495052243e-17 1.6524083764895203e-17 1.1856272246915264e-24
1.0540936079674168 5.92209096111537e-25 1.6570044949533343e-17 1.6570043737544202e-17 1.2119891429219611e-24
1.058054026499678 5.965630586053305e-25 1.67545834158733e-17 1.6754582092715363e-17 1.3231579336698172e-24
1.0590464539527713 5.976513584190368e-25 1.6800892554083425e-17 1.6800891201644675e-17 1.3524387504303608e-24
1.06003981227728 5.987395742797558e-25 1.6847271462982414e-17 1.6847270080643282e-17 1.382339133441059e-24
1.0620293250338977 6.009157390050816e-25 1.694023851793317e-17 1.694023707388449e-17 1.4440486824605094e-24
1.0660195594769086 6.052668953697659e-25 1.7127009059585784e-17 1.7127007484118797e-17 1.5754669903040134e-24
1.070024785945596 6.096162897051907e-25 1.731489388010022e-17 1.731489216181897e-17 1.718281247980462e-24
1.0740450607676866 6.13963688050678e-25 1.7503891857867697e-17 1.75038899844405e-17 1.8734271968702173e-24
1.07808044048254 6.1830886056467e-25 1.7694001914169287e-17 1.76939998722565e-17 2.0419127947150378e-24
1.0861967418109137 6.269845309518407e-25 1.807734950839951e-17 1.8077347085071887e-17 2.4233276218707628e-24
1.0902777775684922 6.312984471377637e-25 1.8270116402449964e-17 1.8270113763766917e-17 2.638683042186652e-24
1.0943741465085532 6.356089778339815e-25 1.8463978282990598e-17 1.8463975410749293e-17 2.872241311930914e-24
1.1026131145906286 6.442190619196801e-25 1.8854983550825752e-17 1.885498015093419e-17 3.3998915633165394e-24
1.1109141095355224 6.528131886013701e-25 1.925035910819342e-17 1.9250355088929602e-17 4.019263822173755e-24
1.1192775983109025 6.613825737892228e-25 1.964988407630767e-17 1.9649879330967186e-17 4.745340486743576e-24
1.1277040513999907 6.698923834110447e-25 2.0052550266871226e-17 2.005254467148702e-17 5.59538420743016e-24
1.1361939428280308 6.783808535166591e-25 2.045952208128728e-17 2.0459515492030584e-17 6.589256698507493e-24
1.1447477501889525 6.868467255650172e-25 2.0870798439079948e-17 2.0870790689299676e-17 7.749780275740309e-24
1.1533659546722406 6.952925320932299e-25 2.1286493451649588e-17 2.1286484348492944e-17 9.103156638743717e-24
1.1707974979042381 7.121500817622237e-25 2.213210628573747e-17 2.213209377271925e-17 1.251301822202939e-23
1.1884924949847024 7.289128805534073e-25 2.2995428216936282e-17 2.2995411102539348e-17 1.7114396936786456e-23
1.2064549276569216 7.457012857812249e-25 2.388061057587698e-17 2.388058728309387e-17 2.3292783116808025e-23
1.2246888378427687 7.623755766322264e-25 2.478358723952746e-17 2.478355569261085e-17 3.154691661454919e-23
1.2431983285522175 7.789117564105715e-25 2.5703845935868883e-17 2.5703803416065752e-17 4.2519803136094945e-23
1.2619875648066055 7.953216777239612e-25 2.664203095540429e-17 2.6641973919190372e-17 5.703621392163086e-23
1.3004222497298317 8.275949747951153e-25 2.8567462732127044e-17 2.856736154284973e-17 1.0118927730319889e-22
1.3400274889804893 8.592101188222856e-25 3.056205292991088e-17 3.056187668681962e-17 1.7624309125624984e-22
1.3808389325824078 8.90204870944256e-25 3.262889923773189e-17 3.2628597738746e-17 3.014989859013819e-22
1.4228933163050095 9.208125544514871e-25 3.477867276618079e-17 3.4778165927480134e-17 5.068387006591037e-22
1.466228494730424 9.516450368079173e-25 3.703787616703546e-17 3.703703848278433e-17 8.376842511303094e-22
1.5108834753276823 9.825072453510338e-25 3.940362398103743e-17 3.940226219619611e-17 1.3617848413337514e-21
1.5568984535646726 1.0132686984878393e-24 4.187495439974173e-17 4.187277463630098e-17 2.1797634407506566e-21
1.6043148490894465 1.0441179063069396e-24 4.446400518970687e-17 4.446056337395114e-17 3.441815755722534e-21
1.6531753430134553 1.0752665197005054e-24 4.7185056100274556e-17 4.71797013970712e-17 5.354703203369395e-21
1.7035239163302658 1.1070060569943844e-24 5.0057328179505926e-17 5.0049117951048146e-17 8.210228457772013e-21
1.755405889504358 1.1402623233154194e-24 5.313146105857307e-17 5.3119048425538255e-17 1.2412633034800149e-20
1.8088679632656115 1.175025590698721e-24 5.641877149468762e-17 5.640026114208993e-17 1.8510352597679475e-20
1.8639582606462262 1.2113136263884583e-24 5.99324758178564e-17 5.990523755108464e-17 2.723826677178334e-20
1.9207263702978936 1.2493659382203737e-24 6.369782356086812e-17 6.365825764814692e-17 3.9565912721187344e-20
1.979223391128241 1.289539244718094e-24 6.774836390177807e-17 6.769160857127663e-17 5.67553305014513e-20
2.039501978296691 1.3322033991200696e-24 7.212139217129057e-17 7.204096738972847e-17 8.042478156209965e-20
2.1016163906111602 1.3782229605272982e-24 7.688513135948468e-17 7.677250260149373e-17 1.1262875799094188e-19
2.1656225393682647 1.4281297194011397e-24 8.209559461932255e-17 8.193966329037164e-17 1.5593132895091348e-19
2.231578038680979 1.4819879386123883e-24 8.778618601216174e-17 8.757269659885067e-17 2.1348941331109498e-19
2.299542257339062 1.5401138926458993e-24 9.400775171795635e-17 9.371861048644397e-17 2.8914123151238737e-19
2.369576372248914 1.603075471364141e-24 1.0083100892441799e-16 1.004435070552703e-16 3.87501869147677e-19
2.4417434235010123 1.6715232221285156e-24 1.0833826450962497e-16 1.0782422405871058e-16 5.140404509144258e-19
2.5161083711144245 1.7465417524244774e-24 1.1664812112928155e-16 1.1597294120615225e-16 6.751799231293104e-19
2.5927381535095444 1.82982521834516e-24 1.259324638429676e-16 1.250540978026039e-16 8.783660403637185e-19
2.6717017477616296 1.9231439401952507e-24 1.3638581347498154e-16 1.352537373192285e-16 1.132076155753008e-18
2.753070231689431 2.0290580983833764e-24 1.4827953178751833e-16 1.468336777362263e-16 1.4458540512920356e-18
2.836916847834745 2.1535534617223543e-24 1.621704407626054e-16 1.6034006340859e-16 1.83037735401536e-18
2.9233170693905177 2.3095992384825246e-24 1.7921814720100677e-16 1.7692114455368389e-16 2.2970026473229654e-18
2.967498994190263 2.411909346974713e-24 1.8998573529846462e-16 1.8742545829713334e-16 2.5602770013312103e-18
3.0123486681368425 2.5244697337602497e-24 2.0185747651592006e-16 1.990075343079244e-16 2.8499422079957005e-18
3.0578761833420214 2.7201149652825453e-24 2.2078857132195621e-16 2.1761947859893993e-16 3.169092723016248e-18
3.1040917844459814 2.9567092512182165e-24 2.4361981416802655e-16 2.401026945476372e-16 3.517119620389361e-18
3.127460860933648 3.1809378058011762e-24 2.640684365771605e-16 2.603646893079213e-16 3.7037472692391876e-18
3.1510058709225794 3.469936530366613e-24 2.902285796553891e-16 2.8633009051019347e-16 3.898489145195698e-18
3.162844764501044 3.730538965324796e-24 3.1319793532999054e-16 3.0919858647482973e-16 3.999348855160888e-18
3.1747281389236908 4.0289915818885085e-24 3.3952545068572257e-16 3.3542313504155306e-16 4.102315644169572e-18
3.1986289994194426 4.845986296797393e-24 4.1144850164276234e-16 4.0713328561122656e-16 4.315216031535661e-18
3.2227097969389145 6.74003757406444e-24 5.765712061256271e-16 5.720301754855052e-16 4.541030640121866e-18
3.2348180950136065 8.52214256933349e-24 7.317590330931305e-16 7.27097439363118e-16 4.6615937300125614e-18
3.240889293275058 9.852530396928423e-24 8.4758139003095185e-16 8.428562014263905e-16 4.7251886045613054e-18
3.2469718861334385 1.1392535895630592e-23 9.819025027470298e-16 9.771115108848011e-16 4.790991862228973e-18
3.2714166318528037 1.9543938196006632e-23 1.6971388333157703e-15 1.6920757296205883e-15 5.0631036951817196e-18
3.2744851364798273 2.0054938565004346e-23 1.743146115338731e-15 1.7380508925109383e-15 5.095222827792893e-18
3.2775565192852394 2.058013647265673e-23 1.7904733984349483e-15 1.785345891151815e-15 5.127507283133499e-18
3.283707930232385 2.0083012374510942e-23 1.7505028037471359e-15 1.7453174571480207e-15 5.185346599114926e-18
3.2898708863219004 1.849323539877654e-23 1.6149578241599715e-15 1.6097197443841906e-15 5.2380797757806255e-18
3.29141343181113 1.8117979834166407e-23 1.5829297524662806e-15 1.577678428592884e-15 5.2513238733967716e-18
3.292184975758714 1.7933540798671776e-23 1.5671829812955678e-15 1.5619250262392173e-15 5.2579550563506006e-18
3.295272960557952 1.6774384517970338e-23 1.4672611615491578e-15 1.4619773943140022e-15 5.2837672351553986e-18
3.3076538914384823 1.274508701280158e-23 1.1190056958050732e-15 1.1136182052744103e-15 5.387490530662789e-18
3.310756385682612 1.1921291376126613e-23 1.0476590319058401e-15 1.0422453869227727e-15 5.413644983067366e-18
3.313861789986515 1.1159761445430551e-23 9.816546669565997e-16 9.762147778487344e-16 5.439889107865198e-18
3.3200813396944477 1.0095062295211753e-23 8.896663409271066e-16 8.841700478325497e-16 5.4962930945568996e-18
3.345076488085796 8.223524443913983e-24 7.301859522203524e-16 7.244384153830258e-16 5.7475368373265685e-18
3.3482140837626964 8.299308712740261e-24 7.376062218659559e-16 7.318246547366272e-16 5.781567129328655e-18
3.3513546224236106 8.375852044918313e-24 7.451072946462464e-16 7.392915385170596e-16 5.815756129186873e-18
3.3576445397418455 8.913250919843049e-24 7.944019159848397e-16 7.88514695833242e-16 5.88722015159785e-18
3.3702598118196083 1.087194247969304e-23 9.726127552367006e-16 9.665756257660905e-16 6.037129470610391e-18
3.382922481734668 1.1335759660888919e-23 1.017916393612788e-15 1.0117333540728811e-15 6.183039539906843e-18
3.389271646505754 1.1575440322927459e-23 1.0413898292869553e-15 1.0351327936305274e-15 6.2570356564279824e-18
3.395632727569191 1.183598940798169e-23 1.066828751517054e-15 1.0604954571110541e-15 6.333294405999699e-18
3.421196662673239 1.3090352775013208e-23 1.1887727009691554e-15 1.1821235072955633e-15 6.649193673591894e-18
3.4276182099114902 1.2859450812130621e-23 1.1699957820780153e-15 1.1632758707073885e-15 6.7199113706266326e-18
3.4340518103208963 1.1812809685438174e-23 1.076786205827094e-15 1.0699993012425862e-15 6.786904584507358e-18
3.4469541582030403 1.031925863291877e-23 9.441770461065248e-16 9.372613395237255e-16 6.9157065827994346e-18
3.472904465399547 9.91987078750488e-24 9.144675202147801e-16 9.072554244225251e-16 7.212095792254802e-18
3.4990501388274233 9.301604728972999e-24 8.639278591403694e-16 8.564119680589571e-16 7.515891081412573e-18
3.5253949054701885 7.051872344010439e-24 6.599053473333859e-16 6.520935297911943e-16 7.811817542191566e-18
3.5519380250092896 4.923857803792135e-24 4.642376028177717e-16 4.561277112271088e-16 8.109891590662937e-18
3.578680990867387 4.098290670569901e-24 3.8930965716688916e-16 3.8087296622339934e-16 8.436690943489922e-18
3.605625307711299 3.784233287935462e-24 3.6218288854656335e-16 3.534016247525717e-16 8.781263793991774e-18
3.660119384959845 3.59676928449043e-24 3.494437402825953e-16 3.3993681704883323e-16 9.506923233762139e-18
3.715437065384467 3.480533663215187e-24 3.432615671618989e-16 3.3298712358725907e-16 1.027444357463981e-17
3.8285932144167436 3.5192149667396395e-24 3.5764689116530284e-16 3.457139937121407e-16 1.1932897453162095e-17
3.94519561050918 3.633365688731703e-24 3.804933623429689e-16 3.667385832540753e-16 1.375477908889362e-17
4.06534921144712 3.779485369619441e-24 4.0784952306784564e-16 3.9210824674520866e-16 1.574127632263695e-17
4.189162171576248 3.944612006217242e-24 4.3863259226862356e-16 4.2073324768955503e-16 1.7899344579068557e-17
4.316745939156006 4.123392597119142e-24 4.724769314579259e-16 4.522521764523941e-16 2.022475500553189e-17
4.448215356677963 4.313421936444736e-24 5.093041099139505e-16 4.866144088863099e-16 2.2689701027640655e-17
4.58368876423945 4.514300532604611e-24 5.492562687499181e-16 5.239556538628538e-16 2.5300614887064324e-17
4.723288106065518 4.7269974170804696e-24 5.926512913796695e-16 5.645742356898419e-16 2.8077055689827694e-17
4.867139040275056 4.953216420577789e-24 6.399270818957346e-16 6.0897414289405935e-16 3.095293900167518e-17
4.940699165968905 5.07517668273795e-24 6.655934048188226e-16 6.331558198389396e-16 3.2437584979882913e-17
5.015371051989984 5.1979686782279954e-24 6.920001047534709e-16 6.580505575217195e-16 3.3949547231751254e-17
5.091171501069577 5.333354095112143e-24 7.207548584195114e-16 6.85234649341824e-16 3.552020907768731e-17
5.129500256944802 5.401364126149528e-24 7.354411812084769e-16 6.991264463312529e-16 3.631473487722403e-17
5.168117569889187 5.470623638652847e-24 7.504791925389334e-16 7.133567552967985e-16 3.7122437242134816e-17
5.20702561229733 5.549188298961078e-24 7.669880699176368e-16 7.289874641894189e-16 3.800060572821785e-17
5.246226572918644 5.6283907404448295e-24 7.83791800398544e-16 7.449044077242503e-16 3.888739267429367e-17
5.265937586045735 5.668235876593756e-24 7.923062010818751e-16 7.52972263991179e-16 3.9333937090696064e-17
5.285722656980489 5.7082463335036766e-24 8.008967130723866e-16 7.611141750655515e-16 3.978253800683505e-17
5.305582063971359 5.748424259498356e-24 8.095641778077206e-16 7.693310160555692e-16 4.023316175215134e-17
5.3255160863122235 5.790470338377053e-24 8.185495520914601e-16 7.778604875773445e-16 4.0689064514115673e-17
5.365609099470188 5.888393069229014e-24 8.386586983985435e-16 7.970263835242142e-16 4.1632314874328905e-17
5.406003951863644 5.988028200407482e-24 8.592699593991851e-16 8.166852859474435e-16 4.2584673451741426e-17
5.446702915881641 6.089459342668947e-24 8.80403693907243e-16 8.368578161137319e-16 4.3545877793511264e-17
5.487708281020852 6.196067469912805e-24 9.025610509533591e-16 8.580415836560271e-16 4.4519467297332263e-17
5.529022354014368 6.334292346371633e-24 9.29642312510773e-16 8.841074098636522e-16 4.553490264712068e-17
5.570647458961463 6.477435189403158e-24 9.578073913634746e-16 9.112472840155736e-16 4.6560107347901e-17
5.612585937458331 6.625857003682553e-24 9.871303294061107e-16 9.395355101266233e-16 4.759481927948705e-17
5.654840148729818 6.78502040428225e-24 1.0184528406944819e-15 9.698093227238148e-16 4.864351797066704e-17
5.67608639626678 6.889514605425729e-24 1.0380231887739124e-15 9.888312463379544e-16 4.9191942435957726e-17
5.686739436050992 6.942915201688642e-24 1.0480321935284691e-15 9.98565017229953e-16 4.946717629851615e-17
5.6974124697621304 6.997109375751226e-24 1.058195127526948e-15 1.0084520415778359e-15 4.9743085949112114e-17
5.718818669136295 7.107955062962056e-24 1.0789974860245537e-15 1.028700569477932e-15 5.029691654662169e-17
5.740305295436557 7.228591382034784e-24 1.1014330385986325e-15 1.050575720494129e-15 5.085731810450349e-17
5.7835210386641895 7.534768934942598e-24 1.1567291799876884e-15 1.104712560007185e-15 5.2016619980503454e-17
5.827062130521658 7.879770031031385e-24 1.2188005027554508e-15 1.1656031629169375e-15 5.3197339838513435e-17
5.8489554468988025 8.118794937296338e-24 1.2604897501982569e-15 1.2066558283511272e-15 5.383392184712978e-17
5.870931020387893 8.372297823110834e-24 1.304731295710169e-15 1.2502568788097825e-15 5.447441690038623e-17
5.892989160043636 8.641421835238786e-24 1.3517310230357693e-15 1.2966122228044236e-15 5.511880023134584e-17
5.915130176081913 8.945044429900104e-24 1.4044822076433407e-15 1.3486957061154724e-15 5.578650152786863e-17
5.95966208400165 9.787602143551186e-24 1.5483437170801096e-15 1.491041363471493e-15 5.730235360861612e-17
6.004529249263818 1.0986853082711891e-23 1.7511434130771749e-15 1.6921381210508884e-15 5.900529202628595e-17
6.027089341400364 1.1815963970580344e-23 1.890367405029175e-15 1.8303809597343205e-15 5.99864452948543e-17
6.049734195844842 1.2788162576294161e-23 2.053590636997699e-15 1.992565391535236e-15 6.102524546246318e-17
6.095279466722835 1.5584555861669335e-23 2.5214913678898204e-15 2.4579223811379854e-15 6.356898675183514e-17
6.141167624020661 1.9854354993576849e-23 3.2365041443563057e-15 3.1696455739332815e-15 6.685857042302294e-17
6.164241091010745 2.2578025880818995e-23 3.69432429287567e-15 3.6254068341274446e-15 6.89174587482242e-17
6.187401249150058 2.5655776680833683e-23 4.213692899417129e-15 4.142659451139675e-15 7.103344827745495e-17
6.1990139391386085 2.7156147089688784e-23 4.468483908167422e-15 4.3963734054729776e-15 7.211050269444454e-17
6.204828454712694 2.794433399017794e-23 4.602491291368998e-15 4.529836586697763e-15 7.265470467123517e-17
6.210648424152782 2.8518940051278024e-23 4.701535919963903e-15 4.6284162093887396e-15 7.311971057516185e-17
6.233982942956859 3.0461366222008813e-23 5.0406253667833685e-15 4.965878667853118e-15 7.474669893025044e-17
6.239830258556775 3.070458714364819e-23 5.085638322408887e-15 5.01066153381698e-15 7.497678859190787e-17
6.245683058788269 3.0718674660277997e-23 5.09274404151701e-15 5.0175367249969515e-15 7.520731652005996e-17
6.257405133728602 3.064913443362193e-23 5.090751773781686e-15 5.015138410524262e-15 7.561336325742387e-17
6.269149208991335 3.0247418616271684e-23 5.033456924391405e-15 4.957682084691642e-15 7.577483969976249e-17
6.280915325867298 2.9264388466618006e-23 4.879011310056613e-15 4.803377649895293e-15 7.563366016132152e-17
6.304513850009849 2.685040746904389e-23 4.493367263480723e-15 4.4182900994102044e-15 7.507716407051925e-17
6.32820103803542 2.3878779087018967e-23 4.011084566488595e-15 3.936855589749582e-15 7.422897673901242e-17
6.3519772230701035 2.1160582537055378e-23 3.567845047221303e-15 3.4943716775040687e-15 7.347336971723348e-17
6.375842739491607 1.8869075508232985e-23 3.1934318471639117e-15 3.120619383134868e-15 7.281246402904414e-17
6.399797922933955 1.70464014602798e-23 2.8957989511525586e-15 2.823300439601684e-15 7.249851155087492e-17
6.42384311029221 1.5527220106304615e-23 2.647634722709865e-15 2.5753811550901804e-15 7.225356761968383e-17
6.447978639727206 1.4426659816249468e-23 2.469214475548887e-15 2.396934640921417e-15 7.227983462746987e-17
6.472204850670314 1.35084640628366e-23 2.3207462608784396e-15 2.2483860783088804e-15 7.236018256955992e-17
6.496522083828205 1.291608635618682e-23 2.2273132065894862e-15 2.154652328847285e-15 7.266087774220047e-17
