Dust emission spectrum from A.P. Jones, M. Kohler, N. Ysard, M. Bocchio, and L. Verstraete (2017), A&A, 602A, 46J 
inside the DustPedia framework.

lambda    nu*dP/dnu     j_nu    j_nu(carb.) j_nu(sil)
 (um)   (erg s-1 H-1) (Jy cm2 sr-1 H-1)
0.9927057738263894 1.12964668734614e-21 2.976683183807995e-14 2.97668314802172e-14 3.578627466577978e-22
1.0001793341362166 1.1486622888641374e-21 3.049577488645864e-14 3.049577445569085e-14 4.307677893820313e-22
1.0077091589558085 1.1677368279393526e-21 3.1235582981136974e-14 3.123558246329704e-14 5.178399437018346e-22
1.0114953028030835 1.1772950524234185e-21 3.160957249755372e-14 3.16095719300667e-14 5.674870165942133e-22
1.0152956718711033 1.1868666482572337e-21 3.198629173189733e-14 3.198629111020958e-14 6.216877517476788e-22
1.0229392996569957 1.2060388904607467e-21 3.2747685383491406e-14 3.274768463811011e-14 7.453812921971346e-22
1.0267826658714554 1.2156175661558364e-21 3.313179217749146e-14 3.313179136169641e-14 8.157950440781308e-22
1.0306404723013447 1.2252074053355632e-21 3.351862841348681e-14 3.351862752092234e-14 8.925644758139306e-22
1.03451277320114 1.234807996565179e-21 3.390819902861934e-14 3.390819805238495e-14 9.762343867722381e-22
1.0383996230291617 1.2444189364305514e-21 3.430050909908962e-14 3.4300508031696e-14 1.067393612143328e-21
1.0403485208654093 1.2492281632819436e-21 3.4497693056645e-14 3.449769194066642e-14 1.1159785838872089e-21
1.0423010764483396 1.2540398297577736e-21 3.46955638492377e-14 3.4695562682559346e-14 1.1666783501765366e-21
1.0462171883269815 1.2636702898311314e-21 3.509336866075226e-14 3.509336738597654e-14 1.2747757217410137e-21
1.0471985131304309 1.2660793551581698e-21 3.5193250207122286e-14 3.519324890385957e-14 1.3032627146521981e-21
1.048180758391296 1.2684889889149892e-21 3.529330406661968e-14 3.529330273426096e-14 1.33235872599681e-21
1.0501480137395462 1.2733099386093355e-21 3.549392908200651e-14 3.549392768957893e-14 1.3924275769615609e-21
1.0521189612883777 1.2781330930495649e-21 3.569524442805609e-14 3.569524297297187e-14 1.4550842249160819e-21
1.0531058218030118 1.2805422104210233e-21 3.5796069726035547e-14 3.579606823861749e-14 1.4874180581665536e-21
1.0540936079674168 1.282941140767953e-21 3.5896767729023103e-14 3.589676620857694e-14 1.5204461594315866e-21
1.058054026499678 1.2925416551835451e-21 3.630127053272779e-14 3.630126887301345e-14 1.659714348789907e-21
1.0590464539527713 1.2949429549058544e-21 3.640282439345922e-14 3.640282269706605e-14 1.696393164945512e-21
1.06003981227728 1.2973447123510567e-21 3.650454970566341e-14 3.6504547971816616e-14 1.7338467924759056e-21
1.0620293250338977 1.3021495792634746e-21 3.67085150661415e-14 3.67085132550005e-14 1.8111409891379253e-21
1.0660195594769086 1.3117645752920015e-21 3.7118507450080596e-14 3.711850547434911e-14 1.9757314936847798e-21
1.070024785945596 1.3213863153984706e-21 3.7531254023421394e-14 3.7531251868851945e-14 2.1545694437826253e-21
1.0740450607676866 1.3310144817597175e-21 3.7946761353180955e-14 3.794675900435871e-14 2.3488222495836974e-21
1.07808044048254 1.3406487668000917e-21 3.836503624471101e-14 3.8365033684963825e-14 2.5597471877336535e-21
1.0861967418109137 1.3599194239465261e-21 3.920948207864316e-14 3.920947904151186e-14 3.0371313056053126e-21
1.0902777775684922 1.369520917944019e-21 3.963467152480914e-14 3.9634668218193767e-14 3.3066153693693384e-21
1.0943741465085532 1.379126807850403e-21 4.0062630198233496e-14 4.006262659939872e-14 3.598834780955933e-21
1.1026131145906286 1.3983507852727568e-21 4.0926887472152046e-14 4.0926883213288856e-14 4.258863200694044e-21
1.1109141095355224 1.4175894919991993e-21 4.180232149943547e-14 4.180231646604122e-14 5.033394250137366e-21
1.1192775983109025 1.4368257713303258e-21 4.2688545122584424e-14 4.268853918149805e-14 5.941086372373463e-21
1.1277040513999907 1.4559869777603504e-21 4.358349606959866e-14 4.3583489066169304e-14 7.00342935926433e-21
1.1361939428280308 1.4751561756244754e-21 4.4489743765734233e-14 4.4489735520594964e-14 8.24513927899605e-21
1.1447477501889525 1.4943323157096577e-21 4.540737751428297e-14 4.54073678196778e-14 9.694605154891026e-21
1.1533659546722406 1.513521943648047e-21 4.6336719373928386e-14 4.6336707989521555e-14 1.1384406840524676e-20
1.1707974979042381 1.5519998640143926e-21 4.823284701564532e-14 4.823283137583725e-14 1.563980807493333e-20
1.1884924949847024 1.5905227365986662e-21 5.01771232099662e-14 5.017710183150518e-14 2.137846101690157e-20
1.2064549276569216 1.6293557109560682e-21 5.217908291811437e-14 5.2179053839310155e-14 2.907880423185867e-20
1.2246888378427687 1.668221454970645e-21 5.42311601150114e-14 5.423112075569469e-14 3.935931671708452e-20
1.2431983285522175 1.7070790799904734e-21 5.633307921121064e-14 5.633302619451122e-14 5.3016699424283864e-20
1.2619875648066055 1.7459743058620346e-21 5.848740554543472e-14 5.848733447343427e-14 7.107200045850905e-20
1.3004222497298317 1.823579978280492e-21 6.294752222423532e-14 6.294739629616874e-14 1.2592806658052828e-19
1.3400274889804893 1.9011952752791256e-21 6.762540310025742e-14 6.762518405973604e-14 2.190405213615054e-19
1.3808389325824078 1.979029816342581e-21 7.253786917321043e-14 7.253749497004986e-14 3.7420316057103535e-19
1.4228933163050095 2.0577016761985233e-21 7.771845952899687e-14 7.771783134619607e-14 6.281828008322145e-19
1.466228494730424 2.1386295426738787e-21 8.323512770519165e-14 8.323409094794788e-14 1.0367572437637212e-18
1.5108834753276823 2.2215166231431157e-21 8.909431060193377e-14 8.909262765023024e-14 1.6829517035241331e-18
1.5568984535646726 2.306172670694648e-21 9.530628506277497e-14 9.530359522329728e-14 2.6898394777203025e-18
1.6043148490894465 2.393057886791481e-21 1.019089296858448e-13 1.0190468887246319e-13 4.240813381594325e-18
1.6531753430134553 2.482656442100754e-21 1.0894441643255144e-13 1.0893782881019673e-13 6.587622354702719e-18
1.7035239163302658 2.5755620754553657e-21 1.1646346037871107e-13 1.1645337558874202e-13 1.0084789969044282e-17
1.755405889504358 2.673688768669738e-21 1.2458272784307772e-13 1.24567505545943e-13 1.5222297134722173e-17
1.8088679632656115 2.7768847878843656e-21 1.333319287297907e-13 1.3330926550869544e-13 2.2663221095231213e-17
1.8639582606462262 2.8849502141881527e-21 1.4273942369744527e-13 1.4270612994177422e-13 3.329375567109133e-17
1.9207263702978936 2.9980924356096805e-21 1.5285510605056495e-13 1.5280682617883273e-13 4.8279871732217905e-17
1.979223391128241 3.1166837879435634e-21 1.6374083091866831e-13 1.6367169591837743e-13 6.913500029092859e-17
2.039501978296691 3.241004147971422e-21 1.754579903782089e-13 1.7536019647093064e-13 9.779390727828531e-17
2.1016163906111602 3.3723412824334803e-21 1.881284160218252e-13 1.8799171070643042e-13 1.3670531539483185e-16
2.1656225393682647 3.511134873361837e-21 2.0183650077539996e-13 2.0164758570524493e-13 1.8891507015498336e-16
2.231578038680979 3.656640950400265e-21 2.1660268230798558e-13 2.163445223294531e-13 2.581599785324867e-16
2.299542257339062 3.808609391760792e-21 2.32475538205956e-13 2.3212657194906455e-13 3.4896625689146374e-16
2.369576372248914 3.967181383615046e-21 2.4952967507866613e-13 2.490629203802767e-13 4.667546983895065e-16
2.4417434235010123 4.132585185254709e-21 2.678497677935697e-13 2.672318460946585e-13 6.179216989111511e-16
2.5161083711144245 4.3058589024131455e-21 2.875799276582154e-13 2.867699822533714e-13 8.099454048440532e-16
2.5927381535095444 4.489167211875434e-21 3.0895403666247884e-13 3.0790258430824864e-13 1.0514523542302299e-15
2.6717017477616296 4.684483796328642e-21 3.3221493197632746e-13 3.308627214126927e-13 1.3522105636347506e-15
2.753070231689431 4.895103799040532e-21 3.5772445350447987e-13 3.5600130220149257e-13 1.7231513029873158e-15
2.836916847834745 5.1307302872298626e-21 3.863627288122498e-13 3.8418630020611003e-13 2.176428606139755e-15
2.9233170693905177 5.4137154061747886e-21 4.2008848479083563e-13 4.1736364734238894e-13 2.7248374484466713e-15
2.967498994190263 5.595620143743763e-21 4.407661543305942e-13 4.3773287177086616e-13 3.0332825597280585e-15
3.0123486681368425 5.792655804805343e-21 4.631827696114303e-13 4.59810576583914e-13 3.3721930275162844e-15
3.0578761833420214 6.138813457294317e-21 4.98280355847836e-13 4.945352185015992e-13 3.745137346236754e-15
3.1040917844459814 6.5530211660920974e-21 5.399400695434418e-13 5.357889221097806e-13 4.151147433661109e-15
3.127460860933648 6.952148779241584e-21 5.771389354542095e-13 5.727703353041847e-13 4.3686001500247616e-15
3.1510058709225794 7.465908662453751e-21 6.244552452121898e-13 6.198599339819343e-13 4.595311230255503e-15
3.162844764501044 7.93569224914511e-21 6.662421840244912e-13 6.615295311518603e-13 4.712652872630764e-15
3.1747281389236908 8.470877305253528e-21 7.138457294620504e-13 7.090133364204574e-13 4.832393041593096e-15
3.1986289994194426 9.931763038699492e-21 8.4325641276462e-13 8.381765995331165e-13 5.079813231503446e-15
3.2227097969389145 1.333556025461881e-20 1.1407799994993068e-12 1.1354379611067874e-12 5.3420383925194945e-15
3.2348180950136065 1.6539513005036908e-20 1.4201754952972609e-12 1.4146935060895438e-12 5.4819892077172155e-15
3.240889293275058 1.8934250312209022e-20 1.6288524421928459e-12 1.6232966322304912e-12 5.555809962354698e-15
3.2469718861334385 2.1709076431315304e-20 1.8710668700557277e-12 1.8654346768667672e-12 5.632193188959988e-15
3.2714166318528037 3.6328909220864406e-20 3.1546969700983908e-12 3.1487490809082415e-12 5.947889190148724e-15
3.2744851364798273 3.7243317668857007e-20 3.2371350481262546e-12 3.2311499418367573e-12 5.9851062894972745e-15
3.2775565192852394 3.818263811106913e-20 3.321892345600776e-12 3.3158698350002836e-12 6.02251060049206e-15
3.283707930232385 3.7282228370639614e-20 3.2496442304430394e-12 3.2435548018058986e-12 6.0894286371408575e-15
3.2898708863219004 3.441811965161479e-20 3.005629378833659e-12 2.9994790261019426e-12 6.1503527317170336e-15
3.29141343181113 3.374150137983288e-20 2.9479239361057003e-12 2.941758284376743e-12 6.165651728957248e-15
3.292184975758714 3.3408856909924346e-20 2.919545702745443e-12 2.9133723913088225e-12 6.173311436621196e-15
3.295272960557952 3.132852997488196e-20 2.7403172516600225e-12 2.7341141407047185e-12 6.203110955304383e-15
3.3076538914384823 2.40777995920864e-20 2.114006350755795e-12 2.107683538104715e-12 6.322812651080923e-15
3.310756385682612 2.2589795920681745e-20 1.9852214813410146e-12 1.9788684943523428e-12 6.352986988671342e-15
3.313861789986515 2.1212072934462383e-20 1.8658938628535717e-12 1.8595106017676894e-12 6.3832610858826345e-15
3.3200813396944477 1.9285870784104066e-20 1.6996418239266496e-12 1.6931934580208967e-12 6.448365905753578e-15
3.345076488085796 1.590349061984724e-20 1.4121080956322459e-12 1.4053696284189936e-12 6.7384672132519905e-15
3.3482140837626964 1.6038095442892814e-20 1.4253957040298863e-12 1.4186179394925918e-12 6.7777645372943734e-15
3.3513546224236106 1.6173990561352468e-20 1.4388217803005378e-12 1.4320045400241485e-12 6.817240276389488e-15
3.3576445397418455 1.7138026429752238e-20 1.527442810084576e-12 1.5205430400301783e-12 6.899770054397513e-15
3.3702598118196083 2.0645941147539464e-20 1.8470025702831063e-12 1.8399296883145427e-12 7.072881968563474e-15
3.382922481734668 2.1475047050310564e-20 1.9283932528614394e-12 1.921152038554846e-12 7.241214306593165e-15
3.389271646505754 2.190301271334812e-20 1.9705146442891435e-12 1.9631880947325146e-12 7.326549556628954e-15
3.395632727569191 2.237181969926345e-20 2.0164685567253917e-12 2.0090540636049882e-12 7.41449312040331e-15
3.421196662673239 2.464235436337588e-20 2.2378432925586177e-12 2.2300646768761823e-12 7.778615682434997e-15
3.4276182099114902 2.422315566937279e-20 2.2039036017813916e-12 2.196043648864723e-12 7.859952916669547e-15
3.4340518103208963 2.2332315858321277e-20 2.035682475275739e-12 2.027745554025713e-12 7.93692125002602e-15
3.4469541582030403 1.962309894066566e-20 1.7954467711614358e-12 1.78736204289359e-12 8.084728267845702e-15
3.472904465399547 1.8869968053100767e-20 1.7395360546214864e-12 1.7311109573681927e-12 8.425097253293798e-15
3.4990501388274233 1.7727218623934553e-20 1.646494178212625e-12 1.637720607152861e-12 8.773571059764251e-15
3.5253949054701885 1.3668852878141893e-20 1.279114065906271e-12 1.2700016815646717e-12 9.11238434159903e-15
3.5519380250092896 9.812870636733294e-21 9.25189906509794e-13 9.157367653290672e-13 9.453141180726802e-15
3.578680990867387 8.301834935636775e-21 7.886176878223773e-13 7.787910368836199e-13 9.826650938757561e-15
3.605625307711299 7.713049535996213e-21 7.382035799314817e-13 7.279834261261637e-13 1.0220153805317865e-14
3.660119384959845 7.326567829736068e-21 7.118119243558395e-13 7.00764496627312e-13 1.1047427728527415e-14
3.715437065384467 7.061151418595199e-21 6.963937535014149e-13 6.84473423056253e-13 1.1920330445162109e-14
3.8285932144167436 7.009003769322108e-21 7.123032926250331e-13 6.985041544116813e-13 1.3799138213351718e-14
3.94519561050918 7.076515376831546e-21 7.410669225376676e-13 7.252149755925977e-13 1.585194694506999e-14
4.06534921144712 7.18563268914825e-21 7.754116178798507e-13 7.573343645699039e-13 1.8077253309946737e-14
4.189162171576248 7.313465866882625e-21 8.132420847988852e-13 7.927621167721277e-13 2.0479968026757197e-14
4.316745939156006 7.450781940066519e-21 8.537442179200389e-13 8.306922146783006e-13 2.3052003241738545e-14
4.448215356677963 7.593938857610629e-21 8.966487228940481e-13 8.708900633225193e-13 2.575865957152862e-14
4.58368876423945 7.742674918989453e-21 9.420535264394633e-13 9.134497268273431e-13 2.860379961212014e-14
4.723288106065518 7.899155696350122e-21 9.903633133657113e-13 9.587576657923874e-13 3.1605647573323935e-14
4.867139040275056 8.067183300091064e-21 1.0422336982689495e-12 1.007547431185001e-12 3.468626708394833e-14
4.940699165968905 8.162268078738912e-21 1.0704556986262331e-12 1.0341902079735188e-12 3.6265490652714315e-14
5.015371051989984 8.255746117935175e-21 1.0990788002163904e-12 1.0612129024969246e-12 3.786589771946567e-14
5.091171501069577 8.368250638573655e-21 1.130893842160562e-12 1.091372192102996e-12 3.952165005756589e-14
5.129500256944802 8.423865065252708e-21 1.1469801200658338e-12 1.106624200558557e-12 4.035591950727722e-14
5.168117569889187 8.480870560962132e-21 1.1634353432116923e-12 1.1222330016273238e-12 4.120234158436818e-14
5.20702561229733 8.553135255693775e-21 1.1821823928262189e-12 1.1400569277623203e-12 4.212546506389856e-14
5.246226572918644 8.625610084684218e-21 1.2011750373386767e-12 1.1581197378739795e-12 4.3055299464696864e-14
5.265937586045735 8.661937624208444e-21 1.2107659318456098e-12 1.1672433099264544e-12 4.352262191915497e-14
5.285722656980489 8.698331582097647e-21 1.2204212583516475e-12 1.17642977083265e-12 4.3991487518997453e-14
5.305582063971359 8.734796898676549e-21 1.2301420964032323e-12 1.1856802459968647e-12 4.44618504063677e-14
5.3255160863122235 8.774294387609515e-21 1.2403473847876406e-12 1.1954100382627424e-12 4.493734652489829e-14
5.365609099470188 8.876550882837776e-21 1.2642492649771238e-12 1.2183281380085136e-12 4.592112696861014e-14
5.406003951863644 8.980633101038194e-21 1.2887027218046408e-12 1.2417909048967705e-12 4.691181690787014e-14
5.446702915881641 9.08667808133241e-21 1.3137364908728893e-12 1.2658274389557983e-12 4.7909051917091105e-14
5.487708281020852 9.200520465246797e-21 1.3402099736250772e-12 1.2912932956366939e-12 4.891667798838309e-14
5.529022354014368 9.3675105601722e-21 1.3748077454328224e-12 1.324840556857394e-12 4.996718857542856e-14
5.570647458961463 9.541182581146387e-21 1.4108385389206018e-12 1.3598135972211852e-12 5.1024941699416827e-14
5.612585937458331 9.72208901442178e-21 1.4484117188143124e-12 1.3963221514540154e-12 5.208956736029723e-14
5.654840148729818 9.919482275638297e-21 1.4889453973441771e-12 1.43577949297123e-12 5.316590437294757e-14
5.67608639626678 1.0059829648689193e-20 1.5156853637019657e-12 1.4619562612984002e-12 5.3729102403565834e-14
5.686739436050992 1.0131692611903198e-20 1.5293777503758831e-12 1.4753662926461799e-12 5.4011457729702886e-14
5.6974124697621304 1.0204719171823082e-20 1.5432921690243913e-12 1.4889978594754726e-12 5.429430954891868e-14
5.718818669136295 1.0354379625588063e-20 1.5718092596800396e-12 1.5169477803353691e-12 5.486147934467034e-14
5.740305295436557 1.0519902359509334e-20 1.6029358154608623e-12 1.5475010191729785e-12 5.543479628788347e-14
5.7835210386641895 1.0958057758365708e-20 1.6822685970248216e-12 1.6256485421655156e-12 5.6620054859305994e-14
5.827062130521658 1.1456990333183905e-20 1.7721057242988032e-12 1.7142813264032039e-12 5.782439789559972e-14
5.8489554468988025 1.181647227761406e-20 1.834575488661677e-12 1.7761004834141185e-12 5.847500524755876e-14
5.870931020387893 1.2198258925079822e-20 1.9009656021545995e-12 1.8418368929930245e-12 5.912870916157486e-14
5.892989160043636 1.260410872803343e-20 1.971592766820174e-12 1.9118072997882407e-12 5.978546703193293e-14
5.915130176081913 1.3065485808895422e-20 2.051442281434829e-12 1.9909759340803107e-12 6.046634735451804e-14
5.95966208400165 1.4372526422793297e-20 2.273653000899942e-12 2.2116331356591206e-12 6.201986524082147e-14
6.004529249263818 1.6256948724860152e-20 2.5911194463014877e-12 2.5273502091951964e-12 6.37692371062916e-14
6.027089341400364 1.7571679881068717e-20 2.8111909431582143e-12 2.746409888352414e-12 6.478105480580125e-14
6.049734195844842 1.9115618246656158e-20 3.069686862170876e-12 3.0038337830960976e-12 6.585307907477867e-14
6.095279466722835 2.3581829293872457e-20 3.8154041431361975e-12 3.74691241181306e-12 6.849173132313792e-14
6.141167624020661 3.0419549712654546e-20 4.9587608736879125e-12 4.886840022460018e-12 7.192085122789525e-14
6.164241091010745 3.478375090286381e-20 5.691483242870854e-12 5.617407994916866e-12 7.407524795399006e-14
6.187401249150058 3.9707654536060974e-20 6.521566821093471e-12 6.445279443542321e-12 7.628737755114619e-14
6.1990139391386085 4.2103187634817526e-20 6.9279863526800415e-12 6.850573395433301e-12 7.741295724673984e-14
6.204828454712694 4.3361030555625996e-20 7.141654032162634e-12 7.0636725678761515e-12 7.798146428648234e-14
6.210648424152782 4.427278576570202e-20 7.298661597522686e-12 7.220196256024691e-12 7.846534149799493e-14
6.233982942956859 4.733803410036775e-20 7.833309043360243e-12 7.753158746362496e-12 8.015029699774512e-14
6.239830258556775 4.771130216414643e-20 7.902481331627613e-12 7.822098774673904e-12 8.038255695371224e-14
6.245683058788269 4.7713711596469936e-20 7.910293107332393e-12 7.829677924087412e-12 8.061518324498049e-14
6.257405133728602 4.756072531161504e-20 7.899728694355677e-12 7.81870724290334e-12 8.102145145233445e-14
6.269149208991335 4.687174252991791e-20 7.799901868934655e-12 7.718735503956265e-12 8.116636497839102e-14
6.280915325867298 4.5245550365277476e-20 7.543419272667848e-12 7.462431151681712e-12 8.098812098613711e-14
6.304513850009849 4.127746218457094e-20 6.9077088499886004e-12 6.8273695823032495e-12 8.033926768534956e-14
6.32820103803542 3.642088583478058e-20 6.117869449579512e-12 6.038490102259761e-12 7.937934731975092e-14
6.3519772230701035 3.1983089207836684e-20 5.392607043080792e-12 5.3140886240272886e-12 7.851841905350119e-14
6.375842739491607 2.8241143481275985e-20 4.779575287304462e-12 4.701816287469597e-12 7.775899983486414e-14
6.399797922933955 2.5259681457222052e-20 4.2910498876089894e-12 4.2136813388636414e-12 7.736854874534929e-14
6.42384311029221 2.2771194226441567e-20 3.882846001971547e-12 3.805794398260482e-12 7.705160371106543e-14
6.447978639727206 2.095836608236583e-20 3.5871574968546166e-12 3.5101350750722683e-12 7.702242178234856e-14
6.472204850670314 1.944112561014824e-20 3.3399740604962174e-12 3.262923722930326e-12 7.705033756589203e-14
6.496522083828205 1.8447323672946114e-20 3.181146866775365e-12 3.103835417821254e-12 7.731144895410975e-14
