Dust emission spectrum from A.P. Jones, M. Kohler, N. Ysard, M. Bocchio, and L. Verstraete (2017), A&A, 602A, 46J 
inside the DustPedia framework.

lambda    nu*dP/dnu     j_nu    j_nu(carb.) j_nu(sil)
 (um)   (erg s-1 H-1) (Jy cm2 sr-1 H-1)
0.9927057738263894 1.401912090529262e-20 3.6941179855616954e-13 3.694117918457801e-13 6.710389480825616e-21
1.0001793341362166 1.42548238631355e-20 3.7845057140873544e-13 3.784505633334091e-13 8.075326470781288e-21
1.0077091589558085 1.4491462872912586e-20 3.8762954139563675e-13 3.8762953169068316e-13 9.704953615887825e-21
1.0114953028030835 1.4610122533970094e-20 3.922718663303919e-13 3.9227185569648795e-13 1.0633903873393246e-20
1.0152956718711033 1.4729003355667684e-20 3.969495637494503e-13 3.9694955210156895e-13 1.1647881360765012e-20
1.0229392996569957 1.4967296324760725e-20 4.064083794988569e-13 4.0640836553756023e-13 1.3961296629790835e-20
1.0267826658714554 1.5086437765963332e-20 4.1118254184266896e-13 4.111825265647823e-13 1.527788677671961e-20
1.0306404723013447 1.5205778576677112e-20 4.159922961858093e-13 4.159922794727546e-13 1.671305455479341e-20
1.03451277320114 1.5325315076004698e-20 4.208377619994122e-13 4.208377437224751e-13 1.8276937080660864e-20
1.0383996230291617 1.5445043694613498e-20 4.2571906154249734e-13 4.2571904156200906e-13 1.9980488204093265e-20
1.0403485208654093 1.5504978964425708e-20 4.2817318796212144e-13 4.281731670738203e-13 2.088830093411456e-20
1.0423010764483396 1.5564960977528815e-20 4.306363199891792e-13 4.3063629815363917e-13 2.1835539976971314e-20
1.0462171883269815 1.5685063586905355e-20 4.3558966555759445e-13 4.35589641702726e-13 2.3854868393626732e-20
1.0471985131304309 1.571511781673042e-20 4.368336558884218e-13 4.368336315014604e-13 2.4386961427521447e-20
1.048180758391296 1.5745183378644314e-20 4.380799119450784e-13 4.3807988701467416e-13 2.493040414897142e-20
1.0501480137395462 1.5805348304775356e-20 4.4057922964051185e-13 4.4057920358824807e-13 2.6052263672063868e-20
1.0521189612883777 1.58655579822302e-20 4.430876355857267e-13 4.4308760836338524e-13 2.7222341533893336e-20
1.0531058218030118 1.5895639604225913e-20 4.443441371805492e-13 4.443441093544344e-13 2.782611482259766e-20
1.0540936079674168 1.5925601619311205e-20 4.4559925947278393e-13 4.455992310299602e-13 2.844282375983595e-20
1.058054026499678 1.6045553970611134e-20 4.5064233960949315e-13 4.5064230856653607e-13 3.104295704334235e-20
1.0590464539527713 1.6075567912090452e-20 4.5190876826809867e-13 4.5190873654043133e-13 3.1727667456879605e-20
1.06003981227728 1.610559210919107e-20 4.531774647800888e-13 4.5317743235328094e-13 3.242680783646257e-20
1.0620293250338977 1.6165671102712555e-20 4.557216702891096e-13 4.557216364195703e-13 3.386953932164411e-20
1.0660195594769086 1.6285950343527027e-20 4.608373945631864e-13 4.608373576219447e-13 3.6941241774141623e-20
1.070024785945596 1.6406389155541844e-20 4.65989659366242e-13 4.6598961908806e-13 4.027818214853701e-20
1.0740450607676866 1.6526985138379905e-20 4.71178615656029e-13 4.71178571754e-13 4.390202907296274e-20
1.07808044048254 1.6647736031325365e-20 4.764044185552262e-13 4.76404370719113e-13 4.783611327945896e-20
1.0861967418109137 1.6889509357645378e-20 4.869618764278434e-13 4.86961819690491e-13 5.673735240645246e-20
1.0902777775684922 1.7010107687516804e-20 4.922816599314752e-13 4.922815981708734e-13 6.176060184245543e-20
1.0943741465085532 1.713084607755607e-20 4.97638612694151e-13 4.97638545487625e-13 6.720652595898535e-20
1.1026131145906286 1.7372737230149272e-20 5.084647351650742e-13 5.084646556618486e-13 7.950322540572793e-20
1.1109141095355224 1.7615172764854887e-20 5.194417137969158e-13 5.194416198697723e-13 9.392714354520705e-20
1.1192775983109025 1.785795528308822e-20 5.305654625009832e-13 5.30565351677237e-13 1.1082374606404638e-19
1.1277040513999907 1.810020703024521e-20 5.418113719499619e-13 5.41811241359256e-13 1.3059070582906693e-19
1.1361939428280308 1.834296036797473e-20 5.532116667787713e-13 5.532115130936096e-13 1.5368516152218763e-19
1.1447477501889525 1.8586216119383062e-20 5.647681730646947e-13 5.647679924327984e-13 1.8063189638686218e-19
1.1533659546722406 1.8830064504280122e-20 5.764854737584788e-13 5.764852617256453e-13 2.1203283349612201e-19
1.1707974979042381 1.9320276492021145e-20 6.00433003859453e-13 6.004327128043559e-13 2.910550971480017e-19
1.1884924949847024 1.981293076644311e-20 6.250497684455292e-13 6.250493709207631e-13 3.975247661598637e-19
1.2064549276569216 2.0311352434935703e-20 6.504581754340629e-13 6.504576351756643e-13 5.402583985082041e-19
1.2246888378427687 2.0812308075038282e-20 6.765742091479134e-13 6.765734785078643e-13 7.306400490990094e-19
1.2431983285522175 2.13153841494034e-20 7.034010537534242e-13 7.034000704364838e-13 9.833169404192837e-19
1.2619875648066055 2.1821307450160366e-20 7.30979633597194e-13 7.309783165582459e-13 1.3170389482354786e-18
1.3004222497298317 2.2838544571725398e-20 7.883557667448497e-13 7.88353437340304e-13 2.329404545613595e-18
1.3400274889804893 2.386696428789802e-20 8.48946503147389e-13 8.489424587953572e-13 4.044352031731542e-18
1.3808389325824078 2.491016782322031e-20 9.130385402595073e-13 9.130316439778252e-13 6.896281682195639e-18
1.4228933163050095 2.597666816254357e-20 9.811269809618642e-13 9.811154262687149e-13 1.1554693149453813e-17
1.466228494730424 2.7084692043184383e-20 1.054131983163208e-12 1.0541129506281543e-12 1.9032535053419597e-17
1.5108834753276823 2.8231489356855605e-20 1.132228791498375e-12 1.1321979581177926e-12 3.0833380582436944e-17
1.5568984535646726 2.941537449282736e-20 1.2156375375817994e-12 1.2155883573416522e-12 4.9180240147248584e-17
1.6043148490894465 3.064238973153389e-20 1.3049133319311298e-12 1.3048359538844151e-12 7.737804671441555e-17
1.6531753430134553 3.1918691220180376e-20 1.4006622621255268e-12 1.4005423159331345e-12 1.1994619239254726e-16
1.7035239163302658 3.325134050217016e-20 1.503580990735331e-12 1.5033977601571928e-12 1.8323057813860042e-16
1.755405889504358 3.466333209409106e-20 1.615166476747764e-12 1.614890502473068e-12 2.759742746958647e-16
1.8088679632656115 3.615200297534924e-20 1.7358358925005456e-12 1.7354259234586027e-12 4.0996904194264606e-16
1.8639582606462262 3.7713452827129895e-20 1.865958204654906e-12 1.8653572845549944e-12 6.009200999116158e-16
1.9207263702978936 3.934846504973388e-20 2.0061468841539944e-12 2.005277468226124e-12 8.694159278701738e-16
1.979223391128241 4.1059460768120715e-20 2.1571358150775257e-12 2.1558937348854797e-12 1.2420801920466935e-15
2.039501978296691 4.284712481215133e-20 2.3196114752675878e-12 2.317858661803002e-12 1.7528134645864002e-15
2.1016163906111602 4.472440578240754e-20 2.494982243105063e-12 2.492537895331601e-12 2.4443477734620143e-15
2.1656225393682647 4.669330522872177e-20 2.6841501898727156e-12 2.6807805874895045e-12 3.369602383211306e-15
2.231578038680979 4.874050172431951e-20 2.8871643548620688e-12 2.882571153266709e-12 4.5932015953603646e-15
2.299542257339062 5.085890341626787e-20 3.104401036724693e-12 3.098207996572576e-12 6.193040152116698e-15
2.369576372248914 5.304560833996134e-20 3.3364880839804654e-12 3.328226154112679e-12 8.26192986778638e-15
2.4417434235010123 5.529864968418093e-20 3.584131920632848e-12 3.5732231411363637e-12 1.0908779496484613e-14
2.5161083711144245 5.76255432080961e-20 3.848697768002146e-12 3.834437589110196e-12 1.426017889194985e-14
2.5927381535095444 6.004656231308376e-20 4.132532146554193e-12 4.114070908156875e-12 1.8461238397318238e-14
2.6717017477616296 6.257752365108421e-20 4.437882308246006e-12 4.4142071938842575e-12 2.3675114361747635e-14
2.753070231689431 6.524783463819324e-20 4.768182033825976e-12 4.73809903870023e-12 3.008299512574568e-14
2.836916847834745 6.81579104948152e-20 5.132539583002661e-12 5.0946548463867974e-12 3.7884736615862735e-14
2.9233170693905177 7.154354418273176e-20 5.551569821718043e-12 5.504281950161973e-12 4.728787155607022e-14
2.967498994190263 7.36545625181864e-20 5.8017587749126454e-12 5.749203813503802e-12 5.2554961408844384e-14
3.0123486681368425 7.591452910413354e-20 6.07015210795555e-12 6.011819396433518e-12 5.833271152203205e-14
3.0578761833420214 7.978177315521215e-20 6.475793831251533e-12 6.411112822340524e-12 6.468100891101031e-14
3.1040917844459814 8.434483851088546e-20 6.949643045080594e-12 6.878065388552886e-12 7.157765652770464e-14
3.127460860933648 8.869352727142656e-20 7.362973598026798e-12 7.287707929542017e-12 7.526566848477945e-14
3.1510058709225794 9.425484196729986e-20 7.883558869280642e-12 7.80445233756442e-12 7.910653171622155e-14
3.162844764501044 9.93403705901793e-20 8.34013509923262e-12 8.259042204652778e-12 8.109289457984382e-14
3.1747281389236908 1.0510456248948751e-19 8.857222265935339e-12 8.774103527862818e-12 8.311873807251947e-14
3.1986289994194426 1.2076328685314256e-19 1.0253407745295988e-11 1.0166106413211231e-11 8.730133208475922e-14
3.2227097969389145 1.5720448355992155e-19 1.3447933739016525e-11 1.335620380630842e-11 9.172993270810273e-14
3.2348180950136065 1.9145598733399392e-19 1.6439486553012578e-11 1.63453941265383e-11 9.409242647428031e-14
3.240889293275058 2.170600352335545e-19 1.8672974248400085e-11 1.8577635664192215e-11 9.533858420786919e-14
3.2469718861334385 2.4673937434966357e-19 2.126602991815816e-11 2.116940193125931e-11 9.662798689885026e-14
3.2714166318528037 4.0253135360864273e-19 3.495465371334301e-11 3.4852700055045615e-11 1.0195365829739002e-13
3.2744851364798273 4.1225848358387385e-19 3.583290828068962e-11 3.573032778105555e-11 1.0258049963407074e-13
3.2775565192852394 4.2224618114695616e-19 3.673544905490966e-11 3.663223865222217e-11 1.0321040268749066e-13
3.283707930232385 4.126001899749578e-19 3.5963618201741654e-11 3.585928289628821e-11 1.0433530545343419e-13
3.2898708863219004 3.820172432556589e-19 3.3360400311595266e-11 3.3255042722812376e-11 1.0535758878288622e-13
3.29141343181113 3.7478904543181003e-19 3.2744529817484717e-11 3.2638915564893787e-11 1.0561425259092139e-13
3.292184975758714 3.712349713338097e-19 3.244162074113018e-11 3.2335877992525583e-11 1.0574274860459553e-13
3.295272960557952 3.490812358320725e-19 3.053425531132133e-11 3.042801300971828e-11 1.0624230160306284e-13
3.3076538914384823 2.717458264050561e-19 2.3859007573120644e-11 2.3750759548562796e-11 1.0824802455784811e-13
3.310756385682612 2.558396006734168e-19 2.2483526315064025e-11 2.237477288035916e-11 1.0875343470486811e-13
3.313861789986515 2.4109846674173177e-19 2.1207929598711092e-11 2.109866916005558e-11 1.0926043865551517e-13
3.3200813396944477 2.20499154299168e-19 1.943233930075985e-11 1.9321987677207162e-11 1.1035162355269314e-13
3.345076488085796 1.8443251253056442e-19 1.6376193772025336e-11 1.626097761296925e-11 1.1521615905608173e-13
3.3482140837626964 1.858714129243734e-19 1.6519437387546763e-11 1.640356217684641e-11 1.1587521070034988e-13
3.3513546224236106 1.8732348511583575e-19 1.6664107062761285e-11 1.654756990958901e-11 1.1653715317227443e-13
3.3576445397418455 1.976142770209712e-19 1.761255928989181e-11 1.74946379156619e-11 1.1792137422990742e-13
3.3702598118196083 2.3495896044181835e-19 2.101961837175946e-11 2.0898793672677845e-11 1.208246990816169e-13
3.382922481734668 2.438144472148821e-19 2.1893788351561296e-11 2.17701439031303e-11 1.2364444843099109e-13
3.389271646505754 2.4838025482521807e-19 2.2345644222134295e-11 2.2220570981490013e-11 1.250732406442739e-13
3.395632727569191 2.5340544508001887e-19 2.2840525222169757e-11 2.2713979524958987e-11 1.2654569721075918e-13
3.421196662673239 2.7780991449045917e-19 2.5228719812289404e-11 2.50960812597967e-11 1.326385524926954e-13
3.4276182099114902 2.733361098500779e-19 2.486903214502188e-11 2.4735036312037078e-11 1.3399583298480648e-13
3.4340518103208963 2.531551662535654e-19 2.3076134993670008e-11 2.294085659738617e-11 1.3527839628383681e-13
3.4469541582030403 2.2418053951205616e-19 2.051175642752459e-11 2.037401872422089e-11 1.377377033037005e-13
3.472904465399547 2.1602222982275616e-19 1.991410140806594e-11 1.977069492079838e-11 1.4340648726756213e-13
3.4990501388274233 2.037542795164342e-19 1.8924583834982742e-11 1.8775381854949568e-11 1.4920198003317384e-13
3.5253949054701885 1.6060700562162777e-19 1.5029401648050943e-11 1.4874578111400584e-11 1.5482353665035986e-13
3.5519380250092896 1.1953261378310952e-19 1.126993026453286e-11 1.1109463620607198e-11 1.6046664392566423e-13
3.578680990867387 1.0344637046642034e-19 9.82669953369629e-12 9.660048856780997e-12 1.6665067691529542e-13
3.605625307711299 9.719356046421736e-20 9.302239528752769e-12 9.129080262026275e-12 1.73159266726492e-13
3.660119384959845 9.310250462491346e-20 9.04536401211418e-12 8.858550749624138e-12 1.868132624900395e-13
3.715437065384467 9.026907879827759e-20 8.902630588532819e-12 8.701452734378508e-12 2.0117785415431144e-13
3.8285932144167436 8.966572329080947e-20 9.112449078027243e-12 8.880501855805628e-12 2.319472222216132e-13
3.94519561050918 9.027598939656014e-20 9.453883172526383e-12 9.188539799712477e-12 2.653433728139077e-13
4.06534921144712 9.126946033873497e-20 9.849014410541519e-12 9.54772605579462e-12 3.0128835474689987e-13
4.189162171576248 9.240356589592264e-20 1.0275082968847242e-11 9.935274320581875e-12 3.3980864826537027e-13
4.316745939156006 9.35789850999709e-20 1.0722702407690165e-11 1.0341989249999718e-11 3.807131576904423e-13
4.448215356677963 9.47548853460866e-20 1.1188113115816296e-11 1.0764733963361995e-11 4.2337915245430175e-13
4.58368876423945 9.592761978630738e-20 1.1671541611672048e-11 1.1203728757406822e-11 4.678128542652241e-13
4.723288106065518 9.711896684019655e-20 1.2176372448887665e-11 1.1662124176223674e-11 5.142482726639893e-13
4.867139040275056 9.83620337693179e-20 1.2707809208140125e-11 1.2146445366095141e-11 5.613638420449827e-13
4.940699165968905 9.907190670409776e-20 1.2992967895947036e-11 1.2407657398103104e-11 5.853104978439286e-13
5.015371051989984 9.974635834214381e-20 1.3279127808263637e-11 1.2669694483186106e-11 6.094333250775358e-13
5.091171501069577 1.0059859577823441e-19 1.3594995825196262e-11 1.2960728049396879e-11 6.342677757993849e-13
5.129500256944802 1.0101014591714573e-19 1.3753381422241437e-11 1.3106660874837101e-11 6.467205474043356e-13
5.168117569889187 1.0143098413760576e-19 1.3914655458324477e-11 1.3255330390474946e-11 6.593250678495293e-13
5.20702561229733 1.0200543703580509e-19 1.4098810322916008e-11 1.342567725341174e-11 6.731330695042701e-13
5.246226572918644 1.0257568071949352e-19 1.4284363182269742e-11 1.3597364180393943e-11 6.869990018758021e-13
5.265937586045735 1.0285933212879109e-19 1.4377680897386228e-11 1.3683729278277157e-11 6.939516191090727e-13
5.285722656980489 1.0314206379706526e-19 1.44713691470755e-11 1.3770452928236764e-11 7.009162188387347e-13
5.305582063971359 1.0342392300636014e-19 1.4565435572356238e-11 1.3857543617435336e-11 7.078919549209051e-13
5.3255160863122235 1.0373515578058157e-19 1.4664156853989177e-11 1.3949219373685533e-11 7.149374803036446e-13
5.365609099470188 1.0458930088917554e-19 1.4896207831046567e-11 1.4166690221885128e-11 7.295176091614447e-13
5.406003951863644 1.0545348744094529e-19 1.513236258067678e-11 1.4388208720156477e-11 7.441538605203052e-13
5.446702915881641 1.0632896907884194e-19 1.5372861838557268e-11 1.4614022387769886e-11 7.588394507873834e-13
5.487708281020852 1.0727455473668607e-19 1.5626336435787646e-11 1.4852701612623517e-11 7.736348231641256e-13
5.529022354014368 1.0874583680469818e-19 1.595990928030771e-11 1.5170852643156157e-11 7.890566371515538e-13
5.570647458961463 1.1027098410957295e-19 1.630558400736466e-11 1.5501049817784057e-11 8.045341895805976e-13
5.612585937458331 1.1185502470510886e-19 1.6664332979343714e-11 1.5844272409493085e-11 8.200605698506246e-13
5.654840148729818 1.1358981409197873e-19 1.705018731600581e-11 1.6214476059683605e-11 8.357112563222057e-13
5.67608639626678 1.1486663389688488e-19 1.730662266213485e-11 1.646271380299787e-11 8.439088591369791e-13
5.686739436050992 1.1551984076015912e-19 1.7437705717402824e-11 1.6589692170896853e-11 8.480135465059733e-13
5.6974124697621304 1.1618325433486492e-19 1.7570763444608663e-11 1.6718641432795898e-11 8.521220118127705e-13
5.718818669136295 1.1754176697683917e-19 1.7843004063399548e-11 1.6982654227499267e-11 8.603498359002755e-13
5.740305295436557 1.1905216437038484e-19 1.814018530361381e-11 1.7271528244674673e-11 8.68657058939136e-13
5.7835210386641895 1.2311355787762226e-19 1.890025375412972e-11 1.8014432894212486e-11 8.858208599172335e-13
5.827062130521658 1.2774122940559634e-19 1.9758327211201837e-11 1.8855113928614704e-11 9.032132825871276e-13
5.8489554468988025 1.3112590432128999e-19 2.0358053092729627e-11 1.944541719049395e-11 9.126359022356813e-13
5.870931020387893 1.3471558204098225e-19 2.0993954064019625e-11 2.007186625008265e-11 9.220878139369756e-13
5.892989160043636 1.3852650038935884e-19 2.166895351934856e-11 2.0737385373602444e-11 9.315681457461203e-13
5.915130176081913 1.4286711524678234e-19 2.2431897683003155e-11 2.149049254980146e-11 9.414051332016948e-13
5.95966208400165 1.5525495496100449e-19 2.4560462361847486e-11 2.359646098971515e-11 9.64001372132334e-13
6.004529249263818 1.7316895922677274e-19 2.7600595003546102e-11 2.6611064428264428e-11 9.895305752816746e-13
6.027089341400364 1.8569874970231694e-19 2.970886374281064e-11 2.8704491793177595e-11 1.0043719496330523e-12
6.049734195844842 2.004026878174843e-19 3.218172125009212e-11 3.116160889914888e-11 1.020112350943237e-12
6.095279466722835 2.429853187375393e-19 3.931362492193822e-11 3.8254513680036443e-11 1.0591112419017908e-12
6.141167624020661 3.0812270460660605e-19 5.0227791874990394e-11 4.911768292482648e-11 1.1101089501639155e-12
6.164241091010745 3.4965440315751885e-19 5.721212131274732e-11 5.606982075516317e-11 1.1423005575841494e-12
6.187401249150058 3.9640379916877006e-19 6.510517668744936e-11 6.392985563353433e-11 1.1753210539150282e-12
6.1990139391386085 4.1909909545223223e-19 6.896182870753793e-11 6.776971249073325e-11 1.1921162168046459e-12
6.204828454712694 4.3100715456590555e-19 7.098779581236603e-11 6.978720030003746e-11 1.2005955123285848e-12
6.210648424152782 4.395981893596974e-19 7.247066945368791e-11 7.126289065746742e-11 1.2077787962204858e-12
6.233982942956859 4.683360159075949e-19 7.749837563938403e-11 7.626572653033623e-11 1.2326491090477947e-12
6.239830258556775 4.717483079137938e-19 7.813624922015093e-11 7.6900280168342e-11 1.2359690518089177e-12
6.245683058788269 4.716191264782483e-19 7.818812246295716e-11 7.694882950535216e-11 1.2392929576050448e-12
6.257405133728602 4.698532878375617e-19 7.804156635015165e-11 7.679653212296263e-11 1.2450342271890101e-12
6.269149208991335 4.6297343877084185e-19 7.704316493099915e-11 7.579639202284444e-11 1.2467729081547379e-12
6.280915325867298 4.471656058329805e-19 7.455225147848664e-11 7.330868444866183e-11 1.2435670298248294e-12
6.304513850009849 4.087891021908777e-19 6.841011897379495e-11 6.717743025291181e-11 1.2326887208831475e-12
6.32820103803542 3.6207434747747514e-19 6.0820145862392e-11 5.960308701764093e-11 1.2170588447510887e-12
6.3519772230701035 3.194588884895201e-19 5.3863347622506624e-11 5.2660399545841694e-11 1.2029480766649271e-12
6.375842739491607 2.8353129347722926e-19 4.7985279504695354e-11 4.67948801999427e-11 1.1903993047526658e-12
6.399797922933955 2.5493115340379042e-19 4.3307050368546884e-11 4.21235773666859e-11 1.1834730018609848e-12
6.42384311029221 2.310519229067032e-19 3.939797913911719e-11 3.82203086332847e-11 1.1776705058324913e-12
6.447978639727206 2.1363183064845893e-19 3.6564444950800765e-11 3.53882026277777e-11 1.1762423230230724e-12
6.472204850670314 1.9903791557427097e-19 3.419459800857859e-11 3.301891903582864e-11 1.1756789727499582e-12
6.496522083828205 1.8942370809678694e-19 3.266515220247283e-11 3.148650139958739e-11 1.1786508028854432e-12
6.520930681187647 1.812528449888548e-19 3.137356341409227e-11 3.019141438409388e-11 1.1821490299983837e-12
