Dust emission spectrum from A.P. Jones, M. Kohler, N. Ysard, M. Bocchio, and L. Verstraete (2017), A&A, 602A, 46J 
inside the DustPedia framework.

lambda    nu*dP/dnu     j_nu    j_nu(carb.) j_nu(sil)
 (um)   (erg s-1 H-1) (Jy cm2 sr-1 H-1)
0.9927057738263894 6.076659661690868e-21 1.6012343355933793e-13 1.6012343094914982e-13 2.6101880549947712e-21
1.0001793341362166 6.1789032442247455e-21 1.64043378291297e-13 1.6404337514990842e-13 3.1413886561098024e-21
1.0077091589558085 6.2815326261263654e-21 1.6802358964590227e-13 1.6802358587023238e-13 3.77566988507116e-21
1.0114953028030835 6.332986928671152e-21 1.700363974483894e-13 1.7003639331112483e-13 4.1372645251569475e-21
1.0152956718711033 6.384531682227829e-21 1.7206439599524396e-13 1.720643914632655e-13 4.53197850017232e-21
1.0229392996569957 6.487834710285956e-21 1.7616477511050433e-13 1.7616476967789715e-13 5.432607163556988e-21
1.0267826658714554 6.5394754251790446e-21 1.7823413116841171e-13 1.7823412522320318e-13 5.945208490495456e-21
1.0306404723013447 6.591196551599722e-21 1.8031875015709555e-13 1.8031874365308574e-13 6.504009840079673e-21
1.03451277320114 6.642996343427012e-21 1.8241867787209767e-13 1.8241867075913336e-13 7.112964258778407e-21
1.0383996230291617 6.694873101564839e-21 1.845339612045439e-13 1.8453395342820025e-13 7.776343618759602e-21
1.0403485208654093 6.72083982518845e-21 1.8559737619355835e-13 1.8559736806368764e-13 8.129870669491994e-21
1.0423010764483396 6.746825175149803e-21 1.8666464819484198e-13 1.8666463969607937e-13 8.498762643862026e-21
1.0462171883269815 6.798850962749998e-21 1.8881078808712068e-13 1.888107788019161e-13 9.285204607701862e-21
1.0471985131304309 6.811868744600078e-21 1.893497434659908e-13 1.8934973397355085e-13 9.492439956505044e-21
1.048180758391296 6.82489101266762e-21 1.898896686029971e-13 1.8988965889889815e-13 9.704098963406302e-21
1.0501480137395462 6.850948913554167e-21 1.9097243138439628e-13 1.909724212433475e-13 1.0141048809638607e-20
1.0521189612883777 6.877024479661135e-21 1.92059082950065e-13 1.9205907235327169e-13 1.0596793255260561e-20
1.0531058218030118 6.890051464674169e-21 1.9260338365914502e-13 1.9260337282717708e-13 1.0831967937493335e-20
1.0540936079674168 6.90302590631265e-21 1.931470663089084e-13 1.9314705523672367e-13 1.1072184770772504e-20
1.058054026499678 6.954964404020513e-21 1.9533145671811134e-13 1.9533144463309774e-13 1.208501351873845e-20
1.0590464539527713 6.967959103799249e-21 1.9587997345786617e-13 1.9587996110612736e-13 1.2351738850332028e-20
1.06003981227728 6.980957791503283e-21 1.9642945954684083e-13 1.9642944692275124e-13 1.2624089604654978e-20
1.0620293250338977 7.006967048008125e-21 1.9753134320808993e-13 1.9753133002196955e-13 1.3186120339784645e-20
1.0660195594769086 7.0590325190582e-21 1.997467808510508e-13 1.997467664682599e-13 1.438279082774612e-20
1.070024785945596 7.111159554954882e-21 2.0197782627831264e-13 2.0197781059543697e-13 1.5682875675331164e-20
1.0740450607676866 7.163346951594813e-21 2.0422453773968493e-13 2.0422452064485348e-13 1.7094831479443503e-20
1.07808044048254 7.215593564084178e-21 2.0648697516347423e-13 2.0648695653571002e-13 1.8627764254734743e-20
1.0861967418109137 7.320179761087202e-21 2.110569583026127e-13 2.1105693620609692e-13 2.2096515731934164e-20
1.0902777775684922 7.372334557966545e-21 2.1335932496355417e-13 2.133593009093213e-13 2.4054232862512838e-20
1.0943741465085532 7.424541438578362e-21 2.156775260636439e-13 2.1567749988682301e-13 2.6176820905334087e-20
1.1026131145906286 7.529108246802519e-21 2.203617069678504e-13 2.2036167599781324e-13 3.097003706418451e-20
1.1109141095355224 7.633874443079621e-21 2.2511007280810073e-13 2.251100362149017e-13 3.6593199019344766e-20
1.1192775983109025 7.738752805921415e-21 2.299207774107737e-13 2.299207342295339e-13 4.3181239785378724e-20
1.1277040513999907 7.843360274981675e-21 2.347830488449436e-13 2.347829979554326e-13 5.088951089652612e-20
1.1361939428280308 7.948144251866683e-21 2.3971082318043284e-13 2.397107632838087e-13 5.989662423542612e-20
1.1447477501889525 8.053103632053202e-21 2.4470481762192665e-13 2.447047472142685e-13 7.040765807694237e-20
1.1533659546722406 8.15827657589101e-21 2.4976695835726943e-13 2.4976687569939183e-13 8.265787752243373e-20
1.1707974979042381 8.369581191295229e-21 2.601087400488468e-13 2.6010862655573766e-13 1.1349310907398132e-19
1.1884924949847024 8.581751932605851e-21 2.7073339737386215e-13 2.7073324232311193e-13 1.550507501804597e-19
1.2064549276569216 8.79622691367398e-21 2.816935862493928e-13 2.8169337546972006e-13 2.1077967278095458e-19
1.2246888378427687 9.011582528080665e-21 2.9295185810841966e-13 2.929515729736558e-13 2.8513476379676105e-19
1.2431983285522175 9.22762976419344e-21 3.0450891498297477e-13 3.0450853113291804e-13 3.838500567545677e-19
1.2619875648066055 9.444667380083507e-21 3.163815695603554e-13 3.163810552919125e-13 5.142684428761491e-19
1.3004222497298317 9.880292180772007e-21 3.4105436506137233e-13 3.4105345496458473e-13 9.10096787402484e-19
1.3400274889804893 1.0319633930635654e-20 3.67068766412683e-13 3.670671853491371e-13 1.5810635458407597e-18
1.3808389325824078 1.0764157074294975e-20 3.9454131068024996e-13 3.9453861307123683e-13 2.6976090133034505e-18
1.4228933163050095 1.1217476148582786e-20 4.2367898911455663e-13 4.236744664777498e-13 4.5226368068258575e-18
1.466228494730424 1.1687446403327221e-20 4.54873588210255e-13 4.548661339479934e-13 7.454262261589281e-18
1.5108834753276823 1.2172798019621755e-20 4.881921820239817e-13 4.881800980657774e-13 1.2083958204269051e-17
1.5568984535646726 1.2672754168688891e-20 5.237218950165301e-13 5.23702608074898e-13 1.9286941632101066e-17
1.6043148490894465 1.318993121138544e-20 5.616963048831306e-13 5.616659395379199e-13 3.036534521080687e-17
1.6531753430134553 1.3727019818520855e-20 6.023717732854683e-13 6.023246712966936e-13 4.710198877476775e-17
1.7035239163302658 1.4287156820380892e-20 6.460460565605564e-13 6.459740540177985e-13 7.200254275797722e-17
1.755405889504358 1.4880444567024623e-20 6.93366556871162e-13 6.932580342177788e-13 1.0852265338315638e-16
1.8088679632656115 1.550586195245958e-20 7.4451287635683e-13 7.443515483851623e-13 1.6132797166741633e-16
1.8639582606462262 1.6161920715229062e-20 7.996475077421019e-13 7.994108683271307e-13 2.3663941497110397e-16
1.9207263702978936 1.6849205937341326e-20 8.590419460820846e-13 8.586993244753907e-13 3.4262160669383463e-16
1.979223391128241 1.756905724787941e-20 9.230233889475087e-13 9.2253354386173e-13 4.89845085778846e-16
2.039501978296691 1.8322122170686217e-20 9.91903307974716e-13 9.912115214319559e-13 6.917865427600137e-16
2.1016163906111602 1.9114396744656596e-20 1.0663099851478062e-12 1.0653445298186607e-12 9.654553291454733e-16
2.1656225393682647 1.9947166869688868e-20 1.1466567097452783e-12 1.1453247646932677e-12 1.3319450520107275e-15
2.231578038680979 2.0815125053828926e-20 1.232992787750182e-12 1.231175735152903e-12 1.817052597279325e-15
2.299542257339062 2.1715649054508283e-20 1.3255119341877485e-12 1.3230600140964326e-12 2.451920091315971e-15
2.369576372248914 2.2647995865322214e-20 1.4245244930815604e-12 1.4212507795509398e-12 3.273713530620734e-15
2.4417434235010123 2.3611832285489974e-20 1.5303795351672585e-12 1.526053414080488e-12 4.3261210867704855e-15
2.5161083711144245 2.461099263707506e-20 1.6437202524681851e-12 1.6380602361968387e-12 5.660016271347021e-15
2.5927381535095444 2.5654968912362508e-20 1.765629532568353e-12 1.7582957013580117e-12 7.333831210341814e-15
2.6717017477616296 2.675151386174141e-20 1.897167915236976e-12 1.8877545049927476e-12 9.413410244228079e-15
2.753070231689431 2.7914555664597225e-20 2.039940230051032e-12 2.027968178794118e-12 1.1972051256914438e-14
2.836916847834745 2.9189732891502385e-20 2.1980934919404166e-12 2.1830026859676154e-12 1.509080597280133e-14
2.9233170693905177 3.068370849815729e-20 2.380966054486836e-12 2.3621118470311827e-12 1.8854207455653392e-14
2.967498994190263 3.1621234825111596e-20 2.4907998954561153e-12 2.4698349325131294e-12 2.0964962942985494e-14
3.0123486681368425 3.262758917767281e-20 2.608913360348753e-12 2.5856318134513635e-12 2.3281546897389794e-14
3.0578761833420214 3.435737366578393e-20 2.7887481017755762e-12 2.7629200210105577e-12 2.582808076501789e-14
3.1040917844459814 3.64047216841361e-20 2.99958865683997e-12 2.9709922710721896e-12 2.859638576778022e-14
3.127460860933648 3.8359032848001786e-20 3.184409897707038e-12 3.154332434403839e-12 3.007746330319993e-14
3.1510058709225794 4.086166570917884e-20 3.4177060869396705e-12 3.3860856419071206e-12 3.162044503255044e-14
3.162844764501044 4.3149210039102e-20 3.622598134205587e-12 3.5901795123606727e-12 3.241862184491382e-14
3.1747281389236908 4.5745066266121513e-20 3.854963189913894e-12 3.82173038688224e-12 3.3232803031654156e-14
3.1986289994194426 5.2804298401048085e-20 4.483349338351814e-12 4.448435134772402e-12 3.4914203579412384e-14
3.2227097969389145 6.923429827699923e-20 5.9225935203145826e-12 5.885898490618602e-12 3.669502969598095e-14
3.2348180950136065 8.468161747643438e-20 7.2712393651218035e-12 7.233594198551298e-12 3.764516657050399e-14
3.240889293275058 9.622839412811684e-20 8.278218160177688e-12 8.240071820104586e-12 3.814634007310402e-14
3.2469718861334385 1.0961187813024012e-19 9.447253750428305e-12 9.408588843816535e-12 3.866490661176947e-14
3.2714166318528037 1.7992821368629888e-19 1.5624443527893984e-11 1.5583636329306112e-11 4.080719858787674e-14
3.2744851364798273 1.8432111965680063e-19 1.602092385689479e-11 1.5979864381451818e-11 4.105947544297166e-14
3.2775565192852394 1.8883219654735055e-19 1.6428415095073714e-11 1.638710209915681e-11 4.1312995916908044e-14
3.283707930232385 1.8448654804062917e-19 1.608046709210955e-11 1.603870109558961e-11 4.176599651993923e-14
3.2898708863219004 1.7069267097580743e-19 1.4906070169710856e-11 1.486389226298155e-11 4.217790672930851e-14
3.29141343181113 1.6743286228706155e-19 1.4628256664409366e-11 1.4585975333790843e-11 4.228133061852195e-14
3.292184975758714 1.658300788039613e-19 1.4491621047178765e-11 1.444928793759257e-11 4.2333109586195474e-14
3.295272960557952 1.5583092755999674e-19 1.363058462932081e-11 1.3588050174618642e-11 4.253445470216658e-14
3.3076538914384823 1.2093793853616493e-19 1.0618228178823911e-11 1.0574885199706262e-11 4.3342979117652124e-14
3.310756385682612 1.1376493501098753e-19 9.997814659334953e-12 9.954267921079428e-12 4.354673825552735e-14
3.313861789986515 1.0711878878666024e-19 9.42257228753033e-12 9.378821137952212e-12 4.375114957811987e-14
3.3200813396944477 9.783061536244519e-20 8.621700694351991e-12 8.577509716537781e-12 4.419097781421074e-14
3.345076488085796 8.155911910317295e-20 7.241824773644023e-12 7.195673327092949e-12 4.6151446551073246e-14
3.3482140837626964 8.220868570709157e-20 7.30634805473483e-12 7.2599310152456155e-12 4.641703948921486e-14
3.3513546224236106 8.286426758045793e-20 7.371521119117362e-12 7.324837309063204e-12 4.668381005415797e-14
3.3576445397418455 8.750855944115546e-20 7.799283102236648e-12 7.752041477523134e-12 4.724162471351342e-14
3.3702598118196083 1.0437177394638904e-19 9.337183195785789e-12 9.28877156642939e-12 4.8411629356401326e-14
3.382922481734668 1.0836983160091537e-19 9.731277961037733e-12 9.681729578442868e-12 4.954838259486771e-14
3.389271646505754 1.1043178014900555e-19 9.935046051720566e-12 9.884921583039314e-12 5.0124468681248946e-14
3.395632727569191 1.1269856982156767e-19 1.0158007953219569e-11 1.0107289792873462e-11 5.0718160346107687e-14
3.421196662673239 1.2369949091134358e-19 1.1233507640823607e-11 1.1180332390562874e-11 5.317525026073252e-14
3.4276182099114902 1.2168241491828406e-19 1.1071072496592185e-11 1.1017349420644844e-11 5.372307594733935e-14
3.4340518103208963 1.1257718027355508e-19 1.0261873173061082e-11 1.0207632199973976e-11 5.424097308710565e-14
3.4469541582030403 9.951117772287131e-20 9.10493410226572e-12 9.04969960064214e-12 5.523450162358093e-14
3.472904465399547 9.584811447235822e-20 8.835799320007692e-12 8.778275411090896e-12 5.752390891679446e-14
3.4990501388274233 9.032482852859763e-20 8.389319693930722e-12 8.329454171159019e-12 5.986552277170379e-14
3.5253949054701885 7.083864357962693e-20 6.628991197741179e-12 6.56685267138768e-12 6.213852635349774e-14
3.5519380250092896 5.22952296235626e-20 4.930567251668042e-12 4.866145666233398e-12 6.442158543464275e-14
3.578680990867387 4.503353110673839e-20 4.277878258386391e-12 4.2109545980880295e-12 6.692366029836174e-14
3.605625307711299 4.221115414111636e-20 4.039961749835569e-12 3.9704038965888275e-12 6.95578532467413e-14
3.660119384959845 4.036758582857524e-20 3.9219085413521354e-12 3.846820915885044e-12 7.508762546709031e-14
3.715437065384467 3.909517207223886e-20 3.855693216190313e-12 3.774782729882794e-12 8.09104863075204e-14
3.8285932144167436 3.884152279282114e-20 3.947343372390944e-12 3.853941621133672e-12 9.34017512572726e-14
3.94519561050918 3.914311599360777e-20 4.099145831419903e-12 3.992158643751297e-12 1.0698718766860704e-13
4.06534921144712 3.962479866490403e-20 4.275967137496229e-12 4.154325513563908e-12 1.2164162393232041e-13
4.189162171576248 4.0176843936613933e-20 4.467580886868689e-12 4.3301986110853885e-12 1.3738227578330015e-13
4.316745939156006 4.0754464637947796e-20 4.669830471345669e-12 4.51569194065993e-12 1.5413853068573988e-13
4.448215356677963 4.133943826589374e-20 4.881123646277786e-12 4.7094597202357255e-12 1.716639260420612e-13
4.58368876423945 4.1930174377297954e-20 5.101656604422007e-12 4.911689034833915e-12 1.8996756958809108e-13
4.723288106065518 4.253662778542235e-20 5.333065615156804e-12 5.12391376985271e-12 2.0915184530409605e-13
4.867139040275056 4.3174646923012805e-20 5.577916140013802e-12 5.3492309909361846e-12 2.2868514907761686e-13
4.940699165968905 4.353701930067023e-20 5.709742679611086e-12 5.4711034833183936e-12 2.386391962926948e-13
5.015371051989984 4.388541141522725e-20 5.8424186786056614e-12 5.593733744761424e-12 2.48684933844235e-13
5.091171501069577 4.431711637316446e-20 5.989059861293443e-12 5.730017300930219e-12 2.5904256036322344e-13
5.129500256944802 4.4527235309989476e-20 6.062757808492898e-12 5.798513894176413e-12 2.6424391431648204e-13
5.168117569889187 4.474217146413759e-20 6.137886817071035e-12 5.8683744217601065e-12 2.695123953109268e-13
5.20702561229733 4.502765221161824e-20 6.223553824831908e-12 5.9482782644095606e-12 2.7527556042234654e-13
5.246226572918644 4.531193416008144e-20 6.309995892727172e-12 6.028927577586936e-12 2.810683151402372e-13
5.265937586045735 4.545367512042706e-20 6.353516233963949e-12 6.069541261901986e-12 2.839749720619618e-13
5.285722656980489 4.5595177172007755e-20 6.397241008097885e-12 6.110352967156434e-12 2.868880409414506e-13
5.305582063971359 4.5736462000831703e-20 6.4411740651112885e-12 6.151366877492031e-12 2.8980718761925744e-13
5.3255160863122235 4.5891382678949525e-20 6.487274528935836e-12 6.194518202085741e-12 2.9275632685009633e-13
5.365609099470188 4.6308010135301193e-20 6.595452281955634e-12 6.2965935523996655e-12 2.9885872955597195e-13
5.406003951863644 4.6730204210468704e-20 6.705689975192939e-12 6.40069944480683e-12 3.049905303861076e-13
5.446702915881641 4.715855149797916e-20 6.818103316203218e-12 6.506954261293545e-12 3.111490549096734e-13
5.487708281020852 4.7620084758151667e-20 6.936663287562661e-12 6.61930416126498e-12 3.1735912629768146e-13
5.529022354014368 4.832441542699242e-20 7.092255748823119e-12 6.768423425905286e-12 3.238323229178341e-13
5.570647458961463 4.9055000544566676e-20 7.25368000312706e-12 6.923344618395086e-12 3.3033538473197326e-13
5.612585937458331 4.9814203611223347e-20 7.421396385783796e-12 7.084530798718148e-12 3.368655870656476e-13
5.654840148729818 5.0644411517498325e-20 7.60188499105225e-12 7.258430990933959e-12 3.434540001182928e-13
5.67608639626678 5.1248924494053583e-20 7.721526852219175e-12 7.374623148455335e-12 3.469037037638378e-13
5.686739436050992 5.1558224753391086e-20 7.782707668615637e-12 7.434075979735913e-12 3.48631688879724e-13
5.6974124697621304 5.187238162201918e-20 7.844825418317239e-12 7.494463712886184e-12 3.5036170543105425e-13
5.718818669136295 5.2515765909471184e-20 7.97196646448127e-12 7.61813880492811e-12 3.538276595531586e-13
5.740305295436557 5.322986815096984e-20 8.110727570995127e-12 7.753399276536817e-12 3.573282944583096e-13
5.7835210386641895 5.514089199570588e-20 8.465167191284078e-12 8.100604965494342e-12 3.6456222578973497e-13
5.827062130521658 5.73172672146161e-20 8.865527016985649e-12 8.493628442262882e-12 3.7189857472276524e-13
5.8489554468988025 5.890213473756849e-20 9.144896216115848e-12 8.769026759238549e-12 3.7586945687730187e-13
5.870931020387893 6.058335271504712e-20 9.441254713631226e-12 9.061400043012178e-12 3.798546706190473e-13
5.892989160043636 6.236853803654838e-20 9.755974113148853e-12 9.372120234221517e-12 3.838538789273365e-13
5.915130176081913 6.440053588631014e-20 1.0111677758992323e-11 9.723675423764502e-12 3.8800233522781967e-13
5.95966208400165 7.018732967497576e-20 1.1103241562846093e-11 1.0705730350451681e-11 3.975112123944104e-13
6.004529249263818 7.85472866727581e-20 1.2519286699894044e-11 1.2111043794978783e-11 4.082429049152631e-13
6.027089341400364 8.439020381913848e-20 1.3501098260003642e-11 1.3086626524398382e-11 4.144717356052593e-13
6.049734195844842 9.124753411920799e-20 1.465301059463347e-11 1.4231934875549783e-11 4.210757190836834e-13
6.095279466722835 1.11099483464966e-19 1.797525646675201e-11 1.7537852045083527e-11 4.3740442166848123e-13
6.141167624020661 1.4147092797819182e-19 2.30615018647283e-11 2.2602785999133955e-11 4.587158655943471e-13
6.164241091010745 1.6084159271219248e-19 2.631766862160727e-11 2.5845519737159676e-11 4.721488844475996e-13
6.187401249150058 1.8265744181378119e-19 2.999957378688164e-11 2.951364183206768e-11 4.859319548139551e-13
6.1990139391386085 1.9325465013401976e-19 3.179962501493025e-11 3.130668183612515e-11 4.929431788050962e-13
6.204828454712694 1.9881584623234174e-19 3.274539308011914e-11 3.224890973189201e-11 4.964833482271306e-13
6.210648424152782 2.0283333290044558e-19 3.3438416669160384e-11 3.293892996922567e-11 4.994866999347153e-13
6.233982942956859 2.162905790191492e-19 3.579090219572854e-11 3.528099894042364e-11 5.099032553049038e-13
6.239830258556775 2.1789971400834753e-19 3.609099613742997e-11 3.557968850954241e-11 5.113076278875648e-13
6.245683058788269 2.178588119175998e-19 3.6118067545407905e-11 3.560535370638291e-11 5.127138390249978e-13
6.257405133728602 2.1707472464799906e-19 3.605561983938811e-11 3.554046868320153e-11 5.151511561865776e-13
6.269149208991335 2.1390747964919155e-19 3.5596230484280935e-11 3.508029987524608e-11 5.159306090348443e-13
6.280915325867298 2.0657786694841824e-19 3.444103232836774e-11 3.392637084388629e-11 5.146614844814506e-13
6.304513850009849 1.887592953092194e-19 3.158852763027878e-11 3.107825582108511e-11 5.102718091936761e-13
6.32820103803542 1.670378847139547e-19 2.805851500838556e-11 2.7554602544807836e-11 5.03912463577731e-13
6.3519772230701035 1.472137516653638e-19 2.4821427001944195e-11 2.432324514913691e-11 4.981818528072803e-13
6.375842739491607 1.304992795866421e-19 2.208590215679074e-11 2.1592804950513736e-11 4.930972062770005e-13
6.399797922933955 1.1719157456819702e-19 1.9908204057569547e-11 1.9417859349829532e-11 4.903447077400151e-13
6.42384311029221 1.0608095342544346e-19 1.8088467464522592e-11 1.7600409645811198e-11 4.880578187113956e-13
6.447978639727206 9.797932971306607e-20 1.676978471202183e-11 1.6282198064060463e-11 4.87586647961362e-13
6.472204850670314 9.119361944142895e-20 1.5667010723810335e-11 1.5179535967588743e-11 4.874747562215956e-13
6.496522083828205 8.67307007352402e-20 1.495626692460361e-11 1.4467435496568019e-11 4.888314280355877e-13
