Dust emission spectrum from A.P. Jones, M. Kohler, N. Ysard, M. Bocchio, and L. Verstraete (2017), A&A, 602A, 46J 
inside the DustPedia framework.

lambda    nu*dP/dnu     j_nu    j_nu(carb.) j_nu(sil)
 (um)   (erg s-1 H-1) (Jy cm2 sr-1 H-1)
0.9927057738263894 9.34130236394402e-22 2.4614862304374502e-14 2.4614862304159503e-14 2.150002587734826e-25
1.0001793341362166 9.495489429780163e-22 2.5209525105387495e-14 2.5209525105128525e-14 2.5897060300664434e-25
1.0077091589558085 9.64945379198403e-22 2.5811150888684472e-14 2.5811150888372932e-14 3.11530982306068e-25
1.0114953028030835 9.726333510454744e-22 2.611454482894842e-14 2.61145448286069e-14 3.4151970795512142e-25
1.0152956718711033 9.803134875004569e-22 2.6419643054210475e-14 2.64196430538362e-14 3.7427383001334753e-25
1.0229392996569957 9.956397140029627e-22 2.703469711248055e-14 2.7034697112031482e-14 4.490754593622216e-25
1.0267826658714554 1.0032672030016562e-21 2.7344159375270816e-14 2.7344159374779138e-14 4.916860153816208e-25
1.0306404723013447 1.0108834866157083e-21 2.765525886445471e-14 2.7655258863916544e-14 5.381647055156863e-25
1.03451277320114 1.0184878305092788e-21 2.7967982197394547e-14 2.7967982196805697e-14 5.888454540641288e-25
1.0383996230291617 1.026079504449024e-21 2.8282315825002934e-14 2.828231582435884e-14 6.440894099920894e-25
1.0403485208654093 1.029870363144618e-21 2.84400822204967e-14 2.844008221982316e-14 6.735434026244055e-25
1.0423010764483396 1.033657782444238e-21 2.8598246034962675e-14 2.859824603425838e-14 7.042870257309776e-25
1.0462171883269815 1.041221942883918e-21 2.891575895495102e-14 2.891575895418115e-14 7.698602830417492e-25
1.0471985131304309 1.0431106929898799e-21 2.8995382842753466e-14 2.899538284196631e-14 7.871461855693485e-25
1.048180758391296 1.0449985047475977e-21 2.9075104553147656e-14 2.9075104552342854e-14 8.0480385081614605e-25
1.0501480137395462 1.0487712686707123e-21 2.923484055586664e-14 2.923484055502538e-14 8.41265075436088e-25
1.0521189612883777 1.05254014574282e-21 2.9394965185503403e-14 2.93949651846241e-14 8.79306660468652e-25
1.0531058218030118 1.054420202756094e-21 2.947509171602238e-14 2.9475091715123437e-14 8.98941625058626e-25
1.0540936079674168 1.0562897658429703e-21 2.9555049077553494e-14 2.9555049076634496e-14 9.190006310437661e-25
1.058054026499678 1.0637573568980278e-21 2.987582136256276e-14 2.987582136155915e-14 1.0036098207259715e-24
1.0590464539527713 1.0656215347864828e-21 2.995624900213545e-14 2.995624900110955e-14 1.0259002499997493e-24
1.06003981227728 1.067484602973913e-21 3.0036770010549795e-14 3.003677000950113e-14 1.0486644738371094e-24
1.0620293250338977 1.071207366905568e-21 3.019809121257519e-14 3.019809121147953e-14 1.0956528182942581e-24
1.0660195594769086 1.0786391027616408e-21 3.052184387804024e-14 3.052184387684449e-14 1.1957491283298493e-24
1.070024785945596 1.086051876632832e-21 3.084706447276071e-14 3.084706447145615e-14 1.3045668741269174e-24
1.0740450607676866 1.0934450060695236e-21 3.11737379771336e-14 3.117373797571078e-14 1.4228263590317966e-24
1.07808044048254 1.100817814116039e-21 3.1501849241385126e-14 3.150184923983383e-14 1.5513038684077387e-24
1.0861967418109137 1.1154867453837884e-21 3.216194781979189e-14 3.216194781794956e-14 1.842322869377793e-24
1.0902777775684922 1.1227518881733097e-21 3.2493043157320634e-14 3.24930431553139e-14 2.0067353544895388e-24
1.0943741465085532 1.129993540853379e-21 3.2825490082498614e-14 3.282549008031349e-14 2.1851162694155863e-24
1.1026131145906286 1.1444038053923823e-21 3.349437513052979e-14 3.349437512794143e-14 2.5883590768938735e-24
1.1109141095355224 1.1587124604936946e-21 3.4168474775197264e-14 3.416847477213517e-14 3.062086050152912e-24
1.1192775983109025 1.1729012322849324e-21 3.484726414140804e-14 3.484726413779015e-14 3.617887427139333e-24
1.1277040513999907 1.1869041689500057e-21 3.5528774619945326e-14 3.5528774615676194e-14 4.269131949031052e-24
1.1361939428280308 1.2007889875291505e-21 3.6215009132353037e-14 3.621500912732182e-14 5.031217227580608e-24
1.1447477501889525 1.214551066631644e-21 3.690583293497712e-14 3.690583292905527e-14 5.921855628256723e-24
1.1533659546722406 1.2281933995048816e-21 3.7601339794649665e-14 3.760133978768826e-14 6.961404685244913e-24
1.1707974979042381 1.2551629770436617e-21 3.900778940460489e-14 3.900778939502074e-14 9.58414300855623e-24
1.1884924949847024 1.281595583132094e-21 4.0431223018972766e-14 4.043122300584303e-14 1.3129738247949751e-23
1.2064549276569216 1.3076982042738723e-21 4.187820533837711e-14 4.1878205320477856e-14 1.7899265671292264e-23
1.2246888378427687 1.3331856107418097e-21 4.333969096473501e-14 4.333969094045183e-14 2.4283165407661404e-23
1.2431983285522175 1.3579982349415246e-21 4.4813519791989974e-14 4.4813519759203955e-14 3.2786029601583787e-23
1.2619875648066055 1.3821269175920006e-21 4.629908772028209e-14 4.629908767622544e-14 4.4056641964795666e-23
1.3004222497298317 1.4279315660949323e-21 4.9290272465155555e-14 4.929027238671122e-14 7.844434217551608e-23
1.3400274889804893 1.4704212453292498e-21 5.2302796422620994e-14 5.230279628548335e-14 1.3713764018776298e-22
1.3808389325824078 1.5094394404206703e-21 5.5325857018399244e-14 5.532585678289597e-14 2.35503265749578e-22
1.4228933163050095 1.545177365723826e-21 5.836064865582743e-14 5.836064825836578e-14 3.974616641813267e-22
1.466228494730424 1.5784966916509068e-21 6.143484464706141e-14 6.143484398748125e-14 6.595801535427217e-22
1.5108834753276823 1.6087507971819748e-21 6.45192305617088e-14 6.451922948498397e-14 1.076724833833216e-21
1.5568984535646726 1.6354168522939365e-21 6.758622487458555e-14 6.758622314374019e-14 1.7308453749041446e-21
1.6043148490894465 1.6585450014705626e-21 7.062952671081812e-14 7.062952396593399e-14 2.744884122393877e-21
1.6531753430134553 1.6782070093121705e-21 7.364340880280043e-14 7.364340451332065e-14 4.289479775686616e-21
1.7035239163302658 1.6946375314251082e-21 7.662923479043325e-14 7.662922818342231e-14 6.6070109553985825e-21
1.755405889504358 1.709185329120612e-21 7.964089657195129e-14 7.964088653635104e-14 1.0035600259818032e-20
1.8088679632656115 1.721519239042779e-21 8.265862576959515e-14 8.265861073213276e-14 1.5037462378749133e-20
1.8639582606462262 1.7314153671057546e-21 8.566568340283252e-14 8.566566116604155e-14 2.2236790952733413e-20
1.9207263702978936 1.7390384741491192e-21 8.866334714527238e-14 8.86633146813366e-14 3.246393579597674e-20
1.979223391128241 1.7447701981184136e-21 9.166477623016784e-14 9.166472942103195e-14 4.680913590355759e-20
2.039501978296691 1.749066797374663e-21 9.468909365533906e-14 9.468902697203588e-14 6.668330313502796e-20
2.1016163906111602 1.7532041876176996e-21 9.780372125959482e-14 9.780362736475717e-14 9.389483764842757e-20
2.1656225393682647 1.757922473875339e-21 1.0105362897145187e-13 1.0105349824726129e-13 1.3072419060779885e-19
2.231578038680979 1.763275060036237e-21 1.0444834831508856e-13 1.0444816830488464e-13 1.8001020389680175e-19
2.299542257339062 1.769705004375313e-21 1.0802187387552508e-13 1.0802162863041143e-13 2.4524511366441775e-19
2.369576372248914 1.7781909861226705e-21 1.118455084578654e-13 1.1184517777726662e-13 3.306805987617293e-19
2.4417434235010123 1.7898884012125453e-21 1.1600999644285256e-13 1.160095550191001e-13 4.414237524871417e-19
2.5161083711144245 1.8067757208520443e-21 1.2067103053610377e-13 1.20670446977488e-13 5.83558615758548e-19
2.5927381535095444 1.832090333842692e-21 1.2608835390975282e-13 1.260875896609633e-13 7.642487894984583e-19
2.6717017477616296 1.8696960960911754e-21 1.3259539116479386e-13 1.3259439937128446e-13 9.917935094330008e-19
2.753070231689431 1.925409897802981e-21 1.4070512735576512e-13 1.4070385164082278e-13 1.2757149423527341e-18
2.836916847834745 2.0124125165724835e-21 1.5154201212526876e-13 1.5154038524492968e-13 1.6268803390782687e-18
2.9233170693905177 2.1597341530663198e-21 1.6758905480657928e-13 1.6758699759851076e-13 2.05720806846317e-18
2.967498994190263 2.2846762228451733e-21 1.7996360131055528e-13 1.7996129889356353e-13 2.3024169917592778e-18
3.0123486681368425 2.430554926058884e-21 1.9434801588085904e-13 1.9434544245295757e-13 2.573427901436033e-18
3.0578761833420214 2.7566416535928445e-21 2.2375340017297337e-13 2.2375052686586166e-13 2.8733071117217563e-18
3.1040917844459814 3.1767632920803737e-21 2.6175129751211053e-13 2.617480953869314e-13 3.2021251791601248e-18
3.127460860933648 3.621045644952995e-21 3.0060438795546846e-13 3.006010087840914e-13 3.379171376983576e-18
3.1510058709225794 4.2129438806156505e-21 3.523743757093328e-13 3.5237081126359673e-13 3.564445736119474e-18
3.162844764501044 4.763856463312211e-21 3.999502544769461e-13 3.9994659386954515e-13 3.660607401058142e-18
3.1747281389236908 5.404504110783805e-21 4.554406869935946e-13 4.554369280713955e-13 3.758922199043361e-18
3.1986289994194426 7.191389997185177e-21 6.105850198185774e-13 6.105810571708335e-13 3.962647743801793e-18
3.2227097969389145 1.1403330139118572e-20 9.754888960055891e-13 9.754847167088019e-13 4.179296787152221e-18
3.2348180950136065 1.5397496875713257e-20 1.3221155752980592e-12 1.322111280181226e-12 4.295116833428474e-18
3.240889293275058 1.8383640474692155e-20 1.5814852550190048e-12 1.581480898802934e-12 4.35621607105695e-18
3.2469718861334385 2.1838152682627184e-20 1.882191723676505e-12 1.8821873042340174e-12 4.419442487438785e-18
3.2714166318528037 4.0264724903428976e-20 3.4964717735521994e-12 3.4964670921882795e-12 4.6813639188721365e-18
3.2744851364798273 4.141661733260094e-20 3.5998721900736203e-12 3.599867477668269e-12 4.712405350595649e-18
3.2775565192852394 4.260159195966217e-20 3.7063416579427844e-12 3.706336914324054e-12 4.743618730408007e-18
3.283707930232385 4.1461989259454195e-20 3.613966226487258e-12 3.6139614266999487e-12 4.799787308514461e-18
3.2898708863219004 3.784799840570971e-20 3.3051502258030385e-12 3.3051453745763257e-12 4.851226711979105e-18
3.29141343181113 3.699572794747737e-20 3.2322388598631862e-12 3.2322339957108857e-12 4.864152301251196e-18
3.292184975758714 3.6576952242195243e-20 3.1964004044240214e-12 3.1963955337990427e-12 4.870624978288016e-18
3.295272960557952 3.3933638728926545e-20 2.968187007019835e-12 2.96818211115672e-12 4.895863115203928e-18
3.3076538914384823 2.4776338451587e-20 2.1753373531834147e-12 2.1753323557798417e-12 4.9974035726363715e-18
3.310756385682612 2.2912577150689938e-20 2.0135879275823134e-12 2.0135829045486586e-12 5.023033654615793e-18
3.313861789986515 2.119296008047147e-20 1.864212624198894e-12 1.8642075754367663e-12 5.048762127281701e-18
3.3200813396944477 1.8781401422197855e-20 1.6551835136961315e-12 1.6551784097407027e-12 5.103955427902402e-18
3.345076488085796 1.44795311270769e-20 1.2856714047410044e-12 1.2856660551681621e-12 5.349572842767646e-18
3.3482140837626964 1.4640860794111e-20 1.3012156059012225e-12 1.3012102230665077e-12 5.382834714855135e-18
3.3513546224236106 1.4803973617772862e-20 1.3169464638580207e-12 1.3169410475924806e-12 5.416265540432871e-18
3.3576445397418455 1.5995978800409296e-20 1.4256567352781064e-12 1.4256512491707827e-12 5.4861073242273195e-18
3.3702598118196083 2.0392501229848706e-20 1.8243296305492372e-12 1.824323997897826e-12 5.6326514113457614e-18
3.382922481734668 2.1393886226042616e-20 1.9211052601716758e-12 1.9210994844403793e-12 5.775731296593457e-18
3.389271646505754 2.191266870111546e-20 1.9713833496836773e-12 1.9713775012998717e-12 5.8483838062592635e-18
3.395632727569191 2.2471692840023914e-20 2.025470553465581e-12 2.025464630201113e-12 5.923264468785645e-18
3.421196662673239 2.5155929957535698e-20 2.2844825739221096e-12 2.2844763399389678e-12 6.233983142241347e-18
3.4276182099114902 2.4615042686305895e-20 2.2395587913817404e-12 2.2395524873551956e-12 6.304026544134702e-18
3.4340518103208963 2.224482719457326e-20 2.02770752360897e-12 2.0277011529935995e-12 6.370615370147362e-18
3.4469541582030403 1.8869181973413396e-20 1.7264659344103278e-12 1.7264594352888004e-12 6.4991215268254576e-18
3.472904465399547 1.7923157276050874e-20 1.6522538992438135e-12 1.65224710502974e-12 6.794214073550616e-18
3.4990501388274233 1.6476266489666475e-20 1.5303064417160412e-12 1.5302993438662977e-12 7.097849744099332e-18
3.5253949054701885 1.1327083796086975e-20 1.0599742596134662e-12 1.059966864176703e-12 7.395436763052345e-18
3.5519380250092896 6.487417847793946e-21 6.116552163260299e-13 6.116475196394927e-13 7.696686537182079e-18
3.578680990867387 4.5685094432038835e-21 4.339772329643168e-13 4.339692056650854e-13 8.027299231319065e-18
3.605625307711299 3.7923898028727555e-21 3.6296353548761757e-13 3.629551586015862e-13 8.37688603148485e-18
3.660119384959845 3.226255167155827e-21 3.134464803117626e-13 3.1343736288153955e-13 9.117430223062968e-18
3.715437065384467 2.8253317680356982e-21 2.786434220413032e-13 2.786335149295712e-13 9.907111732089594e-18
3.8285932144167436 2.6218357415807388e-21 2.6644902655410893e-13 2.6643739022608097e-13 1.16363280279259e-17
3.94519561050918 2.582664648456185e-21 2.704618362371451e-13 2.7044826479525266e-13 1.3571441892428548e-17
4.06534921144712 2.610927589727205e-21 2.8174882770935095e-13 2.81733103834969e-13 1.5723874381986197e-17
4.189162171576248 2.678196645009458e-21 2.9780985687668987e-13 2.977917448529477e-13 1.811202374212865e-17
4.316745939156006 2.7738574869709396e-21 3.1784110847491907e-13 3.178203641489406e-13 2.074432597844695e-17
4.448215356677963 2.8943209802414548e-21 3.417448124405238e-13 3.417212073130739e-13 2.360512744993912e-17
4.58368876423945 3.0399726314677545e-21 3.6987436095630736e-13 3.6984764497098173e-13 2.6715985325642815e-17
4.723288106065518 3.2141357405241452e-21 4.029749816253724e-13 4.029448667624735e-13 3.01148628988597e-17
4.867139040275056 3.423504246629025e-21 4.42297064449167e-13 4.4226331575800046e-13 3.3748691166566664e-17
4.940699165968905 3.549848712385667e-21 4.655514554015156e-13 4.655157854579087e-13 3.5669943607086994e-17
5.015371051989984 3.680612807206085e-21 4.899961130608145e-13 4.899584535426821e-13 3.7659518132447166e-17
5.091171501069577 3.840312403257697e-21 5.18983696400997e-13 5.189439403868525e-13 3.9756014144586266e-17
5.129500256944802 3.9222432027133186e-21 5.3404641987111e-13 5.340055890703057e-13 4.083080080432249e-17
5.168117569889187 4.007654132915598e-21 5.497839435334397e-13 5.497420123499298e-13 4.1931183509976e-17
5.20702561229733 4.112618249324442e-21 5.684307259762586e-13 5.683876074368323e-13 4.311853942621129e-17
5.246226572918644 4.2202410182240706e-21 5.87697346955731e-13 5.876530189606052e-13 4.432799512583329e-17
5.265937586045735 4.27507588322841e-21 5.975702504485245e-13 5.975253093990903e-13 4.494104943420054e-17
5.285722656980489 4.330607659505316e-21 6.076068265917056e-13 6.075612669164855e-13 4.5559675220127954e-17
5.305582063971359 4.386847590568125e-21 6.178101167390149e-13 6.177639328513387e-13 4.6183887676122326e-17
5.3255160863122235 4.447293613125765e-21 6.286760802342033e-13 6.286292629240648e-13 4.681731013858696e-17
5.365609099470188 4.598055435585028e-21 6.548814152579986e-13 6.548332859781258e-13 4.812927987250606e-17
5.406003951863644 4.754545317629893e-21 6.822676556138148e-13 6.822181897309434e-13 4.94658828712985e-17
5.446702915881641 4.917040844374391e-21 7.108974177964797e-13 7.108465905021116e-13 5.0827294368262504e-17
5.487708281020852 5.0926624001161956e-21 7.418316134094995e-13 7.417793953717669e-13 5.2218037732384054e-17
5.529022354014368 5.337186957157671e-21 7.83303730525874e-13 7.832500580664008e-13 5.36724594734144e-17
5.570647458961463 5.5961388598386064e-21 8.274915929407649e-13 8.274364383057952e-13 5.515463496966404e-17
5.612585937458331 5.870559230788624e-21 8.746049098351619e-13 8.745482450275584e-13 5.666480760343263e-17
5.654840148729818 6.1722857056079525e-21 9.264794408705017e-13 9.264212320549454e-13 5.820881555617269e-17
5.67608639626678 6.378026218078945e-21 9.60958716563286e-13 9.60899700612584e-13 5.901595070167325e-17
5.686739436050992 6.484080361424735e-21 9.787711309719065e-13 9.787117084940592e-13 5.942247784726757e-17
5.6974124697621304 6.592324928344903e-21 9.969782868372067e-13 9.969184558522577e-13 5.983098494895542e-17
5.718818669136295 6.815596660651185e-21 1.0346170730482048e-12 1.0345564190883984e-12 6.065395980620261e-17
5.740305295436557 7.061777091811902e-21 1.0760152551258387e-12 1.0759537653067697e-12 6.14898190689347e-17
5.7835210386641895 7.700875220524984e-21 1.1822296285311683e-12 1.1821664041868239e-12 6.322434434446789e-17
5.827062130521658 8.437286696264741e-21 1.3050341858712017e-12 1.3049691800472002e-12 6.50058240017752e-17
5.8489554468988025 8.954238091165582e-21 1.3901971193901892e-12 1.3901311573370926e-12 6.596205309655163e-17
5.870931020387893 9.50903100486691e-21 1.48187876328058e-12 1.4818118344320012e-12 6.69288485787343e-17
5.892989160043636 1.0104712859429364e-20 1.580625747867072e-12 1.5805578415773338e-12 6.790628973771734e-17
5.915130176081913 1.0782292403819851e-20 1.6929527804415886e-12 1.6928838620030435e-12 6.891843854532898e-17
5.95966208400165 1.2677558936062853e-20 2.0055186590822894e-12 2.0054474735381508e-12 7.118554413827552e-17
6.004529249263818 1.5410120348744858e-20 2.456147410025282e-12 2.4560736913793702e-12 7.371864591066018e-17
6.027089341400364 1.7309983474568372e-20 2.769323655978494e-12 2.7692484933701543e-12 7.516260833964088e-17
6.049734195844842 1.9555297093390174e-20 3.140292811817833e-12 3.1402161225519112e-12 7.668926592268502e-17
6.095279466722835 2.6042008715134034e-20 4.213447002312473e-12 4.213366630798943e-12 8.037151352989139e-17
6.141167624020661 3.6025994984582443e-20 5.872680432574197e-12 5.872595367929628e-12 8.506464456992389e-17
6.164241091010745 4.2401986766006233e-20 6.938015334145205e-12 6.937927366810266e-12 8.796733493884493e-17
6.187401249150058 4.9665419626872303e-20 8.15702555536602e-12 8.156934593306899e-12 9.09620591211949e-17
6.1990139391386085 5.321196425581812e-20 8.755910962398178e-12 8.755818473535963e-12 9.24888622149419e-17
6.204828454712694 5.508017650038723e-20 9.071822315006807e-12 9.071729053482878e-12 9.326152392885197e-17
6.210648424152782 5.644385989592713e-20 9.305143679427145e-12 9.305049748930045e-12 9.393049709913318e-17
6.233982942956859 6.107668743304978e-20 1.0106726590998821e-11 1.0106630281669419e-11 9.630932940358761e-17
6.239830258556775 6.166875695365277e-20 1.0214271639333706e-11 1.0214174965514742e-11 9.667381896409221e-17
6.245683058788269 6.1719810224893e-20 1.0232316310600227e-11 1.0232219271163836e-11 9.703943639026308e-17
6.257405133728602 6.159186971733526e-20 1.023026998341896e-11 1.0230172283644438e-11 9.769977452507543e-17
6.269149208991335 6.067981769462494e-20 1.0097696349582423e-11 1.0097598309577633e-11 9.804000478927882e-17
6.280915325867298 5.839361571722247e-20 9.735488299863775e-12 9.735390317108064e-12 9.798275571081563e-17
6.304513850009849 5.275609860574697e-20 8.828637952601825e-12 8.828540445523973e-12 9.750707785246877e-17
6.32820103803542 4.576863447532231e-20 7.688075789143774e-12 7.687979142370692e-12 9.664677308416058e-17
6.3519772230701035 3.936058088985445e-20 6.636511699888328e-12 6.6364157917008045e-12 9.590818752295968e-17
6.375842739491607 3.396957416041599e-20 5.749063853771573e-12 5.748968560354941e-12 9.529341663356554e-17
6.399797922933955 2.964854648746897e-20 5.0366190202469445e-12 5.0365238780549455e-12 9.514219199847727e-17
6.42384311029221 2.6055941586972828e-20 4.4429469799657304e-12 4.442851896179072e-12 9.508378665800052e-17
6.447978639727206 2.3437578297539408e-20 4.011490417131079e-12 4.011395025571329e-12 9.539155974927971e-17
6.472204850670314 2.125624627014173e-20 3.65181073305413e-12 3.65171495823639e-12 9.577481773954363e-17
6.496522083828205 1.983811869024221e-20 3.420982373000407e-12 3.420885914025896e-12 9.645897451182501e-17
