Dust emission spectrum from A.P. Jones, M. Kohler, N. Ysard, M. Bocchio, and L. Verstraete (2017), A&A, 602A, 46J 
inside the DustPedia framework.

lambda    nu*dP/dnu     j_nu    j_nu(carb.) j_nu(sil)
 (um)   (erg s-1 H-1) (Jy cm2 sr-1 H-1)
0.9927057738263894 1.40239726485053e-20 3.695396447455589e-13 3.6953963803516945e-13 6.710389480825616e-21
1.0001793341362166 1.4259755231890222e-20 3.785814940592692e-13 3.785814859839427e-13 8.075326470781288e-21
1.0077091589558085 1.4496473738290638e-20 3.877635761349535e-13 3.877635664299998e-13 9.704953615887825e-21
1.0114953028030835 1.4615173089506803e-20 3.9240747031603833e-13 3.9240745968213446e-13 1.0633903873393249e-20
1.0152956718711033 1.473409355739603e-20 3.970867456962986e-13 3.970867340484172e-13 1.1647881360765012e-20
1.0229392996569957 1.497246563231933e-20 4.0654874218443745e-13 4.0654872822314095e-13 1.3961296629790835e-20
1.0267826658714554 1.5091646436659643e-20 4.1132450474270904e-13 4.113244894648222e-13 1.527788677671961e-20
1.0306404723013447 1.5211026549119504e-20 4.161358676639564e-13 4.1613585095090183e-13 1.671305455479341e-20
1.03451277320114 1.5330602285005743e-20 4.209829503490278e-13 4.209829320720906e-13 1.8276937080660864e-20
1.0383996230291617 1.5450370071211932e-20 4.258658749858091e-13 4.258658550053208e-13 1.9980488204093265e-20
1.0403485208654093 1.5510324897789207e-20 4.283208170131595e-13 4.2832079612485865e-13 2.0888300934114564e-20
1.0423010764483396 1.557032644901222e-20 4.3078476667645024e-13 4.3078474484091024e-13 2.1835539976971314e-20
1.0462171883269815 1.5690468076833563e-20 4.3573975356631e-13 4.357397297114417e-13 2.3854868393626732e-20
1.0471985131304309 1.5720532048891493e-20 4.3698415548100097e-13 4.369841310940395e-13 2.4386961427521447e-20
1.048180758391296 1.5750607347971526e-20 4.3823082362061207e-13 4.3823079869020787e-13 2.493040414897142e-20
1.0501480137395462 1.5810791733004572e-20 4.4073096697458297e-13 4.4073094092231925e-13 2.6052263672063868e-20
1.0521189612883777 1.5871020848405357e-20 4.432402005607364e-13 4.432401733383949e-13 2.7222341533893336e-20
1.0531058218030118 1.5901112166328778e-20 4.444971162959739e-13 4.444970884698592e-13 2.782611482259766e-20
1.0540936079674168 1.5931083822644313e-20 4.457526518408658e-13 4.45752623398042e-13 2.844282375983595e-20
1.058054026499678 1.6051074681601858e-20 4.507973897948421e-13 4.5079735875188495e-13 3.104295704334235e-20
1.0590464539527713 1.6081098235398215e-20 4.520642341034459e-13 4.5206420237577853e-13 3.1727667456879605e-20
1.06003981227728 1.6111132038864674e-20 4.5333334674130614e-13 4.5333331431449826e-13 3.242680783646257e-20
1.0620293250338977 1.6171230227040658e-20 4.558783859248572e-13 4.55878352055318e-13 3.386953932164411e-20
1.0660195594769086 1.629154778329611e-20 4.609957832052366e-13 4.609957462639948e-13 3.6941241774141623e-20
1.070024785945596 1.6412024809307313e-20 4.661497284925793e-13 4.661496882143971e-13 4.027818214853701e-20
1.0740450607676866 1.6532658901177544e-20 4.713403726660442e-13 4.713403287640153e-13 4.390202907296275e-20
1.07808044048254 1.6653447794700454e-20 4.765678707690598e-13 4.765678229329465e-13 4.783611327945898e-20
1.0861967418109137 1.689529671531352e-20 4.871287387380479e-13 4.871286820006954e-13 5.673735240645246e-20
1.0902777775684922 1.7015932478168082e-20 4.92450232503927e-13 4.924501707433252e-13 6.176060184245543e-20
1.0943741465085532 1.7136708176406283e-20 4.978089023999886e-13 4.978088351934627e-13 6.720652595898535e-20
1.1026131145906286 1.7378673557808878e-20 5.086384794191493e-13 5.08638399915924e-13 7.950322540572793e-20
1.1109141095355224 1.762118278280928e-20 5.196189390826315e-13 5.196188451554878e-13 9.392714354520705e-20
1.1192775983109025 1.7864038358223104e-20 5.307461925745669e-13 5.307460817508209e-13 1.108237460640464e-19
1.1277040513999907 1.8106362187513317e-20 5.419956203510122e-13 5.419954897603063e-13 1.3059070582906695e-19
1.1361939428280308 1.8349186983958384e-20 5.533994574372912e-13 5.533993037521297e-13 1.5368516152218763e-19
1.1447477501889525 1.8592513546929725e-20 5.649595292088228e-13 5.649593485769264e-13 1.8063189638686226e-19
1.1533659546722406 1.8836432112087373e-20 5.766804191025395e-13 5.766802070697058e-13 2.1203283349612201e-19
1.1707974979042381 1.9326782797054497e-20 6.006352059488905e-13 6.006349148937935e-13 2.9105509714800174e-19
1.1884924949847024 1.9819572945446216e-20 6.252593130352119e-13 6.252589155104458e-13 3.975247661598637e-19
1.2064549276569216 2.031812874078306e-20 6.506751823296784e-13 6.506746420712797e-13 5.402583985082041e-19
1.2246888378427687 2.0819215282686705e-20 6.767987512090489e-13 6.767980205689998e-13 7.306400490990097e-19
1.2431983285522175 2.1322418727991457e-20 7.03633192661026e-13 7.036322093440856e-13 9.833169404192837e-19
1.2619875648066055 2.1828465823074786e-20 7.312194278818439e-13 7.312181108428956e-13 1.317038948235479e-18
1.3004222497298317 2.284593773677991e-20 7.8861096883476e-13 7.886086394302144e-13 2.329404545613596e-18
1.3400274889804893 2.387457496935328e-20 8.492172146350366e-13 8.492131702830051e-13 4.0443520317315426e-18
1.3808389325824078 2.491797795630384e-20 9.133248069984724e-13 9.1331791071679e-13 6.8962816821956465e-18
1.4228933163050095 2.5984660695380518e-20 9.814288553040038e-13 9.814173006108542e-13 1.1554693149453833e-17
1.466228494730424 2.709285440552378e-20 1.0544496610303368e-12 1.0544306284952835e-12 1.9032535053419643e-17
1.5108834753276823 2.823980564754247e-20 1.1325623177829832e-12 1.1325314844024007e-12 3.0833380582437036e-17
1.5568984535646726 2.9423826125080066e-20 1.2159868148423264e-12 1.2159376346021795e-12 4.918024014724879e-17
1.6043148490894465 3.0650958398124144e-20 1.3052782306015157e-12 1.3052008525548015e-12 7.737804671441602e-17
1.6531753430134553 3.192735900362202e-20 1.4010426234968387e-12 1.400922677304446e-12 1.1994619239254827e-16
1.7035239163302658 3.326009071660022e-20 1.5039766636881568e-12 1.503793433110018e-12 1.8323057813860271e-16
1.755405889504358 3.467215504428816e-20 1.6155775893709146e-12 1.615301615096219e-12 2.7597427469586956e-16
1.8088679632656115 3.616088726540339e-20 1.7362624710656642e-12 1.735852502023722e-12 4.099690419426563e-16
1.8639582606462262 3.772238591893755e-20 1.866400189535681e-12 1.8657992694357692e-12 6.00920099911637e-16
1.9207263702978936 3.9357435269445625e-20 2.0066042229168187e-12 2.0057348069889485e-12 8.694159278702157e-16
1.979223391128241 4.1068458427172325e-20 2.1576085239789337e-12 2.156366443786887e-12 1.242080192046776e-15
2.039501978296691 4.285614259212986e-20 2.3200996701234007e-12 2.318346856658814e-12 1.7528134645865591e-15
2.1016163906111602 4.4733442964611394e-20 2.4954863886321395e-12 2.493042040858677e-12 2.4443477734623152e-15
2.1656225393682647 4.6702364927297346e-20 2.684670983839488e-12 2.6813013814562762e-12 3.3696023832118674e-15
2.231578038680979 4.87495873425603e-20 2.887702545323773e-12 2.883109343728411e-12 4.5932015953613885e-15
2.299542257339062 5.086802065735493e-20 3.1049575483830565e-12 3.0987645082309384e-12 6.193040152118539e-15
2.369576372248914 5.3054767974819825e-20 3.3370642110815633e-12 3.3288022812137757e-12 8.261929867789633e-15
2.4417434235010123 5.530786846664006e-20 3.5847294276727105e-12 3.5738206481762204e-12 1.0908779496490268e-14
2.5161083711144245 5.763484812777237e-20 3.849319225459999e-12 3.8350590465680404e-12 1.426017889195952e-14
2.5927381535095444 6.005599710828604e-20 4.133181469229259e-12 4.114720230831925e-12 1.8461238397334523e-14
2.6717017477616296 6.258715206865872e-20 4.4385651378231e-12 4.414890023461326e-12 2.3675114361774655e-14
2.753070231689431 6.525775054351254e-20 4.76890666847255e-12 4.738823673346759e-12 3.0082995125789835e-14
2.836916847834745 6.816827597621237e-20 5.133320141608135e-12 5.095435404992201e-12 3.788473661593392e-14
2.9233170693905177 7.155467158389997e-20 5.552433275510069e-12 5.505145403953885e-12 4.728787155618342e-14
2.967498994190263 7.366633632633963e-20 5.8026861960041805e-12 5.750131234595196e-12 5.2554961408986455e-14
3.0123486681368425 7.592705779532439e-20 6.07115390645367e-12 6.012821194931459e-12 5.833271152220975e-14
3.0578761833420214 7.979598922978342e-20 6.476947733507303e-12 6.412266724596071e-12 6.468100891123224e-14
3.1040917844459814 8.436122926027734e-20 6.950993570608013e-12 6.879415914080031e-12 7.157765652798095e-14
3.127460860933648 8.871221742625043e-20 7.364525178178639e-12 7.28925950969355e-12 7.526566848508791e-14
3.1510058709225794 9.427659594687702e-20 7.88537839149359e-12 7.806271859777024e-12 7.910653171656595e-14
3.162844764501044 9.936497567969575e-20 8.342200823061483e-12 8.26110792848127e-12 8.109289458020852e-14
3.1747281389236908 1.0513248359307354e-19 8.859575193482099e-12 8.77645645540919e-12 8.311873807290548e-14
3.1986289994194426 1.2080045818689862e-19 1.0256563777657883e-11 1.016926244557269e-11 8.730133208519248e-14
3.2227097969389145 1.5726345798377993e-19 1.345297865965991e-11 1.3361248726951315e-11 9.172993270859615e-14
3.2348180950136065 1.9153563789307084e-19 1.6446325797442168e-11 1.635223337096735e-11 9.409242647481256e-14
3.240889293275058 2.171551434953881e-19 1.8681156105194305e-11 1.8585817520985882e-11 9.533858420842525e-14
3.2469718861334385 2.4685236455259586e-19 2.1275768343743256e-11 2.1179140356843822e-11 9.66279868994334e-14
3.2714166318528037 4.0273973062112297e-19 3.497274856793699e-11 3.4870794909638905e-11 1.0195365829809745e-13
3.2744851364798273 4.1247282283076887e-19 3.585153833654238e-11 3.574895783690759e-11 1.0258049963479127e-13
3.2775565192852394 4.2246665387645174e-19 3.6754630198716306e-11 3.6651419796028075e-11 1.0321040268822452e-13
3.283707930232385 4.128147617784989e-19 3.598232100073911e-11 3.587798569528493e-11 1.0433530545418321e-13
3.2898708863219004 3.822131054409216e-19 3.337750435865498e-11 3.3272146769871346e-11 1.0535758878364134e-13
3.29141343181113 3.749804954831635e-19 3.2761256405392e-11 3.265564215280032e-11 1.0561425259167805e-13
3.292184975758714 3.714242534277333e-19 3.2458161795659857e-11 3.23524190470545e-11 1.0574274860535294e-13
3.295272960557952 3.4925683352219695e-19 3.054961490144526e-11 3.044337259984145e-11 1.0624230160382134e-13
3.3076538914384823 2.7187401929025006e-19 2.3870262778247887e-11 2.376201475368928e-11 1.082480245586098e-13
3.310756385682612 2.559581459643477e-19 2.249394423379575e-11 2.238519079909012e-11 1.0875343470563059e-13
3.313861789986515 2.4120811079921535e-19 2.1217574303148476e-11 2.1108313864492197e-11 1.0926043865627848e-13
3.3200813396944477 2.2059631521516696e-19 1.9440901981612143e-11 1.9330550358058677e-11 1.1035162355346357e-13
3.345076488085796 1.8450740381233377e-19 1.6382843543940615e-11 1.6267627384883697e-11 1.1521615905691454e-13
3.3482140837626964 1.8594713894907344e-19 1.652616758507396e-11 1.6410292374372767e-11 1.1587521070119445e-13
3.3513546224236106 1.8740005511144807e-19 1.667091865183614e-11 1.6554381498663014e-11 1.1653715317313094e-13
3.3576445397418455 1.9769701606270986e-19 1.7619933485219084e-11 1.750201211098829e-11 1.179213742307935e-13
3.3702598118196083 2.3506445462651546e-19 2.102905596672755e-11 2.0908231267644975e-11 1.2082469908257438e-13
3.382922481734668 2.4392512198244485e-19 2.190372660569084e-11 2.1780082157258832e-11 1.2364444843200701e-13
3.389271646505754 2.48493613465329e-19 2.235584258449287e-11 2.2230769343847554e-11 1.2507324064532034e-13
3.395632727569191 2.5352169543951398e-19 2.2851003368238395e-11 2.2724457671026543e-11 1.265456972118385e-13
3.421196662673239 2.7794004862587187e-19 2.5240537668561235e-11 2.510789911606731e-11 1.3263855249391928e-13
3.4276182099114902 2.7346344349047395e-19 2.4880617384886056e-11 2.474662155189999e-11 1.3399583298605596e-13
3.4340518103208963 2.532702327522929e-19 2.3086623778462276e-11 2.2951345382177172e-11 1.3527839628510558e-13
3.4469541582030403 2.2427813589138977e-19 2.052068616409074e-11 2.0382948460785743e-11 1.3773770330499863e-13
3.472904465399547 2.1611492923273954e-19 1.9922646942719443e-11 1.9779240455450465e-11 1.434064872689808e-13
3.4990501388274233 2.0383948983178296e-19 1.8932498121545212e-11 1.8783296141510493e-11 1.4920198003471877e-13
3.5253949054701885 1.6066556716117012e-19 1.5034881763289397e-11 1.4880058226637406e-11 1.5482353665200125e-13
3.5519380250092896 1.1956613219711714e-19 1.1273090491490915e-11 1.111262384756352e-11 1.6046664392739667e-13
3.578680990867387 1.0346996009520346e-19 9.828940387513761e-12 9.662289710596595e-12 1.6665067691716769e-13
3.605625307711299 9.721313437999117e-20 9.304112916785616e-12 9.130953650057082e-12 1.731592667285351e-13
3.660119384959845 9.311914928591637e-20 9.046981122397475e-12 8.860167859904986e-12 1.8681326249248815e-13
3.715437065384467 9.028364997308929e-20 8.904067645256079e-12 8.70288979109884e-12 2.011778541572391e-13
3.8285932144167436 8.967924269911282e-20 9.113823013520183e-12 8.88187579129439e-12 2.3194722222578966e-13
3.94519561050918 9.028930748648105e-20 9.45527786968822e-12 9.189934496868406e-12 2.653433728198136e-13
4.06534921144712 9.128292625121292e-20 9.850467535886559e-12 9.549179181131383e-12 3.0128835475517637e-13
4.189162171576248 9.241738169439238e-20 1.027661925669697e-11 9.936810608420106e-12 3.398086482768663e-13
4.316745939156006 9.359329794074286e-20 1.0724342437575533e-11 1.0343629279869252e-11 3.8071315770627495e-13
4.448215356677963 9.476982382499322e-20 1.1189876965681927e-11 1.0766497813205996e-11 4.2337915247592997e-13
4.58368876423945 9.594331449739249e-20 1.1673451191769219e-11 1.1205638337474676e-11 4.67812854294541e-13
4.723288106065518 9.713556557228846e-20 1.2178453528935223e-11 1.1664205256231783e-11 5.142482727034397e-13
4.867139040275056 9.837971894184913e-20 1.2710094030746243e-11 1.2148730188648531e-11 5.613638420977105e-13
4.940699165968905 9.90902472214503e-20 1.2995373196915636e-11 1.2410062699010884e-11 5.853104979047524e-13
5.015371051989984 9.976537720399883e-20 1.328165976934511e-11 1.2672226444197529e-11 6.094333251475768e-13
5.091171501069577 1.0061844265621802e-19 1.3597677952329779e-11 1.2963410176449815e-11 6.342677758799624e-13
5.129500256944802 1.0103041762796534e-19 1.3756141586267055e-11 1.3109421038776355e-11 6.467205474907057e-13
5.168117569889187 1.014516987122885e-19 1.3917497155781385e-11 1.3258172087839312e-11 6.593250679420762e-13
5.20702561229733 1.0202669555966908e-19 1.4101748596643501e-11 1.3428615527040046e-11 6.73133069603456e-13
5.246226572918644 1.0259749698844413e-19 1.4287401246524215e-11 1.3600402244542159e-11 6.869990019820584e-13
5.265937586045735 1.028814325810331e-19 1.4380770099342409e-11 1.3686818480123374e-11 6.939516192190339e-13
5.285722656980489 1.0316445204872316e-19 1.4474510335474988e-11 1.3773594116522474e-11 7.009162189525179e-13
5.305582063971359 1.0344660273183259e-19 1.4568629611709664e-11 1.3860737656671033e-11 7.078919550386309e-13
5.3255160863122235 1.0375814873201591e-19 1.4667407172011377e-11 1.3952469691585929e-11 7.149374804254534e-13
5.365609099470188 1.0461307471264313e-19 1.489959383527741e-11 1.4170076225985477e-11 7.295176092919342e-13
5.406003951863644 1.0547807181228375e-19 1.5135890388338147e-11 1.4391736527678109e-11 7.441538606600368e-13
5.446702915881641 1.063543951110454e-19 1.537653789112839e-11 1.4617698440191436e-11 7.588394509369498e-13
5.487708281020852 1.0730089035192003e-19 1.5630172659437323e-11 1.4856537836113128e-11 7.736348233241962e-13
5.529022354014368 1.0877343825904228e-19 1.5963960163727985e-11 1.5174903526404802e-11 7.89056637323182e-13
5.570647458961463 1.102999260734564e-19 1.630986360663776e-11 1.550532941687322e-11 8.045341897645401e-13
5.612585937458331 1.1188538723576908e-19 1.6668856435686886e-11 1.58487958656392e-11 8.200605700476834e-13
5.654840148729818 1.1362173845355535e-19 1.7054979262794144e-11 1.621926800626083e-11 8.357112565333126e-13
5.67608639626678 1.1489962293389933e-19 1.7311593024686868e-11 1.646768416533104e-11 8.439088593558195e-13
5.686739436050992 1.1555337860578875e-19 1.7442768251064895e-11 1.6594754704336122e-11 8.480135467287768e-13
5.6974124697621304 1.1621735232055982e-19 1.7575920191542743e-11 1.6723798179503146e-11 8.521220120396031e-13
5.718818669136295 1.1757702033008292e-19 1.784835557156005e-11 1.6988005735424682e-11 8.603498361353664e-13
5.740305295436557 1.1908869157013233e-19 1.8145751016556078e-11 1.7277093957373192e-11 8.686570591828863e-13
5.7835210386641895 1.2315339159003602e-19 1.890636898047496e-11 1.8020548120294733e-11 8.858208601802206e-13
5.827062130521658 1.2778487292348595e-19 1.9765077756120836e-11 1.886186447324982e-11 9.032132828710176e-13
5.8489554468988025 1.3117222197720903e-19 2.0365244176011085e-11 1.9452608273479243e-11 9.126359025318378e-13
5.870931020387893 1.3476476952440685e-19 2.100161939680367e-11 2.007953158255778e-11 9.220878142458894e-13
5.892989160043636 1.3857876914719448e-19 2.1677129639303012e-11 2.0745561493234716e-11 9.315681460682999e-13
5.915130176081913 1.4292288881223372e-19 2.244065482009142e-11 2.149924968655329e-11 9.414051335381287e-13
5.95966208400165 1.5532053130520398e-19 2.4570836171391558e-11 2.360683479888814e-11 9.640013725034184e-13
6.004529249263818 1.7324866838232958e-19 2.7613299475123587e-11 2.6623768899427024e-11 9.895305756965572e-13
6.027089341400364 1.85788284726987e-19 2.9723187931058516e-11 2.8718815980982717e-11 1.0043719500758054e-12
6.049734195844842 2.005038351131421e-19 3.2197964016641365e-11 3.117785166522417e-11 1.0201123514171895e-12
6.095279466722835 2.4312001349716067e-19 3.9335417758173006e-11 3.827630651571279e-11 1.059111242460231e-12
6.141167624020661 3.0830903314242257e-19 5.025816571884365e-11 4.914805676799869e-11 1.1101089508449484e-12
6.164241091010745 3.4987370679767066e-19 5.724800482043774e-11 5.610570426209198e-11 1.1423005583457697e-12
6.187401249150058 3.9666066705668886e-19 6.514736455059133e-11 6.397204349582572e-11 1.1753210547656015e-12
6.1990139391386085 4.193743053853565e-19 6.900711389300523e-11 6.781499767530421e-11 1.192116217701029e-12
6.204828454712694 4.3129202648114647e-19 7.103471482319354e-11 6.983411930994476e-11 1.2005955132487907e-12
6.210648424152782 4.398901143044118e-19 7.251879521190471e-11 7.13110164147442e-11 1.2077787971605154e-12
6.233982942956859 4.686519028445313e-19 7.755064734958086e-11 7.631799823952258e-11 1.2326491100583019e-12
6.239830258556775 4.720672576660804e-19 7.81890772577195e-11 7.695310820489027e-11 1.2359690528292155e-12
6.245683058788269 4.71938341238584e-19 7.824104398664406e-11 7.700175102800882e-11 1.23929295863522e-12
6.257405133728602 4.701718429543117e-19 7.809447763314907e-11 7.684944340491254e-11 1.2450342282364902e-12
6.269149208991335 4.632872792437408e-19 7.709539095800358e-11 7.584861804879564e-11 1.2467729092079284e-12
6.280915325867298 4.474676251762463e-19 7.460260468485317e-11 7.335903765398385e-11 1.243567030869313e-12
6.304513850009849 4.090619705549148e-19 6.845578300238066e-11 6.722309428048386e-11 1.2326887218967961e-12
6.32820103803542 3.6231108302345716e-19 6.085991197821256e-11 5.96428531324954e-11 1.2170588457171514e-12
6.3519772230701035 3.1966248697239797e-19 5.389767597039051e-11 5.269472789280448e-11 1.2029480775860216e-12
6.375842739491607 2.837070136211799e-19 4.801501865665515e-11 4.682461935102084e-11 1.1903993056343087e-12
6.399797922933955 2.5508452889412597e-19 4.3333105403392846e-11 4.2149632400676613e-11 1.1834730027162391e-12
6.42384311029221 2.3118672011170686e-19 3.942096417816787e-11 3.824329367150237e-11 1.1776705066655131e-12
6.447978639727206 2.1375308818273639e-19 3.658519894810304e-11 3.5408956624256983e-11 1.176242323846051e-12
6.472204850670314 1.991478932115822e-19 3.421349210263569e-11 3.303781312906976e-11 1.1756789735659426e-12
6.496522083828205 1.8952635319347123e-19 3.268285282579881e-11 3.150420202209374e-11 1.1786508037050644e-12
