Dust emission spectrum from A.P. Jones, M. Kohler, N. Ysard, M. Bocchio, and L. Verstraete (2017), A&A, 602A, 46J 
inside the DustPedia framework.

lambda    nu*dP/dnu     j_nu    j_nu(carb.) j_nu(sil)
 (um)   (erg s-1 H-1) (Jy cm2 sr-1 H-1)
0.9927057738263894 1.713181433111127e-24 4.514330383010615e-17 4.514330382631275e-17 3.793410713626308e-27
1.0001793341362166 1.7413450006445655e-24 4.623087712910707e-17 4.6230877124536996e-17 4.570095135718443e-27
1.0077091589558085 1.7694657293482946e-24 4.733112144700401e-17 4.733112144150525e-17 5.4987611560801945e-27
1.0114953028030835 1.7835065849493078e-24 4.788594038577833e-17 4.7885940379749613e-17 6.02872649393361e-27
1.0152956718711033 1.797532609363773e-24 4.844386058461971e-17 4.844386057801208e-17 6.60764375469389e-27
1.0229392996569957 1.8255208932800748e-24 4.956853742194628e-17 4.956853741401625e-17 7.93002343329046e-27
1.0267826658714554 1.839449083192459e-24 5.013438966511033e-17 5.013438965642686e-17 8.68347389186937e-27
1.0306404723013447 1.8533563180123548e-24 5.070322091648644e-17 5.0703220906981e-17 9.505443818961178e-27
1.03451277320114 1.8672412648866128e-24 5.127500681915459e-17 5.127500680875273e-17 1.040186161674998e-26
1.0383996230291617 1.8811025986943855e-24 5.1849722721122194e-17 5.184972270974305e-17 1.1379140370431642e-26
1.0403485208654093 1.8880239987751487e-24 5.213817163888622e-17 5.213817162698598e-17 1.1900248310893971e-26
1.0423010764483396 1.894939002301755e-24 5.242734368131721e-17 5.2427343668872996e-17 1.244421498404133e-26
1.0462171883269815 1.908749166810739e-24 5.300784447559049e-17 5.30078444619859e-17 1.360458195466574e-26
1.0471985131304309 1.912197455496312e-24 5.315341666581163e-17 5.315341665190113e-17 1.391049851249603e-26
1.048180758391296 1.915644002684731e-24 5.329916685203455e-17 5.3299166837811513e-17 1.42230067089186e-26
1.0501480137395462 1.9225317918026118e-24 5.3591199602723737e-17 5.3591199587855416e-17 1.4868341956336254e-26
1.0521189612883777 1.9294123729759212e-24 5.3883939497700244e-17 5.388393948215856e-17 1.5541702160364095e-26
1.0531058218030118 1.9328445999951293e-24 5.4030425165187545e-17 5.403042514929826e-17 1.588927416717592e-26
1.0540936079674168 1.9362575666450893e-24 5.4176599319137255e-17 5.41765993028929e-17 1.6244366109660634e-26
1.058054026499678 1.9498896972699585e-24 5.4763011409117006e-17 5.476301139137471e-17 1.7742302372256843e-26
1.0590464539527713 1.9532926970849174e-24 5.491004122739765e-17 5.4910041209260665e-17 1.8136975831196233e-26
1.06003981227728 1.9566936443553108e-24 5.505724093150338e-17 5.505724091296334e-17 1.8540054755737515e-26
1.0620293250338977 1.9634893027486856e-24 5.5352148324561956e-17 5.5352148305189837e-17 1.9372113911452226e-26
1.0660195594769086 1.977055127493681e-24 5.594398328889049e-17 5.594398326774566e-17 2.1144818079099875e-26
1.070024785945596 1.9905859257710245e-24 5.653848928580044e-17 5.653848926272815e-17 2.307229950165474e-26
1.0740450607676866 2.0040804619060185e-24 5.713563906530735e-17 5.713563904013996e-17 2.5167373846401263e-26
1.07808044048254 2.0175375104830703e-24 5.773540514977312e-17 5.773540512232926e-17 2.7443855916408983e-26
1.0861967418109137 2.0443103966692225e-24 5.894198615736339e-17 5.894198612476165e-17 3.260174357148505e-26
1.0902777775684922 2.0575694932181848e-24 5.954716714046151e-17 5.954716710494506e-17 3.5516464788224026e-26
1.0943741465085532 2.0707853623578877e-24 6.0154807897156e-17 6.015480785847664e-17 3.867937554647069e-26
1.1026131145906286 2.0970827724348227e-24 6.137735363053953e-17 6.137735358470823e-17 4.583129312108271e-26
1.1109141095355224 2.12319345122076e-24 6.260939133250595e-17 6.26093912782696e-17 5.423634486678625e-26
1.1192775983109025 2.1490840469215005e-24 6.384996228477552e-17 6.384996222067432e-17 6.410120045843182e-26
1.1277040513999907 2.1746338562515216e-24 6.509546278535089e-17 6.509546270968652e-17 7.566435848293533e-26
1.1361939428280308 2.1999671084083947e-24 6.634956661771698e-17 6.634956652851637e-17 8.920064143455257e-26
1.1447477501889525 2.2250754764674274e-24 6.761203053401688e-17 6.761203042899054e-17 1.0502634302642334e-25
1.1533659546722406 2.249964595343948e-24 6.888303040023216e-17 6.888303027672699e-17 1.235051723492833e-25
1.1707974979042381 2.2991666058151384e-24 7.145319644224767e-17 7.145319627209295e-17 1.7015469442351792e-25
1.1884924949847024 2.347387090455853e-24 7.4054352414459e-17 7.405435218118972e-17 2.3326929275088943e-25
1.2064549276569216 2.3950064545578856e-24 7.669856222400079e-17 7.669856190576016e-17 3.1824065928171395e-25
1.2246888378427687 2.441503360857906e-24 7.936929434009313e-17 7.936929390802489e-17 4.320682613370383e-25
1.2431983285522175 2.4867700615657613e-24 8.206263933539211e-17 8.206263875158426e-17 5.838078573025584e-25
1.2619875648066055 2.5307910942277975e-24 8.477753915501893e-17 8.477753836990329e-17 7.851156580159827e-25
1.3004222497298317 2.6143679222385653e-24 9.024445587663014e-17 9.024445447644086e-17 1.4001892846165505e-24
1.3400274889804893 2.6919191055045272e-24 9.57514028096358e-17 9.575140035768893e-17 2.4519468551432848e-24
1.3808389325824078 2.76317070085373e-24 1.0127917889190595e-16 1.0127917467390955e-16 4.217996396199577e-24
1.4228933163050095 2.8284861367878124e-24 1.0683063919954933e-16 1.0683063206798707e-16 7.13156226818313e-24
1.466228494730424 2.8894561815474334e-24 1.1245718319637497e-16 1.1245717133971365e-16 1.1856661306124366e-23
1.5108834753276823 2.9449120786534126e-24 1.1810621117915026e-16 1.1810619178680163e-16 1.9392348620249065e-23
1.5568984535646726 2.9939133580232513e-24 1.2372827220568276e-16 1.2372824097087285e-16 3.1234809943893355e-23
1.6043148490894465 3.0365689870913817e-24 1.2931300036649583e-16 1.2931295073243382e-16 4.963406200486925e-23
1.6531753430134553 3.073028768126396e-24 1.3485125051804723e-16 1.3485117279298742e-16 7.77250597979509e-23
1.7035239163302658 3.103741259322262e-24 1.403470142015272e-16 1.403468942270168e-16 1.1997451041120482e-22
1.755405889504358 3.1311953541248193e-24 1.4590062358698833e-16 1.4590044095253503e-16 1.8263445326306836e-22
1.8088679632656115 3.1548069948919235e-24 1.5147783704762445e-16 1.5147756276495604e-16 2.7428266838674744e-22
1.8639582606462262 3.174189470078441e-24 1.5705018874753676e-16 1.5704978220068152e-16 4.065468552177863e-22
1.9207263702978936 3.1896681582133032e-24 1.6262242577942965e-16 1.6262183082178481e-16 5.949576448229479e-22
1.979223391128241 3.201966820132536e-24 1.6822133503907502e-16 1.6822047504579615e-16 8.599932788863295e-22
2.039501978296691 3.2119459889959285e-24 1.738848710777841e-16 1.7388364280166018e-16 1.2282761239435657e-21
2.1016163906111602 3.221968535507013e-24 1.797397672099489e-16 1.7973803311916193e-16 1.7340907869793444e-21
2.1656225393682647 3.2334180587750746e-24 1.8587203569946487e-16 1.8586961480405686e-16 2.4208954080986786e-21
2.231578038680979 3.2464199045476314e-24 1.9230306414034973e-16 1.9229972105115162e-16 3.3430891980515714e-21
2.299542257339062 3.261814675988939e-24 1.9909947288609758e-16 1.9909490489710192e-16 4.5679889957114354e-21
2.369576372248914 3.281422916809251e-24 2.0639651053236401e-16 2.0639033246313616e-16 6.1780692278576734e-21
2.4417434235010123 3.307389837062293e-24 2.143654783017731e-16 2.1435720522111377e-16 8.273080659385871e-21
2.5161083711144245 3.343369110793334e-24 2.232971095448136e-16 2.232861368199658e-16 1.0972724847897046e-20
2.5927381535095444 3.3953199466433224e-24 2.336731410897585e-16 2.3365872202050413e-16 1.4419069254379196e-20
2.6717017477616296 3.470341107288275e-24 2.461101767063397e-16 2.460913985362889e-16 1.8778170050830983e-20
2.753070231689431 3.57909882293721e-24 2.615534262469966e-16 2.615291838439901e-16 2.4242403006496288e-20
2.836916847834745 3.74572769314665e-24 2.8206697524400904e-16 2.820359416824314e-16 3.103356157763048e-20
2.9233170693905177 4.0233359581945584e-24 3.1219910536018826e-16 3.1215970685606057e-16 3.939850412768621e-20
2.967498994190263 4.25615474168009e-24 3.35256666738485e-16 3.3521247765902797e-16 4.418907945710387e-20
3.0123486681368425 4.5274554603481286e-24 3.620169107366648e-16 3.619674139458976e-16 4.9496790767337613e-20
3.0578761833420214 5.128400498995937e-24 4.162663099875655e-16 4.162109261568032e-16 5.538383076243232e-20
3.1040917844459814 5.901471218426069e-24 4.862552247768534e-16 4.861933667955539e-16 6.185798129968449e-20
3.127460860933648 6.716282786274536e-24 5.575583061533355e-16 5.574929547005044e-16 6.535145283122523e-20
3.1510058709225794 7.801017933064145e-24 6.524840828544541e-16 6.524150699525425e-16 6.901290191167315e-20
3.162844764501044 8.80960074131863e-24 7.396112971634187e-16 7.395403817032114e-16 7.09154602073379e-20
3.1747281389236908 9.982170103870859e-24 8.412032476249751e-16 8.411303854739495e-16 7.286215102550285e-20
3.1986289994194426 1.325154808370557e-23 1.1251227860654503e-15 1.1250458852916213e-15 7.69007738292509e-20
3.2227097969389145 2.0954379784915877e-23 1.7925259159820663e-15 1.7924447142901995e-15 8.120169186659859e-20
3.2348180950136065 2.825767614640499e-23 2.4263628079586707e-15 2.4262793053372473e-15 8.350262142294665e-20
3.240889293275058 3.3717553513963383e-23 2.9006123020658275e-15 2.9005275855208157e-15 8.471654501237554e-20
3.2469718861334385 4.003390813477847e-23 3.4504516775198477e-15 3.450365704707976e-15 8.597281187286697e-20
3.2714166318528037 7.37209932486691e-23 6.401716952752668e-15 6.401625770730332e-15 9.118202233503963e-20
3.2744851364798273 7.582708378123e-23 6.59077992696344e-15 6.590688126270271e-15 9.180069316995566e-20
3.2775565192852394 7.799362309188571e-23 6.785450989555852e-15 6.785358566634006e-15 9.242292184590983e-20
3.283707930232385 7.591124259784325e-23 6.616678839082258e-15 6.616585293907681e-15 9.35451745767574e-20
3.2898708863219004 6.93055280868192e-23 6.052240315329139e-15 6.052145740031584e-15 9.457529755377043e-20
3.29141343181113 6.77477068909799e-23 5.918974514855507e-15 5.91887968064117e-15 9.483421433688512e-20
3.292184975758714 6.698224436424115e-23 5.853469462338101e-15 5.853374498456936e-15 9.496388116515749e-20
3.295272960557952 6.21509236950472e-23 5.436362591691799e-15 5.4362671217777115e-15 9.546991408848914e-20
3.3076538914384823 4.541261236397574e-23 3.9871812444775406e-15 3.987083737315486e-15 9.750716205378293e-20
3.310756385682612 4.200561906564979e-23 3.691509989685598e-15 3.691411968013952e-15 9.802167164536733e-20
3.313861789986515 3.886200798554757e-23 3.4184486552746013e-15 3.418350117004022e-15 9.853827058006474e-20
3.3200813396944477 3.445379346342279e-23 3.036373572077958e-15 3.0362739266040946e-15 9.964547386284114e-20
3.345076488085796 2.659304355082559e-23 2.36125847986839e-15 2.3611539092422697e-15 1.0457062612042387e-19
3.3482140837626964 2.688847994474727e-23 2.3897303727619837e-15 2.3896251351931086e-15 1.0523756887537331e-19
3.3513546224236106 2.718717602716924e-23 2.4185435786160573e-15 2.4184376705665015e-15 1.0590804955680124e-19
3.3576445397418455 2.936747473913129e-23 2.61740395397879e-15 2.617296645561597e-15 1.0730841719310912e-19
3.3702598118196083 3.7406841825124046e-23 3.3464462822714063e-15 3.3463360350787462e-15 1.1024719266154372e-19
3.382922481734668 3.9239815922137706e-23 3.5236149234271837e-15 3.523501802200244e-15 1.1312122694062223e-19
3.389271646505754 4.0189368931388747e-23 3.6156551183380564e-15 3.615540536746951e-15 1.1458159110590855e-19
3.395632727569191 4.1212728000277e-23 3.7146808470019425e-15 3.714564760152597e-15 1.1608684934477709e-19
3.421196662673239 4.612660304514382e-23 4.188889897083186e-15 4.188767558287021e-15 1.2233879616592775e-19
3.4276182099114902 4.5138873981542584e-23 4.106885506831817e-15 4.106761753586424e-15 1.2375324539267743e-19
3.4340518103208963 4.080627354456578e-23 3.719659728215255e-15 3.719534627831366e-15 1.2510038388887115e-19
3.4469541582030403 3.463572222877122e-23 3.1690507106204367e-15 3.1689230054045623e-15 1.2770521587418983e-19
3.472904465399547 3.2909502939653496e-23 3.033776567194136e-15 3.033642886208047e-15 1.3368098608948063e-19
3.4990501388274233 3.026774339064348e-23 2.8112511239096533e-15 2.8111112812932158e-15 1.3984261643688046e-19
3.5253949054701885 2.0857393160528323e-23 1.951808627074469e-15 1.951662725974449e-15 1.4590110002003757e-19
3.5519380250092896 1.2011403197679945e-23 1.132474829527806e-15 1.1323227789787938e-15 1.5205054901199103e-19
3.578680990867387 8.506317977648485e-24 8.080421819300518e-16 8.078833781713358e-16 1.5880375871575797e-19
3.605625307711299 7.091138618172846e-24 6.786814850981589e-16 6.785155292334752e-16 1.6595586468360378e-19
3.660119384959845 6.064182621407914e-24 5.891650226549673e-16 5.889838678579239e-16 1.8115479704353477e-19
3.715437065384467 5.339374221140887e-24 5.265864778677619e-16 5.263890432644836e-16 1.974346032784571e-19
3.8285932144167436 4.985047698320817e-24 5.066149207892622e-16 5.063815772504055e-16 2.33343538856667e-19
3.94519561050918 4.932642159808435e-24 5.165562074967859e-16 5.162822707007809e-16 2.7393679600505746e-19
4.06534921144712 5.005167889087149e-24 5.40114628527914e-16 5.397950456907233e-16 3.1958283719095237e-19
4.189162171576248 5.1508525304882506e-24 5.727640118420896e-16 5.723931977771936e-16 3.708140648958154e-19
4.316745939156006 5.350505218382542e-24 6.130850332071737e-16 6.126570482264414e-16 4.279849807323559e-19
4.448215356677963 5.597822643600694e-24 6.609587749500557e-16 6.604678074167662e-16 4.909675332895526e-19
4.58368876423945 5.893816675369465e-24 7.171024021171462e-16 7.165419653700186e-16 5.604367471275889e-19
4.723288106065518 6.244941284333653e-24 7.829647850826286e-16 7.823273276806641e-16 6.374574019647246e-19
4.867139040275056 6.663869667654218e-24 8.609336456285964e-16 8.602124438318559e-16 7.212017967404302e-19
4.940699165968905 6.914460290548634e-24 9.068096452531797e-16 9.060436029677272e-16 7.660422854527222e-19
5.015371051989984 7.174097943310684e-24 9.550801160223731e-16 9.542672264365853e-16 8.12889585787688e-19
5.091171501069577 7.48799088739305e-24 1.01193465043616e-15 1.011072014816754e-15 8.626356194062058e-19
5.129500256944802 7.64913893943939e-24 1.0414946382922915e-15 1.0406063208456601e-15 8.883174466317194e-19
5.168117569889187 7.816958461992286e-24 1.0723575705732488e-15 1.0714428573592717e-15 9.147132139771337e-19
5.20702561229733 8.021104854174844e-24 1.1086471388729683e-15 1.1077040153839707e-15 9.431234889976425e-19
5.246226572918644 8.230406206470446e-24 1.1461402017143865e-15 1.1451680057780263e-15 9.72195936360213e-19
5.265937586045735 8.337040775917608e-24 1.1653518394865107e-15 1.1643648557290765e-15 9.869837574346449e-19
5.285722656980489 8.445025896204475e-24 1.184881150342702e-15 1.1838792092603628e-15 1.0019410823384766e-18
5.305582063971359 8.554383095708776e-24 1.2047339940309284e-15 1.2037169247767819e-15 1.0170692541468526e-18
5.3255160863122235 8.671574071505727e-24 1.225826687189004e-15 1.2247942402109262e-15 1.0324469780776192e-18
5.365609099470188 8.961303829726136e-24 1.2763202655518425e-15 1.2752559331575657e-15 1.064332394276262e-18
5.406003951863644 9.261841086144418e-24 1.3290555000244409e-15 1.3279585288797708e-15 1.0969711446698265e-18
5.446702915881641 9.573700849294352e-24 1.3841494158638125e-15 1.383019039648588e-15 1.1303762152241266e-18
5.487708281020852 9.910052395137324e-24 1.443565188434572e-15 1.4424005321876158e-15 1.1646562469559275e-18
5.529022354014368 1.0373979834221915e-23 1.522520603039493e-15 1.5213200258910608e-15 1.2005771484317995e-18
5.570647458961463 1.0864676249193803e-23 1.6065413102508968e-15 1.6053039467460515e-15 1.237363504845294e-18
5.612585937458331 1.138405036908083e-23 1.6960132681041636e-15 1.6947382365976708e-15 1.2750315064928398e-18
5.654840148729818 1.195398127400608e-23 1.794330077244331e-15 1.7930163546541925e-15 1.3137225901388543e-18
5.67608639626678 1.2340433377887552e-23 1.8592973147453393e-15 1.857963357267517e-15 1.3339574778231175e-18
5.686739436050992 1.253952430271265e-23 1.8928396471815123e-15 1.891495478884571e-15 1.3441682969412418e-18
5.6974124697621304 1.2742649122291051e-23 1.9271113954176593e-15 1.925756953635574e-15 1.3544417820850932e-18
5.718818669136295 1.3161386665950224e-23 1.997916840971056e-15 1.9965416629622267e-15 1.3751780088296147e-18
5.740305295436557 1.3622439159262193e-23 2.075674742606298e-15 2.074278460902407e-15 1.3962817038910212e-18
5.7835210386641895 1.4815630670976373e-23 2.2744788148131193e-15 2.2730386561161733e-15 1.4401586969457318e-18
5.827062130521658 1.618793315413604e-23 2.5038625479086713e-15 2.5023771216406824e-15 1.4854262679889276e-18
5.8489554468988025 1.7148983084656014e-23 2.6624785539577425e-15 2.660968864979572e-15 1.5096889781711088e-18
5.870931020387893 1.8179442274192355e-23 2.8330677879399676e-15 2.8315335057232555e-15 1.5342822167116204e-18
5.892989160043636 1.9284876182619022e-23 3.0166291969624035e-15 3.0150699870592803e-15 1.5592099031232182e-18
5.915130176081913 2.0541177207758655e-23 3.2252179559792453e-15 3.2236329307230302e-15 1.585025256214336e-18
5.95966208400165 2.405030819488554e-23 3.8046237516843285e-15 3.802981221966083e-15 1.6425297182468358e-18
6.004529249263818 2.910238268760263e-23 4.638493421600161e-15 4.636786769514417e-15 1.706652085743618e-18
6.027089341400364 3.261231023502468e-23 5.217453982128393e-15 5.215710951361262e-15 1.7430307671307458e-18
6.049734195844842 3.67576741332439e-23 5.902741303725026e-15 5.900959829717899e-15 1.781474007126919e-18
6.095279466722835 4.872780216197368e-23 7.883877706765698e-15 7.882004176413208e-15 1.8735303524906126e-18
6.141167624020661 6.714037569540533e-23 1.0944707307898858e-14 1.0942717291255592e-14 1.990016643266204e-18
6.164241091010745 7.890061227372728e-23 1.2910094539896131e-14 1.2908032906700169e-14 2.061633195967965e-18
6.187401249150058 9.229094509064386e-23 1.515782214847005e-14 1.5155686487956034e-14 2.1356605140124416e-18
6.1990139391386085 9.88304718807237e-23 1.6262335440188097e-14 1.626016200133498e-14 2.173438853114954e-18
6.204828454712694 1.0227466062854212e-22 1.6844854310574587e-14 1.6842661738975706e-14 2.1925715988808127e-18
6.210648424152782 1.0479037840455318e-22 1.7275387067323287e-14 1.7273177812791888e-14 2.209254531396821e-18
6.233982942956859 1.133393542828919e-22 1.875494421653413e-14 1.8752675141191433e-14 2.269075342693153e-18
6.239830258556775 1.1443366424021946e-22 1.8953787768291888e-14 1.8951509167418136e-14 2.278600873746886e-18
6.245683058788269 1.1453149438186407e-22 1.89877848582286e-14 1.8985496696491828e-14 2.2881617367692546e-18
6.257405133728602 1.1430343261731755e-22 1.898554112861387e-14 1.8983235503467255e-14 2.3056251466141345e-18
6.269149208991335 1.1263106508965465e-22 1.874287593494418e-14 1.8740560411859745e-14 2.315523084441501e-18
6.280915325867298 1.0842710196016335e-22 1.8077160825819074e-14 1.8074844818914118e-14 2.316006904956775e-18
6.304513850009849 9.805557517280469e-23 1.6409423655533926e-14 1.6407115241682538e-14 2.3084138513918756e-18
6.32820103803542 8.519724664879734e-23 1.4311173946329903e-14 1.430888223106184e-14 2.291715268067069e-18
6.3519772230701035 7.340498158017687e-23 1.23766725000875e-14 1.2374394571510067e-14 2.2779285774312145e-18
6.375842739491607 6.348187525025757e-23 1.0743771842632444e-14 1.074150476239287e-14 2.2670802395735873e-18
6.399797922933955 5.553377381046797e-23 9.43393503482916e-15 9.431667669028808e-15 2.267365800351792e-18
6.42384311029221 4.892416711035748e-23 8.342338340940192e-15 8.340068443606837e-15 2.269897333353415e-18
6.447978639727206 4.4111636993670306e-23 7.549986898716863e-15 7.547705623626841e-15 2.281275090020844e-18
6.472204850670314 4.010256799975045e-23 6.889597833190015e-15 6.887303308073631e-15 2.294525116382665e-18
6.496522083828205 3.750158196879974e-23 6.466956513270438e-15 6.464641417661764e-15 2.3150956086740484e-18
6.520930681187647 3.531146446796793e-23 6.112160445251927e-15 6.109823468236759e-15 2.3369770151690445e-18
6.57002334288761 3.3081891409196884e-23 5.7693472231655815e-15 5.766955729376697e-15 2.3914937888838772e-18
