Dust emission spectrum from A.P. Jones, M. Kohler, N. Ysard, M. Bocchio, and L. Verstraete (2017), A&A, 602A, 46J 
inside the DustPedia framework.

lambda    nu*dP/dnu     j_nu    j_nu(carb.) j_nu(sil)
 (um)   (erg s-1 H-1) (Jy cm2 sr-1 H-1)
0.9927057738263894 1.3551443655944288e-24 3.570882374004664e-17 3.5708823739953685e-17 9.295101059533723e-29
1.0001793341362166 1.3773896775912574e-24 3.656824633834835e-17 3.656824633823634e-17 1.1201447158078137e-28
1.0077091589558085 1.3995994744840929e-24 3.7437635329828e-17 3.7437635329693185e-17 1.3481772631370695e-28
1.0114953028030835 1.4106883219371276e-24 3.7876023255117386e-17 3.787602325496954e-17 1.4783506185632736e-28
1.0152956718711033 1.4217650204195897e-24 3.831684948273277e-17 3.831684948257072e-17 1.6205790117011801e-28
1.0229392996569957 1.4438667170859187e-24 3.920544632583157e-17 3.9205446325637013e-17 1.9455717672595951e-28
1.0267826658714554 1.4548647680383484e-24 3.965250131538621e-17 3.9652501315173106e-17 2.130804076074224e-28
1.0306404723013447 1.4658458140563474e-24 4.010189698401559e-17 4.01018969837823e-17 2.3329287095404665e-28
1.03451277320114 1.4768087977077237e-24 4.0553613824322435e-17 4.0553613824067097e-17 2.553412450100441e-28
1.0383996230291617 1.4877526677070853e-24 4.1007632093944475e-17 4.1007632093665076e-17 2.7938425338820546e-28
1.0403485208654093 1.4932171082908451e-24 4.123549803217375e-17 4.123549803188155e-17 2.9220686726822254e-28
1.0423010764483396 1.4986763791166452e-24 4.146393182027527e-17 4.146393181996968e-17 3.0559359308386503e-28
1.0462171883269815 1.509578893542544e-24 4.192249280519081e-17 4.192249280485665e-17 3.3415492888059183e-28
1.0471985131304309 1.512301089072184e-24 4.2037483985015954e-17 4.2037483984674285e-17 3.416859352081274e-28
1.048180758391296 1.515021879225179e-24 4.2152614897202884e-17 4.2152614896853505e-17 3.4937969548064737e-28
1.0501480137395462 1.5204591793265976e-24 4.238329462977806e-17 4.2383294629412797e-17 3.65268958497e-28
1.0521189612883777 1.5258906659726992e-24 4.261452941683015e-17 4.26145294164483e-17 3.8185034113810004e-28
1.0531058218030118 1.5285999872262936e-24 4.273023667683631e-17 4.2730236676445905e-17 3.904100494803787e-28
1.0540936079674168 1.531294039937646e-24 4.2845696290926986e-17 4.2845696290527816e-17 3.991554853614531e-28
1.058054026499678 1.5420543580204664e-24 4.330888076386499e-17 4.3308880763428935e-17 4.360536136538127e-28
1.0590464539527713 1.5447403859355424e-24 4.3425011727087424e-17 4.342501172664165e-17 4.45777015074607e-28
1.06003981227728 1.5474247619463008e-24 4.3541275961941585e-17 4.354127596148588e-17 4.557081426214057e-28
1.0620293250338977 1.5527884959707318e-24 4.3774202907713276e-17 4.377420290723705e-17 4.762105682358331e-28
1.0660195594769086 1.5634954577435112e-24 4.4241641289559204e-17 4.4241641289039314e-17 5.19899689886605e-28
1.070024785945596 1.574174255112496e-24 4.4711174285122786e-17 4.471117428455538e-17 5.674159422744826e-28
1.0740450607676866 1.5848239078315168e-24 4.518278008349636e-17 4.518278008287728e-17 6.190775114537453e-28
1.07808044048254 1.5954434437915153e-24 4.5656436691874507e-17 4.565643669119928e-17 6.752275147771457e-28
1.0861967418109137 1.6165694129945924e-24 4.660926839602707e-17 4.6609268395224547e-17 8.025011382453425e-28
1.0902777775684922 1.6270309561547657e-24 4.70871504501739e-17 4.708715044929945e-17 8.744529966107775e-28
1.0943741465085532 1.6374578325628626e-24 4.756695848253193e-17 4.756695848157938e-17 9.525535369458414e-28
1.1026131145906286 1.6582038994600946e-24 4.8532260369739436e-17 4.8532260368610194e-17 1.1292295276373584e-27
1.1109141095355224 1.6788003344624133e-24 4.950498836979051e-17 4.9504988368453524e-17 1.3369820648523049e-27
1.1192775983109025 1.6992207357947573e-24 5.048438196236202e-17 5.0484381960781045e-17 1.580960763994584e-27
1.1277040513999907 1.719369612372006e-24 5.146758857573853e-17 5.146758857387142e-17 1.8671130293744575e-27
1.1361939428280308 1.7393452082246813e-24 5.2457511897894676e-17 5.245751189569241e-17 2.2022973301958877e-27
1.1447477501889525 1.7591409161686583e-24 5.3453957223268544e-17 5.345395722067413e-17 2.594413477748181e-27
1.1533659546722406 1.7787611872638554e-24 5.445706176470691e-17 5.445706176165436e-17 3.0525529019054685e-27
1.1707974979042381 1.8175399347993383e-24 5.648526630231037e-17 5.648526629810011e-17 4.210252965863873e-27
1.1884924949847024 1.8555339505372313e-24 5.853758233943126e-17 5.853758233365267e-17 5.7786076272104855e-27
1.2064549276569216 1.8930440451169627e-24 6.062353452570551e-17 6.062353451781261e-17 7.8929112447413e-27
1.2246888378427687 1.929657540535612e-24 6.273002108689898e-17 6.273002107616986e-17 1.072910925376633e-26
1.2431983285522175 1.9652891762944457e-24 6.485393215746497e-17 6.485393214294972e-17 1.4515246359000447e-26
1.2619875648066055 1.999926358790405e-24 6.699440170159176e-17 6.699440168204637e-17 1.9545382241958718e-26
1.3004222497298317 2.065640738033448e-24 7.130313329457184e-17 7.130313325962185e-17 3.4949979612731567e-26
1.3400274889804893 2.126549886487271e-24 7.564125324548521e-17 7.564125318411334e-17 6.137185323449446e-26
1.3808389325824078 2.182434821347334e-24 7.999332311350463e-17 7.999332300762563e-17 1.0587897282945874e-25
1.4228933163050095 2.2335801130980327e-24 8.436130836287178e-17 8.436130818332382e-17 1.7954797202589948e-25
1.466228494730424 2.281239706575493e-24 8.878549300575144e-17 8.878549270631975e-17 2.9943172046403593e-25
1.5108834753276823 2.324484918292158e-24 9.322387199012664e-17 9.322387149881922e-17 4.913074298656359e-25
1.5568984535646726 2.362567432646971e-24 9.763688906609813e-17 9.763688827214401e-17 7.939541189734803e-25
1.6043148490894465 2.395567660287345e-24 1.0201580897703495e-16 1.0201580771110357e-16 1.26593143017318e-24
1.6531753430134553 2.4235971634658455e-24 1.0635276559569096e-16 1.0635276360632556e-16 1.98936538201436e-24
1.7035239163302658 2.447003020610436e-24 1.1065019245830582e-16 1.1065018937641033e-16 3.0818954837714435e-24
1.755405889504358 2.4677427790139407e-24 1.149865050215161e-16 1.1498650031237571e-16 4.709140379552999e-24
1.8088679632656115 2.4853450309760007e-24 1.193336677073657e-16 1.193336606075913e-16 7.099774405587604e-24
1.8639582606462262 2.499494569975765e-24 1.2366813565745856e-16 1.2366812509162017e-16 1.0565838446456386e-23
1.9207263702978936 2.5104374452521453e-24 1.279924452527067e-16 1.2799242972562663e-16 1.5527080091629913e-23
1.979223391128241 2.5187335453800606e-24 1.323263929368258e-16 1.3232637039569414e-16 2.2541131619229663e-23
2.039501978296691 2.5250505709256844e-24 1.366984670646821e-16 1.3669843472587467e-16 3.2338807498467964e-23
2.1016163906111602 2.5312399699661185e-24 1.4120699129752187e-16 1.4120694542826999e-16 4.586925193779799e-23
2.1656225393682647 2.5383798852675904e-24 1.459179815529328e-16 1.4591791720617462e-16 6.434675823145174e-23
2.231578038680979 2.5465569594843022e-24 1.5084638485328712e-16 1.50846295546775e-16 8.930651212390186e-23
2.299542257339062 2.5564207255685483e-24 1.5604259269618881e-16 1.560424700275574e-16 1.2266863144114103e-22
2.369576372248914 2.569394976402345e-24 1.6161103605154615e-16 1.6161086923893137e-16 1.6681261479736028e-22
2.4417434235010123 2.587159755494644e-24 1.6768441754731747e-16 1.676841928947928e-16 2.246525246823155e-22
2.5161083711144245 2.612585564361017e-24 1.744895001503116e-16 1.7448920041829648e-16 2.9973201513305193e-22
2.5927381535095444 2.65036514780295e-24 1.8240376720144102e-16 1.8240337088310496e-16 3.9631833606595934e-22
2.6717017477616296 2.7061009128320635e-24 1.9191167474677958e-16 1.9191115526624515e-16 5.194805344333204e-22
2.753070231689431 2.78822178796273e-24 2.0375770490173266e-16 2.0375702970647336e-16 6.751952593098739e-22
2.836916847834745 2.915813012573805e-24 2.1957136882604e-16 2.1957049834395652e-16 8.704820834645886e-22
2.9233170693905177 3.1308977444998295e-24 2.429485096356973e-16 2.4294739627893986e-16 1.113356757328529e-21
2.967498994190263 3.312724329043228e-24 2.609427955009243e-16 2.609415417623423e-16 1.2537385820233424e-21
3.0123486681368425 3.524929532307231e-24 2.818545894104012e-16 2.8185317939580927e-16 1.4100145919685773e-21
3.0578761833420214 3.9979258619476826e-24 3.245069971587914e-16 3.245054130056662e-16 1.5841531253496164e-21
3.1040917844459814 4.607203393221231e-24 3.7961325890545596e-16 3.796114821737923e-16 1.7767316637451024e-21
3.127460860933648 5.250782762567129e-24 4.3589849269881387e-16 4.3589661162008755e-16 1.8810787262840093e-21
3.1510058709225794 6.1081000631663285e-24 5.108869255134354e-16 5.108849347488116e-16 1.990764623659624e-21
3.162844764501044 6.905677339496254e-24 5.797671341564511e-16 5.797650862702589e-16 2.0478861921612865e-21
3.1747281389236908 7.833204738747592e-24 6.601086934984841e-16 6.60106587077507e-16 2.106420976958355e-21
3.1986289994194426 1.0420253492777043e-23 8.847316983075918e-16 8.847294701743237e-16 2.2281332684111813e-21
3.2227097969389145 1.6517216564321537e-23 1.412952282784708e-15 1.4129499246645537e-15 2.3581201545864738e-21
3.2348180950136065 2.2298720548175986e-23 1.914693406592861e-15 1.9146909788207012e-15 2.4277721599256e-21
3.240889293275058 2.662100205315781e-23 2.2901188847147937e-15 2.290116420181885e-15 2.4645329090692658e-21
3.2469718861334385 3.162121079114131e-23 2.725376184912555e-15 2.7253736823265087e-15 2.5025860471108547e-21
3.2714166318528037 5.829224341611533e-23 5.061929125563801e-15 5.061926464877064e-15 2.660686736760338e-21
3.2744851364798273 5.995947638860906e-23 5.211590551911801e-15 5.211587872378354e-15 2.6795334468412296e-21
3.2775565192852394 6.167458632075818e-23 5.365693580968868e-15 5.365690882472502e-15 2.6984963658797465e-21
3.283707930232385 6.002510854461157e-23 5.231990044278777e-15 5.231987311456184e-15 2.73282259355311e-21
3.2898708863219004 5.479426043362094e-23 4.7850155853307084e-15 4.785012820883565e-15 2.7644471426091523e-21
3.29141343181113 5.356069950874792e-23 4.679485549234466e-15 4.679482776834586e-15 2.772399879220356e-21
3.292184975758714 5.295457184333996e-23 4.627613961255344e-15 4.627611184872085e-15 2.7763832597993474e-21
3.295272960557952 4.9128694093992093e-23 4.297303706405446e-15 4.2973009144560935e-15 2.791949353571838e-21
3.3076538914384823 3.5874790348988133e-23 3.1497701581800544e-15 3.1497673034880092e-15 2.854692045548721e-21
3.310756385682612 3.3177292777092613e-23 2.9156648667871893e-15 2.915661996232865e-15 2.8705543244979586e-21
3.313861789986515 3.0688430382384105e-23 2.6994699710875225e-15 2.699467084599821e-15 2.886487701620265e-21
3.3200813396944477 2.719813858842928e-23 2.3969409727638196e-15 2.396938052171437e-15 2.920592382574039e-21
3.345076488085796 2.097241756141037e-23 1.862189963911956e-15 1.862186891650596e-15 3.0722613604503867e-21
3.3482140837626964 2.1205990883300134e-23 1.884695624388981e-15 1.8846925315826895e-15 3.0928062918004144e-21
3.3513546224236106 2.1442145011043158e-23 1.907471451848777e-15 1.907468338379618e-15 3.113469159413358e-21
3.3576445397418455 2.3167513418428114e-23 2.064826539016345e-15 2.064823382401172e-15 3.1566151738706535e-21
3.3702598118196083 2.953096765087208e-23 2.6418642174909233e-15 2.6418609702814306e-15 3.247209492722038e-21
3.382922481734668 3.0980425211336937e-23 2.781947010796263e-15 2.7819436747381405e-15 3.3360581219736668e-21
3.389271646505754 3.1731327524365086e-23 2.8547235208146233e-15 2.854720139550377e-15 3.3812642447882164e-21
3.395632727569191 3.2540446117724354e-23 2.9330106938224746e-15 2.933007265951635e-15 3.427870839764108e-21
3.421196662673239 3.6425319462229037e-23 3.3078883468619635e-15 3.307884725052362e-15 3.6218096014898446e-21
3.4276182099114902 3.564263219142183e-23 3.2428857138116194e-15 3.242882047846459e-15 3.665965161677751e-21
3.4340518103208963 3.221252670909675e-23 2.9363043457772923e-15 2.9363006376279354e-15 3.708149356665793e-21
3.4469541582030403 2.732750045338641e-23 2.5003732897287678e-15 2.5003694997366188e-15 3.7899921492291396e-21
3.472904465399547 2.5959190623431045e-23 2.393059061423795e-15 2.3930550838730558e-15 3.977550739670643e-21
3.4990501388274233 2.3866033143835056e-23 2.216663846820229e-15 2.2166596751076693e-15 4.1717125597937686e-21
3.5253949054701885 1.6414864103513002e-23 1.5360823436997605e-15 1.5360779799747727e-15 4.3637249881419816e-21
3.5519380250092896 9.411911536294643e-24 8.873861560699962e-16 8.873815964867117e-16 4.559583284344858e-21
3.578680990867387 6.63599498526152e-24 6.303742560832334e-16 6.303694810400212e-16 4.775043212305734e-21
3.605625307711299 5.513907852714536e-24 5.277272623869451e-16 5.277222584152293e-16 5.003971715802386e-21
3.660119384959845 4.696799793935696e-24 4.563170883461151e-16 4.56311594855729e-16 5.493490386041128e-21
3.715437065384467 4.118980972762828e-24 4.062273204720319e-16 4.0622129811261896e-16 6.022359412825889e-21
3.8285932144167436 3.829470822548741e-24 3.8917723055765776e-16 3.891700251193029e-16 7.205438354710896e-21
3.94519561050918 3.7783189336746604e-24 3.9567315768311883e-16 3.956645883783736e-16 8.569304745253368e-21
4.06534921144712 3.825416493679874e-24 4.128060145501515e-16 4.1279587900599964e-16 1.0135544151658663e-20
4.189162171576248 3.929745227429367e-24 4.369794376090193e-16 4.369675046469363e-16 1.193296208283284e-20
4.316745939156006 4.076082052799896e-24 4.670558757910028e-16 4.67041888656253e-16 1.3987134749786088e-20
4.448215356677963 4.259397458595643e-24 5.02925209586111e-16 5.029088996576048e-16 1.6309928506145902e-20
4.58368876423945 4.480441891069868e-24 5.451366779118699e-16 5.451177351474406e-16 1.894276442935106e-20
4.723288106065518 4.744256852483271e-24 5.9481520766255e-16 5.947932630057329e-16 2.194465681706959e-20
4.867139040275056 5.060804691193976e-24 6.538268678561458e-16 6.538015536750088e-16 2.5314181136918936e-20
4.940699165968905 5.251209987607332e-24 6.886796171960262e-16 6.886524553699958e-16 2.716182603057557e-20
5.015371051989984 5.448563413844388e-24 7.253615184194585e-16 7.25332393953204e-16 2.9124466254588284e-20
5.091171501069577 5.688464107820799e-24 7.687447841526902e-16 7.687135448039031e-16 3.123934878704286e-20
5.129500256944802 5.811662466904141e-24 7.91306753187154e-16 7.912744076889119e-16 3.234549824194047e-20
5.168117569889187 5.940071088961467e-24 8.148796277942148e-16 8.148461368421355e-16 3.3490952079534885e-20
5.20702561229733 6.097025209330768e-24 8.427080404568881e-16 8.426733196984106e-16 3.472075847751784e-20
5.246226572918644 6.2580066912574054e-24 8.714701159960905e-16 8.714341258562932e-16 3.599013979732168e-20
5.265937586045735 6.340047907005949e-24 8.862121092419378e-16 8.861754691977379e-16 3.6640044199848036e-20
5.285722656980489 6.423144911971385e-24 9.01200709820802e-16 9.011634095256698e-16 3.7300295131852656e-20
5.305582063971359 6.507314757012396e-24 9.164405205986855e-16 9.164025495498373e-16 3.797104884827473e-20
5.3255160863122235 6.597639540723866e-24 9.326521984108932e-16 9.326135431984907e-16 3.8655212402636276e-20
5.365609099470188 6.821813502727049e-24 9.716017877291206e-16 9.715617098032897e-16 4.0077925830993964e-20
5.406003951863644 7.05448854832836e-24 1.01230486658223e-15 1.01226331931191e-15 4.1547270319671526e-20
5.446702915881641 7.296073149051002e-24 1.0548538696091542e-15 1.0548108048939914e-15 4.3064715162623187e-20
5.487708281020852 7.556924199929356e-24 1.1007926367785494e-15 1.1007480014133127e-15 4.463536523660222e-20
5.529022354014368 7.91812095645949e-24 1.1620903921366217e-15 1.1620441028468553e-15 4.628928976623205e-20
5.570647458961463 8.300452494865483e-24 1.2273738785144216e-15 1.2273258798181507e-15 4.799869627084972e-20
5.612585937458331 8.705432838746142e-24 1.2969487239097019e-15 1.2968989585016347e-15 4.976540806736436e-20
5.654840148729818 9.150278356434411e-24 1.3734854768269013e-15 1.3734338806104746e-15 5.159621642692227e-20
5.67608639626678 9.452560859883095e-24 1.4241899361281644e-15 1.4241373801286942e-15 5.255599947037807e-20
5.686739436050992 9.608339156424535e-24 1.4503776108087733e-15 1.4503245687741455e-15 5.3042034627446125e-20
5.6974124697621304 9.767307128902735e-24 1.4771409531888921e-15 1.4770874209771655e-15 5.353221172657083e-20
5.718818669136295 1.0095118370534458e-23 1.5324530397900061e-15 1.532398514657758e-15 5.452513224809721e-20
5.740305295436557 1.0456272177682344e-23 1.593240374010061e-15 1.5931848341829317e-15 5.553982712900212e-20
5.7835210386641895 1.139204223770919e-23 1.7488934020125799e-15 1.7488357423394648e-15 5.765967311464739e-20
5.827062130521658 1.2469252827015027e-23 1.9286770495460166e-15 1.9286171833548317e-15 5.986619118523873e-20
5.8489554468988025 1.3224248255315452e-23 2.0531408304608947e-15 2.0530797812471412e-15 6.104921375363057e-20
5.870931020387893 1.4034146245568693e-23 2.187068616290962e-15 2.1870063620132175e-15 6.225427774415939e-20
5.892989160043636 1.4903357168828332e-23 2.33125180283843e-15 2.3311883210404336e-15 6.348179799571231e-20
5.915130176081913 1.5891564461531856e-23 2.4951714564136577e-15 2.4951067014553062e-15 6.475495835149481e-20
5.95966208400165 1.8653141439551653e-23 2.950822267613905e-15 2.950754692595242e-15 6.757501866153946e-20
6.004529249263818 2.263128882218613e-23 3.607095867403397e-15 3.607025145415647e-15 7.072198775132504e-20
6.027089341400364 2.5395844709219495e-23 4.062933602456919e-15 4.062861101951772e-15 7.250050514867823e-20
6.049734195844842 2.866192256154834e-23 4.602682790400181e-15 4.602608408099793e-15 7.438230038827922e-20
6.095279466722835 3.809468178373632e-23 6.1635000787190706e-15 6.163421222967454e-15 7.88557516133123e-20
6.141167624020661 5.260818113885653e-23 8.575780796608096e-15 8.57569631672063e-15 8.44798874648827e-20
6.164241091010745 6.187750048216496e-23 1.0124691787508744e-14 1.012460387387089e-14 8.791363785276083e-20
6.187401249150058 7.243446034353955e-23 1.1896602274788985e-14 1.189651079065476e-14 9.148413422931915e-20
6.1990139391386085 7.758990165449334e-23 1.2767246613973537e-14 1.2767153303539977e-14 9.331043355560624e-20
6.204828454712694 8.030538854864223e-23 1.3226468434532762e-14 1.322637419694082e-14 9.423759194513923e-20
6.210648424152782 8.228840603784045e-23 1.3565788072342606e-14 1.3565693018121728e-14 9.505422087660118e-20
6.233982942956859 8.902685965584132e-23 1.4731809592376953e-14 1.4731711570025187e-14 9.802235176341804e-20
6.239830258556775 8.988912544090245e-23 1.4888445787314273e-14 1.4888347265565547e-14 9.852174872692639e-20
6.245683058788269 8.99655518467842e-23 1.491508123890373e-14 1.491498221528781e-14 9.902361592250479e-20
6.257405133728602 8.97842615717525e-23 1.4912962382150513e-14 1.4912862427613314e-14 9.99545371956423e-20
6.269149208991335 8.846398278372775e-23 1.4721244558120967e-14 1.4721144013044552e-14 1.0054507641807489e-19
6.280915325867298 8.514738668969179e-23 1.4195924960286063e-14 1.419582425001095e-14 1.0071027511445687e-19
6.304513850009849 7.696610039993939e-23 1.2880138088540263e-14 1.288003743488977e-14 1.0065365049326812e-19
6.32820103803542 6.682337528310579e-23 1.1224787008664543e-14 1.1224686825663723e-14 1.0018300081968058e-19
6.3519772230701035 5.752149848589604e-23 9.698589021463235e-15 9.698489176114421e-15 9.984534881195026e-20
6.375842739491607 4.969504520668926e-23 8.410467165709764e-15 8.41036752156398e-15 9.964414578178095e-20
6.399797922933955 4.34244325795747e-23 7.376831210466129e-15 7.376731254830258e-15 9.995563587155258e-20
6.42384311029221 3.82105079821523e-23 6.51549131224405e-15 6.5153909366587774e-15 1.00375585273146e-19
6.447978639727206 3.4412862757909215e-23 5.889980075027318e-15 5.8898788645564625e-15 1.0121047085485684e-19
6.472204850670314 3.124939637867119e-23 5.368628103325668e-15 5.368525963793117e-15 1.0213953255035207e-19
6.496522083828205 2.919563882469277e-23 5.03463898705714e-15 5.034535569311233e-15 1.0341774590734667e-19
6.520930681187647 2.7466119741738577e-23 4.7541877177678105e-15 4.754082950814483e-15 1.0476695332822503e-19
6.57002334288761 2.5702624306377195e-23 4.482433073002622e-15 4.482325070103069e-15 1.080028995542492e-19
