Dust emission spectrum from A.P. Jones, M. Kohler, N. Ysard, M. Bocchio, and L. Verstraete (2017), A&A, 602A, 46J 
inside the DustPedia framework.

lambda    nu*dP/dnu     j_nu    j_nu(carb.) j_nu(sil)
 (um)   (erg s-1 H-1) (Jy cm2 sr-1 H-1)
0.9927057738263894 2.7194014306432994e-23 7.16577722866278e-16 7.165777227161399e-16 1.5013825713931242e-25
1.0001793341362166 2.764277612947565e-23 7.338866142413852e-16 7.338866140605592e-16 1.808260869186662e-25
1.0077091589558085 2.8090900132440326e-23 7.513984496404373e-16 7.513984494229331e-16 2.1750428348773254e-25
1.0114953028030835 2.8314668002609225e-23 7.60229603556293e-16 7.602296033178636e-16 2.3842923166244555e-25
1.0152956718711033 2.853821065661249e-23 7.691104412691419e-16 7.691104410078597e-16 2.6128219884533726e-25
1.0229392996569957 2.898431380003433e-23 7.870137496290012e-16 7.870137493155346e-16 3.1346671797691228e-25
1.0267826658714554 2.9206332909278486e-23 7.960218568384815e-16 7.960218564952911e-16 3.4319042148245093e-25
1.0306404723013447 2.942802905144935e-23 8.0507770881997825e-16 8.050777084443682e-16 3.7561006761413923e-25
1.03451277320114 2.9649380938627677e-23 8.141809194133059e-16 8.141809190023474e-16 4.109581364093888e-25
1.0383996230291617 2.9870367402967757e-23 8.233310976747777e-16 8.233310972252917e-16 4.4948603662704065e-25
1.0403485208654093 2.9980717020461755e-23 8.279236762264655e-16 8.279236757564388e-16 4.700265176267261e-25
1.0423010764483396 3.0090967400783973e-23 8.325278479718552e-16 8.325278474803894e-16 4.914655487297568e-25
1.0462171883269815 3.031116001654816e-23 8.417707700779506e-16 8.417707695407601e-16 5.371903697405799e-25
1.0471985131304309 3.036614207852471e-23 8.440886676183383e-16 8.440886670690948e-16 5.492434165681525e-25
1.048180758391296 3.042109705606469e-23 8.464094192557423e-16 8.464094186941867e-16 5.61555448745999e-25
1.0501480137395462 3.053092446679701e-23 8.510594592673399e-16 8.51059458680362e-16 5.869777665341651e-25
1.0521189612883777 3.064063967207375e-23 8.557208388346232e-16 8.557208382211221e-16 6.135009544030469e-25
1.0531058218030118 3.0695370117401585e-23 8.580534089756516e-16 8.58053408348461e-16 6.271903652650525e-25
1.0540936079674168 3.0749795430593464e-23 8.603810644237797e-16 8.603810637826045e-16 6.411751552670435e-25
1.058054026499678 3.0967188767063976e-23 8.697192021340358e-16 8.697192014338754e-16 7.001602986383375e-25
1.0590464539527713 3.1021458541361e-23 8.720605826163523e-16 8.720605819006531e-16 7.156992762510741e-25
1.06003981227728 3.107569626147784e-23 8.744046882955579e-16 8.744046875639896e-16 7.315682297129518e-25
1.0620293250338977 3.1184074283395257e-23 8.791010486699775e-16 8.791010479056545e-16 7.643228554988819e-25
1.0660195594769086 3.140043189706513e-23 8.885261785999286e-16 8.88526177765835e-16 8.34093775462979e-25
1.070024785945596 3.161624167968927e-23 8.979941625840713e-16 8.979941616741337e-16 9.099377798571378e-25
1.0740450607676866 3.183148386033037e-23 9.075045674699468e-16 9.075045664775913e-16 9.923558310976574e-25
1.07808044048254 3.2046138828717255e-23 9.170569563878212e-16 9.170569553059332e-16 1.0818877685411658e-24
1.0861967418109137 3.247322998981501e-23 9.36274978429439e-16 9.36274977144775e-16 1.2846642727990741e-24
1.0902777775684922 3.268476477345048e-23 9.45914661607466e-16 9.459146602082565e-16 1.3992095926846394e-24
1.0943741465085532 3.289562050448275e-23 9.555938380072976e-16 9.555938364838212e-16 1.5234761458248445e-24
1.1026131145906286 3.331522038086482e-23 9.750688382326361e-16 9.750688364282829e-16 1.804353116159538e-24
1.1109141095355224 3.3731882590266625e-23 9.946962846281677e-16 9.946962824938992e-16 2.1342684706587615e-24
1.1192775983109025 3.4145076096401364e-23 1.0144609393425234e-15 1.014460936821249e-15 2.5212746011215995e-24
1.1277040513999907 3.455288232098284e-23 1.0343055493163426e-15 1.034305546341685e-15 2.9746573778867268e-24
1.1361939428280308 3.495727283574226e-23 1.0542884454608055e-15 1.054288441955696e-15 3.505109533476881e-24
1.1447477501889525 3.53581139742459e-23 1.0744057480006831e-15 1.0744057438757547e-15 4.124928362593704e-24
1.1533659546722406 3.575549348511368e-23 1.094660222568472e-15 1.094660217720228e-15 4.8482443164406e-24
1.1707974979042381 3.654115422204621e-23 1.1356211699711282e-15 1.1356211632985159e-15 6.672612487391564e-24
1.1884924949847024 3.731129194469246e-23 1.1770804968406155e-15 1.1770804877026425e-15 9.137972842645156e-24
1.2064549276569216 3.8071935561586404e-23 1.2192295820753946e-15 1.2192295696223214e-15 1.2453073036900603e-23
1.2246888378427687 3.881479430256178e-23 1.261805690354522e-15 1.261805673466037e-15 1.6888485056702608e-23
1.2431983285522175 3.9538140782432474e-23 1.3047463604165284e-15 1.3047463376228211e-15 2.2793706938661957e-23
1.2619875648066055 4.024171908816364e-23 1.3480345823261334e-15 1.3480345517082555e-15 3.061787760060418e-23
1.3004222497298317 4.1577939650593255e-23 1.435214419639273e-15 1.4352143651650276e-15 5.447424497892188e-23
1.3400274889804893 4.281834282782153e-23 1.5230459129935119e-15 1.5230458178365818e-15 9.515692953001265e-23
1.3808389325824078 4.3958458660978197e-23 1.6112202540227129e-15 1.611220090746293e-15 1.6327641976377317e-22
1.4228933163050095 4.5003942475558414e-23 1.69977850647119e-15 1.6997782311412684e-15 2.7532992148653695e-22
1.466228494730424 4.597996945554721e-23 1.7895332282412448e-15 1.789532771735467e-15 4.565057775407218e-22
1.5108834753276823 4.686783859130733e-23 1.8796428193219186e-15 1.8796420747736998e-15 7.445482181842581e-22
1.5568984535646726 4.7652456041338305e-23 1.9693141875838647e-15 1.9693129918202282e-15 1.1957636365595568e-21
1.6043148490894465 4.83354107843887e-23 2.0583747706859803e-15 2.058372876156059e-15 1.8945299213183517e-21
1.6531753430134553 4.89189345419965e-23 2.1466702705229586e-15 2.146667312772511e-15 2.957750447827793e-21
1.7035239163302658 4.941000195678849e-23 2.2342539751013643e-15 2.2342494238602416e-15 4.5512411234261415e-21
1.755405889504358 4.9848030170284145e-23 2.3227099761906276e-15 2.3227030702289005e-15 6.905961726829045e-21
1.8088679632656115 5.022355264864199e-23 2.4114803651639563e-15 2.4114700280577094e-15 1.0337106246361207e-20
1.8639582606462262 5.0530217598059275e-23 2.500096571435354e-15 2.5000813018471923e-15 1.5269588161887877e-20
1.9207263702978936 5.0772998324392105e-23 2.5886166654504377e-15 2.588594397833168e-15 2.2267617269401144e-20
1.979223391128241 5.0963190046056586e-23 2.677446815967593e-15 2.6774147454050148e-15 3.2070562578214235e-20
2.039501978296691 5.1114255315466057e-23 2.7671684786160404e-15 2.7671228453294387e-15 4.563328660171879e-20
2.1016163906111602 5.1263548536614937e-23 2.859772893119561e-15 2.8597087160856887e-15 6.41770338723135e-20
2.1656225393682647 5.1432823980781843e-23 2.956599957477132e-15 2.9565107192441717e-15 8.923823296014844e-20
2.231578038680979 5.162381147016707e-23 3.057958434277215e-15 3.057835709524613e-15 1.2272475260215925e-19
2.299542257339062 5.184961520983966e-23 3.1648735698008953e-15 3.1647065924676132e-15 1.669773332823538e-19
2.369576372248914 5.213891628925034e-23 3.279458533039146e-15 3.2792336953635102e-15 2.24837675635648e-19
2.4417434235010123 5.2525544620939575e-23 3.4043956262893867e-15 3.404095917595782e-15 2.997086936052577e-19
2.5161083711144245 5.306729259429325e-23 3.544261089635655e-15 3.543865458612314e-15 3.956310233420034e-19
2.5927381535095444 5.385856378311979e-23 3.706660924908352e-15 3.706143579578609e-15 5.173453297436517e-19
2.6717017477616296 5.501184873590047e-23 3.901338627750703e-15 3.900668305780158e-15 6.703219705448481e-19
2.753070231689431 5.669632501703292e-23 4.143254712271022e-15 4.142393902089816e-15 8.608101812061312e-19
2.836916847834745 5.929514504919903e-23 4.465140976821013e-15 4.464045067341093e-15 1.0959094799187247e-18
2.9233170693905177 6.36517387364345e-23 4.939188796217928e-15 4.937805442972011e-15 1.3833532459155933e-18
2.967498994190263 6.732151074949653e-23 5.3029052427651966e-15 5.301358468259588e-15 1.546774505608309e-18
3.0123486681368425 7.160082796555543e-23 5.725227067012308e-15 5.723499868764493e-15 1.7271982478135505e-18
3.0578761833420214 8.111638386327776e-23 6.584122631785955e-15 6.582195995488201e-15 1.9266362977548068e-18
3.1040917844459814 9.33633389329583e-23 7.692727741688626e-15 7.69058270343398e-15 2.1450382546437703e-18
3.127460860933648 1.0629043410850485e-22 8.823796776834858e-15 8.8215342561792e-15 2.262520655661137e-18
3.1510058709225794 1.2350422688850614e-22 1.0330003456144182e-14 1.0327618075973453e-14 2.385380170726521e-18
3.162844764501044 1.3951755480735196e-22 1.1713216378145249e-14 1.1710767263178242e-14 2.4491149670104836e-18
3.1747281389236908 1.5813557132401807e-22 1.332617604975607e-14 1.332366179542861e-14 2.514254327461065e-18
3.1986289994194426 2.1005170166021038e-22 1.7834441251458517e-14 1.783179208637434e-14 2.6491650841742437e-18
3.2227097969389145 3.3239421575724694e-22 2.843440140835414e-14 2.8431608863732166e-14 2.792544621985214e-18
3.2348180950136065 4.483984561267556e-22 3.8502010266348905e-14 3.84991410957904e-14 2.869170558501681e-18
3.240889293275058 5.351241075203724e-22 4.603499980396812e-14 4.603209021196774e-14 2.909592000362297e-18
3.2469718861334385 6.354531083491336e-22 5.4768578583605804e-14 5.4765627164088945e-14 2.9514195168506676e-18
3.2714166318528037 1.1705660101601636e-21 1.0164855275730639e-13 1.0164542813695946e-13 3.1246203469520646e-18
3.2744851364798273 1.2040190954494098e-21 1.0465159004219751e-13 1.0464844491415237e-13 3.1451280451784016e-18
3.2775565192852394 1.2384325808138547e-21 1.07743726318259e-13 1.0774056057082376e-13 3.1657474351927524e-18
3.283707930232385 1.2053464485901938e-21 1.0506204439836523e-13 1.0505884158329028e-13 3.2028150749713282e-18
3.2898708863219004 1.1004057568297385e-21 9.609507738491394e-14 9.609184065733747e-14 3.236727576472091e-18
3.29141343181113 1.0756578372463122e-21 9.397796054722559e-14 9.3974715299183e-14 3.2452480426064106e-18
3.292184975758714 1.063497543277094e-21 9.29373217026361e-14 9.293407218799641e-14 3.2495146397041823e-18
3.295272960557952 9.867448379144885e-22 8.63109090816424e-14 8.630764293709294e-14 3.2661445494588113e-18
3.3076538914384823 7.20838280825023e-22 6.328886897259627e-14 6.32855359400724e-14 3.3330325238588067e-18
3.310756385682612 6.667162748021012e-22 5.859191802104803e-14 5.858856810920863e-14 3.3499118393946413e-18
3.313861789986515 6.167790228994426e-22 5.4254206890603486e-14 5.425084003628424e-14 3.3668543192319027e-18
3.3200813396944477 5.4675098948128005e-22 4.818454190627479e-14 4.818113869180297e-14 3.403214471832348e-18
3.345076488085796 4.218567193417653e-22 3.745764391094972e-14 3.745407885883324e-14 3.5650521164755345e-18
3.3482140837626964 4.265461628246572e-22 3.7909555422313515e-14 3.790596845348757e-14 3.586968825937166e-18
3.3513546224236106 4.312873775628987e-22 3.8366887259659073e-14 3.836327826495679e-14 3.608994702284657e-18
3.3576445397418455 4.659132364675396e-22 4.15249577355137e-14 4.152130272047227e-14 3.65501504142676e-18
3.3702598118196083 5.936040822414373e-22 5.310430063689027e-14 5.310054906778911e-14 3.751569101150641e-18
3.382922481734668 6.227050888145493e-22 5.5917003999071296e-14 5.591315822593984e-14 3.845773131444038e-18
3.389271646505754 6.377808343664213e-22 5.737824702078954e-14 5.737435342745308e-14 3.893593336457752e-18
3.395632727569191 6.540276124997476e-22 5.895032829534827e-14 5.894638541663497e-14 3.942878713292716e-18
3.421196662673239 7.320402499415837e-22 6.647868702226889e-14 6.647453971644074e-14 4.147305828126556e-18
3.4276182099114902 7.163418498407806e-22 6.517517389226768e-14 6.517098057719655e-14 4.1933150711268295e-18
3.4340518103208963 6.475139597185935e-22 5.902356158035397e-14 5.90193245603372e-14 4.237020016770868e-18
3.4469541582030403 5.494886737064135e-22 5.027634360806484e-14 5.027202231665104e-14 4.321291413811491e-18
3.472904465399547 5.2204104000063e-22 4.8124575967364733e-14 4.812006107718229e-14 4.5148901824396474e-18
3.4990501388274233 4.80050101565111e-22 4.4586785679405445e-14 4.458207176721866e-14 4.71391218678484e-18
3.5253949054701885 3.3054621926409563e-22 3.0932099588909936e-14 3.092719089555429e-14 4.90869335564775e-18
3.5519380250092896 1.900180466244519e-22 1.7915530052292133e-14 1.7910424410829286e-14 5.1056414628440826e-18
3.578680990867387 1.3431940897568047e-22 1.2759427591286423e-14 1.2754105864745596e-14 5.321726540825249e-18
3.605625307711299 1.118134703832447e-22 1.0701487619943432e-14 1.0695937564710107e-14 5.5500552333245676e-18
3.660119384959845 9.544384964686537e-23 9.272837140649532e-15 9.266804081031487e-15 6.03305961804538e-18
3.715437065384467 8.38725485845507e-23 8.271783943155443e-15 8.265236830541799e-15 6.54711261364465e-18
3.8285932144167436 7.811870514532541e-23 7.938961473265287e-15 7.931292273227962e-15 7.66920003732286e-18
3.94519561050918 7.714979840797496e-23 8.079282052828423e-15 8.07036269591236e-15 8.919356916066317e-18
4.06534921144712 7.815342424698576e-23 8.433644712973622e-15 8.423341407013991e-15 1.0303305959631648e-17
4.189162171576248 8.030593539885087e-23 8.929851798614294e-15 8.918020706611514e-15 1.183109200278232e-17
4.316745939156006 8.330118488651867e-23 9.545025678488522e-15 9.531519712826993e-15 1.35059656615278e-17
4.448215356677963 8.70373943470493e-23 1.0276876065059955e-14 1.026156067928137e-14 1.5315385778584356e-17
4.58368876423945 9.152887274183917e-23 1.1136344769687457e-14 1.1119074131706994e-14 1.7270637980463975e-17
4.723288106065518 9.68758781591118e-23 1.2145895000297555e-14 1.2126501885896883e-14 1.939311440066726e-17
4.867139040275056 1.0327671976188052e-22 1.3342758380275748e-14 1.3321113095874373e-14 2.1645284401376374e-17
4.940699165968905 1.0711988277229525e-22 1.40484345580933e-14 1.4025605261593507e-14 2.2829296499789826e-17
5.015371051989984 1.1110068622791264e-22 1.4790717541242916e-14 1.4766666990478632e-14 2.4050550764284027e-17
5.091171501069577 1.1593338531395273e-22 1.5667354769230948e-14 1.5642021741484648e-14 2.5333027746297625e-17
5.129500256944802 1.184140465414125e-22 1.6123068955577603e-14 1.6097080533671386e-14 2.5988421906212026e-17
5.168117569889187 1.20998659981238e-22 1.6599017340438698e-14 1.6572359072975336e-14 2.6658267463360852e-17
5.20702561229733 1.2415547402051928e-22 1.7160305662457988e-14 1.7132923574935497e-14 2.738208752248789e-17
5.246226572918644 1.2739236678773049e-22 1.774025598544276e-14 1.771213813216054e-14 2.8117853282213834e-17
5.265937586045735 1.290416404982646e-22 1.8037444840067767e-14 1.8008954624961865e-14 2.849021510590449e-17
5.285722656980489 1.3071190505478083e-22 1.833956157486776e-14 1.8310696012776524e-14 2.8865562091225917e-17
5.305582063971359 1.3240349883239953e-22 1.8646697743995504e-14 1.8617453850621158e-14 2.924389337434436e-17
5.3255160863122235 1.3421831299411628e-22 1.897330157373675e-14 1.89436740556799e-14 2.962751805684679e-17
5.365609099470188 1.3871996668100517e-22 1.9757292920293053e-14 1.972687114195436e-14 3.042177833869698e-17
5.406003951863644 1.4339117223767502e-22 2.057634376846857e-14 2.0545114554908276e-14 3.122921356029698e-17
5.446702915881641 1.4824008343773824e-22 2.143229960157695e-14 2.1400249760849702e-14 3.204984072724576e-17
5.487708281020852 1.5347419064218192e-22 2.2356087546311575e-14 2.2323201117006498e-14 3.288642930507349e-17
5.529022354014368 1.607179888714712e-22 2.3587519278635642e-14 2.3553758673864975e-14 3.376060477067019e-17
5.570647458961463 1.6838423710476537e-22 2.489869248740483e-14 2.4864043013657677e-14 3.4649473747152793e-17
5.612585937458331 1.7650323625860167e-22 2.629572259895778e-14 2.6260169518439697e-14 3.5553080518082476e-17
5.654840148729818 1.854197730232619e-22 2.7832089412330018e-14 2.7795614430469033e-14 3.647498186098141e-17
5.67608639626678 1.9147713562838654e-22 2.8849304818331345e-14 2.8812347973671495e-14 3.695684465985339e-17
5.686739436050992 1.9459860592022274e-22 2.93746355667069e-14 2.9337436232902636e-14 3.71993338042657e-17
5.6974124697621304 1.9778390485110261e-22 2.9911489613411966e-14 2.9874046750254596e-14 3.744286315737052e-17
5.718818669136295 2.043521236161149e-22 3.102093720239152e-14 3.098300415480339e-14 3.7933047588133156e-17
5.740305295436557 2.1158777274191273e-22 3.223999686033441e-14 3.220156642038972e-14 3.843043994468988e-17
5.7835210386641895 2.303326264066953e-22 3.53604035330457e-14 3.532094186077058e-14 3.9461672275115316e-17
5.827062130521658 2.5190909961515174e-22 3.8963946416013985e-14 3.892342779234283e-14 4.051862367115762e-17
5.8489554468988025 2.670290210988489e-22 4.1457795978359936e-14 4.141670964282652e-14 4.108633553341434e-17
5.870931020387893 2.8324843585437618e-22 4.414117922322585e-14 4.4099519583824225e-14 4.165963940162639e-17
5.892989160043636 3.006557322946722e-22 4.7029955063525225e-14 4.698771650059933e-14 4.223856292587405e-17
5.915130176081913 3.2044547496494286e-22 5.031388850386156e-14 5.027105047551004e-14 4.283802835152224e-17
5.95966208400165 3.7574305185045047e-22 5.944044159503061e-14 5.939625730765613e-14 4.418428737447272e-17
6.004529249263818 4.553961805555875e-22 7.25834791743281e-14 7.253778948318263e-14 4.56896911454487e-17
6.027089341400364 5.107463346974929e-22 8.171133779302153e-14 8.166478823083332e-14 4.654956218817507e-17
6.049734195844842 5.7613807763715045e-22 9.251929311930654e-14 9.247183434083264e-14 4.745877847390351e-17
6.095279466722835 7.649834575911182e-22 1.2376991696238817e-13 1.2372025853261934e-13 4.965842976882518e-17
6.141167624020661 1.0555291310754862e-21 1.7206423519272299e-13 1.7201176519587138e-13 5.24699968516412e-17
6.164241091010745 1.241069950112139e-21 2.0306978519996972e-13 2.030155719030383e-13 5.421329693142624e-17
6.187401249150058 1.4523849265377418e-21 2.385390287850637e-13 2.3848301898412335e-13 5.600980094034094e-17
6.1990139391386085 1.5555694610117024e-21 2.559655123979933e-13 2.5590858709727003e-13 5.692530072329085e-17
6.204828454712694 1.6099192571780553e-21 2.6515712858190264e-13 2.650997401969941e-13 5.738838490859587e-17
6.210648424152782 1.6496013930211891e-21 2.7194770173669397e-13 2.7188991359799605e-13 5.778813869794664e-17
6.233982942956859 1.7844250361550315e-21 2.95279536604226e-13 2.9522033230789824e-13 5.92042963277521e-17
6.239830258556775 1.8016659885235702e-21 2.9841214123967185e-13 2.9835272373833645e-13 5.941750133539737e-17
6.245683058788269 1.803174837494355e-21 2.9894219106195224e-13 2.9888255975964873e-13 5.963130230355269e-17
6.257405133728602 1.7995029693249912e-21 2.988933652549495e-13 2.9883334985265796e-13 6.001540229151473e-17
6.269149208991335 1.773030234589261e-21 2.950490230147338e-13 2.9498881908326323e-13 6.020393147052971e-17
6.280915325867298 1.7065972479678253e-21 2.8452695275162116e-13 2.8446680291872165e-13 6.01498328995421e-17
6.304513850009849 1.5427536985689292e-21 2.5817704899844026e-13 2.5811722768080515e-13 5.982131763509202e-17
6.32820103803542 1.3396659102413032e-21 2.2503299843085147e-13 2.2497374007207254e-13 5.925835877890534e-17
6.3519772230701035 1.1534288019511186e-21 1.944774077536507e-13 1.944186380626056e-13 5.876969104515165e-17
6.375842739491607 9.967448145915208e-22 1.6869065116747366e-13 1.6863229463755785e-13 5.835652991578375e-17
6.399797922933955 8.712073728643862e-22 1.4799847360485996e-13 1.479402483920598e-13 5.822521280008256e-17
6.42384311029221 7.668346466646719e-22 1.3075734247252418e-13 1.306991924046755e-13 5.815006784865229e-17
6.447978639727206 6.908093785428946e-22 1.1823641363067058e-13 1.181781167850089e-13 5.829684566165688e-17
6.472204850670314 6.27484817261345e-22 1.0780152626111862e-13 1.0774303737708733e-13 5.848888403127768e-17
6.496522083828205 5.86367170676254e-22 1.0111602749792277e-13 1.010571647948538e-13 5.886270306894594e-17
