Dust emission spectrum from A.P. Jones, M. Kohler, N. Ysard, M. Bocchio, and L. Verstraete (2017), A&A, 602A, 46J 
inside the DustPedia framework.

lambda    nu*dP/dnu     j_nu    j_nu(carb.) j_nu(sil)
 (um)   (erg s-1 H-1) (Jy cm2 sr-1 H-1)
0.9927057738263894 2.784219565242881e-25 7.336576694929221e-18 7.336576443619488e-18 2.5130973144845835e-25
1.0001793341362166 2.8303234339727796e-25 7.514210846397123e-18 7.51421054374934e-18 3.026477841595382e-25
1.0077091589558085 2.876394283002506e-25 7.69401548050337e-18 7.694015116504066e-18 3.639993024942651e-25
1.0114953028030835 2.89941212721397e-25 7.78472462334739e-18 7.784724224350393e-18 3.9899699372366332e-25
1.0152956718711033 2.92241549936044e-25 7.875967772927244e-18 7.875967335710449e-18 4.372167931657563e-25
1.0229392996569957 2.968348075233613e-25 8.059982944605257e-18 8.059982420123005e-18 5.244822509007757e-25
1.0267826658714554 2.9912220461920273e-25 8.152609007170294e-18 8.152608432987678e-18 5.741826159145158e-25
1.0306404723013447 3.0140722344212575e-25 8.245752253619815e-18 8.245751625232838e-18 6.283869781682866e-25
1.03451277320114 3.0368966390668274e-25 8.339409523850425e-18 8.339408836367104e-18 6.874833208082636e-25
1.0383996230291617 3.059693272863734e-25 8.433577621963711e-18 8.433576870072532e-18 7.518911759304073e-25
1.0403485208654093 3.0710805585023176e-25 8.480852223272494e-18 8.480851437045255e-18 7.862272386238987e-25
1.0423010764483396 3.0824601625943477e-25 8.528253317494826e-18 8.528252495430798e-18 8.2206402581366985e-25
1.0462171883269815 3.105195349539478e-25 8.623433346652841e-18 8.623432448160967e-18 8.984918733445431e-25
1.0471985131304309 3.1108739645946065e-25 8.647306770524114e-18 8.647305851886814e-18 9.18637298823071e-25
1.048180758391296 3.1165504464416144e-25 8.671211457602545e-18 8.671210518387336e-18 9.392152062345628e-25
1.0501480137395462 3.1278968899225645e-25 8.719114413572697e-18 8.719113431868703e-18 9.81703992500866e-25
1.0521189612883777 3.1392344394168026e-25 8.767141797775906e-18 8.767140771744898e-18 1.0260310101395871e-24
1.0531058218030118 3.144891251413445e-25 8.791178111917291e-18 8.791177063008422e-18 1.0489088677968154e-24
1.0540936079674168 3.1505177292524532e-25 8.815166928503696e-18 8.815165856223756e-18 1.0722799398103432e-24
1.058054026499678 3.172998756684081e-25 8.911425469691441e-18 8.911424298841584e-18 1.170849855599333e-24
1.0590464539527713 3.17861264539123e-25 8.935565656127167e-18 8.935564459311399e-18 1.1968157679688077e-24
1.06003981227728 3.184223928201459e-25 8.959735955630825e-18 8.959734732298258e-18 1.2233325650773048e-24
1.0620293250338977 3.1954385593923757e-25 9.008166678265331e-18 9.008165400201837e-18 1.2780634900202547e-24
1.0660195594769086 3.217835270677761e-25 9.105387103565952e-18 9.105385708926475e-18 1.3946394776994624e-24
1.070024785945596 3.2401870412828547e-25 9.203083270399499e-18 9.203081749046809e-18 1.5213526900024358e-24
1.0740450607676866 3.2624920397904646e-25 9.301251680365305e-18 9.301250021326965e-18 1.6590383399303963e-24
1.07808044048254 3.2847484530149107e-25 9.399888813194767e-18 9.399887004598406e-18 1.808596363148773e-24
1.0861967418109137 3.3290697232763904e-25 9.598443654444914e-18 9.598441507163401e-18 2.147281513577651e-24
1.0902777775684922 3.351043178146395e-25 9.698099086407232e-18 9.698096747830765e-18 2.3385764687007965e-24
1.0943741465085532 3.37295944809652e-25 9.798201751538023e-18 9.798199205448854e-18 2.546089168978507e-24
1.1026131145906286 3.416613630687906e-25 9.999734191997456e-18 9.999731176931136e-18 3.015066318678906e-24
1.1109141095355224 3.460018875486169e-25 1.0203011678875344e-17 1.0203008113045718e-17 3.565829627350523e-24
1.1192775983109025 3.5031226946276096e-25 1.0407887595244162e-17 1.0407883383453677e-17 4.2117904856126864e-24
1.1277040513999907 3.545731222752508e-25 1.061378742881333e-17 1.0613782460402127e-17 4.968411198296217e-24
1.1361939428280308 3.5880470600277234e-25 1.0821314851795474e-17 1.0821308998302613e-17 5.853492860345702e-24
1.1447477501889525 3.6300583409489174e-25 1.1030440000092004e-17 1.1030433112588856e-17 6.887503148494471e-24
1.1533659546722406 3.6717753436571104e-25 1.1241199667912628e-17 1.1241191573957125e-17 8.093955503164935e-24
1.1707974979042381 3.754461202681407e-25 1.1668064992396717e-17 1.1668053856345998e-17 1.1136050717948179e-23
1.1884924949847024 3.8358234686481405e-25 1.2101089935352707e-17 1.210107468989194e-17 1.5245460768812263e-23
1.2064549276569216 3.9164884613323224e-25 1.2542305820488056e-17 1.254228505131496e-17 2.0769173089926616e-23
1.2246888378427687 3.9956343281707053e-25 1.298915586815028e-17 1.2989127711426692e-17 2.815672358415707e-23
1.2431983285522175 4.0730997778036403e-25 1.3441102706235342e-17 1.3441064717746225e-17 3.798848911492501e-23
1.2619875648066055 4.1488843928579035e-25 1.3898113118359914e-17 1.3898062108419467e-17 5.1009940448942987e-23
1.3004222497298317 4.294314420479729e-25 1.4823394402251082e-17 1.4823303714688607e-17 9.068756246939271e-23
1.3400274889804893 4.431606126341163e-25 1.5763196688535435e-17 1.5763038395138004e-17 1.582933974363673e-22
1.3808389325824078 4.56054835444165e-25 1.671589064302016e-17 1.6715619248419805e-17 2.713946003524256e-22
1.4228933163050095 4.682006489213112e-25 1.7683726268749165e-17 1.7683268995068387e-17 4.572736807790162e-22
1.466228494730424 4.798900388482856e-25 1.8677245343784854e-17 1.867648780664554e-17 7.575371393152204e-22
1.5108834753276823 4.909760474938716e-25 1.9690679789574885e-17 1.9689445334962916e-17 1.2344546119671046e-21
1.5568984535646726 5.013560008663967e-25 2.0719340985908486e-17 2.0717360176036698e-17 1.980809871782237e-21
1.6043148490894465 5.111081393109159e-25 2.17656596267024e-17 2.176252412976768e-17 3.135496934716897e-21
1.6531753430134553 5.203306504659857e-25 2.2833251554943165e-17 2.2828360934026783e-17 4.8906209163841415e-21
1.7035239163302658 5.291839367485217e-25 2.3928987399639885e-17 2.3921469103288684e-17 7.518296351206667e-21
1.755405889504358 5.381806702920945e-25 2.507697109815967e-17 2.5065574109095174e-17 1.13969890644961e-20
1.8088679632656115 5.473531584012049e-25 2.628112359014237e-17 2.6264081213152094e-17 1.704237699027412e-20
1.8639582606462262 5.567856464872997e-25 2.7548226625107164e-17 2.7523078117511922e-17 2.514850759523405e-20
1.9207263702978936 5.667066302362943e-25 2.889303913230131e-17 2.885640378383333e-17 3.663534846797443e-20
1.979223391128241 5.774406021370395e-25 3.033692553792279e-17 3.028421926123222e-17 5.27062766905785e-20
2.039501978296691 5.893651113562635e-25 3.190641335720719e-17 3.1831500978478284e-17 7.491237872890819e-20
2.1016163906111602 6.031471800375745e-25 3.3646987094562456e-17 3.354175363631579e-17 1.0523345824667288e-19
2.1656225393682647 6.193317257096313e-25 3.5602092441619407e-17 3.5455937626868745e-17 1.4615481475065006e-19
2.231578038680979 6.382883881533397e-25 3.780928421340365e-17 3.7608528835119283e-17 2.0075537828435997e-19
2.299542257339062 6.605539777938991e-25 4.0319871560975927e-17 4.004706831027361e-17 2.7280325070230818e-19
2.369576372248914 6.868674887702356e-25 4.320292034107997e-17 4.2836059458064364e-17 3.6686088301560698e-19
2.4417434235010123 7.180646320176379e-25 4.654070910212709e-17 4.6052333030053314e-17 4.883760720737616e-19
2.5161083711144245 7.55276971302731e-25 5.044347752487384e-17 4.979967961695919e-17 6.437979079146515e-19
2.5927381535095444 8.000463737557214e-25 5.5060893262148116e-17 5.4220225571232337e-17 8.406676909157766e-19
2.6717017477616296 8.54105707805545e-25 6.057159805773949e-17 5.948394276241958e-17 1.0876552953199183e-18
2.753070231689431 9.197636060019775e-25 6.721449571199232e-17 6.581987063663317e-17 1.3946250753591483e-18
2.836916847834745 1.0014908504931245e-24 7.541591863444785e-17 7.36431824954498e-17 1.7727361389980487e-18
2.9233170693905177 1.108256116781148e-24 8.599743391160751e-17 8.376336806937034e-17 2.2340658422371516e-18
2.967498994190263 1.179008351710337e-24 9.287030994911915e-17 9.037451431212645e-17 2.4957956369926813e-18
3.0123486681368425 1.2580000246438213e-24 1.0059011880222585e-16 9.780564515707341e-17 2.784473645152437e-18
3.0578761833420214 1.3911508379477922e-24 1.1291809718488526e-16 1.098148194309147e-16 3.103277753970563e-18
3.1040917844459814 1.553212325990018e-24 1.279778517503105e-16 1.2452586940564096e-16 3.451982344669546e-18
3.127460860933648 1.7021259369926052e-24 1.4130352822973933e-16 1.3766413555360067e-16 3.639392676138645e-18
3.1510058709225794 1.893560255653536e-24 1.5837906505804517e-16 1.5454380538796201e-16 3.8352596700831355e-18
3.162844764501044 2.062588618168951e-24 1.7316492406330095e-16 1.6922810291770423e-16 3.9368211455967465e-18
3.1747281389236908 2.256997660604583e-24 1.9019849814483876e-16 1.8615791017890866e-16 4.0405879659301155e-18
3.1986289994194426 2.789561831461984e-24 2.368477675129629e-16 2.3259236815428293e-16 4.255399358680071e-18
3.2227097969389145 4.0134679384563245e-24 3.43328953970038e-16 3.388453877952963e-16 4.483566174741558e-18
3.2348180950136065 5.162923559095889e-24 4.4331761887353947e-16 4.3871214860293034e-16 4.605470270609322e-18
3.240889293275058 6.0194585041685106e-24 5.178345867156472e-16 5.13164811607574e-16 4.669775108073321e-18
3.2469718861334385 7.009711587935231e-24 6.041546337693136e-16 5.994183183012952e-16 4.736315468018564e-18
3.2714166318528037 1.2273980865366836e-23 1.0658368521777783e-15 1.060825109878895e-15 5.011742298882971e-18
3.2744851364798273 1.2604768750378924e-23 1.0955881819706434e-15 1.0905438562084699e-15 5.044325762173245e-18
3.2775565192852394 1.2944909139906194e-23 1.1262080545944716e-15 1.1211309706662135e-15 5.077083928258227e-18
3.283707930232385 1.2627665125882114e-23 1.1006697001138934e-15 1.095533782210005e-15 5.135917903888665e-18
3.2898708863219004 1.1606773514667737e-23 1.0135841185477732e-15 1.0083944258499818e-15 5.189692697791643e-18
3.29141343181113 1.1366032593437247e-23 9.930263376121636e-16 9.878231355271139e-16 5.203202085049618e-18
3.292184975758714 1.1247742876915962e-23 9.829219679806165e-16 9.777120013300549e-16 5.209966650561848e-18
3.295272960557952 1.0500427273452578e-23 9.184759715924694e-16 9.132396482676262e-16 5.236323324843416e-18
3.3076538914384823 7.910450921910026e-24 6.945295570844464e-16 6.891872511548839e-16 5.3423059295623384e-18
3.310756385682612 7.383143152784483e-24 6.488404958676242e-16 6.434714508845024e-16 5.369044983121933e-18
3.313861789986515 6.896561954773718e-24 6.066475759328167e-16 6.012516942049828e-16 5.395881727833706e-18
3.3200813396944477 6.216590975990708e-24 5.47861081478756e-16 5.424075829598738e-16 5.453498518882363e-18
3.345076488085796 5.02253961091019e-24 4.459630287924824e-16 4.4025302983674913e-16 5.709998955733339e-18
3.3482140837626964 5.0724275659181384e-24 4.508151536575694e-16 4.450704171355928e-16 5.7447365219766755e-18
3.3513546224236106 5.122832481773077e-24 4.557219768149668e-16 4.499423328198962e-16 5.77964399507073e-18
3.3576445397418455 5.470420855632509e-24 4.87556431209996e-16 4.81703844140314e-16 5.8525870696820345e-18
3.3702598118196083 6.737614001040524e-24 6.027523903399476e-16 5.967467721984818e-16 6.0056181414656884e-18
3.382922481734668 7.039713389082031e-24 6.321446360411025e-16 6.259898113944911e-16 6.154824646611747e-18
3.389271646505754 7.195965025140817e-24 6.473883135351082e-16 6.411577687853895e-16 6.230544749718632e-18
3.395632727569191 7.364414427087093e-24 6.637864210663594e-16 6.574778378659659e-16 6.308583200393538e-18
3.421196662673239 8.169418027919326e-24 7.418884197630777e-16 7.352562661346368e-16 6.63215362844093e-18
3.4276182099114902 8.023327117914745e-24 7.299890969944989e-16 7.232842275921785e-16 6.7048694023207736e-18
3.4340518103208963 7.354614030652976e-24 6.704033289516062e-16 6.636294376666028e-16 6.773891285003221e-18
3.4469541582030403 6.405213366409044e-24 5.860552246152551e-16 5.791483529472194e-16 6.90687166803599e-18
3.472904465399547 6.1660013642054344e-24 5.684154660833198e-16 5.612029622417201e-16 7.212503841599521e-18
3.4990501388274233 5.78503317225677e-24 5.373106543644357e-16 5.29784218643965e-16 7.526435720470813e-18
3.5253949054701885 4.349697128460375e-24 4.0703918822207003e-16 3.9920591401214275e-16 7.833274209927333e-18
3.5519380250092896 2.999810860878048e-24 2.8283209191951155e-16 2.746888997499528e-16 8.143192169558662e-18
3.578680990867387 2.4861729360577543e-24 2.3616946946802316e-16 2.276863224591274e-16 8.483147008895697e-18
3.605625307711299 2.3004999588392504e-24 2.2017715526418146e-16 2.1133501357416316e-16 8.842141690018327e-18
3.660119384959845 2.2135258213028233e-24 2.150548675845212e-16 2.0545427397570293e-16 9.60059360881827e-18
3.715437065384467 2.1763462476525908e-24 2.1463835605199808e-16 2.0423198135113957e-16 1.0406374700858463e-17
3.8285932144167436 2.283465831633721e-24 2.3206154312380565e-16 2.1990135762260502e-16 1.2160185501200634e-17
3.94519561050918 2.4512041976830524e-24 2.566950334391444e-16 2.4258869380330107e-16 1.4106339635843286e-17
4.06534921144712 2.6523171188740372e-24 2.8621522936769053e-16 2.6996374901762995e-16 1.625148035006075e-17
4.189162171576248 2.8791203000517157e-24 3.201521464403693e-16 3.015433822530572e-16 1.8608764187312102e-17
4.316745939156006 3.128854434986836e-24 3.5851826077728883e-16 3.3733794053546685e-16 2.1180320241821857e-17
4.448215356677963 3.40054634474971e-24 4.0151699853443687e-16 3.7757355354124555e-16 2.3943444993191532e-17
4.58368876423945 3.6946927688580785e-24 4.495343519429863e-16 4.2262205068320795e-16 2.691230125977835e-17
4.723288106065518 4.012724245126092e-24 5.03098689504531e-16 4.72982497972984e-16 3.0116191531547075e-17
4.867139040275056 4.356341026801858e-24 5.62814212890539e-16 5.29321559113385e-16 3.3492653777153825e-17
4.940699165968905 4.540521163338362e-24 5.954750208081269e-16 5.602164319901559e-16 3.5258588817970955e-17
5.015371051989984 4.7298266818746036e-24 6.296768530045814e-16 5.926033534694653e-16 3.7073499535116006e-17
5.091171501069577 4.932161102981861e-24 6.665372323093737e-16 6.275637355765376e-16 3.8973496732835864e-17
5.129500256944802 5.035364230402277e-24 6.856072153131944e-16 6.456655451684595e-16 3.994167014473491e-17
5.168117569889187 5.1406389751105016e-24 7.052107478051857e-16 6.642810865879336e-16 4.092966121725173e-17
5.20702561229733 5.253464481423005e-24 7.261142289480185e-16 6.841153735939901e-16 4.1998855354028474e-17
5.246226572918644 5.368033789010132e-24 7.475353190841088e-16 7.044516646180987e-16 4.308365446601007e-17
5.265937586045735 5.4259797032737184e-24 7.5844362504398875e-16 7.148117506311146e-16 4.363187441287397e-17
5.285722656980489 5.484370497307292e-24 7.694857663699578e-16 7.253018094058866e-16 4.418395696407142e-17
5.305582063971359 5.543209283364976e-24 7.806632675882392e-16 7.359233792444627e-16 4.4739888343776246e-17
5.3255160863122235 5.6036292023810854e-24 7.92137409511584e-16 7.468341850772412e-16 4.5303224434343026e-17
5.365609099470188 5.734754100161208e-24 8.167765556294006e-16 7.703073308114994e-16 4.6469224817901356e-17
5.406003951863644 5.8685089100046906e-24 8.421191824865383e-16 7.944669228862489e-16 4.765225960028925e-17
5.446702915881641 6.004970099532894e-24 8.681883825689779e-16 8.193361383748352e-16 4.8852244194142696e-17
5.487708281020852 6.1464239013111e-24 8.95329633337621e-16 8.452563253417247e-16 5.007330799589627e-17
5.529022354014368 6.310736465608111e-24 9.261851712440339e-16 8.748367578490799e-16 5.134841339495403e-17
5.570647458961463 6.4801604081552026e-24 9.582103648533616e-16 9.05568030845555e-16 5.264233400780673e-17
5.612585937458331 6.654981995708758e-24 9.91469415347265e-16 9.375144048978452e-16 5.3955010449419744e-17
5.654840148729818 6.838955348227843e-24 1.026548644922192e-15 9.712569207932745e-16 5.529172412891736e-17
5.67608639626678 6.948629193528295e-24 1.0469298123547601e-15 9.909394005163728e-16 5.599041183838739e-17
5.686739436050992 7.004464266094628e-24 1.0573230172106222e-15 1.0009812760991776e-15 5.634174111144478e-17
5.6974124697621304 7.06098343339849e-24 1.0678550046201874e-15 1.011160611046835e-15 5.669439357335228e-17
5.718818669136295 7.176132176504285e-24 1.0893468668893532e-15 1.0319432002228828e-15 5.740366666647031e-17
5.740305295436557 7.29855425467303e-24 1.1120934031601913e-15 1.0539706235873745e-15 5.812277957281652e-17
5.7835210386641895 7.589794641291333e-24 1.1651766640091082e-15 1.1055640221075224e-15 5.961264190158582e-17
5.827062130521658 7.910648941544948e-24 1.2235766867697375e-15 1.1624398234695647e-15 6.113686330017285e-17
5.8489554468988025 8.118171758546405e-24 1.2603929981022996e-15 1.1984367395325812e-15 6.195625856971812e-17
5.870931020387893 8.336668442506317e-24 1.2991788453669477e-15 1.2363959936164656e-15 6.278285175048222e-17
5.892989160043636 8.566980353834591e-24 1.3400865434890757e-15 1.2764698835040016e-15 6.361665998507454e-17
5.915130176081913 8.822299947842162e-24 1.385209811347518e-15 1.3207296784799348e-15 6.448013286758353e-17
5.95966208400165 9.50051825309653e-24 1.5029286571358046e-15 1.4365040271038191e-15 6.642463003198575e-17
6.004529249263818 1.0434087889873943e-23 1.6630407398977514e-15 1.5944394188833359e-15 6.860132101441579e-17
6.027089341400364 1.1064649854858924e-23 1.7701690260535548e-15 1.7003216541197203e-15 6.984737193383439e-17
6.049734195844842 1.1797958863717323e-23 1.894578498957034e-15 1.8234132173247415e-15 7.116528163229249e-17
6.095279466722835 1.387297663232738e-23 2.244567707661561e-15 2.170203862356297e-15 7.436384530526359e-17
6.141167624020661 1.7001993676471155e-23 2.7715341553034873e-15 2.6930693339908484e-15 7.846482131263976e-17
6.164241091010745 1.8990436899767507e-23 3.1073058708261495e-15 3.026291801324808e-15 8.101406950134172e-17
6.187401249150058 2.123233229334425e-23 3.487188438515145e-15 3.403549546851358e-15 8.363889166378743e-17
6.1990139391386085 2.2327670924222236e-23 3.673968840359824e-15 3.588992826203839e-15 8.4976014155986e-17
6.204828454712694 2.2902563161047295e-23 3.772100903739499e-15 3.68644877080568e-15 8.565213293381955e-17
6.210648424152782 2.332597661434725e-23 3.845441545983297e-15 3.7592074262942244e-15 8.623411968907459e-17
6.233982942956859 2.4767945087722973e-23 4.098500749518938e-15 4.010212103735018e-15 8.828864578392019e-17
6.239830258556775 2.495599660979156e-23 4.133492241367503e-15 4.044899503728301e-15 8.85927376392025e-17
6.245683058788269 2.498117424490366e-23 4.141543464775245e-15 4.052645864135707e-15 8.889760063953899e-17
6.257405133728602 2.496188188524277e-23 4.14611201368311e-15 4.056669578233507e-15 8.944243544960309e-17
6.269149208991335 2.4705880346491424e-23 4.111292473610794e-15 4.02159590648444e-15 8.969656712635335e-17
6.280915325867298 2.4035108282402152e-23 4.007176342743092e-15 3.917586018876489e-15 8.959032386660409e-17
6.304513850009849 2.237090335823033e-23 3.743730329614344e-15 3.654679522024553e-15 8.905080758979052e-17
6.32820103803542 2.0307462383096002e-23 3.411185666258154e-15 3.3230223309094297e-15 8.81633353487245e-17
6.3519772230701035 1.842193711331716e-23 3.1060873194239186e-15 3.018701197878939e-15 8.738612154498088e-17
6.375842739491607 1.683473559401296e-23 2.849136978706135e-15 2.762415851602921e-15 8.672112710321468e-17
6.399797922933955 1.558590050086446e-23 2.6476927947718655e-15 2.5612197212816425e-15 8.647307349022382e-17
6.42384311029221 1.4549978064830187e-23 2.4809996171477945e-15 2.394691655641622e-15 8.630796150617357e-17
6.447978639727206 1.3815276239108143e-23 2.3645722923950405e-15 2.2781019156907354e-15 8.647037670430544e-17
6.472204850670314 1.3209184599563077e-23 2.269330223339388e-15 2.1826311639718795e-15 8.669905936750864e-17
6.496522083828205 1.283845317791174e-23 2.2139257610062667e-15 2.1267304238896133e-15 8.719533711665358e-17
6.520930681187647 1.2533912766635536e-23 2.169530122602602e-15 2.0817954215147e-15 8.773470108790205e-17
6.57002334288761 1.2280450771280013e-23 2.141660634821181e-15 2.0524683768616016e-15 8.919225795957922e-17
