Dust emission spectrum from A.P. Jones, M. Kohler, N. Ysard, M. Bocchio, and L. Verstraete (2017), A&A, 602A, 46J 
inside the DustPedia framework.

lambda    nu*dP/dnu     j_nu    j_nu(carb.) j_nu(sil)
 (um)   (erg s-1 H-1) (Jy cm2 sr-1 H-1)
0.9927057738263894 3.728334272845474e-23 9.824372574106898e-16 9.824367983336627e-16 4.590770274253757e-22
1.0001793341362166 3.79112725749754e-23 1.0065043880293772e-15 1.0065038354768567e-15 5.525525203289838e-22
1.0077091589558085 3.8541449043448026e-23 1.0309383081925093e-15 1.03093764401286e-15 6.641796492605639e-22
1.0114953028030835 3.885734778454275e-23 1.0432933947440156e-15 1.0432926669219598e-15 7.278220559428288e-22
1.0152956718711033 3.917377035349274e-23 1.0557408859749146e-15 1.0557400886772537e-15 7.972976608126147e-22
1.0229392996569957 3.980783147428109e-23 1.080905724707418e-15 1.0809047688713659e-15 9.558360523035757e-22
1.0267826658714554 4.012474907554294e-23 1.0936045056907791e-15 1.0936034596132428e-15 1.0460775357871158e-21
1.0306404723013447 4.044212811155453e-23 1.10639607507968e-15 1.1063949306213784e-15 1.1444583015306187e-21
1.03451277320114 4.0759957796728947e-23 1.1192807021125054e-15 1.119279450437107e-15 1.251675398684317e-21
1.0383996230291617 4.10782276887921e-23 1.1322586641564839e-15 1.1322572956743276e-15 1.368482156207269e-21
1.0403485208654093 4.123752454573438e-23 1.1387827348185841e-15 1.138781304085083e-15 1.4307335010032226e-21
1.0423010764483396 4.139692769961516e-23 1.1453302471594574e-15 1.145328751467028e-15 1.4956924295255037e-21
1.0462171883269815 4.1716048106158186e-23 1.1584957461132675e-15 1.1584941119281246e-15 1.6341851432216144e-21
1.0471985131304309 4.179589279086207e-23 1.1618018306878606e-15 1.161800160007073e-15 1.6706807872740563e-21
1.048180758391296 4.187576302192261e-23 1.1651138088463692e-15 1.165112100890309e-15 1.7079560601141726e-21
1.0501480137395462 4.2035579561527863e-23 1.1717554655290221e-15 1.1717536806198736e-15 1.7849091485116772e-21
1.0521189612883777 4.219549661721866e-23 1.1784207557924691e-15 1.178418890617676e-15 1.865174792614521e-21
1.0531058218030118 4.2275385356146135e-23 1.1817592810205616e-15 1.1817573744258566e-15 1.9065947050258233e-21
1.0540936079674168 4.235494779974461e-23 1.1850939026183492e-15 1.1850919537150368e-15 1.94890331290489e-21
1.058054026499678 4.2673427926131514e-23 1.1984910857556728e-15 1.1984889584588848e-15 2.1272967880979403e-21
1.0590464539527713 4.2753104917215996e-23 1.2018550814770841e-15 1.201852907199047e-15 2.174278037206333e-21
1.06003981227728 4.283280444646048e-23 1.205224967630403e-15 1.2052227453794715e-15 2.2222509311836146e-21
1.0620293250338977 4.299227064151002e-23 1.2119824325129833e-15 1.211980111261407e-15 2.3212515764689445e-21
1.0660195594769086 4.331146832738412e-23 1.2255682841763506e-15 1.2255657521231492e-15 2.5320532012030105e-21
1.070024785945596 4.3631013802367306e-23 1.2392489942067005e-15 1.2392462331196886e-15 2.7610870118494555e-21
1.0740450607676866 4.3950900333961036e-23 1.25302492879363e-15 1.2530219189482272e-15 3.0098454028913028e-21
1.07808044048254 4.4271121650474986e-23 1.2668964674233322e-15 1.26689318748782e-15 3.27993551224976e-21
1.0861967418109137 4.491205066062838e-23 1.2949136650924591e-15 1.2949097739290708e-15 3.891163388155556e-21
1.0902777775684922 4.5231622080519787e-23 1.3090274563947818e-15 1.3090232202278837e-15 4.2361668979585706e-21
1.0943741465085532 4.555148848052167e-23 1.3232375932265863e-15 1.3232329829758124e-15 4.6102507739174354e-21
1.1026131145906286 4.619209201451724e-23 1.3519487183701819e-15 1.3519432632767908e-15 5.455093390624196e-21
1.1109141095355224 4.683383831795423e-23 1.3810508454451837e-15 1.3810443990865553e-15 6.4463586284472596e-21
1.1192775983109025 4.747620510564265e-23 1.4105329709007312e-15 1.410525363021965e-15 7.607878766582989e-21
1.1277040513999907 4.811685110419547e-23 1.4403292220422185e-15 1.4403202549447897e-15 8.967097428999052e-21
1.1361939428280308 4.8758551409363565e-23 1.4705259649356498e-15 1.4705154093629026e-15 1.055557274746613e-20
1.1447477501889525 4.940132268672889e-23 1.501128286766604e-15 1.5011158772208746e-15 1.2409545728777028e-20
1.1533659546722406 5.004543028382949e-23 1.5321489514846104e-15 1.5321343808850965e-15 1.457059951390773e-20
1.1707974979042381 5.133976909775722e-23 1.5955305706700208e-15 1.5955105592024437e-15 2.001146757730995e-20
1.1884924949847024 5.2639945975294427e-23 1.6606622427899261e-15 1.6606348962766186e-15 2.734651330763098e-20
1.2064549276569216 5.39552403840756e-23 1.7278823420427336e-15 1.7278451561938749e-15 3.718584885915266e-20
1.2246888378427687 5.527732327689629e-23 1.796975671561159e-15 1.796925353705891e-15 5.031785526835459e-20
1.2431983285522175 5.660565676635057e-23 1.8679690846186355e-15 1.867901326935855e-15 6.775768278048227e-20
1.2619875648066055 5.794277700333185e-23 1.9409923076441584e-15 1.940901501824746e-15 9.080581941306637e-20
1.3004222497298317 6.06383900834681e-23 2.0931554704939e-15 2.0929946762441583e-15 1.6079424974206293e-19
1.3400274889804893 6.338098061135952e-23 2.2544577185021188e-15 2.254178208016239e-15 2.795104858801169e-19
1.3808389325824078 6.619318610137208e-23 2.4261952164282764e-15 2.425718016941026e-15 4.771994872493891e-19
1.4228933163050095 6.911633596743613e-23 2.6104926782202283e-15 2.6096921236846565e-15 8.005545355721858e-19
1.466228494730424 7.222492855873515e-23 2.8109829365624657e-15 2.80966258983632e-15 1.3203467261450536e-18
1.5108834753276823 7.554601580180636e-23 3.029786104891606e-15 3.027644287742563e-15 2.141817149042441e-18
1.5568984535646726 7.912095027873705e-23 3.269800192121606e-15 3.2663793626279408e-15 3.420829493665684e-18
1.6043148490894465 8.30261800295148e-23 3.535689290849725e-15 3.5302998383842794e-15 5.3894524654462066e-18
1.6531753430134553 8.735509502137767e-23 3.83333339568369e-15 3.824967565156844e-15 8.365830526844875e-18
1.7035239163302658 9.222439398350285e-23 4.170263321162363e-15 4.157465786569348e-15 1.2797534593015664e-17
1.755405889504358 9.781796025105035e-23 4.557908333580954e-15 4.538605864667662e-15 1.930246891329179e-17
1.8088679632656115 1.0427829599575124e-22 5.006915083561075e-15 4.978199243763873e-15 2.8715839797203076e-17
1.8639582606462262 1.1177649226638122e-22 5.530394254486311e-15 5.488241709248515e-15 4.215254523779697e-17
1.9207263702978936 1.205313066725574e-22 6.1451826651569964e-15 6.084105063467722e-15 6.107760168927557e-17
1.979223391128241 1.308053399226153e-22 6.872103974866162e-15 6.7847138711324105e-15 8.739010373374899e-17
2.039501978296691 1.428978772746915e-22 7.736051307315506e-15 7.612536837748127e-15 1.235144695673805e-16
2.1016163906111602 1.5718641019407295e-22 8.768753780646196e-15 8.596239005861033e-15 1.72514774785164e-16
2.1656225393682647 1.7406568831712822e-22 1.0006112183708753e-14 9.767915787424769e-15 2.381963962839843e-16
2.231578038680979 1.9393127962851158e-22 1.14876018511901e-14 1.1162381471248172e-14 3.252203799419302e-16
2.299542257339062 2.172391320371582e-22 1.3260163735610779e-14 1.2820941013026647e-14 4.3922272258413115e-16
2.369576372248914 2.4449898577656606e-22 1.537861433053397e-14 1.4791673213293112e-14 5.869411172408571e-16
2.4417434235010123 2.762566030282658e-22 1.7905321646261652e-14 1.7129011349092654e-14 7.763102971689985e-16
2.5161083711144245 3.1312029656489703e-22 2.0912694604086227e-14 1.9896106716394864e-14 1.016587887691359e-15
2.5927381535095444 3.5575375145536248e-22 2.4483729917477678e-14 2.316530056437891e-14 1.3184293530987674e-15
2.6717017477616296 4.048188138003911e-22 2.870900200249076e-14 2.7015131956718835e-14 1.6938700457719282e-15
2.753070231689431 4.610053864989034e-22 3.3689357104187575e-14 3.1533015080890106e-14 2.156342023297472e-15
2.836916847834745 5.252070658731415e-22 3.9550010193925226e-14 3.682927247507718e-14 2.720737718848042e-15
2.9233170693905177 5.986257266844146e-22 4.6451605895803044e-14 4.3048945659354877e-14 3.402660236448166e-15
2.967498994190263 6.390174632156036e-22 5.033530914827074e-14 4.6549662607797504e-14 3.785646540473243e-15
3.0123486681368425 6.821097538953828e-22 5.454173277931388e-14 5.0335521902158126e-14 4.2062108771557675e-15
3.0578761833420214 7.3249270649805075e-22 5.945558192782441e-14 5.478682667170859e-14 4.6687552561157955e-15
3.1040917844459814 7.871832353895527e-22 6.486043003476742e-14 5.968849725859786e-14 5.171932776169544e-15
3.127460860933648 8.214722075863288e-22 6.8195260263592e-14 6.275398233552448e-14 5.441277928067505e-15
3.1510058709225794 8.599208892453846e-22 7.192454850905262e-14 6.620256637416703e-14 5.7219821348855966e-15
3.162844764501044 8.861376665805547e-22 7.43958152349715e-14 6.85285873173154e-14 5.867227917656133e-15
3.1747281389236908 9.14506978883081e-22 7.70660319957722e-14 7.10506186718685e-14 6.01541332390369e-15
3.1986289994194426 9.838800368728923e-22 8.353634165971775e-14 7.721482098398994e-14 6.321520675727812e-15
3.2227097969389145 1.115062840564298e-21 9.538717252318364e-14 8.874133969951442e-14 6.6458328236692205e-15
3.2348180950136065 1.2281537661100366e-21 1.0545618136128582e-13 9.863728988456802e-14 6.818891476717831e-15
3.240889293275058 1.3097434933544067e-21 1.1267300540655086e-13 1.0576282976642025e-13 6.910175640130635e-15
3.2469718861334385 1.4033067376270792e-21 1.2094852370193295e-13 1.1394389563510637e-13 7.004628066826554e-15
3.2714166318528037 1.8864335265157633e-21 1.6381240885078523e-13 1.564174955210274e-13 7.394913329757841e-15
3.2744851364798273 1.9181938866423737e-21 1.6672662502202147e-13 1.5928572729464926e-13 7.440897727372227e-15
3.2775565192852394 1.950730651435036e-21 1.6971371125486158e-13 1.622266002151364e-13 7.487111039725214e-15
3.283707930232385 1.9288016657430943e-21 1.6812083071963222e-13 1.6055109449084157e-13 7.569736228790627e-15
3.2898708863219004 1.845330726279224e-21 1.6114710218659696e-13 1.5350218999806824e-13 7.644912188528686e-15
3.29141343181113 1.8256836568075403e-21 1.595061372958558e-13 1.5184234849452076e-13 7.663788801335068e-15
3.292184975758714 1.816035616564909e-21 1.58700400755099e-13 1.5102716123935069e-13 7.673239515748331e-15
3.295272960557952 1.754239664144281e-21 1.5344394451495386e-13 1.4573394682796537e-13 7.709997686988441e-15
3.3076538914384823 1.5400604337152142e-21 1.3521574199378794e-13 1.273581148539179e-13 7.857627139870067e-15
3.310756385682612 1.496541322997028e-21 1.3151805322013462e-13 1.2362321676808653e-13 7.894836452048065e-15
3.313861789986515 1.456429689298941e-21 1.281130433285258e-13 1.2018087657774546e-13 7.932166750780313e-15
3.3200813396944477 1.4024893930668289e-21 1.2359979265414443e-13 1.1558732419948772e-13 8.012468454656683e-15
3.345076488085796 1.3242900131440355e-21 1.175868048862086e-13 1.0921646026989025e-13 8.370344616318332e-15
3.3482140837626964 1.332172346260587e-21 1.1839764554018344e-13 1.0997882035104327e-13 8.4188251891402e-15
3.3513546224236106 1.3401063200547945e-21 1.192144977393883e-13 1.1074697453774305e-13 8.46752320164526e-15
3.3576445397418455 1.377893205162742e-21 1.228060347506798e-13 1.142366926592861e-13 8.569342091393701e-15
3.3702598118196083 1.5031720198478367e-21 1.3447498297104673e-13 1.2569207362824543e-13 8.782909342801297e-15
3.382922481734668 1.5442804871453578e-21 1.386716436504207e-13 1.2968115304752285e-13 8.990490602897855e-15
3.389271646505754 1.565316357799777e-21 1.4082440832945615e-13 1.3172870298129816e-13 9.095705348158001e-15
3.395632727569191 1.587935209535667e-21 1.4312744618852971e-13 1.3392331048932262e-13 9.20413569920713e-15
3.421196662673239 1.6922357947867599e-21 1.5367681459931562e-13 1.4402383109504355e-13 9.652983504272003e-15
3.4276182099114902 1.6859178608576477e-21 1.533904375039653e-13 1.4363728868523057e-13 9.75314881873475e-15
3.4340518103208963 1.6324088514930412e-21 1.488007832484228e-13 1.3895289678258416e-13 9.847886465838671e-15
3.4469541582030403 1.5592567160133124e-21 1.4266668300674218e-13 1.3263696242869603e-13 1.002972057804614e-14
3.472904465399547 1.5639968732851508e-21 1.4417771894148655e-13 1.3372913011274937e-13 1.0448588828737153e-14
3.4990501388274233 1.5568052340219733e-21 1.445952018083255e-13 1.337179897438098e-13 1.0877212064515675e-14
3.5253949054701885 1.4567492121468388e-21 1.3632075963994122e-13 1.25027156735289e-13 1.1293602904652215e-14
3.5519380250092896 1.362906381090343e-21 1.2849932236774556e-13 1.1678722307632228e-13 1.1712099291423309e-14
3.578680990867387 1.3458346146573405e-21 1.27845107766044e-13 1.1567432906606295e-13 1.2170778699981074e-14
3.605625307711299 1.359181970007981e-21 1.3008512279814143e-13 1.1743128561751408e-13 1.2653837180627383e-14
3.660119384959845 1.4128072712045106e-21 1.3726114134621106e-13 1.235925330669784e-13 1.3668608279232634e-14
3.715437065384467 1.4721803897652594e-21 1.4519122543668233e-13 1.304530112901957e-13 1.4738214146486682e-14
3.8285932144167436 1.6119416438782691e-21 1.6381662476477016e-13 1.467802044685838e-13 1.703642029618635e-14
3.94519561050918 1.7625380483172346e-21 1.8457652923335023e-13 1.6503505961266203e-13 1.9541469620688093e-14
4.06534921144712 1.9207481040061358e-21 2.0727059944440277e-13 1.8502054716318507e-13 2.225005228121766e-14
4.189162171576248 2.085044572477595e-21 2.3185258889340396e-13 2.0668591793854376e-13 2.51666709548602e-14
4.316745939156006 2.2541052060755356e-21 2.5828554663797687e-13 2.3000576224228646e-13 2.8279784395690347e-14
4.448215356677963 2.426448067956668e-21 2.865010638216587e-13 2.5495567186487777e-13 3.1545391956780834e-14
4.58368876423945 2.601075234300318e-21 3.1647358602093797e-13 2.815070095276267e-13 3.496657649331129e-14
4.723288106065518 2.777128744865946e-21 3.4818486065282013e-13 3.096210966261217e-13 3.8563764026698454e-14
4.867139040275056 2.9528949344741584e-21 3.8149704719389585e-13 3.392567908445108e-13 4.2240256349384914e-14
4.940699165968905 3.040714348057685e-21 3.987800903343764e-13 3.546609671277779e-13 4.411912320659865e-14
5.015371051989984 3.127839293258264e-21 4.164059563599785e-13 3.7038687682480735e-13 4.601907953517108e-14
5.091171501069577 3.2153754965955985e-21 4.345290917282695e-13 3.865478599642537e-13 4.79812317640158e-14
5.129500256944802 3.258761139253676e-21 4.437077533666462e-13 3.9473959045136524e-13 4.896816291528095e-14
5.168117569889187 3.3020199231968867e-21 4.5298258651887573e-13 4.0301397496488096e-13 4.996861155399486e-14
5.20702561229733 3.3463273161061486e-21 4.625168567398299e-13 4.1145548236518276e-13 5.1061374374647024e-14
5.246226572918644 3.39035332407297e-21 4.721298250967424e-13 4.1996896084067063e-13 5.216086425607169e-14
5.265937586045735 3.412254459651838e-21 4.769650429008069e-13 4.2425205521528244e-13 5.271298768552461e-14
5.285722656980489 3.4340776619464706e-21 4.818189950467846e-13 4.2855237627197774e-13 5.3266618774806875e-14
5.305582063971359 3.455820436383554e-21 4.866913616560577e-13 4.3286966330214574e-13 5.382169835391199e-14
5.3255160863122235 3.4776514647900176e-21 4.916060151396838e-13 4.3722336671141606e-13 5.4382648428267575e-14
5.365609099470188 3.52237535775802e-21 5.016768918239404e-13 4.461336054157986e-13 5.554328640814191e-14
5.406003951863644 3.566798678492856e-21 5.118284104682511e-13 4.55117670400146e-13 5.6710740068105004e-14
5.446702915881641 3.61090461740869e-21 5.220584594822148e-13 4.641739223486038e-13 5.788453713361097e-14
5.487708281020852 3.654983351342868e-21 5.324095695897052e-13 4.733402623798042e-13 5.9069307209901e-14
5.529022354014368 3.701413598179106e-21 5.43232062685122e-13 4.829277022970323e-13 6.030436038808959e-14
5.570647458961463 3.747628748168627e-21 5.541555276314388e-13 4.926090696727427e-13 6.154645795869611e-14
5.612585937458331 3.793624573544205e-21 5.651800020502254e-13 5.023848828425195e-13 6.279511920770589e-14
5.654840148729818 3.839850614670043e-21 5.763736191397424e-13 5.123174658331097e-13 6.405615330663253e-14
5.67608639626678 3.86486616232375e-21 5.823081781175477e-13 5.175919698218678e-13 6.471620829567986e-14
5.686739436050992 3.877381616216163e-21 5.852902768280448e-13 5.202433044534399e-13 6.504697237460483e-14
5.6974124697621304 3.889902857794754e-21 5.882823934318771e-13 5.229041760116996e-13 6.537821742017769e-14
5.718818669136295 3.914964839338427e-21 5.942971195094108e-13 5.282549995703356e-13 6.604211993907529e-14
5.740305295436557 3.940614358974554e-21 6.004382621678888e-13 5.337253347126135e-13 6.671292745527543e-14
5.7835210386641895 3.996536260440049e-21 6.1354371331695e-13 5.454443126671982e-13 6.809940064975153e-14
5.827062130521658 4.054258930696469e-21 6.270909942262439e-13 5.575842099899548e-13 6.950678423628916e-14
5.8489554468988025 4.088241434388983e-21 6.347230671771604e-13 5.644552479626665e-13 7.026781921449389e-14
5.870931020387893 4.122778455378221e-21 6.424900534669363e-13 5.714580351616473e-13 7.103201830528926e-14
5.892989160043636 4.157918620798761e-21 6.504007903042589e-13 5.786014665840405e-13 7.179932372021854e-14
5.915130176081913 4.195318022474018e-21 6.587166295423315e-13 5.861215938876686e-13 7.259503565466307e-14
5.95966208400165 4.2875104828107844e-21 6.782600907362339e-13 6.038452604626943e-13 7.44148302735395e-14
6.004529249263818 4.4040301077375765e-21 7.019378757592922e-13 6.254714938737528e-13 7.646638188553961e-14
6.027089341400364 4.478581276823584e-21 7.16502190389248e-13 6.388470813999151e-13 7.765510898933294e-14
6.049734195844842 4.561924492057242e-21 7.325779108365115e-13 6.536629051924796e-13 7.891500564403194e-14
6.095279466722835 4.787559933146895e-21 7.745996197668987e-13 6.925762721921044e-13 8.202334757479453e-14
6.141167624020661 5.109828787771303e-21 8.329649617891511e-13 7.468931343132598e-13 8.607182747589137e-14
6.164241091010745 5.311684864973252e-21 8.691232145960715e-13 7.805035533003726e-13 8.861966129569893e-14
6.187401249150058 5.530413989477177e-21 9.08312636495084e-13 8.170778609808664e-13 9.123477551421757e-14
6.1990139391386085 5.636538436409761e-21 9.27479926282607e-13 8.349147174032684e-13 9.256520887933854e-14
6.204828454712694 5.691478427523085e-21 9.373986120727265e-13 8.4416153454337e-13 9.323707752935692e-14
6.210648424152782 5.732075599861267e-21 9.449705802614035e-13 8.511626249255245e-13 9.380795533587889e-14
6.233982942956859 5.867942665429349e-21 9.710037440416233e-13 8.752120229886454e-13 9.579172105297767e-14
6.239830258556775 5.884487440986798e-21 9.746548519805477e-13 8.785928059919785e-13 9.606204598856919e-14
6.245683058788269 5.8861397894291494e-21 9.758429903525076e-13 8.795102310922821e-13 9.633275926022555e-14
6.257405133728602 5.882665252192234e-21 9.77097367366747e-13 8.802936655317399e-13 9.680370183500687e-14
6.269149208991335 5.8564959414138425e-21 9.745763902352203e-13 8.776136316341977e-13 9.696275860102248e-14
6.280915325867298 5.7913206120164754e-21 9.655393550568808e-13 8.68803045255523e-13 9.673630980135779e-14
6.304513850009849 5.6307832812072205e-21 9.423014266245708e-13 8.463665980129112e-13 9.593482861165963e-14
6.32820103803542 5.437561915947469e-21 9.133850855984396e-13 8.186226029874901e-13 9.476248261094947e-14
6.3519772230701035 5.263629190905796e-21 8.874903753852914e-13 7.937820392014864e-13 9.370833618380481e-14
6.375842739491607 5.1151335172378885e-21 8.656931956902598e-13 7.7291767728051e-13 9.277551840974971e-14
6.399797922933955 5.005208012917854e-21 8.50271897437173e-13 7.579897354801046e-13 9.228216195706813e-14
6.42384311029221 4.9129149203958935e-21 8.377291005025415e-13 7.458526546318148e-13 9.18764458707266e-14
6.447978639727206 4.851601704711982e-21 8.303824524495413e-13 7.385692980017347e-13 9.181315444780655e-14
6.472204850670314 4.801108315379413e-21 8.248276132030845e-13 7.330099148814545e-13 9.181769832163e-14
6.496522083828205 4.7741892587911685e-21 8.232845843253225e-13 7.311851372122765e-13 9.209944711304603e-14
6.520930681187647 4.752837815623377e-21 8.226820308090873e-13 7.302591312690305e-13 9.242289954005681e-14
6.57002334288761 4.743508062847515e-21 8.272485007566632e-13 7.337958303359945e-13 9.345267042066893e-14
