Dust emission spectrum from A.P. Jones, M. Kohler, N. Ysard, M. Bocchio, and L. Verstraete (2017), A&A, 602A, 46J 
inside the DustPedia framework.

lambda    nu*dP/dnu     j_nu    j_nu(carb.) j_nu(sil)
 (um)   (erg s-1 H-1) (Jy cm2 sr-1 H-1)
0.9927057738263894 1.1296624260140672e-25 2.9767246560919224e-18 2.9767246557044253e-18 3.8749628646454366e-28
1.0001793341362166 1.1482170814467334e-25 3.0483955098074745e-18 3.048395509340595e-18 4.668794809854313e-28
1.0077091589558085 1.1667423657194425e-25 3.1208982289569834e-18 3.1208982283951746e-18 5.618093571209623e-28
1.0114953028030835 1.1759917123934477e-25 3.1574578703023174e-18 3.1574578696863272e-18 6.159889866914178e-28
1.0152956718711033 1.1852309863633586e-25 3.194221031922215e-18 3.194221031247037e-18 6.751773526377442e-28
1.0229392996569957 1.2036665936818039e-25 3.2683270189945358e-18 3.2683270181841445e-18 8.10392244020439e-28
1.0267826658714554 1.2128404566228983e-25 3.305610174781924e-18 3.3056101738944824e-18 8.87441861274465e-28
1.0306404723013447 1.2220001930529773e-25 3.3430887059431146e-18 3.3430887049716085e-18 9.71504864692343e-28
1.03451277320114 1.2311449200594337e-25 3.3807609845880506e-18 3.3807609835248595e-18 1.0631887697424321e-27
1.0383996230291617 1.2402737598334411e-25 3.4186253631397723e-18 3.418625361976621e-18 1.1631508318079993e-27
1.0403485208654093 1.2448319491300624e-25 3.4376290697267797e-18 3.437629068510325e-18 1.2164560988316746e-27
1.0423010764483396 1.2493858398382047e-25 3.4566801747288105e-18 3.456680173456708e-18 1.2721018640149529e-27
1.0462171883269815 1.258480292973467e-25 3.4949237335880726e-18 3.494923732197264e-18 1.3908103269125575e-27
1.0471985131304309 1.2607510509762954e-25 3.504513915745673e-18 3.5045139143235645e-18 1.422107935396692e-27
1.048180758391296 1.2630206400223901e-25 3.514115761371752e-18 3.514115759917671e-18 1.4540805732249367e-27
1.0501480137395462 1.267556257736229e-25 3.5333543354480054e-18 3.5333543339278974e-18 1.5201067077083032e-27
1.0521189612883777 1.2720870393274352e-25 3.552639239957003e-18 3.552639238368e-18 1.5890030019161376e-27
1.0531058218030118 1.274347081012136e-25 3.562289208106794e-18 3.5622892064822264e-18 1.6245666703832095e-27
1.0540936079674168 1.2765943993605794e-25 3.571918553534563e-18 3.571918551873662e-18 1.660900504048849e-27
1.058054026499678 1.2855704480708022e-25 3.610548289654255e-18 3.610548287840073e-18 1.814180928253238e-27
1.0590464539527713 1.2878110885883797e-25 3.620233673786861e-18 3.620233671932292e-18 1.8545690707792762e-27
1.06003981227728 1.290050354332769e-25 3.629930182334311e-18 3.629930180438492e-18 1.8958182428440007e-27
1.0620293250338977 1.2945247094832367e-25 3.6493564609095275e-18 3.649356458928556e-18 1.980969924104474e-27
1.0660195594769086 1.3034563517149338e-25 3.688341278099817e-18 3.688341275937419e-18 2.1623975086449685e-27
1.070024785945596 1.312364549387787e-25 3.727500935981238e-18 3.727500933621556e-18 2.359682794015151e-27
1.0740450607676866 1.3212484837641385e-25 3.76683361366319e-18 3.766833611089048e-18 2.5741405510025004e-27
1.07808044048254 1.3301073428786125e-25 3.806337475004249e-18 3.806337472197061e-18 2.807188219253911e-27
1.0861967418109137 1.3477308622503655e-25 3.8858058911229924e-18 3.885805887787711e-18 3.3352822630659845e-27
1.0902777775684922 1.3564580983175315e-25 3.925662650315229e-18 3.9256626466814805e-18 3.633747961559401e-27
1.0943741465085532 1.365156459311541e-25 3.965680173919191e-18 3.965680169961533e-18 3.957657705820921e-27
1.1026131145906286 1.3824634770821843e-25 4.046189822810902e-18 4.046189818120722e-18 4.690179580082636e-27
1.1109141095355224 1.399645834304012e-25 4.127319331946271e-18 4.127319326395058e-18 5.551212800595403e-27
1.1192775983109025 1.416681508958921e-25 4.209005275812279e-18 4.2090052692502944e-18 6.561984349909202e-27
1.1277040513999907 1.4334908847267932e-25 4.291009830074117e-18 4.291009822327121e-18 7.746996596019444e-27
1.1361939428280308 1.450155844777219e-25 4.373575016706855e-18 4.373575007572363e-18 9.134490645854643e-27
1.1447477501889525 1.4666708681160875e-25 4.4566845739477375e-18 4.456684563190758e-18 1.0756977705803285e-26
1.1533659546722406 1.48303964641954e-25 4.540349890859073e-18 4.540349878207219e-18 1.2651852459360386e-26
1.1707974979042381 1.5153921518089686e-25 4.709515736544788e-18 4.7095157191078386e-18 1.743694990028285e-26
1.1884924949847024 1.54709036613513e-25 4.880693757608446e-18 4.880693733694763e-18 2.3913682867262562e-26
1.2064549276569216 1.5783849000214488e-25 5.054677503575488e-18 5.054677470938404e-18 3.263708496400742e-26
1.2246888378427687 1.6089317072513055e-25 5.2303747065523485e-18 5.230374662224248e-18 4.432810178576165e-26
1.2431983285522175 1.6386595820233982e-25 5.407525703779847e-18 5.407525643859834e-18 5.992001551006533e-26
1.2619875648066055 1.6675579920231732e-25 5.586058180955666e-18 5.586058100340865e-18 8.061480317488568e-26
1.3004222497298317 1.722385373211182e-25 5.945442089199789e-18 5.945441945307406e-18 1.4389238252507327e-25
1.3400274889804893 1.7732043383624414e-25 6.3072773070762076e-18 6.307277054875193e-18 2.5220101495271153e-25
1.3808389325824078 1.8198320623257892e-25 6.6702754533613726e-18 6.6702750191100265e-18 4.3425134705456455e-25
1.4228933163050095 1.8625056587956356e-25 7.034599443640197e-18 7.034598708731874e-18 7.349083227107318e-25
1.466228494730424 1.902270685021278e-25 7.403607788921916e-18 7.403606565887198e-18 1.2230347179243105e-24
1.5108834753276823 1.9383535141684247e-25 7.77380048605407e-18 7.773798483661587e-18 2.00239248427398e-24
1.5568984535646726 1.9701310601378499e-25 8.141882644544891e-18 8.141879415946881e-18 3.22859800813834e-24
1.6043148490894465 1.9976715189040677e-25 8.507130875482594e-18 8.507125739504214e-18 5.135978381638949e-24
1.6531753430134553 2.0210694915440743e-25 8.868896742699886e-18 8.868888691002003e-18 8.0516978816734e-24
1.7035239163302658 2.0406163483947093e-25 9.2273932554081e-18 9.227380812723818e-18 1.2442684282636787e-23
1.755405889504358 2.0579463911431889e-25 9.589170518564017e-18 9.589151554876822e-18 1.89636871963511e-23
1.8088679632656115 2.072669818035692e-25 9.951909624211278e-18 9.951881109402656e-18 2.8514808622105266e-23
1.8639582606462262 2.084527520707548e-25 1.0313670423979609e-17 1.0313628105260751e-17 4.231871885745638e-23
1.9207263702978936 2.0937291736474747e-25 1.0674694051384875e-17 1.067463203927821e-17 6.201210666283013e-23
1.979223391128241 2.100746931254565e-25 1.1036668185720156e-17 1.1036578427614887e-17 8.975810526684382e-23
2.039501978296691 2.106143807901494e-25 1.1402014410046443e-17 1.1401886034127645e-17 1.2837591879911713e-22
2.1016163906111602 2.111470871844111e-25 1.1778987870101196e-17 1.1778806364419485e-17 1.815056817098713e-22
2.1656225393682647 2.1176358727845295e-25 1.217316423023213e-17 1.217291045547287e-17 2.537747592579757e-22
2.231578038680979 2.124721528359151e-25 1.2585878363303294e-17 1.2585527369979167e-17 3.509933241264006e-22
2.299542257339062 2.1332819404102236e-25 1.3021442112566764e-17 1.3020961737617112e-17 4.803749496594954e-22
2.369576372248914 2.144518744524902e-25 1.3488696728904922e-17 1.3488045940271688e-17 6.50788633234529e-22
2.4417434235010123 2.159849925935491e-25 1.39988717763146e-17 1.399799877385055e-17 8.730024640505412e-22
2.5161083711144245 2.1816890168586874e-25 1.45710759191232e-17 1.456991592804777e-17 1.1599910754291527e-21
2.5927381535095444 2.2139719346987765e-25 1.5237025800089645e-17 1.523549857790153e-17 1.527222188113376e-21
2.6717017477616296 2.261396768026903e-25 1.6037407879398257e-17 1.6035415014020348e-17 1.9928653779113758e-21
2.753070231689431 2.3310224024590556e-25 1.703464827834309e-17 1.7032070194084203e-17 2.5780842588861764e-21
2.836916847834745 2.4387928670181658e-25 1.836500097177637e-17 1.8361693553539604e-17 3.307418236764264e-21
2.9233170693905177 2.619766158530722e-25 2.0328619320997733e-17 2.0324410920616494e-17 4.208400381245453e-21
2.967498994190263 2.772261426016591e-25 2.1837061418662594e-17 2.183233556838514e-17 4.72585027744942e-21
3.0123486681368425 2.9501653630601433e-25 2.3589624685456812e-17 2.3584324710335058e-17 5.299975121750152e-21
3.0578761833420214 3.3454086452374805e-25 2.7154293281621685e-17 2.7148355635805085e-17 5.9376458165987954e-21
3.1040917844459814 3.854259034343424e-25 3.1757396142867565e-17 3.1750756048509065e-17 6.640094358489832e-21
3.127460860933648 4.391028599709855e-25 3.645252212024719e-17 3.6445502509330365e-17 7.019610916823694e-21
3.1510058709225794 5.105824034551726e-25 4.2705566645097445e-17 4.269814891762466e-17 7.41772747279043e-21
3.162844764501044 5.770497433738791e-25 4.84462941916128e-17 4.8438669457831434e-17 7.624733781378591e-21
3.1747281389236908 6.54338671919307e-25 5.5141498305232157e-17 5.5133661667242013e-17 7.836637990175618e-21
3.1986289994194426 8.698752201029733e-25 7.385676186580856e-17 7.38484853109215e-17 8.276554887034928e-21
3.2227097969389145 1.3777203778911243e-24 1.178560046966506e-16 1.178472592616107e-16 8.745435039889608e-21
3.2348180950136065 1.8592460975838247e-24 1.5964531402535784e-16 1.5963631763379662e-16 8.996391561288493e-21
3.240889293275058 2.219225971149547e-24 1.9091284752657309e-16 1.9090371872496883e-16 9.128801604316432e-21
3.2469718861334385 2.635663297485066e-24 2.2716315418340215e-16 2.271538883451978e-16 9.265838204466481e-21
3.2714166318528037 4.8568743258811305e-24 4.2175686109524486e-16 4.2174702669891327e-16 9.834396331653495e-21
3.2744851364798273 4.995730678892754e-24 4.3422165059065786e-16 4.3421174859070284e-16 9.901999955162372e-21
3.2775565192852394 5.1385740083344285e-24 4.470563195747522e-16 4.470463495740602e-16 9.970000692040671e-21
3.283707930232385 5.001234278123513e-24 4.359243754270049e-16 4.359142826321902e-16 1.009279481455828e-20
3.2898708863219004 4.565645327381452e-24 3.9870387656893665e-16 3.9869367092344354e-16 1.020564549312823e-20
3.29141343181113 4.462923145980337e-24 3.8991619901357073e-16 3.8990596499919595e-16 1.0234014374983301e-20
3.292184975758714 4.412449185434324e-24 3.8559676233910944e-16 3.855865141167972e-16 1.0248222312266375e-20
3.295272960557952 4.093853242360059e-24 3.5809074587279155e-16 3.580804421781286e-16 1.0303694663029906e-20
3.3076538914384823 2.990150359501363e-24 2.6253216476551204e-16 2.625216376614939e-16 1.052710401816409e-20
3.310756385682612 2.7655205463211217e-24 2.43037644736763e-16 2.4302706119263203e-16 1.0583544130911606e-20
3.313861789986515 2.558265002052196e-24 2.250346291770025e-16 2.2502398895637506e-16 1.0640220627552198e-20
3.3200813396944477 2.267627141559263e-24 1.9984339696199034e-16 1.9983263532518942e-16 1.0761636800915485e-20
3.345076488085796 1.749286308549228e-24 1.5532321909243465e-16 1.5531191744765063e-16 1.1301644783969287e-20
3.3482140837626964 1.7687545056528284e-24 1.5719915639723238e-16 1.5718778162434394e-16 1.1374772888390358e-20
3.3513546224236106 1.788437720921655e-24 1.590976040088623e-16 1.5908615571040427e-16 1.1448298457974886e-20
3.3576445397418455 1.932157675983382e-24 1.7220537978673238e-16 1.721937779397825e-16 1.1601846949891356e-20
3.3702598118196083 2.4621618657866088e-24 2.202669891414899e-16 2.2025506502023426e-16 1.1924121255560359e-20
3.382922481734668 2.582943991211928e-24 2.3194043549720867e-16 2.3192819591745754e-16 1.2239579751040109e-20
3.389271646505754 2.64551539656373e-24 2.380050132301805e-16 2.379926132948668e-16 1.239993531368375e-20
3.395632727569191 2.712937609215374e-24 2.445287624734732e-16 2.445161972438141e-16 1.2565229659106086e-20
3.421196662673239 3.03663895350036e-24 2.7576594402492185e-16 2.757526918818582e-16 1.325214306357398e-20
3.4276182099114902 2.9714950873432775e-24 2.703565470601268e-16 2.703431391984971e-16 1.3407861629679673e-20
3.4340518103208963 2.685873802554091e-24 2.448284479472955e-16 2.448148916308106e-16 1.3556316484878948e-20
3.4469541582030403 2.279121971388967e-24 2.0853190400693134e-16 2.0851806033129531e-16 1.384367563604677e-20
3.472904465399547 2.165322969811933e-24 1.9961122166653498e-16 1.9959671904450473e-16 1.450262203019868e-20
3.4990501388274233 1.9911701735484162e-24 1.8493877511905127e-16 1.8492359223956995e-16 1.518287948126588e-20
3.5253949054701885 1.3708239605039223e-24 1.2827998262867158e-16 1.2826412967480097e-16 1.5852953870602568e-20
3.5519380250092896 7.878057318234532e-25 7.42769306104153e-17 7.426039649275864e-17 1.6534117656623987e-20
3.578680990867387 5.5682686965499925e-25 5.2894754216287714e-17 5.287747172115055e-17 1.728249513716046e-20
3.605625307711299 4.635913916366922e-25 4.436958732528381e-17 4.4351511496820286e-17 1.8075828463506452e-20
3.660119384959845 3.9600280540691105e-25 3.8473610770782804e-17 3.845384590510707e-17 1.976486567573346e-20
3.715437065384467 3.483919789180871e-25 3.43595517934412e-17 3.4337973091151786e-17 2.1578702289407892e-20
3.8285932144167436 3.254854537639409e-25 3.3078076150047694e-17 3.3052479685772745e-17 2.5596464274937556e-20
3.94519561050918 3.2272064594663142e-25 3.379595509875362e-17 3.376578998205712e-17 3.0165116696501735e-20
4.06534921144712 3.284989450570701e-25 3.5448778065598613e-17 3.541344304946378e-17 3.533501613482406e-20
4.189162171576248 3.3948862042403033e-25 3.7750423460555244e-17 3.770924703065251e-17 4.1176429902721354e-20
4.316745939156006 3.5452251351520327e-25 4.0622789456294493e-17 4.057504743119299e-17 4.774202510152061e-20
4.448215356677963 3.7330078795663695e-25 4.407721487528242e-17 4.4022182685050905e-17 5.503219023151068e-20
4.58368876423945 3.960271038652267e-25 4.8184733785844816e-17 4.812159403778406e-17 6.313974806074653e-20
4.723288106065518 4.232858738020345e-25 5.306982373738773e-17 5.2997618572436835e-17 7.220516495091506e-20
4.867139040275056 4.560963090796637e-25 5.892502070376282e-17 5.88428626395246e-17 8.215806423823008e-20
4.940699165968905 4.756821380551996e-25 6.23842111657978e-17 6.229668498063384e-17 8.752618516396358e-20
5.015371051989984 4.962195067501191e-25 6.606118118604339e-17 6.59680180796302e-17 9.316310641319747e-20
5.091171501069577 5.207134853170389e-25 7.036974625981985e-17 7.027057066735345e-17 9.917559246641469e-20
5.129500256944802 5.333933058000559e-25 7.262598738106773e-17 7.252369533190909e-17 1.0229204915864721e-19
5.168117569889187 5.466220008801901e-25 7.498750872681143e-17 7.488200629911652e-17 1.0550242769491272e-19
5.20702561229733 5.623554978668496e-25 7.772667544859104e-17 7.761772122021621e-17 1.08954228374852e-19
5.246226572918644 5.785483375933728e-25 8.056680213784444e-17 8.045430629439664e-17 1.1249584344778922e-19
5.265937586045735 5.868218355685591e-25 8.202597587216471e-17 8.191167495822017e-17 1.1430091394454675e-19
5.285722656980489 5.952160311897008e-25 8.351191155677116e-17 8.339578241421484e-17 1.161291425563172e-19
5.305582063971359 6.037329550895587e-25 8.502513929706997e-17 8.490715852718025e-17 1.1798076988971686e-19
5.3255160863122235 6.127984772778886e-25 8.662610976066829e-17 8.650624488450468e-17 1.1986487616360926e-19
5.365609099470188 6.346749934411656e-25 9.03940510844947e-17 9.027027648905217e-17 1.2377459544249276e-19
5.406003951863644 6.57405149300372e-25 9.433631189474116e-17 9.420852425037688e-17 1.2778764436426152e-19
5.446702915881641 6.810283118682912e-25 9.846191717267759e-17 9.833001086506526e-17 1.319063076122742e-19
5.487708281020852 7.064174549071993e-25 1.02901539340696e-16 1.027653953446615e-16 1.3614399603446516e-19
5.529022354014368 7.403707017336864e-25 1.086593250892791e-16 1.0851873448423852e-16 1.405906050406197e-19
5.570647458961463 7.762568431944518e-25 1.1478378714224253e-16 1.146386298994323e-16 1.4515724281025368e-19
5.612585937458331 8.142081216711211e-25 1.213019736018515e-16 1.2115212686807794e-16 1.4984673377356202e-19
5.654840148729818 8.556739168941693e-25 1.2843933834289301e-16 1.282846616986936e-16 1.5467664419941512e-19
5.67608639626678 8.831702806138146e-25 1.3306470534094371e-16 1.3290750131681502e-16 1.5720402412867287e-19
5.686739436050992 8.973236735108663e-25 1.3545089786288745e-16 1.352924170974592e-16 1.5848076542821148e-19
5.6974124697621304 9.117555415842962e-25 1.3788769330143718e-16 1.3772792702209234e-16 1.597662793448119e-19
5.718818669136295 9.414806536079181e-25 1.4291807550628577e-16 1.4275571166378085e-16 1.623638425049281e-19
5.740305295436557 9.740490006652556e-25 1.4841753999445133e-16 1.4825252928552139e-16 1.6501070892993708e-19
5.7835210386641895 1.0572362644754925e-24 1.6230571206883333e-16 1.6213519080005426e-16 1.705212687790827e-19
5.827062130521658 1.1524677787737718e-24 1.7825752561906662e-16 1.780813038415363e-16 1.7622177753022295e-19
5.8489554468988025 1.2183294125672456e-24 1.891526696716251e-16 1.8897339325769577e-16 1.7927641392928872e-19
5.870931020387893 1.288832162233953e-24 2.0085043467309818e-16 2.0066805734201263e-16 1.8237733108549797e-19
5.892989160043636 1.3643445181666642e-24 2.134170564147339e-16 2.1323153122964595e-16 1.8552518508787867e-19
5.915130176081913 1.4498869027177563e-24 2.276501110665743e-16 2.274613248944389e-16 1.8878617213530077e-19
5.95966208400165 1.6870314839333992e-24 2.668789107233649e-16 2.6668287715983894e-16 1.9603356352599458e-19
6.004529249263818 2.0264434421140943e-24 3.229853952643947e-16 3.227812824022745e-16 2.0411286212020385e-19
6.027089341400364 2.2613269678801693e-24 3.6177655947813233e-16 3.615678710156135e-16 2.0868846251904895e-19
6.049734195844842 2.5382789077220995e-24 4.076102229611619e-16 4.0739669849967617e-16 2.1352446148573353e-19
6.095279466722835 3.335803132370878e-24 5.39713731845293e-16 5.394886612999455e-16 2.250705453477264e-19
6.141167624020661 4.559751370177441e-24 7.432955747788295e-16 7.430559347898798e-16 2.39639988950023e-19
6.164241091010745 5.341056490971589e-24 8.739291401459708e-16 8.736805664791898e-16 2.485736667811346e-19
6.187401249150058 6.229988623125378e-24 1.0232104508581914e-15 1.0229526279776329e-15 2.578228805585125e-19
6.1990139391386085 6.66428236704127e-24 1.0965929157128118e-15 1.0963303695578819e-15 2.625461549302009e-19
6.204828454712694 6.892944960859682e-24 1.1352827075926486e-15 1.1350177677928647e-15 2.6493979978400117e-19
6.210648424152782 7.060268678000602e-24 1.1639319951769512e-15 1.1636649609106415e-15 2.6703426630920054e-19
6.233982942956859 7.629508357578707e-24 1.2625006075896497e-15 1.2622260294582385e-15 2.745781314108357e-19
6.239830258556775 7.702848930093101e-24 1.2758322894014753e-15 1.2755564868794027e-15 2.7580252207220033e-19
6.245683058788269 7.710292510059597e-24 1.2782630329339826e-15 1.2779860010169068e-15 2.770319170753788e-19
6.257405133728602 7.697166601479918e-24 1.2784819295448685e-15 1.2782026398587788e-15 2.792896860895832e-19
6.269149208991335 7.588542916252413e-24 1.2628054106840076e-15 1.2625247867037875e-15 2.8062398021994735e-19
6.280915325867298 7.312466421212952e-24 1.2191475114610638e-15 1.2188667037904585e-15 2.808076706059674e-19
6.304513850009849 6.630302845042871e-24 1.1095692229336439e-15 1.1092890945440915e-15 2.8012838955211237e-19
6.32820103803542 5.783723604296355e-24 9.715322714568934e-16 9.712539366820907e-16 2.783347748026474e-19
6.3519772230701035 5.0075970836612945e-24 8.443212951313674e-16 8.44044396727288e-16 2.768984040792131e-19
6.375842739491607 4.354704587853782e-24 7.369970144947154e-16 7.367211913374849e-16 2.758231572304284e-19
6.399797922933955 3.8329249448212635e-24 6.511274570719695e-16 6.508513394168051e-16 2.7611765516438937e-19
6.42384311029221 3.399418316950317e-24 5.796541757863721e-16 5.793774843010329e-16 2.766914853392296e-19
6.447978639727206 3.085075085318611e-24 5.280301993565914e-16 5.277518403944987e-16 2.7835896209279367e-19
6.472204850670314 2.8237837781347323e-24 4.851244089743885e-16 4.848441465552311e-16 2.802624191573455e-19
6.496522083828205 2.6559081681351316e-24 4.579978156883969e-16 4.577147404390955e-16 2.8307524930127267e-19
6.520930681187647 2.515214139868351e-24 4.353654714883701e-16 4.35079414222282e-16 2.8605726608805562e-19
