Dust emission spectrum from A.P. Jones, M. Kohler, N. Ysard, M. Bocchio, and L. Verstraete (2017), A&A, 602A, 46J 
inside the DustPedia framework.

lambda    nu*dP/dnu     j_nu    j_nu(carb.) j_nu(sil)
 (um)   (erg s-1 H-1) (Jy cm2 sr-1 H-1)
0.9927057738263894 1.263614901380309e-24 3.329697037030678e-17 3.329697037002775e-17 2.7903054012989947e-28
1.0001793341362166 1.2844794878029196e-24 3.41015785806342e-17 3.410157858029808e-17 3.36128354935662e-28
1.0077091589558085 1.3053140187969235e-24 3.4915610585410304e-17 3.491561058500591e-17 4.043898588363386e-28
1.0114953028030835 1.3157174475900744e-24 3.5326119786441654e-17 3.532611978599831e-17 4.433409129596441e-28
1.0152956718711033 1.3261102915804272e-24 3.573893555560567e-17 3.573893555511979e-17 4.858867870153853e-28
1.0229392996569957 1.3468499625970533e-24 3.657114143064278e-17 3.657114143005972e-17 5.830606378243368e-28
1.0267826658714554 1.3571716249660457e-24 3.698986381856796e-17 3.6989863817929544e-17 6.384213070165574e-28
1.0306404723013447 1.367478139139857e-24 3.741080196690583e-17 3.7410801966207023e-17 6.988119944350869e-28
1.03451277320114 1.377768510596318e-24 3.783393774790671e-17 3.783393774714204e-17 7.64667409348387e-28
1.0383996230291617 1.388041750348669e-24 3.8259252807832726e-17 3.8259252806996275e-17 8.364577511986292e-28
1.0403485208654093 1.393171638337779e-24 3.8472721771125165e-17 3.847272177025042e-17 8.747358255242377e-28
1.0423010764483396 1.3982968751351822e-24 3.8686728571303207e-17 3.868672857038852e-17 9.146914241029676e-28
1.0462171883269815 1.4085329076046064e-24 3.9116346245645525e-17 3.911634624464559e-17 9.999179437935622e-28
1.0471985131304309 1.4110888185915402e-24 3.922408311520142e-17 3.922408311417903e-17 1.0223857665149885e-27
1.048180758391296 1.4136434604589767e-24 3.9331952368339204e-17 3.933195236729387e-17 1.0453372476989728e-27
1.0501480137395462 1.4187488764973971e-24 3.954808682524943e-17 3.95480868241567e-17 1.0927310494554043e-27
1.0521189612883777 1.4238490352933014e-24 3.976474720811828e-17 3.9764747206976094e-17 1.1421810226479565e-27
1.0531058218030118 1.4263931874871218e-24 3.9873164336569247e-17 3.9873164335401554e-17 1.1677051174218569e-27
1.0540936079674168 1.428923143101469e-24 3.998135264399993e-17 3.998135264280615e-17 1.193780933706901e-27
1.058054026499678 1.4390285439836859e-24 4.041538179444678e-17 4.041538179314302e-17 1.3037746769368294e-27
1.0590464539527713 1.4415512149173002e-24 4.052420651582096e-17 4.0524206514488216e-17 1.3327541492268015e-27
1.06003981227728 1.444072384673353e-24 4.0633157589514844e-17 4.063315758815249e-17 1.3623501930658173e-27
1.0620293250338977 1.4491101619454679e-24 4.085143754557144e-17 4.085143754414799e-17 1.4234421743450837e-27
1.0660195594769086 1.4591670581264985e-24 4.128949991344601e-17 4.1289499911892414e-17 1.5535905894532905e-27
1.070024785945596 1.4691983007823028e-24 4.1729548728383557e-17 4.172954872668847e-17 1.6950905269543247e-27
1.0740450607676866 1.479202965437456e-24 4.217156363930968e-17 4.2171563637460794e-17 1.848880688365603e-27
1.07808044048254 1.489180135034584e-24 4.261552411812618e-17 4.261552411611022e-17 2.015972842974415e-27
1.0861967418109137 1.5090307160651698e-24 4.3508690129574834e-17 4.3508690127180327e-17 2.394508056638041e-27
1.0902777775684922 1.5188622122337398e-24 4.395668885708102e-17 4.3956688854472623e-17 2.6083903677247254e-27
1.0943741465085532 1.5286619211160855e-24 4.4406516424150303e-17 4.4406516421309843e-17 2.8404641743860864e-27
1.1026131145906286 1.548162494268208e-24 4.531157193090298e-17 4.531157192753782e-17 3.3651535271097746e-27
1.1109141095355224 1.5675255543922598e-24 4.622368291604342e-17 4.622368291206175e-17 3.981664602608252e-27
1.1192775983109025 1.5867263682870154e-24 4.714213895753022e-17 4.71421389528251e-17 4.705118249467581e-27
1.1277040513999907 1.605675699007748e-24 4.806427638824175e-17 4.8064276382688794e-17 5.552959752278879e-27
1.1361939428280308 1.6244651483570974e-24 4.899280455927179e-17 4.899280455272648e-17 6.545286562137716e-27
1.1447477501889525 1.6430884526681105e-24 4.992754079886741e-17 4.99275407911622e-17 7.705223050091802e-27
1.1533659546722406 1.6615496512662914e-24 5.0868611611275114e-17 5.086861160221576e-17 9.059353452943375e-27
1.1707974979042381 1.6980454277998905e-24 5.2771631778911393e-17 5.277163176643461e-17 1.2476785191890715e-26
1.1884924949847024 1.7338141853749162e-24 5.469761984590626e-17 5.4697619828807745e-17 1.7098525513193603e-26
1.2064549276569216 1.7691358801583847e-24 5.665545415496111e-17 5.665545413164293e-17 2.3318192998584927e-26
1.2246888378427687 1.8036244977144755e-24 5.863289231262877e-17 5.863289228098227e-17 3.164650551118349e-26
1.2431983285522175 1.837199349448429e-24 6.062700767198235e-17 6.062700762923847e-17 4.2743851659023635e-26
1.2619875648066055 1.8698479140921473e-24 6.263697747017951e-17 6.263697741271972e-17 5.745978560018187e-26
1.3004222497298317 1.931823300099933e-24 6.66839357553156e-17 6.66839356529251e-17 1.0239051166745296e-25
1.3400274889804893 1.989308390069358e-24 7.075958136357855e-17 7.075958118443017e-17 1.7914839308287153e-25
1.3808389325824078 2.0420903174770452e-24 7.484924131299078e-17 7.484924100508088e-17 3.0790988967379897e-25
1.4228933163050095 2.0904266479191672e-24 7.895446687626069e-17 7.895446635613954e-17 5.201211583374028e-25
1.466228494730424 2.135482077292385e-24 8.311262884423944e-17 8.311262798032348e-17 8.639159714304063e-25
1.5108834753276823 2.1763803740050854e-24 8.728411347884394e-17 8.728411206723155e-17 1.4116123861150163e-24
1.5568984535646726 2.2124127284540775e-24 9.143150504469523e-17 9.143150277332842e-17 2.2713668020282168e-24
1.6043148490894465 2.243645568811366e-24 9.554617118707329e-17 9.554616758144559e-17 3.6056276953726476e-24
1.6531753430134553 2.2701745071695622e-24 9.96202425311677e-17 9.962023689087767e-17 5.640290035171999e-24
1.7035239163302658 2.2923156181360012e-24 1.0365543572506657e-16 1.0365542702836531e-16 8.696701282423115e-24
1.755405889504358 2.3118924363888745e-24 1.0772453008747416e-16 1.0772451686359664e-16 1.3223877546221882e-23
1.8088679632656115 2.3284554121190693e-24 1.1180062363901116e-16 1.1180060380229717e-16 1.9836714015157165e-23
1.8639582606462262 2.34170029960961e-24 1.158609079611005e-16 1.1586087859398327e-16 2.936711721711415e-23
1.9207263702978936 2.3518488037799576e-24 1.1990694284366675e-16 1.1990689991974423e-16 4.2923922581608965e-23
1.979223391128241 2.359416187486162e-24 1.2395635659812928e-16 1.2395629463211385e-16 6.196601544724976e-23
2.039501978296691 2.365018959496692e-24 1.280348481193339e-16 1.2803475973378307e-16 8.83855508124422e-23
2.1016163906111602 2.3703827260385064e-24 1.3223345749079488e-16 1.3223333287747458e-16 1.2461332026513343e-22
2.1656225393682647 2.3765083871686e-24 1.366128486172989e-16 1.3661267489498514e-16 1.7372231377070178e-22
2.231578038680979 2.3834682759410934e-24 1.411857573022911e-16 1.4118551775406895e-16 2.3954822218812544e-22
2.299542257339062 2.3918620685351547e-24 1.4599801778046056e-16 1.4599769095736803e-16 3.268230924867809e-22
2.369576372248914 2.4030148088912503e-24 1.5114597657379026e-16 1.5114553524815024e-16 4.413256400095768e-22
2.4417434235010123 2.4184911058643574e-24 1.567523117074368e-16 1.5675172168708223e-16 5.900203545653004e-22
2.5161083711144245 2.4409699186170954e-24 1.6302762550309645e-16 1.630268442697743e-16 7.812333221831625e-22
2.5927381535095444 2.474834728470122e-24 1.703233903630655e-16 1.703223655571423e-16 1.0248059231489443e-21
2.6717017477616296 2.5253189644266616e-24 1.7909095312551623e-16 1.790896209365856e-16 1.3321889306372787e-21
2.753070231689431 2.6003014713903335e-24 1.900248617776654e-16 1.9002314519527495e-16 1.7165823903667604e-21
2.836916847834745 2.717630608088421e-24 2.0464750997691558e-16 2.0464531685110376e-16 2.1931258118325876e-21
2.9233170693905177 2.9166132371009326e-24 2.2632065846999326e-16 2.263178799260232e-16 2.7785439701037422e-21
2.967498994190263 3.0855283790801916e-24 2.430466048067335e-16 2.4304349186490886e-16 3.1129418246450117e-21
3.0123486681368425 3.282790459204858e-24 2.624930650440366e-16 2.6248958207961073e-16 3.482964425914139e-21
3.0578761833420214 3.724012388763196e-24 3.0227375879125214e-16 3.0226986592204267e-16 3.892869209402769e-21
3.1040917844459814 4.292550646895605e-24 3.536872590609583e-16 3.5368291609206756e-16 4.34296889068672e-21
3.127460860933648 4.893902084385842e-24 4.0627171956289817e-16 4.062671339909381e-16 4.585571960131918e-21
3.1510058709225794 5.695099962141225e-24 4.763432294921759e-16 4.763383898534272e-16 4.839638748782442e-21
3.162844764501044 6.4408517264466936e-24 5.407426329653894e-16 5.407376613860924e-16 4.971579297097215e-21
3.1747281389236908 7.30809733903739e-24 6.158575892404191e-16 6.158524827148414e-16 5.106525577789908e-21
3.1986289994194426 9.727074117047937e-24 8.258772983886542e-16 8.258719120706705e-16 5.386317983591932e-21
3.2227097969389145 1.5429059885605513e-23 1.3198667766867626e-15 1.319861092615242e-15 5.6840715207014686e-21
3.2348180950136065 2.0836286881587825e-23 1.7891206369379303e-15 1.789114793626041e-15 5.84331188929945e-21
3.240889293275058 2.4878875560987523e-23 2.1402493654790265e-15 2.1402434381552993e-15 5.927323727176907e-21
3.2469718861334385 2.9555521847862875e-23 2.5473381113981337e-15 2.5473320971325615e-15 6.0142655726185796e-21
3.2714166318528037 5.450145926344743e-23 4.7327484389647594e-15 4.732742064355565e-15 6.374609195819428e-21
3.2744851364798273 5.606089611212374e-23 4.872731619870484e-15 4.872725202513911e-15 6.4173565737626734e-21
3.2775565192852394 5.766512315088508e-23 5.016869988025233e-15 5.016863527679998e-15 6.460345234273576e-21
3.283707930232385 5.612232477149966e-23 4.8918103038170266e-15 4.8918037660383915e-15 6.5377786364464396e-21
3.2898708863219004 5.122969365384093e-23 4.4737328440139946e-15 4.4737262352517595e-15 6.608762235730707e-21
3.29141343181113 5.0075890205017414e-23 4.375025097294676e-15 4.375018470693542e-15 6.626601135106778e-21
3.292184975758714 4.950895221391172e-23 4.32650686233499e-15 4.326500226800422e-15 6.6355345677545466e-21
3.295272960557952 4.5930390646771013e-23 4.017547007974637e-15 4.017540337594527e-15 6.670380109097365e-21
3.3076538914384823 3.353318437313745e-23 2.9441795316369622e-15 2.9441727210204628e-15 6.810616498903793e-21
3.310756385682612 3.1010042157025784e-23 2.7252039834081046e-15 2.7251971373849114e-15 6.846023193326502e-21
3.313861789986515 2.868205252967155e-23 2.5229814150888557e-15 2.5229745335193002e-15 6.881569555495524e-21
3.3200813396944477 2.5417311239531156e-23 2.2399986870219483e-15 2.2399917292255394e-15 6.957796408389266e-21
3.345076488085796 1.9593365787937244e-23 1.7397407343580919e-15 1.7397334373787078e-15 7.296979383971934e-21
3.3482140837626964 1.9811761490696776e-23 1.7607826202716688e-15 1.7607752773571097e-15 7.342914558656442e-21
3.3513546224236106 2.0032571603960983e-23 1.782077232571288e-15 1.782069843483186e-15 7.3890881022862e-21
3.3576445397418455 2.1646276112791324e-23 1.9292448257746453e-15 1.9292373402305303e-15 7.485544114240434e-21
3.3702598118196083 2.759827651538423e-23 2.468964107522584e-15 2.468956419565811e-15 7.687956773750413e-21
3.382922481734668 2.8953894892753316e-23 2.5999708137746464e-15 2.5999629280464724e-15 7.885728174430075e-21
3.389271646505754 2.965619742114327e-23 2.6680334836622503e-15 2.668025497476873e-15 7.986185377731532e-21
3.395632727569191 3.04129598495804e-23 2.7412511846611092e-15 2.741243094932675e-15 8.089728434076026e-21
3.421196662673239 3.404662160261314e-23 3.091871931722817e-15 3.0918634121403827e-15 8.5195824335778e-21
3.4276182099114902 3.3314348304869566e-23 3.0310506699560404e-15 3.0310420533132695e-15 8.616642771181856e-21
3.4340518103208963 3.010556059888096e-23 2.7442457158628316e-15 2.7442370068715685e-15 8.708991263449045e-21
3.4469541582030403 2.5535671514413412e-23 2.3364270398178687e-15 2.336418152450206e-15 8.887367661908189e-21
3.472904465399547 2.4254972268374986e-23 2.235954965368869e-15 2.2359456685258883e-15 9.296842980845717e-21
3.4990501388274233 2.229618591076267e-23 2.07085731141444e-15 2.0708475928188897e-15 9.718595549724958e-21
3.5253949054701885 1.532516287828895e-23 1.434109473171004e-15 1.4340993406129458e-15 1.0132558058023032e-20
3.5519380250092896 8.773274746157482e-24 8.271733667615445e-16 8.271628146178475e-16 1.0552143696892406e-20
3.578680990867387 6.175476479305042e-24 5.866281394496874e-16 5.866171266404392e-16 1.1012809248296788e-20
3.605625307711299 5.1247707661270875e-24 4.904835769856872e-16 4.904720766806359e-16 1.1500305051324054e-20
3.660119384959845 4.35837507252604e-24 4.2343747025011047e-16 4.234249356445696e-16 1.2534605540906241e-20
3.715437065384467 3.815718937550446e-24 3.7631863073060103e-16 3.763049907993657e-16 1.3639931235325225e-20
3.8285932144167436 3.540653439736142e-24 3.5982561661714235e-16 3.5980954766228186e-16 1.6068954860548782e-20
3.94519561050918 3.488414249854239e-24 3.6531375613762995e-16 3.6529495542544197e-16 1.8800712187886286e-20
4.06534921144712 3.5279372693731516e-24 3.807046176956093e-16 3.806827621379371e-16 2.1855557672147808e-20
4.189162171576248 3.6208665407032185e-24 4.0263277465669906e-16 4.026075103975785e-16 2.526425912063691e-20
4.316745939156006 3.7529915505036565e-24 4.300347080237666e-16 4.3000566348498174e-16 2.904453878483697e-20
4.448215356677963 3.919643354315004e-24 4.628089946134375e-16 4.62775813738673e-16 3.3180874764374005e-20
4.58368876423945 4.121570159784342e-24 5.014726491964437e-16 5.014349382179702e-16 3.771097847370431e-20
4.723288106065518 4.3635359362451224e-24 5.47082001410208e-16 5.470393042274403e-16 4.2697182767717244e-20
4.867139040275056 4.654912967409796e-24 6.013879909098924e-16 6.013399169182013e-16 4.807399169143853e-20
4.940699165968905 4.8306918569948694e-24 6.335299915102073e-16 6.334790562431797e-16 5.093526702758545e-20
5.015371051989984 5.0130311534598175e-24 6.673795665327493e-16 6.673256547352652e-16 5.3911797483964245e-20
5.091171501069577 5.2351741277453385e-24 7.074867184803413e-16 7.074296577300332e-16 5.706075030813251e-20
5.129500256944802 5.349317506496779e-24 7.283545959419855e-16 7.282959149894071e-16 5.868095257834874e-20
5.168117569889187 5.468351776167013e-24 7.501675305353766e-16 7.501071874495374e-16 6.034308583938739e-20
5.20702561229733 5.614046551844068e-24 7.759525352622834e-16 7.758904010628063e-16 6.213419947710616e-20
5.246226572918644 5.763537246339433e-24 8.026118731435879e-16 8.0254791012951e-16 6.396301407787803e-20
5.265937586045735 5.839744409085094e-24 8.162796695101154e-16 8.162147778152765e-16 6.489169483881016e-20
5.285722656980489 5.91694722217136e-24 8.301785355417821e-16 8.301127055777517e-16 6.582996403041238e-20
5.305582063971359 5.995161938363095e-24 8.443128284130169e-16 8.442460505364529e-16 6.67778765643455e-20
5.3255160863122235 6.0791259437380744e-24 8.593543404194458e-16 8.592865997722819e-16 6.774064716371666e-20
5.365609099470188 6.287667510021558e-24 8.95525653250578e-16 8.954559172626514e-16 6.973598792678523e-20
5.406003951863644 6.504198518663216e-24 9.333393581338951e-16 9.332675842705471e-16 7.177386334766428e-20
5.446702915881641 6.72910399339465e-24 9.728824316074764e-16 9.728085767813672e-16 7.385482610906032e-20
5.487708281020852 6.97203606491568e-24 1.0155938792776857e-15 1.0155178935273463e-15 7.598575033940211e-20
5.529022354014368 7.308545051197711e-24 1.0726269567233485e-15 1.0725487398021261e-15 7.821692122252318e-20
5.570647458961463 7.66487114040849e-24 1.1333915380801038e-15 1.133311041467964e-15 8.049661214022444e-20
5.612585937458331 8.042435091649072e-24 1.1981743036160409e-15 1.198091478081569e-15 8.282553447176683e-20
5.654840148729818 8.457282186321902e-24 1.2694645784378504e-15 1.269379365802379e-15 8.521263547133016e-20
5.67608639626678 8.73915505163759e-24 1.3167031515901603e-15 1.3166166904339548e-15 8.646115620497734e-20
5.686739436050992 8.884434397020397e-24 1.3411042766451223e-15 1.3410171860082658e-15 8.70906368565304e-20
5.6974124697621304 9.032701153968139e-24 1.3660441528413177e-15 1.3659564292246823e-15 8.772361663549503e-20
5.718818669136295 9.338483926347232e-24 1.4175948765228084e-15 1.4175058763919961e-15 8.900013081230127e-20
5.740305295436557 9.67538404374691e-24 1.474255091164538e-15 1.4741647929715359e-15 9.02981930022951e-20
5.7835210386641895 1.054823160291896e-23 1.6193525505182093e-15 1.619259554793077e-15 9.299572513271781e-20
5.827062130521658 1.1553274482057196e-23 1.78699843926282e-15 1.7869026657460686e-15 9.577351675062672e-20
5.8489554468988025 1.2257474134736198e-23 1.9030435710574077e-15 1.9029463064345563e-15 9.726462285124599e-20
5.870931020387893 1.3013035272446866e-23 2.0279396087982387e-15 2.0278408343566323e-15 9.877444160650378e-20
5.892989160043636 1.3824087799526293e-23 2.1624275148319533e-15 2.162327211661885e-15 1.0030317006888786e-19
5.915130176081913 1.4746207099051894e-23 2.315336235962508e-15 2.3152343491572677e-15 1.0188680524082289e-19
5.95966208400165 1.7322617239077442e-23 2.740340807904732e-15 2.7402353804592395e-15 1.0542744549256041e-19
6.004529249263818 2.1034039858335047e-23 3.3525177838488495e-15 3.3524083984235446e-15 1.093854253053947e-19
6.027089341400364 2.3613008262344918e-23 3.777707960599771e-15 3.777596320801326e-15 1.1163979844520237e-19
6.049734195844842 2.6660176517631296e-23 4.281231846301653e-15 4.281117821585519e-15 1.1402471613543469e-19
6.095279466722835 3.545997506362324e-23 5.73721970790491e-15 5.737099939926933e-15 1.1976797797739486e-19
6.141167624020661 4.899971708983655e-23 7.987556759453921e-15 7.987429679043976e-15 1.270804099472839e-19
6.164241091010745 5.764590630003991e-23 9.432298162524166e-15 9.432166566588013e-15 1.3159593615426186e-19
6.187401249150058 6.749444419426457e-23 1.1085256306582283e-14 1.1085120040869078e-14 1.3626571320626124e-19
6.1990139391386085 7.230354243503059e-23 1.18973879029073e-14 1.1897249254783941e-14 1.386481233545881e-19
6.204828454712694 7.483671984032615e-23 1.2325767057493197e-14 1.232562720252336e-14 1.3985496983111038e-19
6.210648424152782 7.668631799525494e-23 1.2642246800764538e-14 1.264210589838894e-14 1.4090237559749596e-19
6.233982942956859 8.297107370059058e-23 1.3729722290074912e-14 1.3729577648525995e-14 1.4464154891886554e-19
6.239830258556775 8.377508731597928e-23 1.387577017479719e-14 1.3875624950904466e-14 1.4522389272602942e-19
6.245683058788269 8.384595867185458e-23 1.3900534809971015e-14 1.3900389001696884e-14 1.4580827412843145e-19
6.257405133728602 8.367597288179134e-23 1.3898389473067688e-14 1.3898242604225092e-14 1.4686884259653962e-19
6.269149208991335 8.244343528293219e-23 1.3719368434708421e-14 1.3719220996693449e-14 1.4743801497592775e-19
6.280915325867298 7.934866559140416e-23 1.3229151782890537e-14 1.3229004386486908e-14 1.473964036315745e-19
6.304513850009849 7.171543387893751e-23 1.200144851617065e-14 1.2001301758625213e-14 1.4675754543619723e-19
6.32820103803542 6.225279099212767e-23 1.0457034183339245e-14 1.045688865905529e-14 1.4552428394771354e-19
6.3519772230701035 5.357515331137379e-23 9.033203365804233e-15 9.033058889194614e-15 1.4447660962071521e-19
6.375842739491607 4.627505481474106e-23 7.831662643470362e-15 7.831519022975988e-15 1.4362049437677884e-19
6.399797922933955 4.0425726659313346e-23 6.8674187412748e-15 6.867275264746266e-15 1.4347652853180384e-19
6.42384311029221 3.556306059458151e-23 6.064059981851959e-15 6.063916504423745e-15 1.4347742821415888e-19
6.447978639727206 3.2021162223112167e-23 5.48062533478127e-15 5.480481290160782e-15 1.440446204891358e-19
6.472204850670314 2.90713424796755e-23 4.994439711620051e-15 4.9942949810893325e-15 1.4473053071833414e-19
6.496522083828205 2.7156287646802545e-23 4.682963279251657e-15 4.682817395260096e-15 1.458839915607358e-19
