Dust emission spectrum from A.P. Jones, M. Kohler, N. Ysard, M. Bocchio, and L. Verstraete (2017), A&A, 602A, 46J 
inside the DustPedia framework.

lambda    nu*dP/dnu     j_nu    j_nu(carb.) j_nu(sil)
 (um)   (erg s-1 H-1) (Jy cm2 sr-1 H-1)
0.9927057738263894 1.739135115369398e-23 4.582719809900882e-16 4.582719478160445e-16 3.317404358632374e-23
1.0001793341362166 1.7684142729430107e-23 4.694953782020535e-16 4.694953382696785e-16 3.993237506280244e-23
1.0077091589558085 1.7977849230520544e-23 4.808862648044004e-16 4.808862168003961e-16 4.8004004394263386e-23
1.0114953028030835 1.8125028105634312e-23 4.866446934826598e-16 4.866446408763486e-16 5.260631121565511e-23
1.0152956718711033 1.8272414950243831e-23 4.924452094959433e-16 4.924451518651985e-16 5.763074465329154e-23
1.0229392996569957 1.8567642539428828e-23 5.041689127968772e-16 5.041688436996837e-16 6.909719356573113e-23
1.0267826658714554 1.87151451904283e-23 5.100833669109383e-16 5.100832912863569e-16 7.56245812186584e-23
1.0306404723013447 1.8862822164766362e-23 5.160399163579351e-16 5.160398336167917e-16 8.274114335955102e-23
1.03451277320114 1.9010667224176525e-23 5.220386405800232e-16 5.220385500826402e-16 9.04973831439869e-23
1.0383996230291617 1.9158674258155184e-23 5.280796213237472e-16 5.280795223758615e-16 9.894788586884254e-23
1.0403485208654093 1.9232736641897785e-23 5.311159841036455e-16 5.311158806519101e-16 1.0345173541821472e-22
1.0423010764483396 1.9306837287566044e-23 5.341629427886507e-16 5.341628346370235e-16 1.08151627408668e-22
1.0462171883269815 1.945515046822998e-23 5.402886917783274e-16 5.402885736060231e-16 1.181723041886294e-22
1.0471985131304309 1.949225155280386e-23 5.4182676875913e-16 5.418266479460684e-16 1.2081306172292115e-22
1.048180758391296 1.9529361576758153e-23 5.433675044708462e-16 5.433673809605707e-16 1.235102755501467e-22
1.0501480137395462 1.9603608094499144e-23 5.46456957853906e-16 5.464568287752201e-16 1.2907868606142728e-22
1.0521189612883777 1.967788933047616e-23 5.495570635790939e-16 5.495569286921072e-16 1.348869865610707e-22
1.0531058218030118 1.9714992386823557e-23 5.511097067975337e-16 5.511095689131859e-16 1.378843479896682e-22
1.0540936079674168 1.9751938852639736e-23 5.526603977846237e-16 5.526602568385556e-16 1.4094606838714632e-22
1.058054026499678 1.9899800545317327e-23 5.588895647934124e-16 5.5888941093711785e-16 1.5385629452023755e-22
1.0590464539527713 1.9936784518256818e-23 5.604534647945968e-16 5.604533075381588e-16 1.572564378914176e-22
1.06003981227728 1.9973775750169128e-23 5.620200111352691e-16 5.620198504068622e-16 1.607284066385511e-22
1.0620293250338977 2.0047779673886888e-23 5.651610490231219e-16 5.651608811295073e-16 1.6789361473294846e-22
1.0660195594769086 2.019587117608095e-23 5.714749497205756e-16 5.714747665693444e-16 1.8315123129887043e-22
1.070024785945596 2.0344070147594334e-23 5.778313697379393e-16 5.778311700083465e-16 1.9972959271492443e-22
1.0740450607676866 2.0492371845521682e-23 5.842304157010937e-16 5.842301979641751e-16 2.177369184469112e-22
1.07808044048254 2.0640771691772528e-23 5.906721981804039e-16 5.906719608906454e-16 2.3728975862650194e-22
1.0861967418109137 2.093761606804609e-23 6.03677738205352e-16 6.03677456661863e-16 2.8154348909048024e-22
1.0902777775684922 2.1085524080014966e-23 6.102264009917134e-16 6.102260944669258e-16 3.0652478753693767e-22
1.0943741465085532 2.1233504426067136e-23 6.168178522756666e-16 6.168175186620032e-16 3.336136633343769e-22
1.1026131145906286 2.1529667678418052e-23 6.301296467721243e-16 6.301292519735186e-16 3.9479860579932174e-22
1.1109141095355224 2.1826078824005372e-23 6.436142262781447e-16 6.436137596801493e-16 4.665979954624312e-22
1.1192775983109025 2.2122475630343828e-23 6.572657019471672e-16 6.572651512056884e-16 5.50741478703555e-22
1.1277040513999907 2.241774190726603e-23 6.710524072183176e-16 6.710517579971484e-16 6.492211692549801e-22
1.1361939428280308 2.2713158505454845e-23 6.850139793438611e-16 6.85013215015603e-16 7.6432825816954825e-22
1.1447477501889525 2.3008711734452773e-23 6.991518880105668e-16 6.991509893161458e-16 8.986944211549598e-22
1.1533659546722406 2.3304504980339757e-23 7.134711934334718e-16 7.134701380936459e-16 1.0553398258387236e-21
1.1707974979042381 2.3897718974871558e-23 7.426901574310799e-16 7.426887076135743e-16 1.4498175057481096e-21
1.1884924949847024 2.4491794132142286e-23 7.726565257593824e-16 7.72654543966071e-16 1.9817933110019677e-21
1.2064549276569216 2.5090844094421865e-23 8.035183635377572e-16 8.035156679190375e-16 2.6956187198448488e-21
1.2246888378427687 2.5690639678006576e-23 8.351608173385803e-16 8.351571687115566e-16 3.648627023893744e-21
1.2431983285522175 2.6290597593021912e-23 8.675815514803403e-16 8.675766368075673e-16 4.9146727730954014e-21
1.2619875648066055 2.6891477929049863e-23 9.00822406189939e-16 9.008158177823358e-16 6.588407603187502e-21
1.3004222497298317 2.809170111748692e-23 9.696876481814469e-16 9.6967597459092e-16 1.1673590527372344e-20
1.3400274889804893 2.929440782769351e-23 1.0420003477234919e-15 1.0419800425649621e-15 2.030515852985979e-20
1.3808389325824078 3.0503770814509836e-23 1.118062253716688e-15 1.1180275649091078e-15 3.468880758017028e-20
1.4228933163050095 3.173059465111303e-23 1.1984501761107634e-15 1.1983919432720296e-15 5.823283873387933e-20
1.466228494730424 3.2998456227783206e-23 1.2842947613824053e-15 1.28419865350218e-15 9.610788022577405e-20
1.5108834753276823 3.4305094667026927e-23 1.3758117889608695e-15 1.3756557785527236e-15 1.5601040814615295e-19
1.5568984535646726 3.565060060959675e-23 1.4733182590937254e-15 1.4730689097191189e-15 2.4934937460655265e-19
1.6043148490894465 3.7045980097468066e-23 1.5776117250376568e-15 1.57721859965851e-15 3.9312537914709916e-19
1.6531753430134553 3.85036671030983e-23 1.6896254640496232e-15 1.6890147883836979e-15 6.10675665925375e-19
1.7035239163302658 4.003908948644672e-23 1.8105138899360474e-15 1.809579025200569e-15 9.348647354788112e-19
1.755405889504358 4.168956652562849e-23 1.942559650629183e-15 1.941148536582394e-15 1.4111140467886095e-18
1.8088679632656115 4.3462369882239816e-23 2.0868426478657034e-15 2.0847417566959986e-15 2.1008911697044128e-18
1.8639582606462262 4.536604880288337e-23 2.244587663838079e-15 2.2415013171532112e-15 3.0863466848674754e-18
1.9207263702978936 4.741770101177972e-23 2.417549782902419e-15 2.413074216266483e-15 4.4755666359359115e-18
1.979223391128241 4.9639528741010925e-23 2.607905785600162e-15 2.6014969388162763e-15 6.408846783885805e-18
2.039501978296691 5.205499209869383e-23 2.8180970729417577e-15 2.8090315321085115e-15 9.065540833246348e-18
2.1016163906111602 5.470608659089324e-23 3.051817285132845e-15 3.039144638611965e-15 1.2672646520878277e-17
2.1656225393682647 5.762482651765601e-23 3.312545305608533e-15 3.29503279046144e-15 1.751251514709177e-17
2.231578038680979 6.082777039792067e-23 3.6031588569180366e-15 3.5792273064561734e-15 2.393155046186286e-17
2.299542257339062 6.434210594715439e-23 3.927408712935513e-15 3.895059378101539e-15 3.234933483397353e-17
2.369576372248914 6.820394090114643e-23 4.289924146760171e-15 4.2466557684418264e-15 4.3268378318345304e-17
2.4417434235010123 7.245312103891846e-23 4.695983452546206e-15 4.6387018227483305e-15 5.72816297978739e-17
2.5161083711144245 7.714459188003072e-23 5.152337002879599e-15 5.077254685947797e-15 7.508231693180197e-17
2.5927381535095444 8.2352202962359e-23 5.66765378352642e-15 5.570183659704895e-15 9.747012382152474e-17
2.6717017477616296 8.81476128983288e-23 6.251265773583117e-15 6.125915223423036e-15 1.2535055016008133e-16
2.753070231689431 9.46223374952975e-23 6.914812302132652e-15 6.755075372362538e-15 1.5973692977011271e-16
2.836916847834745 1.0196693552373477e-22 7.678482643226867e-15 7.476726695966579e-15 2.017559472602851e-16
2.9233170693905177 1.1056134802187527e-22 8.579237304193504e-15 8.326643601377986e-15 2.525937028155171e-16
2.967498994190263 1.1564637799847077e-22 9.109447743631965e-15 8.828261035088477e-15 2.811867085434882e-16
3.0123486681368425 1.211150354471172e-22 9.684400290700068e-15 9.371796423666353e-15 3.126038670337127e-16
3.0578761833420214 1.2905352126939912e-22 1.0475124378494283e-14 1.0127948399109982e-14 3.471759793842994e-16
3.1040917844459814 1.3818902328620296e-22 1.1386166617219814e-14 1.1001353313298921e-14 3.848133039208905e-16
3.127460860933648 1.4577386420178795e-22 1.2101549531516846e-14 1.1696578259332197e-14 4.0497127218464503e-16
3.1510058709225794 1.5516229333050525e-22 1.2977912309141726e-14 1.2551924814043324e-14 4.259874950984018e-16
3.162844764501044 1.6315285463560198e-22 1.3697521374264944e-14 1.3260656254170484e-14 4.3686512009446094e-16
3.1747281389236908 1.7215824979999044e-22 1.4507875274638498e-14 1.4059910185014327e-14 4.479650896241736e-16
3.1986289994194426 1.9620862574327315e-22 1.6659094790426423e-14 1.6188193733759462e-14 4.709010566669567e-16
3.2227097969389145 2.5022044405740346e-22 2.14049108246244e-14 2.0909701373186273e-14 4.952094514381216e-16
3.2348180950136065 3.003720851911633e-22 2.5791634537844086e-14 2.528345158054146e-14 5.081829573026315e-16
3.240889293275058 3.3766102451354593e-22 2.904788810453093e-14 2.853286192883169e-14 5.150261756992488e-16
3.2469718861334385 3.8080291471194916e-22 3.282072915411518e-14 3.229862221767249e-14 5.221069364426779e-16
3.2714166318528037 6.074872295024204e-22 5.2752426741844026e-14 5.22010546388018e-14 5.513721030422227e-16
3.2744851364798273 6.217695524785432e-22 5.4043305918181916e-14 5.348848377266619e-14 5.54822145515729e-16
3.2775565192852394 6.36435338508336e-22 5.5369921620156024e-14 5.481163207755984e-14 5.58289542596176e-16
3.283707930232385 6.2300020638638285e-22 5.4302790222772283e-14 5.3738297346957167e-14 5.644928758151087e-16
3.2898708863219004 5.793417966596681e-22 5.0592151519377935e-14 5.00220109515701e-14 5.701405678078276e-16
3.29141343181113 5.690329409188623e-22 4.971521000455383e-14 4.914365121256375e-14 5.715587919900868e-16
3.292184975758714 5.639655854963938e-22 4.92840358492841e-14 4.871176699881977e-14 5.722688504643441e-16
3.295272960557952 5.321728877147209e-22 4.6549344838063245e-14 4.597431355831322e-14 5.750312797500296e-16
3.3076538914384823 4.2145103064247263e-22 3.700297246446012e-14 3.641684478166155e-14 5.861276827985781e-16
3.310756385682612 3.987597914573975e-22 3.5043543849438987e-14 3.445461899146712e-14 5.889248579718635e-16
3.313861789986515 3.777632897403442e-22 3.3229482385604884e-14 3.2637751104696333e-14 5.917312809085496e-16
3.3200813396944477 3.4855039241096964e-22 3.071734905410705e-14 3.0119582526020386e-14 5.977665280866672e-16
3.345076488085796 2.9835127277589235e-22 2.6491306701136588e-14 2.586664764649359e-14 6.246590546430015e-16
3.3482140837626964 3.00667680496421e-22 2.672202704156792e-14 2.6093725106651625e-14 6.283019349162932e-16
3.3513546224236106 3.030047533655175e-22 2.6954995245183537e-14 2.632303389083533e-14 6.319613543482079e-16
3.3576445397418455 3.1834785758970917e-22 2.8373053815407125e-14 2.773344191213278e-14 6.396119032743545e-16
3.3702598118196083 3.7336761405783387e-22 3.340176831354942e-14 3.274610885506598e-14 6.556594584834351e-16
3.382922481734668 3.871401155497399e-22 3.4763993065492257e-14 3.409272912073681e-14 6.712639447554367e-16
3.389271646505754 3.942373628623781e-22 3.546774624172232e-14 3.478857167947485e-14 6.791745622474688e-16
3.395632727569191 4.019819681511646e-22 3.623236777534453e-14 3.554504080370463e-14 6.873269716398969e-16
3.421196662673239 4.391360196051859e-22 3.9879208841136364e-14 3.9158127538113303e-14 7.210813030230647e-16
3.4276182099114902 4.331428605532926e-22 3.940878403660171e-14 3.868016273401648e-14 7.286213025852294e-16
3.4340518103208963 4.044297204548889e-22 3.686543301795169e-14 3.612967671495374e-14 7.357563029979566e-16
3.4469541582030403 3.635298914917709e-22 3.326174789584107e-14 3.2512289813329455e-14 7.494580825116156e-16
3.472904465399547 3.5385234856298617e-22 3.2620029700403065e-14 3.183901925413902e-14 7.810104462640484e-16
3.4990501388274233 3.381961753249147e-22 3.1411472131021664e-14 3.059815800031524e-14 8.133141307064222e-16
3.5253949054701885 2.7755684006624893e-22 2.5973420109376263e-14 2.5128697829366717e-14 8.447222800095424e-16
3.5519380250092896 2.20030379026562e-22 2.074519203777743e-14 1.9868881439796544e-14 8.763105979808869e-16
3.578680990867387 1.9881573236655377e-22 1.8886138351002764e-14 1.797520322418948e-14 9.109351268132864e-16
3.605625307711299 1.9189865220161512e-22 1.8366311713433304e-14 1.7418898687300538e-14 9.47413026132775e-16
3.660119384959845 1.903914673574361e-22 1.8497462919893648e-14 1.7473361215116412e-14 1.0241017047772349e-15
3.715437065384467 1.9089050362865534e-22 1.8826243263904102e-14 1.772122307004714e-14 1.1050201938569576e-15
3.8285932144167436 1.9969507551948545e-22 2.0294390543221452e-14 1.901520399272042e-14 1.2791865505010334e-15
3.94519561050918 2.1087007990052777e-22 2.208273886873463e-14 2.0613255991115972e-14 1.4694828776186532e-15
4.06534921144712 2.23168628622762e-22 2.408243711673991e-14 2.2406667300967162e-14 1.6757698157727427e-15
4.189162171576248 2.361902628022031e-22 2.626386247322906e-14 2.4365359882357458e-14 1.898502590871593e-15
4.316745939156006 2.4972992377732865e-22 2.861518162543393e-14 2.647825017035345e-14 2.136931455080484e-15
4.448215356677963 2.636462332520839e-22 3.1129834302575357e-14 2.874199454322565e-14 2.3878397593497047e-15
4.58368876423945 2.778738778197293e-22 3.380899614724495e-14 3.1157410579142974e-14 2.651585568101988e-15
4.723288106065518 2.923884546145183e-22 3.665844931195786e-14 3.3728591037903485e-14 2.929858274054369e-15
4.867139040275056 3.071311273551772e-22 3.9679575734108407e-14 3.646414259491942e-14 3.215433139188979e-15
4.940699165968905 3.146817639720647e-22 4.126952021768152e-14 3.79076923173554e-14 3.3618279003261175e-15
5.015371051989984 3.2218881151860606e-22 4.289265771360471e-14 3.938247133206648e-14 3.510186381538229e-15
5.091171501069577 3.3000166585485074e-22 4.459675838313426e-14 4.093308298799172e-14 3.663675395142521e-15
5.129500256944802 3.338833191756193e-22 4.5461023716497857e-14 4.1720011154486584e-14 3.741012562011275e-15
5.168117569889187 3.377811676186789e-22 4.633799630050015e-14 4.2518520017416515e-14 3.819476283083632e-15
5.20702561229733 3.419581784972882e-22 4.726418156819254e-14 4.335913130827291e-14 3.905050259919629e-15
5.246226572918644 3.461255090195885e-22 4.820033796318924e-14 4.4209091620928576e-14 3.991246342260664e-15
5.265937586045735 3.482052701981744e-22 4.8672144355642555e-14 4.463757700404875e-14 4.034567351593818e-15
5.285722656980489 3.502822880413795e-22 4.9146430751109944e-14 4.506839933989336e-14 4.07803141121658e-15
5.305582063971359 3.5235646066871936e-22 4.9623193330793467e-14 4.5501559060709434e-14 4.1216342700840365e-15
5.3255160863122235 3.544786365809813e-22 5.010963052108112e-14 4.5943917539215e-14 4.165712981866125e-15
5.365609099470188 3.591096990624282e-22 5.1146462074995594e-14 4.688955218754376e-14 4.256909887451829e-15
5.406003951863644 3.6375153173840694e-22 5.21976105401412e-14 4.784886323367846e-14 4.3487473064627335e-15
5.446702915881641 3.684048273603741e-22 5.326334451215443e-14 4.882215305567961e-14 4.4411914564748224e-15
5.487708281020852 3.731670859229416e-22 5.435803901221116e-14 4.982344014946495e-14 4.534598862746212e-15
5.529022354014368 3.788046730276527e-22 5.5594663613060425e-14 5.0962681929491677e-14 4.6319816835687386e-15
5.570647458961463 3.845239300041314e-22 5.685890349263753e-14 5.212886760174099e-14 4.730035890896523e-15
5.612585937458331 3.9033194141149673e-22 5.8152250748712e-14 5.332352356316257e-14 4.82872718554941e-15
5.654840148729818 3.9638275120772853e-22 5.949829402355499e-14 5.456978989563924e-14 4.9285041279157486e-15
5.67608639626678 4.0009611436841063e-22 6.028132143383212e-14 5.5300608586199244e-14 4.980712847632878e-15
5.686739436050992 4.0197656540919864e-22 6.067831297872955e-14 5.5671425660877715e-14 5.006887317851865e-15
5.6974124697621304 4.0387340751686614e-22 6.107906122678966e-14 5.604595341358297e-14 5.033107813206691e-15
5.718818669136295 4.077179656301709e-22 6.189215548285579e-14 5.6806470765484714e-14 5.085684717371091e-15
5.740305295436557 4.118162071865815e-22 6.27491515916894e-14 5.761032012674213e-14 5.138831464947278e-15
5.7835210386641895 4.2176363454890485e-22 6.474867475734988e-14 5.949996927105498e-14 5.24870548629491e-15
5.827062130521658 4.326530802094609e-22 6.692045448044179e-14 6.15601058341093e-14 5.360348646332497e-15
5.8489554468988025 4.399193753823872e-22 6.830002086095043e-14 6.287936061032493e-14 5.420660250625484e-15
5.870931020387893 4.475232781280028e-22 6.974162157975606e-14 6.426036267212204e-14 5.481258907634027e-15
5.892989160043636 4.554915717413554e-22 7.125009055145836e-14 6.570794988367111e-14 5.542140667787271e-15
5.915130176081913 4.643575793029601e-22 7.290986235186565e-14 6.730460376141348e-14 5.605258590452154e-15
5.95966208400165 4.884155044393187e-22 7.726459111554674e-14 7.151532069444717e-14 5.749270421099581e-15
6.004529249263818 5.218559611434877e-22 8.317619449826226e-14 7.726475649186938e-14 5.911438006392905e-15
6.027089341400364 5.44669361658739e-22 8.71384857267094e-14 8.113325174930222e-14 6.00523397740718e-15
6.049734195844842 5.711469177971064e-22 9.171778633096825e-14 8.561317520568662e-14 6.104611125281631e-15
6.095279466722835 6.465532807388625e-22 1.0460859653200659e-13 9.825938111771482e-14 6.349215414291791e-15
6.141167624020661 7.602579158264374e-22 1.2393139420283264e-13 1.1726429778149802e-13 6.667096421334689e-15
6.164241091010745 8.3253703598348855e-22 1.3622368106883137e-13 1.2935687107111386e-13 6.866809997717496e-15
6.187401249150058 9.134432001833788e-22 1.500234888429225e-13 1.4295161340529787e-13 7.071875437624597e-15
6.1990139391386085 9.527920619577004e-22 1.5677982530534437e-13 1.4960360810779636e-13 7.176217197547946e-15
6.204828454712694 9.733971067391066e-22 1.603205754835737e-13 1.5309165741976463e-13 7.228918063809047e-15
6.210648424152782 9.884005293806272e-22 1.6294436552827311e-13 1.5567059182250011e-13 7.273773705772978e-15
6.233982942956859 1.03883384678489e-21 1.7190208087888403e-13 1.6447211101677498e-13 7.429969862109086e-15
6.239830258556775 1.0450019107048377e-21 1.7308494457872669e-13 1.656334441109753e-13 7.451500467751395e-15
6.245683058788269 1.0451962332759819e-21 1.7327950987792088e-13 1.6580644484507956e-13 7.473065032841282e-15
6.257405133728602 1.043013462117699e-21 1.7324217242915403e-13 1.6573144614507013e-13 7.510726284083912e-15
6.269149208991335 1.032120682704965e-21 1.717546565899066e-13 1.642304967547073e-13 7.524159835199341e-15
6.280915325867298 1.0060402203543001e-21 1.6772882915628325e-13 1.6022119262173476e-13 7.507636534548552e-15
6.304513850009849 9.42246999752002e-22 1.576833360044847e-13 1.502358484715742e-13 7.447487532910517e-15
6.32820103803542 8.643487053434311e-22 1.4519066236314234e-13 1.3783215989279564e-13 7.358502470346729e-15
6.3519772230701035 7.933584231819242e-22 1.3376663500941703e-13 1.2648794098800748e-13 7.278694021409593e-15
6.375842739491607 7.333875064557875e-22 1.2411964849078936e-13 1.1691135298260887e-13 7.20829550818053e-15
6.399797922933955 6.862270593923101e-22 1.165744924799007e-13 1.094023919680889e-13 7.172100511811832e-15
6.42384311029221 6.468477284980544e-22 1.1029768977011333e-13 1.031549702093304e-13 7.142719560782916e-15
6.447978639727206 6.186215893157127e-22 1.0588101491829083e-13 9.874100053519346e-14 7.140014383097389e-15
6.472204850670314 5.950798018557608e-22 1.0223436348181254e-13 9.509176129203534e-14 7.14260218977718e-15
6.496522083828205 5.801511362503307e-22 1.000441040694423e-13 9.287729673233193e-14 7.166807337110374e-15
6.520930681187647 5.676208723028797e-22 9.825108915367254e-14 9.105680239444917e-14 7.194286759223368e-15
6.57002334288761 5.553678405121268e-22 9.685389111710071e-14 8.957471016320772e-14 7.279180953892976e-15
