Dust emission spectrum from A.P. Jones, M. Kohler, N. Ysard, M. Bocchio, and L. Verstraete (2017), A&A, 602A, 46J 
inside the DustPedia framework.

lambda    nu*dP/dnu     j_nu    j_nu(carb.) j_nu(sil)
 (um)   (erg s-1 H-1) (Jy cm2 sr-1 H-1)
0.9927057738263894 1.7453253643540366e-23 4.599031467574528e-16 4.599031135834091e-16 3.317404358632374e-23
1.0001793341362166 1.7747065457747484e-23 4.711659104173193e-16 4.711658704849443e-16 3.993237506280244e-23
1.0077091589558085 1.804179067526618e-23 4.825966230422325e-16 4.82596575038228e-16 4.800400439426339e-23
1.0114953028030835 1.8189478212307437e-23 4.883751350700645e-16 4.883750824637532e-16 5.260631121565511e-23
1.0152956718711033 1.833737318811312e-23 4.941958468989977e-16 4.941957892682531e-16 5.763074465329153e-23
1.0229392996569957 1.8633614749214582e-23 5.059602623024409e-16 5.059601932052475e-16 6.909719356573113e-23
1.0267826658714554 1.8781622008587024e-23 5.118951999949408e-16 5.118951243703596e-16 7.56245812186584e-23
1.0306404723013447 1.8929802837392715e-23 5.178723410289509e-16 5.178722582878075e-16 8.274114335955102e-23
1.03451277320114 1.907815094873247e-23 5.238917639561275e-16 5.238916734587446e-16 9.049738314398691e-23
1.0383996230291617 1.9226660183743133e-23 5.299535496215022e-16 5.299534506736163e-16 9.894788586884257e-23
1.0403485208654093 1.9300973333879762e-23 5.330003544087549e-16 5.330002509570196e-16 1.0345173541821474e-22
1.0423010764483396 1.937532451521128e-23 5.360577813123055e-16 5.360576731606781e-16 1.08151627408668e-22
1.0462171883269815 1.952413805117209e-23 5.422045449092301e-16 5.42204426736926e-16 1.181723041886294e-22
1.0471985131304309 1.956136407106746e-23 5.437478917422873e-16 5.437477709292256e-16 1.2081306172292115e-22
1.048180758391296 1.9598598967462403e-23 5.452939037571297e-16 5.452937802468541e-16 1.2351027555014672e-22
1.0501480137395462 1.9673095038492324e-23 5.483939290401305e-16 5.483937999614443e-16 1.290786860614273e-22
1.0521189612883777 1.9747625567397742e-23 5.515046322915739e-16 5.515044974045874e-16 1.348869865610707e-22
1.0531058218030118 1.978485297880732e-23 5.530625784806397e-16 5.530624405962917e-16 1.378843479896682e-22
1.0540936079674168 1.9821923103569832e-23 5.546185611956307e-16 5.546184202495625e-16 1.4094606838714632e-22
1.058054026499678 1.9970278718636746e-23 5.60868957276479e-16 5.608688034201845e-16 1.5385629452023755e-22
1.0590464539527713 2.000738599021261e-23 5.624381800098808e-16 5.624380227534429e-16 1.572564378914176e-22
1.06003981227728 2.0044500446536764e-23 5.64010055237959e-16 5.640098945095524e-16 1.607284066385511e-22
1.0620293250338977 2.011875059353513e-23 5.671617693049186e-16 5.671616014113037e-16 1.6789361473294848e-22
1.0660195594769086 2.0267333620107496e-23 5.734970955468646e-16 5.734969123956333e-16 1.8315123129887043e-22
1.070024785945596 2.0416022848508862e-23 5.798750378645311e-16 5.798748381349385e-16 1.9972959271492443e-22
1.0740450607676866 2.0564813490651732e-23 5.862957018850183e-16 5.862954841480997e-16 2.1773691844691124e-22
1.07808044048254 2.0713700923628385e-23 5.927591971712934e-16 5.927589598815349e-16 2.3728975862650194e-22
1.0861967418109137 2.1011515359437342e-23 6.058084180753556e-16 6.058081365318666e-16 2.8154348909048024e-22
1.0902777775684922 2.1159903791681144e-23 6.123789898287098e-16 6.123786833039222e-16 3.0652478753693767e-22
1.0943741465085532 2.1308362990782085e-23 6.189924391071852e-16 6.189921054935219e-16 3.336136633343769e-22
1.1026131145906286 2.1605479077401608e-23 6.323484924494636e-16 6.323480976508578e-16 3.9479860579932174e-22
1.1109141095355224 2.1902836282046698e-23 6.458776741638918e-16 6.458772075658963e-16 4.665979954624312e-22
1.1192775983109025 2.2200171161879295e-23 6.595740606013304e-16 6.595735098598517e-16 5.50741478703555e-22
1.1277040513999907 2.2496363157822997e-23 6.734058547538906e-16 6.734052055327215e-16 6.492211692549803e-22
1.1361939428280308 2.279269760731176e-23 6.874128265435299e-16 6.874120622152716e-16 7.643282581695483e-22
1.1447477501889525 2.3089160514047778e-23 7.015964367011294e-16 7.0159553800670845e-16 8.986944211549601e-22
1.1533659546722406 2.3385855462973792e-23 7.159617516315652e-16 7.159606962917392e-16 1.055339825838724e-21
1.1707974979042381 2.3980851867443034e-23 7.452737504985409e-16 7.452723006810353e-16 1.4498175057481098e-21
1.1884924949847024 2.457667369692133e-23 7.75334269548845e-16 7.75332287755534e-16 1.9817933110019685e-21
1.2064549276569216 2.5177448308897927e-23 8.062918085613446e-16 8.062891129426248e-16 2.6956187198448503e-21
1.2246888378427687 2.577892762435644e-23 8.380309145552649e-16 8.380272659282409e-16 3.6486270238937465e-21
1.2431983285522175 2.6380524412080835e-23 8.705491085669674e-16 8.705441938941942e-16 4.914672773095406e-21
1.2619875648066055 2.698299815433459e-23 9.038881904422416e-16 9.038816020346384e-16 6.588407603187507e-21
1.3004222497298317 2.818624521326548e-23 9.729511828994594e-16 9.729395093089319e-16 1.1673590527372359e-20
1.3400274889804893 2.939175558704641e-23 1.0454630017458047e-15 1.0454426965872747e-15 2.030515852985984e-20
1.3808389325824078 3.0603691669090996e-23 1.1217246775050664e-15 1.1216899886974864e-15 3.468880758017044e-20
1.4228933163050095 3.183287069161902e-23 1.2023130957977102e-15 1.2022548629589763e-15 5.823283873387976e-20
1.466228494730424 3.310292657801381e-23 1.288360731093073e-15 1.2882646232128468e-15 9.610788022577518e-20
1.5108834753276823 3.44115555963257e-23 1.3800814230491778e-15 1.379925412641032e-15 1.5601040814615584e-19
1.5568984535646726 3.575881373586647e-23 1.4777903401268814e-15 1.4775409907522753e-15 2.493493746065597e-19
1.6043148490894465 3.7155710313114066e-23 1.5822846119295294e-15 1.581891486550382e-15 3.9312537914711606e-19
1.6531753430134553 3.861468399178574e-23 1.6944971289111443e-15 1.6938864532452186e-15 6.106756659254148e-19
1.7035239163302658 4.015117809884967e-23 1.8155823865542806e-15 1.8146475218188017e-15 9.34864735478902e-19
1.755405889504358 4.180260109964921e-23 1.947826589600202e-15 1.946415475553413e-15 1.4111140467888117e-18
1.8088679632656115 4.357620263572887e-23 2.092308319557067e-15 2.090207428387362e-15 2.100891169704852e-18
1.8639582606462262 4.5480517050007665e-23 2.250251238739934e-15 2.2471648920550654e-15 3.0863466848684068e-18
1.9207263702978936 4.753265287362253e-23 2.423410502479973e-15 2.4189349358440358e-15 4.475566635937843e-18
1.979223391128241 4.9754837493671754e-23 2.6139637472855652e-15 2.6075549005016755e-15 6.408846783889723e-18
2.039501978296691 5.2170561115689285e-23 2.8243536238581455e-15 2.815288083024891e-15 9.065540833254116e-18
2.1016163906111602 5.482190354589613e-23 3.0582782149345387e-15 3.045605568413646e-15 1.2672646520893367e-17
2.1656225393682647 5.774092794049518e-23 3.319219359943126e-15 3.3017068447960052e-15 1.7512515147120494e-17
2.231578038680979 6.094419628469629e-23 3.6100553938511805e-15 3.586123843389265e-15 2.3931550461916464e-17
2.299542257339062 6.445892552869901e-23 3.934539319490054e-15 3.902189984655981e-15 3.2349334834071676e-17
2.369576372248914 6.832128810173856e-23 4.297305107196234e-15 4.254036728877712e-15 4.3268378318521694e-17
2.4417434235010123 7.257120618133576e-23 4.70363703415638e-15 4.646355404358193e-15 5.728162979818528e-17
2.5161083711144245 7.726375614704414e-23 5.160295752124251e-15 5.085213435191909e-15 7.508231693234217e-17
2.5927381535095444 8.247300172055517e-23 5.6759674110228066e-15 5.5784972872003586e-15 9.747012382244651e-17
2.6717017477616296 8.827085730591447e-23 6.260006039162565e-15 6.134655489000936e-15 1.25350550161629e-16
2.753070231689431 9.47492238492229e-23 6.924084904610261e-15 6.764347974837591e-15 1.5973692977267082e-16
2.836916847834745 1.0209953270165122e-22 7.688467694988428e-15 7.486711747723977e-15 2.0175594726445046e-16
2.9233170693905177 1.1070364671094255e-22 8.590279266356832e-15 8.337685563534628e-15 2.5259370282220274e-16
2.967498994190263 1.157969212139969e-22 9.121306010001636e-15 8.840119301449717e-15 2.8118670855191574e-16
3.0123486681368425 1.2127520882752008e-22 9.69720780981617e-15 9.384603942771864e-15 3.126038670443001e-16
3.0578761833420214 1.2923525225529357e-22 1.0489875271472216e-14 1.0142699292074644e-14 3.4717597939757413e-16
3.1040917844459814 1.383985380532574e-22 1.1403429710841293e-14 1.1018616406903814e-14 3.8481330393748293e-16
3.127460860933648 1.460127739043745e-22 1.2121382837131964e-14 1.1716411564928759e-14 4.0497127220320565e-16
3.1510058709225794 1.5544037052507235e-22 1.3001170933184984e-14 1.257518343806582e-14 4.259874951191633e-16
3.162844764501044 1.6346739033081295e-22 1.3723928263790377e-14 1.3287063143673913e-14 4.3686512011646454e-16
3.1747281389236908 1.725151859727869e-22 1.4537954492346364e-14 1.408998940269887e-14 4.479650896474886e-16
3.1986289994194426 1.9668383519810548e-22 1.6699442452632244e-14 1.622854139593907e-14 4.709010566931762e-16
3.2227097969389145 2.509744532594196e-22 2.1469411947987438e-14 2.0974202496519396e-14 4.952094514680464e-16
3.2348180950136065 3.0139048609715085e-22 2.587908016037431e-14 2.5370897203039354e-14 5.081829573349488e-16
3.240889293275058 3.388770913253366e-22 2.915250240737332e-14 2.863747623164028e-14 5.150261757330375e-16
3.2469718861334385 3.822476486384341e-22 3.294524821389389e-14 3.242314127741575e-14 5.221069364781367e-16
3.2714166318528037 6.101517241163104e-22 5.298380371587261e-14 5.243243161278723e-14 5.513721030853718e-16
3.2744851364798273 6.245102930100308e-22 5.42815271022124e-14 5.372670495665272e-14 5.548221455596892e-16
3.2775565192852394 6.3925451496623345e-22 5.5615190180938686e-14 5.5056900638297724e-14 5.582895426409621e-16
3.283707930232385 6.257439320687166e-22 5.4541942567553694e-14 5.3977449691692874e-14 5.64492875860838e-16
3.2898708863219004 5.818462771257321e-22 5.0810860157261457e-14 5.024071958940752e-14 5.701405678539364e-16
3.29141343181113 5.714810017894802e-22 4.992909192866561e-14 4.9357533136629314e-14 5.715587920362908e-16
3.292184975758714 5.663859238346764e-22 4.9495545282659046e-14 4.892327643214845e-14 5.722688505105955e-16
3.295272960557952 5.344182390711701e-22 4.674574649058412e-14 4.6170715210787765e-14 5.750312797963484e-16
3.3076538914384823 4.2309018692786545e-22 3.7146888721589406e-14 3.6560761038744303e-14 5.86127682845099e-16
3.310756385682612 4.002755747306116e-22 3.517675291098199e-14 3.458782805296355e-14 5.88924858018435e-16
3.313861789986515 3.7916524336822484e-22 3.335280350930412e-14 3.276107222834894e-14 5.917312809551716e-16
3.3200813396944477 3.4979271092446025e-22 3.082683316959264e-14 3.02290666414589e-14 5.977665281337321e-16
3.345076488085796 2.9930880418866175e-22 2.657632815284899e-14 2.5951669098155058e-14 6.246590546939347e-16
3.3482140837626964 3.0163588691976378e-22 2.6808076989416213e-14 2.6179775054448257e-14 6.283019349679591e-16
3.3513546224236106 3.039837528241807e-22 2.704208604313373e-14 2.641012468873311e-14 6.319613544006166e-16
3.3576445397418455 3.194057500904492e-22 2.8467339484805586e-14 2.7827727581476996e-14 6.396119033285994e-16
3.3702598118196083 3.747165094704876e-22 3.352244158663542e-14 3.2866782128093304e-14 6.556594585421211e-16
3.382922481734668 3.8855527210751107e-22 3.4891069776959064e-14 3.4219805832141306e-14 6.71263944817762e-16
3.389271646505754 3.9568684720034592e-22 3.5598149768945436e-14 3.4918975206633745e-14 6.791745623116921e-16
3.395632727569191 4.0346844076077137e-22 3.63663499599857e-14 3.5679022988279545e-14 6.873269717061715e-16
3.421196662673239 4.408000909459323e-22 4.003032796041027e-14 3.930924665731192e-14 7.210813030983511e-16
3.4276182099114902 4.347711197879868e-22 3.955692849973265e-14 3.882830719707054e-14 7.286213026621177e-16
3.4340518103208963 4.0590109172365976e-22 3.699955456295685e-14 3.6263798259880783e-14 7.357563030760499e-16
3.4469541582030403 3.647778281042029e-22 3.3375929848863893e-14 3.262647176627234e-14 7.494580825915449e-16
3.472904465399547 3.550376489460697e-22 3.2729297121849055e-14 3.194828667549754e-14 7.810104463515125e-16
3.4990501388274233 3.392856881351319e-22 3.1512665473145205e-14 3.0699351342343413e-14 8.133141308017894e-16
3.5253949054701885 2.783055216692334e-22 2.6043480792434322e-14 2.5198758512323372e-14 8.447222801109444e-16
3.5519380250092896 2.2045874232394957e-22 2.078557954656397e-14 1.9909268948475982e-14 8.763105980879819e-16
3.578680990867387 1.9911708625459342e-22 1.8914764914677498e-14 1.8003829787748356e-14 9.109351269291418e-16
3.605625307711299 1.9214862833521538e-22 1.8390236527588845e-14 1.7442823501329495e-14 9.4741302625935e-16
3.660119384959845 1.9060395096170728e-22 1.8518106742044106e-14 1.7494005037114818e-14 1.0241017049292915e-15
3.715437065384467 1.9107643611073378e-22 1.8844580530932742e-14 1.773956033689357e-14 1.1050201940391687e-15
3.8285932144167436 1.9986750915431882e-22 2.031191443818477e-14 1.9032727887422682e-14 1.2791865507620882e-15
3.94519561050918 2.110399043048873e-22 2.2100523221909715e-14 2.0631040343920448e-14 1.4694828779892632e-15
4.06534921144712 2.23340325880078e-22 2.410096520658814e-14 2.242519539029418e-14 1.6757698162939558e-15
4.189162171576248 2.3636643957945673e-22 2.6283452961820204e-14 2.4384950370222338e-14 1.8985025915978665e-15
4.316745939156006 2.4991249172206395e-22 2.863610108441811e-14 2.649916962833455e-14 2.136931456083561e-15
4.448215356677963 2.6383687536893675e-22 3.115234422974374e-14 2.876450446902037e-14 2.3878397607233746e-15
4.58368876423945 2.7807431317849454e-22 3.3833383176084933e-14 3.11817976061169e-14 2.651585569968035e-15
4.723288106065518 2.926006344524678e-22 3.6685051538248726e-14 3.375519326167869e-14 2.929858276570038e-15
4.867139040275056 3.0735746017383525e-22 3.970881663292708e-14 3.649338349037062e-14 3.215433142556459e-15
4.940699165968905 3.149166407666208e-22 4.1300323568022636e-14 3.7938495663809457e-14 3.3618279042131925e-15
5.015371051989984 3.2243255149086407e-22 4.2925106559832216e-14 3.941492017381527e-14 3.5101863860169397e-15
5.091171501069577 3.302562110169149e-22 4.4631157873393676e-14 4.096748247309603e-14 3.663675400297653e-15
5.129500256944802 3.3414341651254247e-22 4.549643815778129e-14 4.175542559024301e-14 3.741012567538276e-15
5.168117569889187 3.3804705561103435e-22 4.6374471740776985e-14 4.255499545176984e-14 3.8194762890071446e-15
5.20702561229733 3.4223115819739714e-22 4.73019118022436e-14 4.3396861535974206e-14 3.905050266269391e-15
5.246226572918644 3.4640576551074007e-22 4.8239365591138844e-14 4.42481192420745e-14 3.991246349064347e-15
5.265937586045735 3.484892363637951e-22 4.871183715580421e-14 4.467726979716887e-14 4.034567358635332e-15
5.285722656980489 3.505700124315769e-22 4.918679998272971e-14 4.510876856422626e-14 4.078031418503444e-15
5.305582063971359 3.5264799262736403e-22 4.9664250465714384e-14 4.5542616188090406e-14 4.1216342776239856e-15
5.3255160863122235 3.5477425665738776e-22 5.0151419817457974e-14 4.5985706827789826e-14 4.165712989668147e-15
5.365609099470188 3.5941547743752137e-22 5.119001278416855e-14 4.693310288835729e-14 4.256909895811267e-15
5.406003951863644 3.6406785830473997e-22 5.224300276387711e-14 4.789425544846158e-14 4.348747315415521e-15
5.446702915881641 3.6873211081972425e-22 5.331066259908994e-14 4.8869471133030983e-14 4.441191466058949e-15
5.487708281020852 3.735062060179019e-22 5.440743753648368e-14 4.987283866347907e-14 4.534598873004608e-15
5.529022354014368 3.791601965431717e-22 5.5646841454727063e-14 5.101485976015744e-14 4.631981694569619e-15
5.570647458961463 3.848968245053237e-22 5.691404277215128e-14 5.218400686946285e-14 4.7300359026884425e-15
5.612585937458331 3.9072324387516417e-22 5.821054758935355e-14 5.338182039116981e-14 4.828727198183744e-15
5.654840148729818 3.967942816839711e-22 5.956006603860995e-14 5.4631561897157566e-14 4.928504141452387e-15
5.67608639626678 4.0052139227164427e-22 6.03453968223772e-14 5.536468396071029e-14 4.980712861666922e-15
5.686739436050992 4.0240892910809323e-22 6.074357822576068e-14 5.5736690893619886e-14 5.006887332140815e-15
5.6974124697621304 4.043130029008106e-22 6.114554263623932e-14 5.611243480848456e-14 5.033107827754761e-15
5.718818669136295 4.081724760748318e-22 6.196115080187752e-14 5.687546606942722e-14 5.085684732450304e-15
5.740305295436557 4.1228715159073845e-22 6.282091020947087e-14 5.768207872888722e-14 5.138831480583653e-15
5.7835210386641895 4.2227716187451406e-22 6.482751088986862e-14 5.957880538669766e-14 5.248705503170959e-15
5.827062130521658 4.332156450258924e-22 6.700746898446906e-14 6.164712031991283e-14 5.360348664556232e-15
5.8489554468988025 4.405163017753893e-22 6.839269712704816e-14 6.297203685740578e-14 5.420660269642386e-15
5.870931020387893 4.481570744242849e-22 6.98403918194604e-14 6.435913289198436e-14 5.481258927476024e-15
5.892989160043636 4.5616494801522115e-22 7.13554231711262e-14 6.581328248263876e-14 5.542140688487468e-15
5.915130176081913 4.650759575894311e-22 7.302265659560726e-14 6.741739798353187e-14 5.605258612075383e-15
5.95966208400165 4.892596242661392e-22 7.739812613374133e-14 7.164885568876719e-14 5.749270444974116e-15
6.004529249263818 5.228812280383513e-22 8.333960702012547e-14 7.742816898700258e-14 5.911438033122901e-15
6.027089341400364 5.458205058106807e-22 8.732265058949492e-14 8.131741658353482e-14 6.0052340059600595e-15
6.049734195844842 5.724467971788817e-22 9.192652782230557e-14 8.582191666642761e-14 6.1046111558779906e-15
6.095279466722835 6.482826917908257e-22 1.0488840527841966e-13 9.853918982797978e-14 6.349215450439907e-15
6.141167624020661 7.626482371289269e-22 1.2432104598473913e-13 1.1765394951917382e-13 6.667096465565326e-15
6.164241091010745 8.353493907882186e-22 1.366838519770473e-13 1.2981704192977733e-13 6.866810047269999e-15
6.187401249150058 9.167362901486834e-22 1.5056434441617478e-13 1.434924689231158e-13 7.071875493058991e-15
6.1990139391386085 9.563198926066638e-22 1.5736032203168661e-13 1.5018410477567455e-13 7.176217256012068e-15
6.204828454712694 9.770485875594804e-22 1.6092198214734596e-13 1.5369306402349652e-13 7.228918123849488e-15
6.210648424152782 9.921422885951163e-22 1.635612192864824e-13 1.562874455193589e-13 7.273773767123524e-15
6.233982942956859 1.0428823549395554e-21 1.7257201185812195e-13 1.651420419300072e-13 7.429969928114763e-15
6.239830258556775 1.0490896560926168e-21 1.7376200284689624e-13 1.663105023124958e-13 7.451500534400468e-15
6.245683058788269 1.0492874271145458e-21 1.739577749161902e-13 1.664847098160507e-13 7.473065100139517e-15
6.257405133728602 1.047096335754749e-21 1.7392032848784973e-13 1.6640960213533239e-13 7.510726352517334e-15
6.269149208991335 1.0361433677937304e-21 1.724240694866422e-13 1.6489990958264582e-13 7.524159903996345e-15
6.280915325867298 1.0099118136595992e-21 1.6837430813309639e-13 1.608666715303468e-13 7.507636602749553e-15
6.304513850009849 9.457459423968175e-22 1.5826887774552302e-13 1.5082139014649758e-13 7.447487599025397e-15
6.32820103803542 8.673857002892944e-22 1.4570080752221702e-13 1.3834230498896102e-13 7.358502533255976e-15
6.3519772230701035 7.959717975294826e-22 1.3420727102244473e-13 1.2692857694116092e-13 7.278694081283813e-15
6.375842739491607 7.356445174493946e-22 1.2450162856094378e-13 1.172933329955565e-13 7.2082955653873e-15
6.399797922933955 6.881985189160676e-22 1.1690939896643625e-13 1.0973729839922317e-13 7.172100567213103e-15
6.42384311029221 6.485818096507315e-22 1.10593377822475e-13 1.0345065820781983e-13 7.142719614655177e-15
6.447978639727206 6.20182759796502e-22 1.061482191636992e-13 9.900820472745175e-14 7.140014436247456e-15
6.472204850670314 5.964969683911761e-22 1.0247783186747124e-13 9.533522962506437e-14 7.142602242406846e-15
6.496522083828205 5.814748051240191e-22 1.0027236401461564e-13 9.310555662469198e-14 7.166807389923649e-15
