Dust emission spectrum from A.P. Jones, M. Kohler, N. Ysard, M. Bocchio, and L. Verstraete (2017), A&A, 602A, 46J 
inside the DustPedia framework.

lambda    nu*dP/dnu     j_nu    j_nu(carb.) j_nu(sil)
 (um)   (erg s-1 H-1) (Jy cm2 sr-1 H-1)
0.9927057738263894 3.182328266066931e-22 8.385615733723381e-15 8.385615564071676e-15 1.6965170606737566e-22
1.0001793341362166 3.2359002835381374e-22 8.590974698001827e-15 8.590974493806296e-15 2.0419553182908566e-22
1.0077091589558085 3.289659854612633e-22 8.799452146233462e-15 8.799451900786176e-15 2.4544728640468106e-22
1.0114953028030835 3.316607080306388e-22 8.904864735058777e-15 8.904864466092466e-15 2.689663087622856e-22
1.0152956718711033 3.3435977621742646e-22 9.01106233055473e-15 9.011062035913745e-15 2.9464098684915185e-22
1.0229392996569957 3.39767883978508e-22 9.225748734928487e-15 9.225748381699712e-15 3.5322877710400427e-22
1.0267826658714554 3.4247075291203073e-22 9.334078519638502e-15 9.334078133061027e-15 3.865774761597899e-22
1.0306404723013447 3.451774015958843e-22 9.443195503423004e-15 9.44319508048896e-15 4.2293404326183954e-22
1.03451277320114 3.4788772841488634e-22 9.553101670477866e-15 9.553101207921794e-15 4.625560726056477e-22
1.0383996230291617 3.506016341356847e-22 9.66379905493979e-15 9.663798549217833e-15 5.057219565643874e-22
1.0403485208654093 3.5195989874067613e-22 9.719445103691092e-15 9.719444574964176e-15 5.287269126364679e-22
1.0423010764483396 3.533190219699496e-22 9.77528974360921e-15 9.775289190876755e-15 5.527324550394911e-22
1.0462171883269815 3.5603979763712965e-22 9.8875758787121e-15 9.887575274799725e-15 6.039123742095155e-22
1.0471985131304309 3.5672051009813884e-22 9.915771957538723e-15 9.915771340139402e-15 6.173993228208373e-22
1.048180758391296 3.5740142714644926e-22 9.944017923965442e-15 9.944017292791058e-15 6.3117438289500005e-22
1.0501480137395462 3.5876386942673563e-22 1.0000659660700019e-14 1.000065900108766e-14 6.596123616085232e-22
1.0521189612883777 3.6012711342588735e-22 1.0057501373535621e-14 1.0057500684261129e-14 6.892744937718621e-22
1.0531058218030118 3.6080811794823025e-22 1.0085971741258008e-14 1.0085971036676803e-14 7.045812035088916e-22
1.0540936079674168 3.614863220604584e-22 1.0114408313740509e-14 1.0114407593524182e-14 7.202163302506364e-22
1.058054026499678 3.6420095355141455e-22 1.022865088341769e-14 1.0228650097276132e-14 7.861415576302807e-22
1.0590464539527713 3.648800587215401e-22 1.0257335778378744e-14 1.0257334974875287e-14 8.035034568067993e-22
1.06003981227728 3.6555934026404405e-22 1.0286070448350757e-14 1.028606962711894e-14 8.212318178922561e-22
1.0620293250338977 3.669184274622832e-22 1.0343689263534958e-14 1.0343688405717498e-14 8.578174611962163e-22
1.0660195594769086 3.6963866391673104e-22 1.0459525862235473e-14 1.0459524926516366e-14 9.35719105455082e-22
1.070024785945596 3.7236158594417e-22 1.0576163161202718e-14 1.0576162140844276e-14 1.0203584457008709e-21
1.0740450607676866 3.7508711953822934e-22 1.0693603718684959e-14 1.0693602606397963e-14 1.1122869956339966e-21
1.07808044048254 3.7781519371455462e-22 1.0811850172553644e-14 1.0811848960454966e-14 1.2120986723401125e-21
1.0861967418109137 3.8327446721284855e-22 1.1050649831717244e-14 1.1050648393739585e-14 1.4379776550566077e-21
1.0902777775684922 3.859959262129806e-22 1.1170929589256053e-14 1.1170928023782507e-14 1.5654735447236815e-21
1.0943741465085532 3.8871950606757624e-22 1.1292018785929176e-14 1.1292017082213105e-14 1.7037160704380276e-21
1.1026131145906286 3.9417281488058666e-22 1.1536637737184447e-14 1.1536635721257172e-14 2.0159272740492267e-21
1.1109141095355224 3.9963400085495457e-22 1.178453217954152e-14 1.178452979729263e-14 2.382248890500186e-21
1.1192775983109025 4.0509838668234844e-22 1.2035600351853594e-14 1.2035597540365464e-14 2.8114881276963286e-21
1.1277040513999907 4.105457418669836e-22 1.2289271126980686e-14 1.2289267813193924e-14 3.3137867643559137e-21
1.1361939428280308 4.1599949012872653e-22 1.25462720682224e-14 1.2546268167415307e-14 3.900807093678892e-21
1.1447477501889525 4.214594774264641e-22 1.2806635711004849e-14 1.2806631125062883e-14 4.585941963193442e-21
1.1533659546722406 4.269276415144946e-22 1.3070458872996972e-14 1.3070453488438568e-14 5.3845584036782145e-21
1.1707974979042381 4.379050663373888e-22 1.3609155878013283e-14 1.3609148482784566e-14 7.395228714541744e-21
1.1884924949847024 4.489145590981684e-22 1.4162162303185103e-14 1.4162152197293587e-14 1.0105891518146012e-20
1.2064549276569216 4.600312425800423e-22 1.4732208682303156e-14 1.473219494028967e-14 1.374201348279034e-20
1.2246888378427687 4.711791206519726e-22 1.5317265138145008e-14 1.5317246543204547e-14 1.859494046086912e-20
1.2431983285522175 4.823476948955838e-22 1.5917324055104357e-14 1.59172990152836e-14 2.503982076243064e-20
1.2619875648066055 4.9355155856319615e-22 1.6533204450001816e-14 1.6533170892752672e-14 3.355724914110828e-20
1.3004222497298317 5.159872714989733e-22 1.7811184936747678e-14 1.781112551530604e-14 5.942144164248985e-20
1.3400274889804893 5.385419075531696e-22 1.915590368765131e-14 1.9155800394678754e-14 1.0329297255239191e-19
1.3808389325824078 5.612866522357611e-22 2.0572978442432422e-14 2.0572802093579595e-14 1.7634885282839772e-19
1.4228933163050095 5.844070833998433e-22 2.2072790621223107e-14 2.207249477665968e-14 2.958445634308604e-19
1.466228494730424 6.083133346646594e-22 2.3675459954732788e-14 2.3674972021202444e-14 4.879335303428906e-19
1.5108834753276823 6.329363970593703e-22 2.538402430277182e-14 2.538323279522142e-14 7.915075503935593e-19
1.5568984535646726 6.582362386850173e-22 2.7202668473157638e-14 2.720140430717873e-14 1.2641659789006218e-18
1.6043148490894465 6.843546800395834e-22 2.914340407445801e-14 2.914141240475791e-14 1.9916697000932334e-18
1.6531753430134553 7.114406688164044e-22 3.121957882541438e-14 3.121648723655943e-14 3.0915888549455134e-18
1.7035239163302658 7.396721481500493e-22 3.3446981822047034e-14 3.344225249897605e-14 4.729323070983729e-18
1.755405889504358 7.695979663525098e-22 3.5860050397108883e-14 3.585291717852721e-14 7.133218581678987e-18
1.8088679632656115 8.011875666688256e-22 3.846896493666507e-14 3.845835301116735e-14 1.0611925497721194e-17
1.8639582606462262 8.343940551018493e-22 4.128352925332139e-14 4.126795179945753e-14 1.5577453863857078e-17
1.9207263702978936 8.692857577361445e-22 4.43197698339088e-14 4.429719863406636e-14 2.2571199842439408e-17
1.979223391128241 9.059778765917028e-22 4.7597247715956744e-14 4.7564952742986756e-14 3.229497296997595e-17
2.039501978296691 9.445581658134403e-22 5.11354722185979e-14 5.1089827502713e-14 4.564471588491127e-17
2.1016163906111602 9.854014321945492e-22 5.497130778253467e-14 5.490755502620903e-14 6.375275632563607e-17
2.1656225393682647 1.0286439082233703e-21 5.913127648695163e-14 5.904325111736312e-14 8.802536958849732e-17
2.231578038680979 1.0740854749132821e-21 6.362391004476309e-14 6.350372500171157e-14 1.20185043051519e-16
2.299542257339062 1.121670815213008e-21 6.846620370696576e-14 6.830388915019529e-14 1.6231455677046694e-16
2.369576372248914 1.1714524546555863e-21 7.368257765767906e-14 7.346567383554788e-14 2.1690382213116674e-16
2.4417434235010123 1.2235090549911064e-21 7.930063182775e-14 7.901374671156084e-14 2.868851161891557e-16
2.5161083711144245 1.2781457119317246e-21 8.536486208779064e-14 8.49891824976311e-14 3.756795901594942e-16
2.5927381535095444 1.3359748486749545e-21 9.19446309074407e-14 9.14574059414304e-14 4.872249660102694e-16
2.6717017477616296 1.3975333186797278e-21 9.911047974244398e-14 9.848451083972019e-14 6.259689027237863e-16
2.753070231689431 1.4637001498616263e-21 1.0696429691772916e-13 1.0616742170667496e-13 7.968752110541674e-16
2.836916847834745 1.5370772076841919e-21 1.1574752737131583e-13 1.147420799884285e-13 1.0054473828873176e-15
2.9233170693905177 1.6236096455107846e-21 1.2598736074978485e-13 1.2472990921158638e-13 1.25745153819849e-15
2.967498994190263 1.6777377721693258e-21 1.3215515113924348e-13 1.3075616718709608e-13 1.3989839521473971e-15
3.0123486681368425 1.736005908022743e-21 1.388116352214027e-13 1.372572319104789e-13 1.5544033109237435e-15
3.0578761833420214 1.834230352368225e-21 1.4888234657121657e-13 1.471570101960418e-13 1.7253363751747816e-15
3.1040917844459814 1.9504147651179115e-21 1.607055825434397e-13 1.5879429714525699e-13 1.911285398182684e-15
3.127460860933648 2.0596528690979325e-21 1.709839507212137e-13 1.6897312894501038e-13 2.010821776203302e-15
3.1510058709225794 2.199200508458321e-21 1.8394308782352053e-13 1.8182853193573208e-13 2.114555887788475e-15
3.162844764501044 2.325739329434434e-21 1.9525777987181612e-13 1.9308954847125904e-13 2.1682314005570493e-15
3.1747281389236908 2.4694032527849492e-21 2.0809804023804991e-13 2.0587504698820916e-13 2.2229932498407302e-15
3.1986289994194426 2.8597924328732175e-21 2.4281069723466256e-13 2.4047458215258633e-13 2.336115082076201e-15
3.2227097969389145 3.76530302419788e-21 3.220998818232236e-13 3.1964391733480957e-13 2.45596448841402e-15
3.2348180950136065 4.615885417545065e-21 3.96345851120351e-13 3.93825932885642e-13 2.5199182347088776e-15
3.240889293275058 5.2513313384962876e-21 4.51755085859302e-13 4.4920143360364193e-13 2.5536522556600174e-15
3.2469718861334385 5.987654656073109e-21 5.160653559703061e-13 5.134767988634436e-13 2.588557106862586e-15
3.2714166318528037 9.859865169507136e-21 8.562020562389654e-13 8.534692693912072e-13 2.7327868477583706e-15
3.2744851364798273 1.0102094920059716e-20 8.780594096365614e-13 8.753096292756397e-13 2.7497803609217424e-15
3.2775565192852394 1.0350866887513104e-20 9.005261863766889e-13 8.977593279072666e-13 2.766858469422369e-15
3.283707930232385 1.0112879051407655e-20 8.814725004059989e-13 8.786751078356464e-13 2.797392570352277e-15
3.2898708863219004 9.355064364388518e-21 8.169492284616068e-13 8.141240546496256e-13 2.8251738119811853e-15
3.29141343181113 9.176009590221831e-21 8.016886387017192e-13 7.988564890460859e-13 2.832149655633021e-15
3.292184975758714 9.087977038955985e-21 7.941835418754316e-13 7.913478997125981e-13 2.8356421628334015e-15
3.295272960557952 8.538018312703938e-21 7.468233873740817e-13 7.439741612458344e-13 2.849226128247312e-15
3.3076538914384823 6.619989617071534e-21 5.812283651129924e-13 5.783245825877763e-13 2.9037825252158568e-15
3.310756385682612 6.2260297165712624e-21 5.47151819352592e-13 5.442342861430345e-13 2.9175332095575316e-15
3.313861789986515 5.861136744399841e-21 5.155676729242966e-13 5.126363443198714e-13 2.9313286044251374e-15
3.3200813396944477 5.3513493222884054e-21 4.716083201231214e-13 4.686473160606591e-13 2.9610040624622773e-15
3.345076488085796 4.45931315066044e-21 3.959528352315543e-13 3.928595781967945e-13 3.093257034759817e-15
3.3482140837626964 4.495439881666022e-21 3.9953501448271637e-13 3.964238414743841e-13 3.111173008332262e-15
3.3513546224236106 4.5319036369153976e-21 4.0315354669477695e-13 4.0002437735813647e-13 3.1291693366404643e-15
3.3576445397418455 4.788196832893163e-21 4.267525701194834e-13 4.2358577365857937e-13 3.1667964609040756e-15
3.3702598118196083 5.718217570245174e-21 5.115563622993062e-13 5.083106421580583e-13 3.2457201412479994e-15
3.382922481734668 5.939798549611176e-21 5.333756624417132e-13 5.300532307404813e-13 3.322431701231859e-15
3.389271646505754 6.054098497398917e-21 5.446597645365599e-13 5.41298450774209e-13 3.361313762350862e-15
3.395632727569191 6.1795111397943064e-21 5.569859795419213e-13 5.535845953927987e-13 3.4013841491226404e-15
3.421196662673239 6.787014061294844e-21 6.163483273393269e-13 6.127810716885747e-13 3.56725565075215e-15
3.4276182099114902 6.6768540805407414e-21 6.074824831876888e-13 6.038782114906659e-13 3.604271697022744e-15
3.4340518103208963 6.1767060379126625e-21 5.630321689912648e-13 5.593928870399688e-13 3.639281951295989e-15
3.4469541582030403 5.459867976863383e-21 4.995593386991579e-13 4.958528600346391e-13 3.706478664518698e-15
3.472904465399547 5.262603935693463e-21 4.851353887601003e-13 4.812741175245984e-13 3.861271235502004e-15
3.4990501388274233 4.96265607268237e-21 4.609287280471022e-13 4.56909059290327e-13 4.0196687567752395e-15
3.5253949054701885 3.8925882859839976e-21 3.6426351748552546e-13 3.600899716837104e-13 4.173545801815071e-15
3.5519380250092896 2.875037380344372e-21 2.710680353999319e-13 2.667398344492794e-13 4.3282009506524876e-15
3.578680990867387 2.478713898774477e-21 2.3546091180802107e-13 2.3096320609115375e-13 4.49770571686736e-15
3.605625307711299 2.3268243417647272e-21 2.22696619663364e-13 2.180203999053083e-13 4.676219758055683e-15
3.660119384959845 2.2326040371711146e-21 2.1690840963396046e-13 2.1185718167927032e-13 5.051227954690195e-15
3.715437065384467 2.170295178388436e-21 2.1404157989075264e-13 2.085950795756779e-13 5.446500315074755e-15
3.8285932144167436 2.1727577959404018e-21 2.208106291651693e-13 2.145148278156807e-13 6.295801349488614e-15
3.94519561050918 2.2070779423784965e-21 2.3112964099733567e-13 2.2390809981247581e-13 7.221541184859879e-15
4.06534921144712 2.2525112166612562e-21 2.4307161837559103e-13 2.3484912170378967e-13 8.222496671801284e-15
4.189162171576248 2.302916573781995e-21 2.5607949905954383e-13 2.467791672869397e-13 9.300331772604102e-15
4.316745939156006 2.3557203211191363e-21 2.699290650793419e-13 2.594782836542038e-13 1.0450781425138031e-14
4.448215356677963 2.4097823935997068e-21 2.84533276628671e-13 2.728756914182214e-13 1.1657585210449668e-14
4.58368876423945 2.4649107414390647e-21 2.9990641227053516e-13 2.869845298742115e-13 1.2921882396323716e-14
4.723288106065518 2.5215596983546692e-21 3.1614267571227337e-13 3.0189145430254115e-13 1.425122140973218e-14
4.867139040275056 2.5804569310931097e-21 3.333801985739628e-13 3.1777033110168426e-13 1.5609867472278495e-14
4.940699165968905 2.61248939290448e-21 3.426197389325716e-13 3.263155370691922e-13 1.6304201863379346e-14
5.015371051989984 2.6438288297927853e-21 3.5197015226927964e-13 3.349638224101265e-13 1.7006329859153243e-14
5.091171501069577 2.6799391895385277e-21 3.621696884703333e-13 3.444382461486528e-13 1.7731442321680652e-14
5.129500256944802 2.6977011309239914e-21 3.673147116057364e-13 3.492185493265262e-13 1.8096162279210135e-14
5.168117569889187 2.7157542288028924e-21 3.7255661792666827e-13 3.5409074030855594e-13 1.8465877618112312e-14
5.20702561229733 2.737829483003884e-21 3.7841256014431736e-13 3.5954285252341556e-13 1.88697076209018e-14
5.246226572918644 2.7598586928191624e-21 3.843291472545033e-13 3.650531236485136e-13 1.927602360598978e-14
5.265937586045735 2.7708580992958966e-21 3.873106381220944e-13 3.678305775541085e-13 1.9480060567985934e-14
5.285722656980489 2.7818485549442426e-21 3.903078517903586e-13 3.706231971053584e-13 1.9684654685000235e-14
5.305582063971359 2.7928309960859556e-21 3.933209914641114e-13 3.7343120737332717e-13 1.9889784090784226e-14
5.3255160863122235 2.8045876422289283e-21 3.964607059866519e-13 3.7636362305122265e-13 2.0097082935429143e-14
5.365609099470188 2.8341520252577987e-21 4.0365617930419754e-13 3.831301831315728e-13 2.0525996172624798e-14
5.406003951863644 2.86405894085421e-21 4.1098667665880404e-13 3.9002924851743963e-13 2.0957428141364397e-14
5.446702915881641 2.8943399459207238e-21 4.184587557645227e-13 3.970675514517134e-13 2.1391204312809342e-14
5.487708281020852 2.9265236147548425e-21 4.2629720257228337e-13 4.0446816701680827e-13 2.1829035555475085e-14
5.529022354014368 2.9724894117427454e-21 4.3625266715534483e-13 4.1396721825969047e-13 2.22854488956543e-14
5.570647458961463 3.0199933398451522e-21 4.4656130986911174e-13 4.2381684438117067e-13 2.2744465487941154e-14
5.612585937458331 3.0691699837544226e-21 4.572496471600585e-13 4.3404373947536175e-13 2.3205907684696832e-14
5.654840148729818 3.1224269889218557e-21 4.686860830545993e-13 4.450141607919771e-13 2.367192226262222e-14
5.67608639626678 3.159836031956634e-21 4.760833326793779e-13 4.521674873955962e-13 2.391584528378176e-14
5.686739436050992 3.178949211949352e-21 4.798619915312465e-13 4.558239125324423e-13 2.403807899880418e-14
5.6974124697621304 3.1983440802833964e-21 4.836957577995818e-13 4.595352673447409e-13 2.4160490454840883e-14
5.718818669136295 3.2380076991924917e-21 4.915340820543814e-13 4.671282467254084e-13 2.4405835328973033e-14
5.740305295436557 3.2817158367804995e-21 5.000407485897929e-13 4.753870166480291e-13 2.465373194176361e-14
5.7835210386641895 3.3966888097442855e-21 5.21455813110319e-13 4.962897106293767e-13 2.5166102480942193e-14
5.827062130521658 3.526922407927418e-21 5.455254134363048e-13 5.198392129901074e-13 2.5686200446197274e-14
5.8489554468988025 3.620412246850318e-21 5.620898869711776e-13 5.361224463942657e-13 2.59674405769119e-14
5.870931020387893 3.7194555884928396e-21 5.796365838676699e-13 5.533867338636111e-13 2.6249850004058652e-14
5.892989160043636 3.8244912459060254e-21 5.982445438942102e-13 5.717111365222682e-13 2.6533407371942184e-14
5.915130176081913 3.9436820493669465e-21 6.192066807878514e-13 5.923792184315601e-13 2.6827462356291496e-14
5.95966208400165 4.2807146117076335e-21 6.771850220758692e-13 6.49685055443541e-13 2.7499966632328283e-14
6.004529249263818 4.7652606118228185e-21 7.595127257249099e-13 7.312546091241803e-13 2.82581166007298e-14
6.027089341400364 5.1028708756706615e-21 8.163786551362279e-13 7.876812449726966e-13 2.8697410163531206e-14
6.049734195844842 5.498706984369479e-21 8.830113873925516e-13 8.538483829906815e-13 2.916300440187028e-14
6.095279466722835 6.642476496719236e-21 1.0747144350185229e-12 1.0444027442623346e-12 3.031169075618846e-14
6.141167624020661 8.390202255584946e-21 1.3677061975054481e-12 1.3358983928315245e-12 3.1807804673923736e-14
6.164241091010745 9.504848933787129e-21 1.555228721127211e-12 1.522479365616179e-12 3.274935551103199e-14
6.187401249150058 1.0760134936467989e-20 1.7672395867257773e-12 1.733523816935803e-12 3.371576978997379e-14
6.1990139391386085 1.1370308488438205e-20 1.8709590997456866e-12 1.836751668906136e-12 3.420743083955032e-14
6.204828454712694 1.1690503116567883e-20 1.925450748070707e-12 1.8909950284747e-12 3.4455719596007833e-14
6.210648424152782 1.1922272023182709e-20 1.965465408735003e-12 1.930798721503244e-12 3.466668723175843e-14
6.233982942956859 1.269985831763031e-20 2.1015218924799936e-12 2.06612210552258e-12 3.539978695741328e-14
6.239830258556775 1.2793629684766339e-20 2.1190245321704396e-12 2.0835248467550326e-12 3.5499685415407444e-14
6.245683058788269 1.2792819190357861e-20 2.1208777535622316e-12 2.0852780261794023e-12 3.559972738282941e-14
6.257405133728602 1.2750897778596359e-20 2.117895225533372e-12 2.0821214615344618e-12 3.5773763998910923e-14
6.269149208991335 1.2572201271200235e-20 2.0921333600786253e-12 2.0563008167236182e-12 3.583254335500763e-14
6.280915325867298 1.2154565399269028e-20 2.0264309339490437e-12 1.9906820746459063e-12 3.5748859303138057e-14
6.304513850009849 1.1137374488945072e-20 1.8638195337425597e-12 1.828366861451855e-12 3.545267229070477e-14
6.32820103803542 9.895505589586664e-21 1.6622168831726404e-12 1.6271974508184618e-12 3.5019432354177954e-14
6.3519772230701035 8.761772894587846e-21 1.4773056446858674e-12 1.4426757716693632e-12 3.462987301650419e-14
6.375842739491607 7.805611021935413e-21 1.3210338160524154e-12 1.2867486654244064e-12 3.428515062800878e-14
6.399797922933955 7.045062944810865e-21 1.1967972204528964e-12 1.162694389480717e-12 3.4102830972179125e-14
6.42384311029221 6.410080451989347e-21 1.0930193211571513e-12 1.059066422382816e-12 3.395289877433509e-14
6.447978639727206 5.9479538599695116e-21 1.0180300885996594e-12 9.84100579143301e-13 3.39295094563587e-14
6.472204850670314 5.5611016034479676e-21 9.553940175976523e-13 9.214628289558766e-13 3.3931188641775664e-14
6.496522083828205 5.3078541453145914e-21 9.153123717578012e-13 8.812770629782781e-13 3.403530877952329e-14
