Dust emission spectrum from A.P. Jones, M. Kohler, N. Ysard, M. Bocchio, and L. Verstraete (2017), A&A, 602A, 46J 
inside the DustPedia framework.

lambda    nu*dP/dnu     j_nu    j_nu(carb.) j_nu(sil)
 (um)   (erg s-1 H-1) (Jy cm2 sr-1 H-1)
0.9927057738263894 7.7853360382135045e-25 2.0514802658951634e-17 2.0514802658200213e-17 7.514209877045944e-28
1.0001793341362166 7.913313458138502e-25 2.10090144131056e-17 2.1009014412200416e-17 9.051837133769869e-28
1.0077091589558085 8.041093146987434e-25 2.150897584475451e-17 2.15089758436655e-17 1.0890099234323808e-27
1.0114953028030835 8.104893132324263e-25 2.1761087547574993e-17 2.1761087546381083e-17 1.1939039595720514e-27
1.0152956718711033 8.168624885178505e-25 2.201460619096671e-17 2.2014606189658226e-17 1.30847873941366e-27
1.0229392996569957 8.295796014472345e-25 2.252565153879707e-17 2.252565153722691e-17 1.5701650441332169e-27
1.0267826658714554 8.359080500621943e-25 2.2782767019181397e-17 2.278276701746215e-17 1.719249688067685e-27
1.0306404723013447 8.422268829906339e-25 2.3041233515137392e-17 2.3041233513255503e-17 1.8818800222392632e-27
1.03451277320114 8.485354921337427e-25 2.3301039862191785e-17 2.3301039860132563e-17 2.059226705843992e-27
1.0383996230291617 8.548332728981862e-25 2.3562174760336545e-17 2.3562174758083984e-17 2.2525559720654467e-27
1.0403485208654093 8.579779146902354e-25 2.3693236848426653e-17 2.3693236846071012e-17 2.3556376935194965e-27
1.0423010764483396 8.611196243125834e-25 2.3824626776758585e-17 2.3824626774295342e-17 2.4632369381463425e-27
1.0462171883269815 8.673939491414291e-25 2.4088384348573824e-17 2.4088384345881075e-17 2.6927494336919776e-27
1.0471985131304309 8.689605815708575e-25 2.4154526367369102e-17 2.4154526364615848e-17 2.7532546154237156e-27
1.048180758391296 8.705264159991518e-25 2.4220749069459796e-17 2.4220749066644727e-17 2.815062275082791e-27
1.0501480137395462 8.736556539964127e-25 2.4353435785563847e-17 2.4353435782621153e-17 2.9426923807573987e-27
1.0521189612883777 8.76781589578641e-25 2.448644301616208e-17 2.4486443013086218e-17 3.075859695263555e-27
1.0531058218030118 8.783408832368156e-25 2.455299891226179e-17 2.4552998909117194e-17 3.144595327191869e-27
1.0540936079674168 8.798914188119394e-25 2.461941306905649e-17 2.4619413065841673e-17 3.2148167288232112e-27
1.058054026499678 8.860845233967145e-25 2.4885847097995184e-17 2.4885847094484155e-17 3.511026624452109e-27
1.0590464539527713 8.876304950038142e-25 2.4952649005494077e-17 2.4952649001905016e-17 3.589067485779922e-27
1.06003981227728 8.89175526810675e-25 2.5019527891471028e-17 2.5019527887802258e-17 3.6687687560437406e-27
1.0620293250338977 8.922627351918173e-25 2.5153515832084087e-17 2.5153515828250793e-17 3.833287653817854e-27
1.0660195594769086 8.984254811745223e-25 2.5422406996236637e-17 2.5422406992052864e-17 4.183773484397997e-27
1.070024785945596 9.045721927978595e-25 2.5692508205052868e-17 2.5692508200488044e-17 4.5648286288667454e-27
1.0740450607676866 9.1070230608474e-25 2.5963806965571264e-17 2.5963806960592286e-17 4.978980982631497e-27
1.07808044048254 9.168152617194789e-25 2.623629068001586e-17 2.6236290674586907e-17 5.428955210441468e-27
1.0861967418109137 9.289766264532018e-25 2.6784448949695612e-17 2.678444894324728e-17 6.448339339287015e-27
1.0902777775684922 9.349992465813255e-25 2.7059380786843646e-17 2.7059380779819324e-17 7.024318073858224e-27
1.0943741465085532 9.41002091026992e-25 2.733542599127558e-17 2.7335425983626295e-17 7.649285967678334e-27
1.1026131145906286 9.529463318743216e-25 2.789080372562812e-17 2.7890803716565874e-17 9.062258867928573e-27
1.1109141095355224 9.648051598773234e-25 2.845047575841433e-17 2.845047574769183e-17 1.0722504950334451e-26
1.1192775983109025 9.765634006564443e-25 2.901400547359964e-17 2.901400546092891e-17 1.2670744212637401e-26
1.1277040513999907 9.881661888554952e-25 2.957975439748922e-17 2.9579754382535254e-17 1.4953956289938402e-26
1.1361939428280308 9.996699536585727e-25 3.0149390839750075e-17 3.0149390822123816e-17 1.7626263023228564e-26
1.1447477501889525 1.0110708921498947e-24 3.07228032285111e-17 3.0722803207761164e-17 2.074993765932616e-26
1.1533659546722406 1.0223715435196945e-24 3.1300070347033074e-17 3.13000703226365e-17 2.4396570761100213e-26
1.1707974979042381 1.044708933672616e-24 3.24673264103082e-17 3.246732637670859e-17 3.359961329948951e-26
1.1884924949847024 1.0665974584119612e-24 3.36485551917502e-17 3.364855514570437e-17 4.604582320636181e-26
1.2064549276569216 1.0882097854607787e-24 3.4849227977691374e-17 3.4849227914896166e-17 6.279520366949664e-26
1.2246888378427687 1.1093089146374707e-24 3.6061824518239864e-17 3.606182443301675e-17 8.522310277262121e-26
1.2431983285522175 1.1298457434971843e-24 3.7284558466518875e-17 3.728455835141094e-17 1.15107927480328e-25
1.2619875648066055 1.1498131126885403e-24 3.851693899359553e-17 3.851693883885803e-17 1.547375019754133e-25
1.3004222497298317 1.1877080432293387e-24 4.099808033513199e-17 4.099808005939737e-17 2.7573461704350445e-25
1.3400274889804893 1.2228497023014695e-24 4.3496691331207735e-17 4.349669084876641e-17 4.824413184181434e-25
1.3808389325824078 1.2551126040298147e-24 4.6003952601895553e-17 4.600395177270335e-17 8.29192213262945e-25
1.4228933163050095 1.2846607481315056e-24 4.85210541046946e-17 4.8521052704023736e-17 1.4006708661810693e-24
1.466228494730424 1.3122155583436308e-24 5.107122453705245e-17 5.107122221055236e-17 2.3265000884117224e-24
1.5108834753276823 1.33724482689555e-24 5.363043639515723e-17 5.3630432593726984e-17 3.801430235722243e-24
1.5568984535646726 1.359319962733642e-24 5.617607801274937e-17 5.617607189602614e-17 6.1167232166981695e-24
1.6043148490894465 1.3784888958722735e-24 5.870327196744744e-17 5.870326225759966e-17 9.709847800217657e-24
1.6531753430134553 1.394817812708997e-24 6.1207668551484e-17 6.120765336235193e-17 1.5189132077443884e-23
1.7035239163302658 1.4085083108415278e-24 6.369085545095041e-17 6.369083203099595e-17 2.3419954445178523e-23
1.755405889504358 1.4206876605450379e-24 6.619811035514132e-17 6.6198074743641e-17 3.561150031090818e-23
1.8088679632656115 1.4310875808017593e-24 6.871357002712438e-17 6.871351660746357e-17 5.341966078517121e-23
1.8639582606462262 1.4395290769047671e-24 7.122395035538762e-17 7.12238712706589e-17 7.908472870280702e-23
1.9207263702978936 1.4461559535679935e-24 7.373098941939034e-17 7.373087382663851e-17 1.1559275182621648e-22
1.979223391128241 1.4512922582615312e-24 7.62463619802667e-17 7.624619510782656e-17 1.668724401252189e-22
2.039501978296691 1.455323623927601e-24 7.878674223977596e-17 7.878650422051136e-17 2.380192645868887e-22
2.1016163906111602 1.459316317222188e-24 8.14089809545333e-17 8.140864537534244e-17 3.355791908412953e-22
2.1656225393682647 1.4638915171831586e-24 8.415135048917582e-17 8.41508826616353e-17 4.678275405198752e-22
2.231578038680979 1.4690993534442034e-24 8.702272518665241e-17 8.702208009319626e-17 6.450934561661215e-22
2.299542257339062 1.475313650224756e-24 9.005237859270994e-17 9.005149847295139e-17 8.801197585427785e-22
2.369576372248914 1.483352069158859e-24 9.330058902101198e-17 9.329940055339278e-17 1.1884676192033874e-21
2.4417434235010123 1.4941788001521781e-24 9.684384633880656e-17 9.684225744781292e-17 1.588890993656554e-21
2.5161083711144245 1.5094409066404886e-24 1.0081261754600161e-16 1.0081051373616555e-16 2.1038098360668828e-21
2.5927381535095444 1.5318300482849282e-24 1.054238023583873e-16 1.0542104263478552e-16 2.759723601791123e-21
2.6717017477616296 1.5645552437511072e-24 1.1095536594306023e-16 1.1095177847898675e-16 3.587464073511523e-21
2.753070231689431 1.6124435427111874e-24 1.1783416834516257e-16 1.178295457739356e-16 4.622571226964549e-21
2.836916847834745 1.686430128994554e-24 1.269943478048857e-16 1.2698844200070662e-16 5.905804179074605e-21
2.9233170693905177 1.8105930392180897e-24 1.4049672532664424e-16 1.4048924314098462e-16 7.482185659633023e-21
2.967498994190263 1.9152584790385014e-24 1.50864621376901e-16 1.5085623875913628e-16 8.382617764675968e-21
3.0123486681368425 2.0373285485315735e-24 1.6290549818866723e-16 1.628961192243381e-16 9.378964329120348e-21
3.0578761833420214 2.3088868939649623e-24 1.874096665651634e-16 1.8739918388040556e-16 1.048268475788123e-20
3.1040917844459814 2.6584838115837624e-24 2.1904735201132676e-16 2.1903565739554034e-16 1.1694615786475483e-20
3.127460860933648 3.027539950400856e-24 2.513339745024927e-16 2.513216266670908e-16 1.2347835401874224e-20
3.1510058709225794 3.519039140255381e-24 2.9433556564797856e-16 2.9432253373370485e-16 1.3031914273736315e-20
3.162844764501044 3.976247454094549e-24 3.3382642684047634e-16 3.3381303967937955e-16 1.3387161096925012e-20
3.1747281389236908 4.5078734248176064e-24 3.798811005402947e-16 3.798673500416656e-16 1.3750498629198928e-20
3.1986289994194426 5.990450262168801e-24 5.086192229152099e-16 5.08604719096289e-16 1.4503818921022688e-20
3.2227097969389145 9.484242956241222e-24 8.113220943323187e-16 8.113067888663532e-16 1.5305465965637184e-20
3.2348180950136065 1.279710702166852e-23 1.098831495058859e-15 1.0988157608888225e-15 1.5734170036145825e-20
3.240889293275058 1.5273817274339494e-23 1.3139572023547733e-15 1.3139412420205619e-15 1.5960334211308907e-20
3.2469718861334385 1.813900539952746e-23 1.5633687672618086e-15 1.5633525728834162e-15 1.61943783922403e-20
3.2714166318528037 3.3420907959619625e-23 2.902174586007032e-15 2.902157421637457e-15 1.7164369575081233e-20
3.2744851364798273 3.437620989771214e-23 2.987930207267268e-15 2.987912927822826e-15 1.7279444442850677e-20
3.2775565192852394 3.535893771382763e-23 3.076230201759877e-15 3.076212806591566e-15 1.7395168311069738e-20
3.283707930232385 3.4413881388138035e-23 2.999629474620787e-15 2.999611870976092e-15 1.7603644694830948e-20
3.2898708863219004 3.141678212330413e-23 2.7435317296245384e-15 2.743513934842989e-15 1.7794781548852613e-20
3.29141343181113 3.0709987007409076e-23 2.6830669079457744e-15 2.683049065129585e-15 1.7842816190432882e-20
3.292184975758714 3.0362692247280686e-23 2.6533463241000027e-15 2.653328457228838e-15 1.7866871164365663e-20
3.295272960557952 2.817066131649228e-23 2.464097398063323e-15 2.46407943735766e-15 1.7960705662404714e-20
3.3076538914384823 2.057661275087559e-23 1.806605701905187e-15 1.806587363557611e-15 1.833834757590581e-20
3.310756385682612 1.9030969692195396e-23 1.672467072139707e-15 1.6724486384455833e-15 1.8433694123666025e-20
3.313861789986515 1.760484742408368e-23 1.548588714858848e-15 1.5485701854420554e-15 1.8529416792643636e-20
3.3200813396944477 1.560494156550536e-23 1.3752457247885912e-15 1.3752269901183432e-15 1.8734670248433144e-20
3.345076488085796 1.2037972507698283e-23 1.068879709458554e-15 1.0688600615814578e-15 1.964787709652549e-20
3.3482140837626964 1.217184945807112e-23 1.0817806883249028e-15 1.0817609167841759e-15 1.9771540726839892e-20
3.3513546224236106 1.2307204564936835e-23 1.0948364236688776e-15 1.094816527823118e-15 1.9895845759529218e-20
3.3576445397418455 1.3295922641004722e-23 1.1850116770847458e-15 1.184991521582128e-15 2.0155502617943795e-20
3.3702598118196083 1.6942203480235967e-23 1.5156632071473552e-15 1.5156425067864166e-15 2.0700360938620985e-20
3.382922481734668 1.7772970316955607e-23 1.595958135143093e-15 1.595936902380509e-15 2.123276258407018e-20
3.389271646505754 1.820334757869124e-23 1.637672563511619e-15 1.6376510603203352e-15 2.1503191284189752e-20
3.395632727569191 1.866713625794715e-23 1.6825494668857089e-15 1.682527684963607e-15 2.1781922101620672e-20
3.421196662673239 2.0894073399786456e-23 1.8974510845210485e-15 1.897428145487546e-15 2.29390335020899e-20
3.4276182099114902 2.044568645411271e-23 1.8602168368213594e-15 1.860193636491238e-15 2.3200330120990797e-20
3.4340518103208963 1.84802355214783e-23 1.6845495034508022e-15 1.6845260544921062e-15 2.3448958696079873e-20
3.4469541582030403 1.5681034675876525e-23 1.4347613066826823e-15 1.4347373774578415e-15 2.3929224841114204e-20
3.472904465399547 1.489704878490207e-23 1.3732907970945984e-15 1.3732657655599409e-15 2.5031534657978923e-20
3.4990501388274233 1.3697778338806267e-23 1.2722420120007421e-15 1.2722158451133027e-15 2.6166887439359568e-20
3.5253949054701885 9.428550690766175e-24 8.823119187239898e-16 8.822846373640863e-16 2.728135990365721e-20
3.5519380250092896 5.415862811111284e-24 5.106254625557749e-16 5.105970515625167e-16 2.8410993258065366e-20
3.578680990867387 3.825375107251708e-24 3.633845403483354e-16 3.6335488925562857e-16 2.96510927066818e-20
3.605625307711299 3.1826110178884596e-24 3.046025875978234e-16 3.045716242553124e-16 3.096334251101437e-20
3.660119384959845 2.714840616026381e-24 2.6376005356422746e-16 2.6372630621696894e-16 3.3747347258508936e-20
3.715437065384467 2.3840994850139386e-24 2.351276570443457e-16 2.350909346683819e-16 3.6722375963808695e-20
3.8285932144167436 2.218910912927947e-24 2.2550102715568374e-16 2.2545776762348733e-16 4.3259532196469114e-20
3.94519561050918 2.1901538979453575e-24 2.2935732102668756e-16 2.2930671069413555e-16 5.06103325520019e-20
4.06534921144712 2.2174918014952573e-24 2.3929262457702374e-16 2.392337955270938e-16 5.882904992993164e-20
4.189162171576248 2.277362683660205e-24 2.532379600060193e-16 2.531699621667312e-16 6.799783928809841e-20
4.316745939156006 2.3609714764361076e-24 2.7053076615250793e-16 2.704526026309365e-16 7.816352157142856e-20
4.448215356677963 2.4653521670798836e-24 2.910946365970327e-16 2.9100535345359174e-16 8.928314344093578e-20
4.58368876423945 2.5908367403294164e-24 3.152278654590349e-16 3.151264086627624e-16 1.0145679627248912e-19
4.723288106065518 2.7402000216330874e-24 3.435548908047567e-16 3.434400403186476e-16 1.1485048610906304e-19
4.867139040275056 2.919014163521558e-24 3.7711984639200826e-16 3.7699056090796025e-16 1.2928548404807377e-19
4.940699165968905 3.026498754150587e-24 3.969157600574957e-16 3.967787964395267e-16 1.3696361796903366e-19
5.015371051989984 3.1377103938200924e-24 4.1772008559885355e-16 4.175751372364823e-16 1.4494836237128326e-19
5.091171501069577 3.2730272571585235e-24 4.4232020887165366e-16 4.4216681587130917e-16 1.5339300034461674e-19
5.129500256944802 3.3424338821394974e-24 4.551005014624442e-16 4.54942764764909e-16 1.5773669753533188e-19
5.168117569889187 3.414746899720225e-24 4.684468655310258e-16 4.682846735060327e-16 1.6219202499311307e-19
5.20702561229733 3.50333441627152e-24 4.842177914047699e-16 4.840507982676271e-16 1.6699313714272935e-19
5.246226572918644 3.5941412226984886e-24 5.005086799646806e-16 5.003367856345643e-16 1.718943301163468e-19
5.265937586045735 3.640398823283506e-24 5.088550697067968e-16 5.086806869106023e-16 1.743827961945344e-19
5.285722656980489 3.6872379881944425e-24 5.173387083398659e-16 5.171618116494974e-16 1.768966903685492e-19
5.305582063971359 3.734668040878677e-24 5.259621289961229e-16 5.257826928466818e-16 1.7943614944104696e-19
5.3255160863122235 3.7856000301663254e-24 5.351380851660773e-16 5.349560700152282e-16 1.8201515084892511e-19
5.365609099470188 3.912321529801515e-24 5.572152611628459e-16 5.570279017813734e-16 1.873593814725692e-19
5.406003951863644 4.0438053731421285e-24 5.802779082706374e-16 5.800850919926126e-16 1.9281627802487594e-19
5.446702915881641 4.180281319380485e-24 6.043779764429744e-16 6.041795892215799e-16 1.9838722139442772e-19
5.487708281020852 4.327676783838921e-24 6.303986399720527e-16 6.301945495073799e-16 2.0409046467273432e-19
5.529022354014368 4.532417578671259e-24 6.651930363640369e-16 6.649829762629136e-16 2.1006010112321197e-19
5.570647458961463 4.749126680469662e-24 7.0224533385018e-16 7.020291759879854e-16 2.1615786219440808e-19
5.612585937458331 4.9786653429137115e-24 7.417291917440627e-16 7.415068062278699e-16 2.2238551619278214e-19
5.654840148729818 5.2308847415001386e-24 7.851722038984485e-16 7.849434371860783e-16 2.2876671237004714e-19
5.67608639626678 5.402658473802044e-24 8.140028867078439e-16 8.137707837842522e-16 2.3210292359187824e-19
5.686739436050992 5.4911842215856595e-24 8.28893581102306e-16 8.286597963392126e-16 2.3378476309328864e-19
5.6974124697621304 5.581525334408246e-24 8.441118461728928e-16 8.438763703676535e-16 2.3547580523908284e-19
5.718818669136295 5.767828463226532e-24 8.755644002409917e-16 8.753255146024848e-16 2.3888563850659684e-19
5.740305295436557 5.973174416795385e-24 9.101429725743619e-16 9.099006204356267e-16 2.423521387352167e-19
5.7835210386641895 6.5059112928744684e-24 9.987801218401474e-16 9.985305701710692e-16 2.495516690783344e-19
5.827062130521658 7.119395322386544e-24 1.1011898271228826e-15 1.1009328654356971e-15 2.5696168718532484e-19
5.8489554468988025 7.54989621447857e-24 1.1721649415842983e-15 1.1719040058834e-15 2.6093570089844016e-19
5.870931020387893 8.011752603559189e-24 1.2485442558548505e-15 1.2482792974172855e-15 2.649584375651281e-19
5.892989160043636 8.507485925414034e-24 1.3307801508459226e-15 1.3305111204794908e-15 2.6903036643192833e-19
5.915130176081913 9.071245238022422e-24 1.4242972897244907e-15 1.424024042959337e-15 2.732467651540175e-19
5.95966208400165 1.0647801746142087e-23 1.6844224655388397e-15 1.684139801710658e-15 2.826638281814308e-19
6.004529249263818 1.2920051481413185e-23 2.0592669145540433e-15 2.0589737413979658e-15 2.931731560775355e-19
6.027089341400364 1.4499667963277333e-23 2.3197176099868392e-15 2.3194184612499284e-15 2.991487369114287e-19
6.049734195844842 1.6366070444366983e-23 2.6281499651325443e-15 2.627844500807161e-15 3.0546432538286657e-19
6.095279466722835 2.1757674549477823e-23 3.520266413032567e-15 3.519945772790587e-15 3.206402419800722e-19
6.141167624020661 3.0054683899546565e-23 4.899283256981656e-15 4.8989433475563464e-15 3.399094253103946e-19
6.164241091010745 3.5353786778672704e-23 5.7847552319689146e-15 5.7844034408805566e-15 3.5179108835865426e-19
6.187401249150058 4.138913092200735e-23 6.79773172524517e-15 6.79736766641202e-15 3.6405883314822107e-19
6.1990139391386085 4.433622688961581e-23 7.295428020432721e-15 7.295057704396941e-15 3.703160357826429e-19
6.204828454712694 4.5888546518414646e-23 7.557941291383758e-15 7.557567807841467e-15 3.7348354229169493e-19
6.210648424152782 4.7021862710462463e-23 7.751865116983664e-15 7.751488881367387e-15 3.762356162767621e-19
6.233982942956859 5.0872219310980677e-23 8.418131913539154e-15 8.417745852033774e-15 3.860615053771411e-19
6.239830258556775 5.1364426481036863e-23 8.507552780254635e-15 8.507165184172101e-15 3.8759608253232743e-19
6.245683058788269 5.1407172214074754e-23 8.522619314791061e-15 8.522230178945879e-15 3.891358451838975e-19
6.257405133728602 5.130154498691144e-23 8.521070365150851e-15 8.520678432603993e-15 3.91932546860979e-19
6.269149208991335 5.0544490909391885e-23 8.411081983070597e-15 8.410688536746324e-15 3.9344632427478336e-19
6.280915325867298 4.8645747355424284e-23 8.110306210704175e-15 8.109912845194769e-15 3.9336550940915015e-19
6.304513850009849 4.396314086312832e-23 7.357152333048248e-15 7.356760578677638e-15 3.9175437060940366e-19
6.32820103803542 3.8159085251258517e-23 6.409846892291577e-15 6.4094582911693894e-15 3.886011221864613e-19
6.3519772230701035 3.283625008316102e-23 5.536456854312524e-15 5.536070915589337e-15 3.85938723187027e-19
6.375842739491607 2.8357631696424534e-23 4.799289935004735e-15 4.798906162062891e-15 3.837729418423626e-19
6.399797922933955 2.4768709923770118e-23 4.2076449029892896e-15 4.207261423143178e-15 3.8347984611099708e-19
6.42384311029221 2.1784353081958912e-23 3.714574098691826e-15 3.714190536297548e-15 3.8356239427869014e-19
6.447978639727206 1.96098284044683e-23 3.356346706449958e-15 3.3559615787242935e-15 3.8512772566585325e-19
6.472204850670314 1.7798084487655774e-23 3.0577005522900434e-15 3.057313550090998e-15 3.870021990469325e-19
6.496522083828205 1.662077360895814e-23 2.8661676255543146e-15 2.8657775266257085e-15 3.900989286055515e-19
6.520930681187647 1.5628903988433386e-23 2.7052508356711575e-15 2.7048574282780882e-15 3.9340739306951166e-19
