Dust emission spectrum from A.P. Jones, M. Kohler, N. Ysard, M. Bocchio, and L. Verstraete (2017), A&A, 602A, 46J 
inside the DustPedia framework.

lambda    nu*dP/dnu     j_nu    j_nu(carb.) j_nu(sil)
 (um)   (erg s-1 H-1) (Jy cm2 sr-1 H-1)
0.9927057738263894 1.427682513967002e-22 3.7620245150509694e-15 3.76202443703074e-15 7.80202308485462e-23
1.0001793341362166 1.451718564156282e-22 3.854160005094352e-15 3.854159911179569e-15 9.391478348497074e-23
1.0077091589558085 1.4758298291078527e-22 3.947670741401821e-15 3.947670628503811e-15 1.1289800999836746e-22
1.0114953028030835 1.4879122284360757e-22 3.994943269143333e-15 3.99494314542141e-15 1.237219253798753e-22
1.0152956718711033 1.500011721481953e-22 4.0425613606246056e-15 4.042561225085988e-15 1.355386174170546e-22
1.0229392996569957 1.5242480223088798e-22 4.1388047330638546e-15 4.1388045705579196e-15 1.625059356709683e-22
1.0267826658714554 1.536357068435876e-22 4.187358304043466e-15 4.1873581261861216e-15 1.7785734407537774e-22
1.0306404723013447 1.5484804355681841e-22 4.236257477659372e-15 4.236257283064972e-15 1.9459439994966882e-22
1.03451277320114 1.560617608322763e-22 4.285502897436322e-15 4.285502684600443e-15 2.1283587892173606e-22
1.0383996230291617 1.5727680815255054e-22 4.3350952249137505e-15 4.335094992203594e-15 2.3271015718582173e-22
1.0403485208654093 1.5788481507886126e-22 4.360021690982667e-15 4.36002144768015e-15 2.433025162582021e-22
1.0423010764483396 1.5849313604917826e-22 4.385035140807572e-15 4.3850348864516335e-15 2.543559368972696e-22
1.0462171883269815 1.5971069613050568e-22 4.435323346188825e-15 4.435323068265803e-15 2.779230222179619e-22
1.0471985131304309 1.600152731135685e-22 4.447949901957996e-15 4.4479496178243186e-15 2.841336763971654e-22
1.048180758391296 1.6031992341929053e-22 4.4605982823816226e-15 4.460597991904516e-15 2.9047710706459177e-22
1.0501480137395462 1.6092944110934428e-22 4.485960563679003e-15 4.485960260105852e-15 3.0357314922837235e-22
1.0521189612883777 1.6153924346684337e-22 4.511410283974729e-15 4.511409966741353e-15 3.1723337562316476e-22
1.0531058218030118 1.618438362243814e-22 4.524156407395785e-15 4.524156083113077e-15 3.242827071279959e-22
1.0540936079674168 1.621471436439991e-22 4.5368865089391904e-15 4.536886177455789e-15 3.3148340099527657e-22
1.058054026499678 1.6336099456739731e-22 4.588023631195436e-15 4.588023269349175e-15 3.6184626045766546e-22
1.0590464539527713 1.6366460921991877e-22 4.600862150943153e-15 4.6008617811002796e-15 3.69842872931129e-22
1.06003981227728 1.6396828330196478e-22 4.613722390791378e-15 4.613722012782971e-15 3.7800840760420587e-22
1.0620293250338977 1.6457580711484582e-22 4.639508080488594e-15 4.639507685628722e-15 3.948598712537329e-22
1.0660195594769086 1.6579153913019282e-22 4.6913406538627656e-15 4.691340223119334e-15 4.307434307472939e-22
1.070024785945596 1.6700814971154817e-22 4.743522176492004e-15 4.743521706758827e-15 4.697331783011435e-22
1.0740450607676866 1.6822559923729071e-22 4.796053502974386e-15 4.796052990890756e-15 5.120836293976075e-22
1.07808044048254 1.6944384939179096e-22 4.848935518641145e-15 4.8489349605722495e-15 5.580688919594892e-22
1.0861967418109137 1.71880698286326e-22 4.955700345513538e-15 4.9556996833666995e-15 6.621468364441442e-22
1.0902777775684922 1.730948914189639e-22 5.009459201479371e-15 5.0094584805803755e-15 7.208989950894216e-22
1.0943741465085532 1.7430966981731688e-22 5.063569065669879e-15 5.0635682810620275e-15 7.846078504071104e-22
1.1026131145906286 1.7674085976016833e-22 5.172846009254314e-15 5.172845080748922e-15 9.285053925667883e-22
1.1109141095355224 1.791740376187421e-22 5.283539957909643e-15 5.283538860543168e-15 1.0973664764356813e-21
1.1192775983109025 1.816070409010841e-22 5.3956022468243e-15 5.3956009515653345e-15 1.2952589633672314e-21
1.1277040513999907 1.8403069619136972e-22 5.508772569161153e-15 5.508771042293156e-15 1.52686799742189e-21
1.1361939428280308 1.8645550469774085e-22 5.6233758599841055e-15 5.623374062401998e-15 1.7975821063622037e-21
1.1447477501889525 1.888813400130767e-22 5.739423701952391e-15 5.739421588361807e-15 2.113590585312806e-21
1.1533659546722406 1.9130903458976772e-22 5.8569570706829486e-15 5.856954588686547e-15 2.4819964024387476e-21
1.1707974979042381 1.9617737403693437e-22 6.096774548278398e-15 6.0967711385313726e-15 3.40974702684009e-21
1.1884924949847024 2.0105210425600097e-22 6.3427048068800246e-15 6.342700146007999e-15 4.660872022312694e-21
1.2064549276569216 2.0596678364587458e-22 6.59595557309535e-15 6.59594923341613e-15 6.339679221035953e-21
1.2246888378427687 2.1088645875740165e-22 6.855575005874529e-15 6.855566424866853e-15 8.581007676790717e-21
1.2431983285522175 2.158060388122008e-22 7.121532224935441e-15 7.121520666383549e-15 1.1558551893265291e-20
1.2619875648066055 2.2073140950003246e-22 7.39415661542041e-15 7.394141120502498e-15 1.549491791036646e-20
1.3004222497298317 2.3056237441232805e-22 7.958702310977082e-15 7.958674856493716e-15 2.7454483364592474e-20
1.3400274889804893 2.4040024620211517e-22 8.551022488961505e-15 8.550974734362286e-15 4.7754599218320424e-20
1.3808389325824078 2.5027291895769643e-22 9.173315178495664e-15 9.173233595773672e-15 8.158272199236571e-20
1.4228933163050095 2.602603041906636e-22 9.829913710142227e-15 9.829776755492453e-15 1.3695464977493504e-19
1.466228494730424 2.705440164049534e-22 1.0529530854225022e-14 1.0529304823322819e-14 2.2603090220423105e-19
1.5108834753276823 2.810896129830728e-22 1.1273147823966511e-14 1.1272780911563245e-14 3.669124032668889e-19
1.5568984535646726 2.9187692159583098e-22 1.206228199923922e-14 1.2061695567991602e-14 5.86431247614432e-19
1.6043148490894465 3.029690057763462e-22 1.2902005955254302e-14 1.2901081385032598e-14 9.245702217055757e-19
1.6531753430134553 3.144332022513733e-22 1.3798019389790411e-14 1.3796583174868189e-14 1.4362149222209023e-18
1.7035239163302658 3.2635216897407497e-22 1.4757207082302088e-14 1.4755008424719557e-14 2.1986575825289297e-18
1.755405889504358 3.389772447721988e-22 1.5794923599676326e-14 1.579160487721195e-14 3.3187224643741638e-18
1.8088679632656115 3.5230073215923395e-22 1.691569499629673e-14 1.6910754024490822e-14 4.940971805907792e-18
1.8639582606462262 3.663110886906555e-22 1.8124067942850763e-14 1.8116809331756053e-14 7.25861109470586e-18
1.9207263702978936 3.810508826840343e-22 1.9427544124897822e-14 1.941701828287302e-14 1.052584202480522e-17
1.979223391128241 3.9658647507153977e-22 2.083541461938504e-14 2.0820342000810515e-14 1.5072618574529738e-17
2.039501978296691 4.12975561535454e-22 2.2357225968895006e-14 2.2335905215917277e-14 2.1320752977725466e-17
2.1016163906111602 4.304067828728302e-22 2.401054327706892e-14 2.3980739168189422e-14 2.980410887949755e-17
2.1656225393682647 4.489650651431358e-22 2.5808617722544397e-14 2.576743098958079e-14 4.118673296360605e-17
2.231578038680979 4.685887341743224e-22 2.7757053016198293e-14 2.770076970280793e-14 5.628331339036813e-17
2.299542257339062 4.892821064593407e-22 2.98655255326911e-14 2.978944488955304e-14 7.608064313805444e-17
2.369576372248914 5.111021727559827e-22 3.2147549296973605e-14 3.2045788748668904e-14 1.0176054830470464e-16
2.4417434235010123 5.341196556942002e-22 3.461848197639881e-14 3.4483764423244265e-14 1.347175531545406e-16
2.5161083711144245 5.585105910726238e-22 3.730183431858335e-14 3.712525229642539e-14 1.7658202215795547e-16
2.5927381535095444 5.845949433603723e-22 4.02330675243896e-14 4.0003832835481503e-14 2.292346889080908e-16
2.6717017477616296 6.12668727268666e-22 4.3449333673242933e-14 4.3154528524303624e-14 2.9480514893932015e-16
2.753070231689431 6.431936400688834e-22 4.7003312460155925e-14 4.662763585313893e-14 3.756766070169819e-16
2.836916847834745 6.77439888349549e-22 5.1013697703122225e-14 5.0539198851660346e-14 4.744988514618717e-16
2.9233170693905177 7.182652943458995e-22 5.57352864975981e-14 5.5141225090737614e-14 5.940614068604826e-16
2.967498994190263 7.439645980668601e-22 5.860197912373734e-14 5.794067138009435e-14 6.613077436429689e-16
3.0123486681368425 7.717460069546418e-22 6.170907869949389e-14 6.097388264761677e-14 7.351960518771279e-16
3.0578761833420214 8.185288391108515e-22 6.643903484951863e-14 6.562253052482483e-14 8.165043246938101e-16
3.1040917844459814 8.740545589241112e-22 7.201824431336107e-14 7.111322280983669e-14 9.050215035243418e-16
3.127460860933648 9.26091526598684e-22 7.688032790527182e-14 7.592789797132319e-14 9.524299339486387e-16
3.1510058709225794 9.926154030414678e-22 8.302323574153372e-14 8.202137889467667e-14 1.0018568468570354e-15
3.162844764501044 1.0527377043941953e-21 8.83827453686949e-14 8.735530602656589e-14 1.0274393421290322e-15
3.1747281389236908 1.1211037134613612e-21 9.447605829942862e-14 9.342251354199845e-14 1.0535447574301827e-15
3.1986289994194426 1.3070625260802816e-21 1.1097615324759557e-13 1.0986866663533609e-13 1.1074866122594789e-15
3.2227097969389145 1.7379145595806525e-21 1.4866853229669023e-13 1.4750387609138903e-13 1.1646562053011376e-15
3.2348180950136065 2.1426339815947967e-21 1.8397858964320465e-13 1.82783421754283e-13 1.1951678889215952e-15
3.240889293275058 2.4449031327285164e-21 2.103271253418412e-13 2.0911586325935014e-13 1.2112620824910787e-15
3.2469718861334385 2.7950759037528318e-21 2.409026445389936e-13 2.3967472959999297e-13 1.227914939000586e-15
3.2714166318528037 4.639117472660227e-21 4.0284748837233315e-13 4.0155074627792405e-13 1.2967420944091356e-15
3.2744851364798273 4.75457759326299e-21 4.1326097484214154e-13 4.1195611878027244e-13 1.3048560618689688e-15
3.2775565192852394 4.8731751559192954e-21 4.2396659974438046e-13 4.226535888996944e-13 1.3130108446860064e-15
3.283707930232385 4.760226854982646e-21 4.14917359045966e-13 4.1358975891889554e-13 1.327600127070421e-15
3.2898708863219004 4.399854868839845e-21 3.842259016543604e-13 3.8288501902731806e-13 1.3408826270425318e-15
3.29141343181113 4.314725015628327e-21 3.76968440381469e-13 3.7562422231002085e-13 1.3442180714480681e-15
3.292184975758714 4.272873500771225e-21 3.7339947012212103e-13 3.720535821027231e-13 1.3458880193978994e-15
3.295272960557952 4.011039676228223e-21 3.5084701486707543e-13 3.4949463004031647e-13 1.352384826758962e-15
3.3076538914384823 3.0985031242693197e-21 2.7204542746899824e-13 2.706669456147493e-13 1.3784818542488744e-15
3.310756385682612 2.9112542573511148e-21 2.5584491819368737e-13 2.544598578151121e-13 1.385060378575358e-15
3.313861789986515 2.7378929804597133e-21 2.4083538299973935e-13 2.394437223475252e-13 1.3916606522141759e-15
3.3200813396944477 2.495689622995516e-21 2.1994228366805704e-13 2.1853642904588528e-13 1.4058546221718123e-15
3.345076488085796 2.071735425938887e-21 1.839542297290029e-13 1.8248512803463355e-13 1.4691016943693543e-15
3.3482140837626964 2.0889906028173873e-21 1.8566033863666956e-13 1.8418266945009525e-13 1.4776691865742567e-15
3.3513546224236106 2.10640916547232e-21 1.873840209075046e-13 1.8589774533117682e-13 1.4862755763277753e-15
3.3576445397418455 2.2284913897544444e-21 1.9861640221925026e-13 1.9711213373254153e-13 1.5042684867087561e-15
3.3702598118196083 2.671716439760109e-21 2.390139105812889e-13 2.3747190072131536e-13 1.542009859973582e-15
3.382922481734668 2.777411216026711e-21 2.4940299487400374e-13 2.478242856705261e-13 1.5787092034775928e-15
3.389271646505754 2.831952915542771e-21 2.54777950642998e-13 2.5318063688800833e-13 1.5973137549896961e-15
3.395632727569191 2.891672587884028e-21 2.606389166458756e-13 2.5902242968213956e-13 1.616486963736117e-15
3.421196662673239 3.1805114034272583e-21 2.888314162726302e-13 2.8713554433071833e-13 1.6958719419118442e-15
3.4276182099114902 3.128243612436855e-21 2.84618051372071e-13 2.8290444651482093e-13 1.7136048572499794e-15
3.4340518103208963 2.8904461112473865e-21 2.634760555834946e-13 2.617456703064027e-13 1.7303852770918674e-15
3.4469541582030403 2.54999210533202e-21 2.3331559942948635e-13 2.3155298968154287e-13 1.7626097479435243e-15
3.472904465399547 2.457346789296806e-21 2.2653156203874554e-13 2.2469474600066695e-13 1.836816038078608e-15
3.4990501388274233 2.3156397968689443e-21 2.1507533275606192e-13 2.1316254343753558e-13 1.9127893185263256e-15
3.5253949054701885 1.8064648043740063e-21 1.6904670504826728e-13 1.6706004860973158e-13 1.986656438535646e-15
3.5519380250092896 1.3227390354536421e-21 1.2471221213975042e-13 1.2265126485230215e-13 2.0609472874482836e-15
3.578680990867387 1.1347639936412009e-21 1.0779483859019536e-13 1.0565245975446563e-13 2.1423788357296992e-15
3.605625307711299 1.0631301250833643e-21 1.0175047633324687e-13 9.952230710787974e-14 2.2281692253671455e-15
3.660119384959845 1.0197263875846877e-21 9.907140957831455e-14 9.666288041599301e-14 2.408529162321525e-15
3.715437065384467 9.917335753900681e-22 9.780799562242905e-14 9.520915866179401e-14 2.5988369606350634e-15
3.8285932144167436 9.965825779630518e-22 1.0127959336573191e-13 9.827114401306991e-14 3.008449352661981e-15
3.94519561050918 1.0171184350624592e-21 1.0651468814663302e-13 1.0305869120074453e-13 3.455996945888497e-15
4.06534921144712 1.0434515899438616e-21 1.1260031239275321e-13 1.0865916040434659e-13 3.94115198840661e-15
4.189162171576248 1.0726409390193645e-21 1.1927542554602337e-13 1.1481044044474924e-13 4.464985101274111e-15
4.316745939156006 1.1034482037882015e-21 1.2643807473313592e-13 1.2141234173987722e-13 5.025732993258664e-15
4.448215356677963 1.1353132699815575e-21 1.340512759848487e-13 1.284354453826765e-13 5.615830602172164e-15
4.58368876423945 1.1681304620928237e-21 1.4212677565178344e-13 1.3589065561155721e-13 6.236120040226241e-15
4.723288106065518 1.202104225229339e-21 1.5071483197364244e-13 1.4382425747533602e-13 6.8905744983064295e-15
4.867139040275056 1.2375739481346254e-21 1.5988743838646827e-13 1.5232523587898058e-13 7.562202507487626e-15
4.940699165968905 1.2567074481486525e-21 1.6481321568950489e-13 1.5690671529751257e-13 7.90650039199226e-15
5.015371051989984 1.2756106357086662e-21 1.6982070269726246e-13 1.6156528605433771e-13 8.255416642924753e-15
5.091171501069577 1.296922069385845e-21 1.7526735818235213e-13 1.6665095906824653e-13 8.616399114105587e-15
5.129500256944802 1.307477284459848e-21 1.7802403541563839e-13 1.6922575122099138e-13 8.798284194647007e-15
5.168117569889187 1.318200120040351e-21 1.808352807717952e-13 1.7185246201502357e-13 8.982818756771698e-15
5.20702561229733 1.3308974583462865e-21 1.8395167326118996e-13 1.7476759771809997e-13 9.184075543089935e-15
5.246226572918644 1.3436039744670909e-21 1.8710601781833116e-13 1.7771922239283403e-13 9.386795425497137e-15
5.265937586045735 1.3499615631183454e-21 1.886976726034903e-13 1.7920899285010115e-13 9.488679753389134e-15
5.285722656980489 1.3563225511413628e-21 1.902991233400967e-13 1.8070822282662487e-13 9.590900513471862e-15
5.305582063971359 1.3626873473238943e-21 1.9191048053254205e-13 1.8221703282459876e-13 9.693447707943336e-15
5.3255160863122235 1.3694354335441014e-21 1.93585442155961e-13 1.8378832812094466e-13 9.797114035016313e-15
5.365609099470188 1.3858958555888697e-21 1.973872329342103e-13 1.8737563785247016e-13 1.0011595081740151e-14
5.406003951863644 1.4025629181534072e-21 2.012649475589425e-13 1.9103736504181738e-13 1.0227582517125104e-14
5.446702915881641 1.4194521296964927e-21 2.052219791587554e-13 1.947769822686358e-13 1.0444996890119656e-14
5.487708281020852 1.4373079268801794e-21 2.0936798369737966e-13 1.9870330700427956e-13 1.066467669310015e-14
5.529022354014368 1.4619261766363173e-21 2.145572634244946e-13 2.0366355736703062e-13 1.0893706057463951e-14
5.570647458961463 1.4873561630554815e-21 2.1993284145785832e-13 2.0880852703867298e-13 1.1124314419185364e-14
5.612585937458331 1.5136655268858533e-21 2.255082096300992e-13 2.1415178851821836e-13 1.135642111188078e-14
5.654840148729818 1.5420336257663999e-21 2.31464083087652e-13 2.1987300200730932e-13 1.1591081080342784e-14
5.67608639626678 1.5615188276288003e-21 2.3526951398132456e-13 2.2355564605036196e-13 1.1713867930962703e-14
5.686739436050992 1.5714707269449149e-21 2.3721331244623134e-13 2.2543788620122225e-13 1.1775426245009016e-14
5.6974124697621304 1.5815668177321695e-21 2.391853850652149e-13 2.2734829226215076e-13 1.1837092803064123e-14
5.718818669136295 1.6022060920877968e-21 2.432171180237505e-13 2.312563724571295e-13 1.1960745566620998e-14
5.740305295436557 1.6248527025342694e-21 2.47581631723627e-13 2.3549589320973485e-13 1.2085738513892102e-14
5.7835210386641895 1.6837521021914207e-21 2.5848771280008287e-13 2.461435675468406e-13 1.2344145253242181e-14
5.827062130521658 1.7502990319865295e-21 2.7072685265642667e-13 2.581201399228607e-13 1.2606712733565954e-14
5.8489554468988025 1.797576738996212e-21 2.790841586958571e-13 2.6633560237818903e-13 1.2748556317668096e-14
5.870931020387893 1.847649612188116e-21 2.8793603900164065e-13 2.750449639962421e-13 1.2891075005398505e-14
5.892989160043636 1.9007381551945345e-21 2.9732222081405116e-13 2.842879613060773e-13 1.3034259507973909e-14
5.915130176081913 1.960863425715639e-21 3.0787972207611943e-13 2.946970189565629e-13 1.3182703119556567e-14
5.95966208400165 2.129969520880061e-21 3.369492217662011e-13 3.2342782505007666e-13 1.3521396716124405e-14
6.004529249263818 2.3723137259891828e-21 3.781120511709918e-13 3.642092613264096e-13 1.3902789844582094e-14
6.027089341400364 2.5407907394985775e-21 4.064863441448174e-13 3.92362960655047e-13 1.4123383489770374e-14
6.049734195844842 2.738258918606404e-21 4.3972406851861454e-13 4.2536696531741306e-13 1.4357103201201422e-14
6.095279466722835 3.3080954314862357e-21 5.352307854447136e-13 5.202984107150918e-13 1.493237472962202e-14
6.141167624020661 4.178414404129785e-21 6.811329574886292e-13 6.654529757030108e-13 1.5679981785618655e-14
6.164241091010745 4.733550981440864e-21 7.745261908464122e-13 7.583765135601723e-13 1.614967728624035e-14
6.187401249150058 5.359065836665355e-21 8.801704951047283e-13 8.635385355618188e-13 1.6631959542909428e-14
6.1990139391386085 5.663359382375185e-21 9.31893253587563e-13 9.150158983336571e-13 1.687735525390609e-14
6.204828454712694 5.823066008060971e-21 9.590713666887718e-13 9.420700671334947e-13 1.7001299555277067e-14
6.210648424152782 5.938901712646971e-21 9.790672331068486e-13 9.619604400065276e-13 1.7106793100321148e-14
6.233982942956859 6.328281636281854e-21 1.0471788005668807e-12 1.0297046582207342e-12 1.7474142346146627e-14
6.239830258556775 6.375704866167882e-21 1.05601579490574e-12 1.0384910158990652e-12 1.7524779006674737e-14
6.245683058788269 6.3761513088285e-21 1.05708032475231e-12 1.0395048292177381e-12 1.757549553457211e-14
6.257405133728602 6.357020113856747e-21 1.055886634928298e-12 1.0382225659450494e-12 1.7664068983248722e-14
6.269149208991335 6.26990630691483e-21 1.0433717903731586e-12 1.0256761277515223e-12 1.7695662621635802e-14
6.280915325867298 6.063974614752667e-21 1.0109967192044194e-12 9.933399168348322e-13 1.7656802369587385e-14
6.304513850009849 5.5613490054479524e-21 9.306817258055091e-13 9.131663846013317e-13 1.751534120417764e-14
6.32820103803542 4.946468322347318e-21 8.308926798178686e-13 8.135866177421574e-13 1.7306062075711036e-14
6.3519772230701035 4.384853070940733e-21 7.393216271127306e-13 7.222032621867531e-13 1.7118364925977803e-14
6.375842739491607 3.9111569575773e-21 6.619303199107133e-13 6.449775214185665e-13 1.6952798492146906e-14
6.399797922933955 3.5344856711880734e-21 6.00429358849687e-13 5.835616853998355e-13 1.6867673449851662e-14
6.42384311029221 3.2200636198926057e-21 5.490713850253722e-13 5.322728110352762e-13 1.6798573990095965e-14
6.447978639727206 2.9915548936886618e-21 5.12023624454986e-13 4.952314126240227e-13 1.679221183096341e-14
6.472204850670314 2.8003926894004375e-21 4.811058335489755e-13 4.643075355951394e-13 1.6798297953836048e-14
6.496522083828205 2.6757486754022657e-21 4.614192099592978e-13 4.445639852348097e-13 1.6855224724488248e-14
6.520930681187647 2.5702015523836895e-21 4.448833969787694e-13 4.2796354489489567e-13 1.691985208387386e-14
