Dust emission spectrum from A.P. Jones, M. Kohler, N. Ysard, M. Bocchio, and L. Verstraete (2017), A&A, 602A, 46J 
inside the DustPedia framework.

lambda    nu*dP/dnu     j_nu    j_nu(carb.) j_nu(sil)
 (um)   (erg s-1 H-1) (Jy cm2 sr-1 H-1)
0.9927057738263894 8.898379586641485e-24 2.3447735628670816e-16 2.3447735583854923e-16 4.481589270200276e-25
1.0001793341362166 9.045713770530856e-24 2.401541806567273e-16 2.4015418011706874e-16 5.3965853836707e-25
1.0077091589558085 9.192932229787091e-24 2.45900095495144e-16 2.459000948461527e-16 6.489912919062429e-25
1.0114953028030835 9.266481269934442e-24 2.487987279792546e-16 2.4879872726790085e-16 7.113536908989746e-25
1.0152956718711033 9.339981290537898e-24 2.5171434951709816e-16 2.517143487376451e-16 7.794530753990909e-25
1.0229392996569957 9.48673570263249e-24 2.575942107368183e-16 2.5759420980189306e-16 9.34925340415155e-25
1.0267826658714554 9.559813451732417e-24 2.6055378052819446e-16 2.605537795047317e-16 1.023462787743699e-24
1.0306404723013447 9.632812118245576e-24 2.6352978978279627e-16 2.635297886627792e-16 1.120017086065134e-24
1.03451277320114 9.705725227295852e-24 2.6652213432347003e-16 2.6652213309819184e-16 1.2252781086225081e-24
1.0383996230291617 9.77854634599084e-24 2.6953070874877902e-16 2.6953070740878725e-16 1.3399917550560653e-24
1.0403485208654093 9.814920410499481e-24 2.7104104890436486e-16 2.7104104750322207e-16 1.40114276730877e-24
1.0423010764483396 9.851269084814882e-24 2.725554064692159e-16 2.725554050042517e-16 1.4649642090669097e-24
1.0462171883269815 9.923887098996199e-24 2.7559611974362113e-16 2.755961181425546e-16 1.6010664955011198e-24
1.0471985131304309 9.942024500157211e-24 2.7635878775991965e-16 2.7635878612297987e-16 1.6369397417166529e-24
1.048180758391296 9.960154864169825e-24 2.7712244823855156e-16 2.77122446564969e-16 1.673582444161624e-24
1.0501480137395462 9.996394089847729e-24 2.7865273971579684e-16 2.7865273796655744e-16 1.7492393560400025e-24
1.0521189612883777 1.0032603996110467e-23 2.801869804001452e-16 2.801869785719786e-16 1.8281665725541386e-24
1.0531058218030118 1.0050670361843086e-23 2.8095481284263605e-16 2.8095481097373507e-16 1.8689010093178743e-24
1.0540936079674168 1.0068639500639344e-23 2.8172111877663314e-16 2.817211168661203e-16 1.9105128825573177e-24
1.058054026499678 1.0140434218155992e-23 2.847959633613029e-16 2.847959612752959e-16 2.086007004471757e-24
1.0590464539527713 1.0158361960606976e-23 2.8556707087074487e-16 2.8556706873851035e-16 2.1322346383401817e-24
1.06003981227728 1.0176281137994043e-23 2.863391333730485e-16 2.8633913119360635e-16 2.179442135584629e-24
1.0620293250338977 1.0212093418635501e-23 2.8788611622242447e-16 2.8788611394554835e-16 2.2768760987876216e-24
1.0660195594769086 1.02836110424645e-23 2.909914631659265e-16 2.909914606815296e-16 2.484396982969585e-24
1.070024785945596 1.0354981083646568e-23 2.941118891040337e-16 2.941118863940875e-16 2.7099462544536117e-24
1.0740450607676866 1.0426197590966232e-23 2.9724727809304866e-16 2.972472751380411e-16 2.9550075616672706e-24
1.07808044048254 1.0497254669126153e-23 3.0039751337125463e-16 3.0039751015007533e-16 3.221179363136529e-24
1.0861967418109137 1.0638743701568838e-23 3.067384899139022e-16 3.0673848609002917e-16 3.823873022932628e-24
1.0902777775684922 1.0708883220017681e-23 3.0992083674058265e-16 3.0992083257633833e-16 4.164244353530302e-24
1.0943741465085532 1.0778835396695008e-23 3.1311732467770495e-16 3.1311732014426263e-16 4.533442345042068e-24
1.1026131145906286 1.091815552560506e-23 3.1955223775465853e-16 3.195522323869342e-16 5.367724394745626e-24
1.1109141095355224 1.1056660327226832e-23 3.2604225152442825e-16 3.260422451770895e-16 6.347338643294714e-24
1.1192775983109025 1.1194181008895912e-23 3.325826350304028e-16 3.325826275343177e-16 7.496085137321707e-24
1.1277040513999907 1.1330096749108351e-23 3.3915497506201925e-16 3.391549662206217e-16 8.841397549073684e-24
1.1361939428280308 1.1465054133365308e-23 3.4577852100152355e-16 3.45778510586671e-16 1.0414852513483807e-23
1.1447477501889525 1.1599014034587948e-23 3.5245226481760247e-16 3.524522525648535e-16 1.2252748788814575e-23
1.1533659546722406 1.1732008145417359e-23 3.5917732901615584e-16 3.5917731461937835e-16 1.439677751487099e-23
1.1707974979042381 1.1995524950644193e-23 3.7279534182447076e-16 3.72795322022951e-16 1.980151985110159e-23
1.1884924949847024 1.2254692312262201e-23 3.8660573150156983e-16 3.866057044016904e-16 2.7099879492876815e-23
1.2064549276569216 1.2511499441276675e-23 4.006728318356259e-16 4.006727949291747e-16 3.690645124644628e-23
1.2246888378427687 1.2763301564670658e-23 4.149141282696246e-16 4.1491407825253053e-16 5.0017094074036896e-23
1.2431983285522175 1.3009565267905862e-23 4.2931161147171076e-16 4.2931154401289636e-16 6.745881434945404e-23
1.2619875648066055 1.3250265944841466e-23 4.4386316299092387e-16 4.438630724407943e-16 9.055012959152267e-23
1.3004222497298317 1.371136598971055e-23 4.732978677336481e-16 4.732977068658357e-16 1.6086781233603997e-22
1.3400274889804893 1.4145323964070272e-23 5.031483338362186e-16 5.031480532532796e-16 2.8058293908196445e-22
1.3808389325824078 1.4551111030278064e-23 5.333454703526587e-16 5.333449896605967e-16 4.806920620851204e-22
1.4228933163050095 1.493101703241551e-23 5.639377449039863e-16 5.6393693562226e-16 8.092817263941149e-22
1.466228494730424 1.5293736027115584e-23 5.952298169952723e-16 5.952284773930999e-16 1.3396021724523914e-21
1.5108834753276823 1.5633724146203718e-23 6.269932263554768e-16 6.269910452028699e-16 2.1811526067531012e-21
1.5568984535646726 1.594659795218494e-23 6.590187411051989e-16 6.590152441982375e-16 3.496906961356932e-21
1.6043148490894465 1.623342667870987e-23 6.913042710299932e-16 6.912987404440569e-16 5.530585936274505e-21
1.6531753430134553 1.6495522186415652e-23 7.238597366410501e-16 7.238511179111819e-16 8.618729867827715e-21
1.7035239163302658 1.6735699286042048e-23 7.567658606579597e-16 7.567526232253054e-16 1.3237432654332079e-20
1.755405889504358 1.696742573320924e-23 7.906111612870186e-16 7.905911133449347e-16 2.0047942083924698e-20
1.8088679632656115 1.7188151617454312e-23 8.25287896874275e-16 8.252579469905469e-16 2.994988372810629e-20
1.8639582606462262 1.7396204094832676e-23 8.607164639471343e-16 8.606723117674908e-16 4.4152179643353164e-20
1.9207263702978936 1.7593603138212234e-23 8.969943826819013e-16 8.969301280502525e-16 6.425463164873537e-20
1.979223391128241 1.778438469845413e-23 9.343360206020555e-16 9.342436743135152e-16 9.234628854047248e-20
2.039501978296691 1.797314776416832e-23 9.730109075748637e-16 9.72879792690349e-16 1.3111488451489165e-19
2.1016163906111602 1.8172401761980085e-23 1.013760136496794e-15 1.01357615195675e-15 1.839845400437171e-19
2.1656225393682647 1.8389365695344098e-23 1.0571069916985588e-15 1.056851746907048e-15 2.552447915105991e-19
2.231578038680979 1.862433068497804e-23 1.1032201513018625e-15 1.1028699531768455e-15 3.501981250168012e-19
2.299542257339062 1.8881366964675848e-23 1.1525088282019506e-15 1.1520335094153636e-15 4.753187865868406e-19
2.369576372248914 1.91694092833619e-23 1.2057266878905603e-15 1.2050882614155485e-15 6.384264750121821e-19
2.4417434235010123 1.949895305648856e-23 1.2638069910895915e-15 1.2629581578549393e-15 8.488332346523813e-19
2.5161083711144245 1.9888188629788718e-23 1.3282933735246683e-15 1.327175842115712e-15 1.1175314089561854e-18
2.5927381535095444 2.03669224251122e-23 1.4016949248368918e-15 1.4002375895641574e-15 1.4573352727343358e-18
2.6717017477616296 2.0969835229705095e-23 1.4871419535811189e-15 1.4852590276267334e-15 1.882925954385682e-18
2.753070231689431 2.17490709504861e-23 1.5893788649625277e-15 1.5869679205423573e-15 2.410944420170296e-18
2.836916847834745 2.2824419291808872e-23 1.7187621308192843e-15 1.7157019891228808e-15 3.060141696402981e-18
2.9233170693905177 2.4459949711238703e-23 1.8980205720704174e-15 1.8941698839097435e-15 3.8506881606741395e-18
2.967498994190263 2.574861131979878e-23 2.0282142281351785e-15 2.0239159135753435e-15 4.298314559834403e-18
3.0123486681368425 2.722932517223104e-23 2.1772662959642273e-15 2.1724747080382807e-15 4.79158792594644e-18
3.0578761833420214 3.036097993687068e-23 2.4643654660750548e-15 2.4590295886757855e-15 5.335877399268938e-18
3.1040917844459814 3.434360418678324e-23 2.829761656949234e-15 2.823831090825485e-15 5.930566123749084e-18
3.127460860933648 3.847567171720492e-23 3.194092779207717e-15 3.1878428568934106e-15 6.249922314307487e-18
3.1510058709225794 4.394885423651841e-23 3.675921282974829e-15 3.669337783436313e-15 6.583499538516358e-18
3.162844764501044 4.902011788556005e-23 4.1154910467617796e-15 4.108734653033341e-15 6.756393728436707e-18
3.1747281389236908 5.490053437370255e-23 4.62649978220634e-15 4.61956679134124e-15 6.932990865098186e-18
3.1986289994194426 7.124917073932223e-23 6.04941135788134e-15 6.042112944802263e-15 7.29841307907461e-18
3.2227097969389145 1.0969356531583073e-22 9.383649655268831e-15 9.375963301025853e-15 7.686354242979952e-18
3.2348180950136065 1.4610586752485307e-22 1.2545470517466493e-14 1.253757694835367e-14 7.893569112824836e-18
3.240889293275058 1.7332462864776003e-22 1.4910558380176724e-14 1.490255550642157e-14 8.002873755155235e-18
3.2469718861334385 2.0481849700338769e-22 1.7652943704451642e-14 1.7644827727877763e-14 8.115976573878619e-18
3.2714166318528037 3.7255975566727366e-22 3.23520071918135e-14 3.2343423219155303e-14 8.583972658203793e-18
3.2744851364798273 3.8305115634612664e-22 3.329424984257562e-14 3.3285610549668394e-14 8.639292907230089e-18
3.2775565192852394 3.9384200922849124e-22 3.426428399280455e-14 3.425558908732618e-14 8.694905478371133e-18
3.283707930232385 3.834912929941916e-22 3.342638898390333e-14 3.3417594286125576e-14 8.794697777744964e-18
3.2898708863219004 3.5061943742258593e-22 3.0618525723499595e-14 3.060963989615139e-14 8.885827348204783e-18
3.29141343181113 3.4286578404444455e-22 2.995546168139338e-14 2.994655296258913e-14 8.908718804249357e-18
3.292184975758714 3.3905566661394445e-22 2.9629523605765134e-14 2.9620603424844805e-14 8.920180920333603e-18
3.295272960557952 3.150286746076033e-22 2.755566611286745e-14 2.7546701287519786e-14 8.964825347667184e-18
3.3076538914384823 2.317297336434449e-22 2.0345635269021786e-14 2.0336490967856773e-14 9.144301165015714e-18
3.310756385682612 2.1475921284701738e-22 1.8873326884261613e-14 1.8864137311075586e-14 9.189573186026475e-18
3.313861789986515 1.9909460522738053e-22 1.7513111668472553e-14 1.7503876661544915e-14 9.235006927635625e-18
3.3200813396944477 1.7713798009887214e-22 1.561096841061906e-14 1.5601635823957882e-14 9.332586661177997e-18
3.345076488085796 1.380677847186204e-22 1.2259361243868029e-14 1.2249594163695356e-14 9.767080172672207e-18
3.3482140837626964 1.3955117354011765e-22 1.2402697313075357e-14 1.2392871387418488e-14 9.825925656869257e-18
3.3513546224236106 1.4105067481400143e-22 1.2547724835045495e-14 1.2537839780923212e-14 9.885054122282282e-18
3.3576445397418455 1.5193895491830357e-22 1.3541703020064866e-14 1.3531694396890371e-14 1.0008623174496755e-17
3.3702598118196083 1.9201491229771306e-22 1.71778091399252e-14 1.7167541287286495e-14 1.0267852638702638e-17
3.382922481734668 2.0120566367226344e-22 1.8067650485426513e-14 1.805713003898794e-14 1.052044643857813e-17
3.389271646505754 2.0596488401067208e-22 1.8529725817353305e-14 1.8519077215296245e-14 1.0648602057050942e-17
3.395632727569191 2.1110345384636522e-22 1.9027664384017018e-14 1.9016883704705243e-14 1.0780679311778056e-17
3.421196662673239 2.3579864626257206e-22 2.1413555342640132e-14 2.1402227215935696e-14 1.1328126704434226e-17
3.4276182099114902 2.3090198027758877e-22 2.100823331766213e-14 2.0996782333693992e-14 1.1450983968140774e-17
3.4340518103208963 2.09318557679172e-22 1.9080247759379257e-14 1.9068680241171558e-14 1.1567518207690322e-17
3.4469541582030403 1.7856198835732662e-22 1.633781424726652e-14 1.632602237732935e-14 1.1791869937171345e-17
3.472904465399547 1.6999571318870912e-22 1.5671127337932105e-14 1.5658819616548267e-14 1.2307721383837803e-17
3.4990501388274233 1.568778391539455e-22 1.4570726200037048e-14 1.455788902367469e-14 1.2837176362363687e-17
3.5253949054701885 1.100648709619749e-22 1.029973223537678e-14 1.0286378197090525e-14 1.335403828625517e-17
3.5519380250092896 6.599985209707282e-23 6.222684396018769e-15 6.208808826563925e-15 1.3875569454846088e-17
3.578680990867387 4.857783660185916e-23 4.6145631029019006e-15 4.600115566057598e-15 1.4447536844301375e-17
3.605625307711299 4.158898743178176e-23 3.980415173607639e-15 3.965363973639139e-15 1.505119996850074e-17
3.660119384959845 3.6610007919114597e-23 3.556841456080022e-15 3.5405163671362614e-15 1.6325088943760572e-17
3.715437065384467 3.312414106367051e-23 3.2668106884229773e-15 3.2491343997410284e-15 1.7676288681948826e-17
3.8285932144167436 3.162296099693311e-23 3.2137433481287764e-15 3.193133861986415e-15 2.0609486142361508e-17
3.94519561050918 3.1620200697641044e-23 3.311331011551629e-15 3.287478534443647e-15 2.3852477107981486e-17
4.06534921144712 3.223150390103304e-23 3.478146416298834e-15 3.4507334245523677e-15 2.7412991746466072e-17
4.189162171576248 3.319734572048889e-23 3.691475305268285e-15 3.660165955795665e-15 3.130934947262002e-17
4.316745939156006 3.441972113155957e-23 3.943966973515644e-15 3.908426092663542e-15 3.554088085210237e-17
4.448215356677963 3.5864643592973625e-23 4.2346913081162545e-15 4.1946260570499205e-15 4.0065251066333683e-17
4.58368876423945 3.7534774587750575e-23 4.566867023924571e-15 4.521965714058643e-15 4.490130986592682e-17
4.723288106065518 3.9459909511216886e-23 4.947319464369719e-15 4.897227102414811e-15 5.00923619549068e-17
4.867139040275056 4.1699243464122483e-23 5.387302496292492e-15 5.331773618988725e-15 5.552887730376638e-17
4.940699165968905 4.3014743935030544e-23 5.641247913694566e-15 5.582889062034506e-15 5.835885166006052e-17
5.015371051989984 4.4366859298244925e-23 5.906513329055757e-15 5.84525561554034e-15 6.125771351541833e-17
5.091171501069577 4.598357985833559e-23 6.2142674195946245e-15 6.1499834734907205e-15 6.42839461039038e-17
5.129500256944802 4.6808958761678733e-23 6.373433658391148e-15 6.307611719241073e-15 6.58219391500744e-17
5.168117569889187 4.766524902626824e-23 6.538884771501087e-15 6.4714955503236116e-15 6.738922117747437e-17
5.20702561229733 4.8702761493841193e-23 6.731513696302895e-15 6.662425773529547e-15 6.908792277334703e-17
5.246226572918644 4.976274229560814e-23 6.929801283405724e-15 6.858992819378018e-15 7.080846402770488e-17
5.265937586045735 5.030138090421641e-23 7.03112871113293e-15 6.959451877759659e-15 7.16768333732693e-17
5.285722656980489 5.084590781225016e-23 7.133945884745601e-15 7.061395333113703e-15 7.255055163189618e-17
5.305582063971359 5.1396417798147324e-23 7.238279020249329e-15 7.164849440112189e-15 7.342958013713947e-17
5.3255160863122235 5.1985594164669435e-23 7.348761384144355e-15 7.274441591855147e-15 7.431979228920824e-17
5.365609099470188 5.344042391701021e-23 7.611291542052975e-15 7.53512954759091e-15 7.616199446206751e-17
5.406003951863644 5.494469828637977e-23 7.884453293410549e-15 7.806425501843522e-15 7.80277915670281e-17
5.446702915881641 5.650081481818918e-23 8.168791887015176e-15 8.088874983701226e-15 7.991690331395097e-17
5.487708281020852 5.817508013159409e-23 8.474175227728169e-15 8.392339254790805e-15 8.18359729373649e-17
5.529022354014368 6.048648901845285e-23 8.877203079990732e-15 8.793364121676463e-15 8.383895831426775e-17
5.570647458961463 6.292425098583995e-23 9.304502619933001e-15 9.218634861279881e-15 8.586775865311872e-17
5.612585937458331 6.549746886911733e-23 9.757913275838013e-15 9.669991159548681e-15 8.792211628933155e-17
5.654840148729818 6.831571040048008e-23 1.0254402371070041e-14 1.0164391874880428e-14 9.001049618961186e-17
5.67608639626678 7.023113710338678e-23 1.0581521785273945e-14 1.0490419593549181e-14 9.110219172476323e-17
5.686739436050992 7.121694542350556e-23 1.0750189129551888e-14 1.0658538376260372e-14 9.165075329151522e-17
5.6974124697621304 7.222208006540885e-23 1.0922375101056868e-14 1.0830173981491092e-14 9.220111956577262e-17
5.718818669136295 7.429218618711165e-23 1.1277657415824528e-14 1.1184350163335894e-14 9.330725248863467e-17
5.740305295436557 7.657102325433667e-23 1.1667259961772834e-14 1.1572832049944345e-14 9.442791182848831e-17
5.7835210386641895 8.247518147296784e-23 1.266149630576411e-14 1.2564747963946273e-14 9.674834181784317e-17
5.827062130521658 8.92529770817519e-23 1.3805171078758178e-14 1.370605269964525e-14 9.911837911293244e-17
5.8489554468988025 9.401004431698934e-23 1.459560171090003e-14 1.44952080387308e-14 1.0039367216923392e-16
5.870931020387893 9.910379273109581e-23 1.5444245132191225e-14 1.5342566190882717e-14 1.0167894130850479e-16
5.892989160043636 1.0456117289890131e-22 1.6355940481471274e-14 1.6252966297844576e-14 1.0297418362670039e-16
5.915130176081913 1.1076177472482106e-22 1.7390963578450143e-14 1.7286647858134924e-14 1.043157203152196e-16
5.95966208400165 1.281009113260346e-22 2.0264845086146674e-14 2.015749994641172e-14 1.0734513973494756e-16
6.004529249263818 1.5305815172494308e-22 2.439522693105347e-14 2.4284486628431054e-14 1.1074030262242161e-16
6.027089341400364 1.7040207794038847e-22 2.726163812701016e-14 2.714894993405754e-14 1.126881929526155e-16
6.049734195844842 1.9087001461959375e-22 3.0650914278570187e-14 3.053616518366916e-14 1.1474909490103529e-16
6.095279466722835 2.499788947650725e-22 4.044514523863059e-14 4.0325378676161437e-14 1.1976656246916276e-16
6.141167624020661 3.408433733643574e-22 5.556166346511922e-14 5.5435444319471786e-14 1.2621914564743295e-16
6.164241091010745 3.98876636873207e-22 6.526609798570144e-14 6.513585801206127e-14 1.3023997364017493e-16
6.187401249150058 4.648818615104737e-22 7.635198198376457e-14 7.62176048578805e-14 1.3437712588404965e-16
6.1990139391386085 4.971052155348819e-22 8.179756314279024e-14 8.166107913801686e-14 1.364840047733814e-16
6.204828454712694 5.140702504678133e-22 8.46684645181241e-14 8.453091546670867e-14 1.3754905141543859e-16
6.210648424152782 5.264531133906269e-22 8.678927822466326e-14 8.66508148483037e-14 1.3846337635956686e-16
6.233982942956859 5.684863035966683e-22 9.407084572943059e-14 9.392916500925223e-14 1.416807201783328e-16
6.239830258556775 5.738401300979575e-22 9.504584259378281e-14 9.490369330260713e-14 1.4214929117568596e-16
6.245683058788269 5.742762226031774e-22 9.520729143399705e-14 9.506467249185767e-14 1.426189421393632e-16
6.257405133728602 5.730568624484509e-22 9.518344621787975e-14 9.503999218024084e-14 1.4345403763888503e-16
6.269149208991335 5.64711424975736e-22 9.397332937356681e-14 9.382950569773914e-14 1.4382367582768427e-16
6.280915325867298 5.438784881540137e-22 9.067639660493448e-14 9.053277992014827e-14 1.4361668478623406e-16
6.304513850009849 4.925409088656789e-22 8.242583276896883e-14 8.228315301209037e-14 1.4267975687845595e-16
6.32820103803542 4.289827310852592e-22 7.205921231046582e-14 7.191802591597546e-14 1.4118639449034408e-16
6.3519772230701035 3.707155317921155e-22 6.25056314832704e-14 6.236576212573589e-14 1.398693575345366e-16
6.375842739491607 3.216684562696221e-22 5.443967257597025e-14 5.430094045280456e-14 1.387321231657036e-16
6.399797922933955 2.824086045037933e-22 4.797484927385484e-14 4.783658964853774e-14 1.3825962531709553e-16
6.42384311029221 2.4974337004553644e-22 4.258516423237009e-14 4.2447244943548485e-14 1.3791928882160607e-16
6.447978639727206 2.259587295380324e-22 3.867427200463334e-14 3.853617185125053e-14 1.381001533828005e-16
6.472204850670314 2.0613238879204695e-22 3.5413424376733323e-14 3.527503854657295e-14 1.3838583016037306e-16
6.496522083828205 1.9325573584988869e-22 3.332596584115005e-14 3.318686941866523e-14 1.3909642248480998e-16
