Dust emission spectrum from A.P. Jones, M. Kohler, N. Ysard, M. Bocchio, and L. Verstraete (2017), A&A, 602A, 46J 
inside the DustPedia framework.

lambda    nu*dP/dnu     j_nu    j_nu(carb.) j_nu(sil)
 (um)   (erg s-1 H-1) (Jy cm2 sr-1 H-1)
0.9927057738263894 2.3944755211204776e-22 6.309579001646923e-15 6.309578894185727e-15 1.0746119768134835e-22
1.0001793341362166 2.434782472808129e-22 6.464091222292582e-15 6.464091092939018e-15 1.293535664213883e-22
1.0077091589558085 2.4752143846200482e-22 6.620906565337754e-15 6.620906409837632e-15 1.555001214212823e-22
1.0114953028030835 2.495474771429066e-22 6.700180259904257e-15 6.7001800894958105e-15 1.7040844581161034e-22
1.0152956718711033 2.5157635107607145e-22 6.7800325926939294e-15 6.780032406009758e-15 1.8668417154500316e-22
1.0229392996569957 2.55640259861091e-22 6.941423587167041e-15 6.9414233633394234e-15 2.2382761865226916e-22
1.0267826658714554 2.5767063780321753e-22 7.0228419361648675e-15 7.022841691192979e-15 2.4497188745654545e-22
1.0306404723013447 2.5970338328094666e-22 7.104838873819307e-15 7.1048386057946274e-15 2.680246783846112e-22
1.03451277320114 2.6173840916363937e-22 7.187415449237754e-15 7.187415156088167e-15 2.9314958709736214e-22
1.0383996230291617 2.6377563002546645e-22 7.270572741169098e-15 7.270572420645665e-15 3.205234325997795e-22
1.0403485208654093 2.6479503735566696e-22 7.312369501516729e-15 7.312369166403907e-15 3.3511282281061483e-22
1.0423010764483396 2.658149621922107e-22 7.354311859938262e-15 7.354311509601004e-15 3.503372563636983e-22
1.0462171883269815 2.678563237877332e-22 7.438633949408511e-15 7.438633566611118e-15 3.8279739121431567e-22
1.0471985131304309 2.683669718649396e-22 7.459805698348704e-15 7.459805306997063e-15 3.913516383528234e-22
1.048180758391296 2.688777405380104e-22 7.481013975273567e-15 7.481013575184802e-15 4.000887652430721e-22
1.0501480137395462 2.6989963478008394e-22 7.523540188971178e-15 7.523539770844574e-15 4.181266044099053e-22
1.0521189612883777 2.7092199680561894e-22 7.56621274380741e-15 7.566212306865887e-15 4.369415229639451e-22
1.0531058218030118 2.7143265658610053e-22 7.587584557548138e-15 7.587584110897217e-15 4.466509226686515e-22
1.0540936079674168 2.7194115717577673e-22 7.608929392705675e-15 7.608928936136871e-15 4.565688013867603e-22
1.058054026499678 2.739761767122136e-22 7.694671402245975e-15 7.694670903856878e-15 4.983890986016278e-22
1.0590464539527713 2.7448518014754514e-22 7.716197670069993e-15 7.716197160666754e-15 5.09403236145775e-22
1.06003981227728 2.7499428073392965e-22 7.737760283951806e-15 7.737759763301768e-15 5.206500387524064e-22
1.0620293250338977 2.760127688852696e-22 7.780994631049417e-15 7.780994087189006e-15 5.438604092776765e-22
1.0660195594769086 2.7805086223575326e-22 7.867900380753693e-15 7.867899787469047e-15 5.932846449958903e-22
1.070024785945596 2.8009038739839637e-22 7.955389999477732e-15 7.955389352490541e-15 6.46987190141694e-22
1.0740450607676866 2.821312771451215e-22 8.043464883973203e-15 8.043464178654603e-15 7.053186017214154e-22
1.07808044048254 2.841734664278194e-22 8.132126481800684e-15 8.13212571314426e-15 7.686564223974884e-22
1.0861967418109137 2.8825829575555513e-22 8.311123646316918e-15 8.311122734308695e-15 9.120082228842762e-22
1.0902777775684922 2.9029354314693013e-22 8.40125118035758e-15 8.401250187427046e-15 9.929305332353195e-22
1.0943741465085532 2.92329725582385e-22 8.491965804226855e-15 8.491964723546905e-15 1.080679951826974e-21
1.1026131145906286 2.964046864971618e-22 8.67516318383705e-15 8.675161904959759e-15 1.2788772918720074e-21
1.1109141095355224 3.0048278502355622e-22 8.860730172940324e-15 8.860728661482146e-15 1.5114581765600709e-21
1.1192775983109025 3.045603863766758e-22 9.048584773333304e-15 9.048582989307831e-15 1.7840254764324122e-21
1.1277040513999907 3.0862209421330386e-22 9.238289926759765e-15 9.238287823727487e-15 2.1030322766256673e-21
1.1361939428280308 3.126855176729717e-22 9.43039034808462e-15 9.430387872184154e-15 2.475900468113557e-21
1.1447477501889525 3.1675043688890096e-22 9.62490505921904e-15 9.624902148064162e-15 2.9111548791318218e-21
1.1533659546722406 3.2081824212283366e-22 9.821902429410438e-15 9.821899010831647e-15 3.418578785861613e-21
1.1707974979042381 3.289748600719692e-22 1.022383729905885e-14 1.022383260264235e-14 4.696416497484391e-21
1.1884924949847024 3.371411560591085e-22 1.0635983338977512e-14 1.0635976919323476e-14 6.4196540347271144e-21
1.2064549276569216 3.453733681299873e-22 1.1060362996357985e-14 1.1060354264398147e-14 8.731959833989339e-21
1.2246888378427687 3.536127531143444e-22 1.1495374175721445e-14 1.1495362356666924e-14 1.1819054522548346e-20
1.2431983285522175 3.61850694860303e-22 1.1940960495111222e-14 1.1940944574934926e-14 1.592017629790763e-20
1.2619875648066055 3.700969451666657e-22 1.2397668196154853e-14 1.2397646854223167e-14 2.1341931682494956e-20
1.3004222497298317 3.8655159857235483e-22 1.3343240017852579e-14 1.3343202203408404e-14 3.7814444176779147e-20
1.3400274889804893 4.030107096808568e-22 1.4335067023500498e-14 1.4335001248683238e-14 6.577481726188902e-20
1.3808389325824078 4.1951976694858344e-22 1.5376761744161764e-14 1.5376649376165417e-14 1.1236799635241702e-19
1.4228933163050095 4.362112312057805e-22 1.6475500462822966e-14 1.6475311828278658e-14 1.8863454430702408e-19
1.466228494730424 4.533877777778489e-22 1.7645781483093895e-14 1.7645470159335947e-14 3.1132375794957725e-19
1.5108834753276823 4.709891052123918e-22 1.888909999266586e-14 1.8888594625713328e-14 5.053669525246965e-19
1.5568984535646726 4.889783120230247e-22 2.0207813138789644e-14 2.0207005417464793e-14 8.077213248541909e-19
1.6043148490894465 5.074574034379661e-22 2.161019218588889e-14 2.1608918728706258e-14 1.273457182635987e-18
1.6531753430134553 5.265346761230927e-22 2.3105497824416588e-14 2.3103519653191116e-14 1.97817122547744e-18
1.7035239163302658 5.463431513353472e-22 2.4704904053797492e-14 2.4701875731854072e-14 3.0283219434255467e-18
1.755405889504358 5.672974896511399e-22 2.6433693250853914e-14 2.6429122207075714e-14 4.571043778196961e-18
1.8088679632656115 5.8937649719137115e-22 2.829887126084322e-14 2.8292065811254078e-14 6.805449589139785e-18
1.8639582606462262 6.125510863723564e-22 3.0307347636028145e-14 3.029734998499255e-14 9.997651035599064e-18
1.9207263702978936 6.368811132346411e-22 3.247082343052778e-14 3.2456325657600314e-14 1.4497772927471493e-17
1.979223391128241 6.62464335949391e-22 3.480380693156842e-14 3.4783046654053234e-14 2.0760277515188712e-17
2.039501978296691 6.893819914121914e-22 3.732101944140349e-14 3.7291653293347524e-14 2.936614805595406e-17
2.1016163906111602 7.179324055751828e-22 4.0050361146762695e-14 4.000931044489742e-14 4.105070186526776e-17
2.1656225393682647 7.482376672842232e-22 4.301221057008144e-14 4.29554820061599e-14 5.672856392152799e-17
2.231578038680979 7.801721561691998e-22 4.621382957212562e-14 4.6136307726821585e-14 7.752184530406105e-17
2.299542257339062 8.137183896875742e-22 4.9668947674165633e-14 4.956415796843021e-14 1.0478970573540318e-16
2.369576372248914 8.489451562003595e-22 5.339735910770212e-14 5.325719917381469e-14 1.401599338874351e-16
2.4417434235010123 8.859424496570533e-22 5.742155788241356e-14 5.723600460407306e-14 1.8555327834048774e-16
2.5161083711144245 9.249749450139577e-22 6.177727459292689e-14 6.153405927064504e-14 2.432153222818561e-16
2.5927381535095444 9.665479210797834e-22 6.651988392309681e-14 6.620414742818162e-14 3.157364949151847e-16
2.6717017477616296 1.0111270886957926e-21 7.170726415016267e-14 7.130121415461923e-14 4.060499955434383e-16
2.753070231689431 1.0594577725004169e-21 7.742306766877345e-14 7.690562933652297e-14 5.174383322504967e-16
2.836916847834745 1.1136441662883212e-21 8.386147291427913e-14 8.320792172218654e-14 6.535511920925716e-16
2.9233170693905177 1.1784659325379422e-21 9.144551030754711e-14 9.062727957961646e-14 8.182307279306412e-16
2.967498994190263 1.2196336024059204e-21 9.607035481596537e-14 9.515950231785379e-14 9.108524981115703e-16
3.0123486681368425 1.2641814331511602e-21 1.0108438637292354e-13 1.0007176378246399e-13 1.0126225904595586e-15
3.0578761833420214 1.3405414383729933e-21 1.0881019102275683e-13 1.0768557844861648e-13 1.1246125741403113e-15
3.1040917844459814 1.4314994091425776e-21 1.1794924370506394e-13 1.1670271195751757e-13 1.2465317475463413e-15
3.127460860933648 1.5177562658329979e-21 1.259979127830707e-13 1.246860830139847e-13 1.311829769085995e-15
3.1510058709225794 1.6283596813135232e-21 1.3619745299081712e-13 1.348175450424941e-13 1.3799079483230317e-15
3.162844764501044 1.7288171189229324e-21 1.4514308984376562e-13 1.4372794583484306e-13 1.415144008922544e-15
3.1747281389236908 1.84314928258641e-21 1.5532325598900553e-13 1.538721556753616e-13 1.4511003136439274e-15
3.1986289994194426 2.1546351228770525e-21 1.829393107199901e-13 1.814139135699567e-13 1.5253971500333753e-15
3.2227097969389145 2.878072090614507e-21 2.4620241035265274e-13 2.445982706396448e-13 1.604139713007987e-15
3.2348180950136065 3.5582489626619946e-21 3.055312439610847e-13 3.038850789678315e-13 1.6461649932532352e-15
3.240889293275058 4.0664109902416436e-21 3.4982021274663123e-13 3.4815188040910665e-13 1.6683323375246704e-15
3.2469718861334385 4.6551523706237996e-21 4.012193426695605e-13 3.9952807351312837e-13 1.6912691564320026e-15
3.2714166318528037 7.756386064768888e-21 6.735420397204424e-13 6.717559714525973e-13 1.7860682678449438e-15
3.2744851364798273 7.950474119332782e-21 6.910436564687156e-13 6.892464124243823e-13 1.7972440443334792e-15
3.2775565192852394 8.149843555373024e-21 7.090369933498396e-13 7.072285173119682e-13 1.8084760378714624e-15
3.283707930232385 7.95944498029964e-21 6.937719548472311e-13 6.91943384255143e-13 1.8285705920879164e-15
3.2898708863219004 7.352753120814171e-21 6.420934966501897e-13 6.402466314011923e-13 1.8468652489974497e-15
3.29141343181113 7.209433835716613e-21 6.298730554646291e-13 6.280215961398804e-13 1.851459324748869e-15
3.292184975758714 7.138974959309458e-21 6.238634180347491e-13 6.220096586064908e-13 1.85375942825823e-15
3.295272960557952 6.698213446776112e-21 5.858950253401055e-13 5.840323175315033e-13 1.862707808602175e-15
3.3076538914384823 5.1620965755451806e-21 4.5322683670412767e-13 4.513281841437659e-13 1.898652560361809e-15
3.310756385682612 4.846889699414199e-21 4.259511499242075e-13 4.240434364306051e-13 1.907713493602252e-15
3.313861789986515 4.555059147394645e-21 4.00680166163784e-13 3.9876336178051683e-13 1.9168043832671596e-15
3.3200813396944477 4.1472115106791186e-21 3.654890264032072e-13 3.6355267194946335e-13 1.9363544537439007e-15
3.345076488085796 3.4322881018694205e-21 3.047608811831147e-13 3.02737413347931e-13 2.023467835183727e-15
3.3482140837626964 3.461102714733742e-21 3.076076556817024e-13 3.0557238740753277e-13 2.03526827416964e-15
3.3513546224236106 3.490191796696481e-21 3.1048391894778265e-13 3.084367966590722e-13 2.0471222887105106e-15
3.3576445397418455 3.695138400325089e-21 3.293327037963716e-13 3.2726079896499083e-13 2.0719048313806998e-15
3.3702598118196083 4.4399720002924446e-21 3.9720348120349563e-13 3.95079593275794e-13 2.12388792770163e-15
3.382922481734668 4.616891247468189e-21 4.1458265073668067e-13 4.1240821495279093e-13 2.1744357838898292e-15
3.389271646505754 4.7081995963957255e-21 4.2357534894184106e-13 4.213752881711123e-13 2.2000607707288538e-15
3.395632727569191 4.8081866849392146e-21 4.3338259450414e-13 4.31156125506291e-13 2.226468997848944e-15
3.421196662673239 5.292038639073478e-21 4.805852962658727e-13 4.782494863349869e-13 2.335809930885885e-15
3.4276182099114902 5.2036943300480116e-21 4.734494891209677e-13 4.710892547516943e-13 2.3602343692734075e-15
3.4340518103208963 4.803292200300845e-21 4.378398468754278e-13 4.354564999878403e-13 2.3833468875874e-15
3.4469541582030403 4.229868171863495e-21 3.8701854251330674e-13 3.8459081123726603e-13 2.427731276040664e-15
3.472904465399547 4.0723969399112904e-21 3.7541564912940194e-13 3.7288570978847766e-13 2.5299393409243028e-15
3.4990501388274233 3.832348556472182e-21 3.5594639638468647e-13 3.533118152140282e-13 2.6345811706582643e-15
3.5253949054701885 2.97407904315199e-21 2.783105774220539e-13 2.7557425534263567e-13 2.7363220794182643e-15
3.5519380250092896 2.158715564963296e-21 2.0353084491435877e-13 2.0069219830299975e-13 2.8386466113589875e-15
3.578680990867387 1.840717514972451e-21 1.7485560744654618e-13 1.719048010579583e-13 2.950806388587874e-15
3.605625307711299 1.7183479386973504e-21 1.6446032065453713e-13 1.613913508367392e-13 3.0689698177979278e-15
3.660119384959845 1.641487469070141e-21 1.594785418381782e-13 1.561611531854249e-13 3.317388652753261e-15
3.715437065384467 1.5904565167700624e-21 1.5685600234793454e-13 1.5327649316918378e-13 3.5795091787508015e-15
3.8285932144167436 1.59037481220891e-21 1.61624854619516e-13 1.574811656403577e-13 4.143688979158303e-15
3.94519561050918 1.616265767092669e-21 1.692586017609468e-13 1.6449848291592122e-13 4.7601188450256206e-15
4.06534921144712 1.6515304838017249e-21 1.7821895159720246e-13 1.72790604250018e-13 5.428347347184444e-15
4.189162171576248 1.691261419649122e-21 1.8806472716083687e-13 1.819148780547617e-13 6.149849106075133e-15
4.316745939156006 1.7334293474833377e-21 1.9862415710069666e-13 1.9170196164881767e-13 6.922195451879038e-15
4.448215356677963 1.77716470926332e-21 2.0983741070503005e-13 2.0210244406188426e-13 7.734966643145775e-15
4.58368876423945 1.8223420250644076e-21 2.2172488823989292e-13 2.131355656762481e-13 8.589322563644777e-15
4.723288106065518 1.8693544374461516e-21 2.343718905780645e-13 2.2488115488835114e-13 9.490735689713299e-15
4.867139040275056 1.918873962896617e-21 2.4790748300452774e-13 2.3749168018976725e-13 1.041580281476051e-14
4.940699165968905 1.945991516420538e-21 2.5521064588122585e-13 2.443206242278433e-13 1.0890021653382696e-14
5.015371051989984 1.972747406133203e-21 2.6262978794279607e-13 2.512591863414389e-13 1.1370601601357135e-14
5.091171501069577 2.003552039002666e-21 2.707620458823343e-13 2.5889424491899366e-13 1.1867800963340697e-14
5.129500256944802 2.018802269980294e-21 2.748769183830359e-13 2.6275859792558126e-13 1.211832045745465e-14
5.168117569889187 2.0343415778360852e-21 2.790780586505062e-13 2.6670556943422543e-13 1.237248921628079e-14
5.20702561229733 2.0531664405423996e-21 2.8378099293298547e-13 2.7113130259520053e-13 1.2649690337784977e-14
5.246226572918644 2.0720212770828334e-21 2.8854309555283153e-13 2.756141888973708e-13 1.292890665546068e-14
5.265937586045735 2.0814618248962463e-21 2.909468037472583e-13 2.778775666686718e-13 1.3069237078586495e-14
5.285722656980489 2.090912197065382e-21 2.9336587948627775e-13 2.80155848599503e-13 1.321003088677474e-14
5.305582063971359 2.1003732379377025e-21 2.9580052840580743e-13 2.824492540962576e-13 1.3351274309549894e-14
5.3255160863122235 2.1104786405617058e-21 2.98340418822449e-13 2.84846359652314e-13 1.3494059170134976e-14
5.365609099470188 2.1356536102959433e-21 3.04172030634405e-13 2.9038255590139263e-13 1.3789474733012378e-14
5.406003951863644 2.1611960822183476e-21 3.1012727523478697e-13 2.960403101136357e-13 1.408696512115144e-14
5.446702915881641 2.1871334969259376e-21 3.1621204796777717e-13 3.0182562706515216e-13 1.4386420902624922e-14
5.487708281020852 2.2147115504143657e-21 3.226098479732441e-13 3.079208509979566e-13 1.4688996975287578e-14
5.529022354014368 2.253622324011986e-21 3.3074928567521586e-13 3.157448350045795e-13 1.5004450670636293e-14
5.570647458961463 2.2939258926016444e-21 3.391989438610437e-13 3.238768646621055e-13 1.5322079198938123e-14
5.612585937458331 2.335737784830087e-21 3.479817943043685e-13 3.323400228500365e-13 1.5641771454332072e-14
5.654840148729818 2.381032782375664e-21 3.574004876192712e-13 3.414355071537514e-13 1.596498046551974e-14
5.67608639626678 2.4125638233656336e-21 3.6349399580027835e-13 3.4735989481168867e-13 1.6134100988589692e-14
5.686739436050992 2.4286849927750642e-21 3.6660970016581106e-13 3.503908118060805e-13 1.621888835973064e-14
5.6974124697621304 2.4450511587269312e-21 3.6977287102092404e-13 3.534690462000972e-13 1.6303824820826833e-14
5.718818669136295 2.4785430854587205e-21 3.762462951051686e-13 3.597721570955302e-13 1.647413800963841e-14
5.740305295436557 2.5154088666027288e-21 3.8327722302104987e-13 3.666309259198488e-13 1.6646297101200982e-14
5.7835210386641895 2.611965123504228e-21 4.009859229333493e-13 3.839837091941728e-13 1.700221373917655e-14
5.827062130521658 2.7214149304133413e-21 4.2093384354261733e-13 4.0356998236651693e-13 1.736386117610039e-14
5.8489554468988025 2.7996100134251338e-21 4.3465560513959073e-13 4.170963756388608e-13 1.755922950072978e-14
5.870931020387893 2.8825278119775894e-21 4.4921051860583466e-13 4.314549909260259e-13 1.775552767980885e-14
5.892989160043636 2.9705408498914852e-21 4.646656879564781e-13 4.4671294503704336e-13 1.7952742919434832e-14
5.915130176081913 3.0703755350690925e-21 4.820867960558694e-13 4.639295942604382e-13 1.815720179543128e-14
5.95966208400165 3.351986014677571e-21 5.302653713796483e-13 5.116416698039503e-13 1.8623701575698165e-14
6.004529249263818 3.756573623631006e-21 5.987427980730916e-13 5.7959378449549e-13 1.9149013577601614e-14
6.027089341400364 4.038255702030616e-21 6.460570607102953e-13 6.266042123724677e-13 1.945284833782734e-14
6.049734195844842 4.368688689665594e-21 7.015470858718808e-13 6.817723235797129e-13 1.9774762292167906e-14
6.095279466722835 5.323188040770435e-21 8.612611622426589e-13 8.406940494375598e-13 2.0567112805099083e-14
6.141167624020661 6.782528668929822e-21 1.1056356226786762e-12 1.0840387929348909e-12 2.1596829743784933e-14
6.164241091010745 7.71362331289408e-21 1.2621398408053828e-12 1.2398960757361715e-12 2.2243765069210972e-14
6.187401249150058 8.763399988934595e-21 1.4392967621873581e-12 1.416388725415778e-12 2.2908036771579797e-14
6.1990139391386085 9.27411411249845e-21 1.5260349539770684e-12 1.502788921302579e-12 2.3246032674489365e-14
6.204828454712694 9.54221531774501e-21 1.5716231746917225e-12 1.548206427272679e-12 2.341674741904316e-14
6.210648424152782 9.736628308541285e-21 1.6051475843644757e-12 1.5815855353593761e-12 2.35620490050995e-14
6.233982942956859 1.0390224994612584e-20 1.7193329837120146e-12 1.695264966042297e-12 2.406801766971737e-14
6.239830258556775 1.0469848738351229e-20 1.7341338518729516e-12 1.709996089773911e-12 2.413776209904046e-14
6.245683058788269 1.0470543006889808e-20 1.7358755252139214e-12 1.7116679086801707e-12 2.4207616533751334e-14
6.257405133728602 1.0438312302713851e-20 1.7337800186629313e-12 1.7094504054459552e-12 2.4329613216976526e-14
6.269149208991335 1.0291918657477844e-20 1.71267273710051e-12 1.6882996083703492e-12 2.437312873016058e-14
6.280915325867298 9.945954828699203e-21 1.658207420048769e-12 1.6338878155064879e-12 2.4319604542281278e-14
6.304513850009849 9.101584316984078e-21 1.5231337201454427e-12 1.4990089572106579e-12 2.4124762934784203e-14
6.32820103803542 8.068349857840244e-21 1.3552968296191745e-12 1.331460317398189e-12 2.3836512220985845e-14
6.3519772230701035 7.124427116394584e-21 1.2012359280282245e-12 1.177657940572594e-12 2.357798745563109e-14
6.375842739491607 6.328385320357924e-21 1.0710258281778485e-12 1.0476758837346269e-12 2.334994444322161e-14
6.399797922933955 5.6948346126942864e-21 9.674238951167301e-13 9.441911976965842e-13 2.32326974201461e-14
6.42384311029221 5.166021394952604e-21 8.808877268368798e-13 8.577502035953858e-13 2.313752324149411e-14
6.447978639727206 4.781315610380176e-21 8.183525408993702e-13 7.952237805845566e-13 2.3128760314813824e-14
6.472204850670314 4.459431934802907e-21 7.661278099564011e-13 7.429906669206649e-13 2.3137143035736336e-14
6.496522083828205 4.2491588274803525e-21 7.327457646495152e-13 7.095302135012602e-13 2.3215551148254815e-14
