Dust emission spectrum from A.P. Jones, M. Kohler, N. Ysard, M. Bocchio, and L. Verstraete (2017), A&A, 602A, 46J 
inside the DustPedia framework.

lambda    nu*dP/dnu     j_nu    j_nu(carb.) j_nu(sil)
 (um)   (erg s-1 H-1) (Jy cm2 sr-1 H-1)
0.9927057738263894 9.06889835898792e-23 2.389706227907658e-15 2.3897061960586496e-15 3.184900853902337e-23
1.0001793341362166 9.2213691290413e-23 2.4481764556078695e-15 2.4481764172670006e-15 3.8340868532187646e-23
1.0077091589558085 9.374218284288819e-23 2.507492836540069e-15 2.507492790444918e-15 4.6095151389310136e-23
1.0114953028030835 9.450774168376134e-23 2.537468671242256e-15 2.5374686207253517e-15 5.051690282053621e-23
1.0152956718711033 9.52741203889427e-23 2.567656453853054e-15 2.5676563985085404e-15 5.534451315521381e-23
1.0229392996569957 9.680842853025296e-23 2.6286482011934094e-15 2.6286481348305935e-15 6.636281524052303e-23
1.0267826658714554 9.757458707986778e-23 2.6594062400380703e-15 2.6594061674024075e-15 7.263566240421923e-23
1.0306404723013447 9.83413654684989e-23 2.6903752560251033e-15 2.6903751765499612e-15 7.947514168256719e-23
1.03451277320114 9.910872486516233e-23 2.7215553977206614e-15 2.7215553107907925e-15 8.692986949931091e-23
1.0383996230291617 9.987662704017947e-23 2.752946820629842e-15 2.7529467255774463e-15 9.505239638100931e-23
1.0403485208654093 1.0026076989145266e-22 2.7687218131966054e-15 2.7687217138149517e-15 9.938165507336633e-23
1.0423010764483396 1.0064503438238352e-22 2.7845496878653388e-15 2.7845495839658337e-15 1.0389950461842462e-22
1.0462171883269815 1.0141390991618682e-22 2.816364170825492e-15 2.8163640572929654e-15 1.135325267476207e-22
1.0471985131304309 1.0160619768338593e-22 2.8243508774527027e-15 2.824350761381474e-15 1.1607122931618035e-22
1.048180758391296 1.0179851187802584e-22 2.8323508241988698e-15 2.832350705534621e-15 1.1866424949623455e-22
1.0501480137395462 1.0218321731850294e-22 2.848390449881637e-15 2.8483903258639507e-15 1.2401768617555866e-22
1.0521189612883777 1.0256802180193724e-22 2.8644830719365145e-15 2.864482942334576e-15 1.2960193865220678e-22
1.0531058218030118 1.0276019419567115e-22 2.872541839350841e-15 2.872541706867088e-15 1.3248375234619308e-22
1.0540936079674168 1.0295151948458871e-22 2.8805895023961274e-15 2.880589366968636e-15 1.354274915862317e-22
1.058054026499678 1.0371700525874582e-22 2.912911202236986e-15 2.9129110543962244e-15 1.4784076163152056e-22
1.0590464539527713 1.0390842020267067e-22 2.921024404441501e-15 2.921024253331341e-15 1.5111015982375694e-22
1.06003981227728 1.0409985149495257e-22 2.9291507238373627e-15 2.9291505693886854e-15 1.5444867839210804e-22
1.0620293250338977 1.0448276104384672e-22 2.945442727170793e-15 2.945442565832135e-15 1.6133865846738395e-22
1.0660195594769086 1.0524875359580314e-22 2.9781842855360553e-15 2.9781841095250906e-15 1.7601096439963332e-22
1.070024785945596 1.0601495041528127e-22 3.0111360984667804e-15 3.0111359065123298e-15 1.9195445065805032e-22
1.0740450607676866 1.0678131976350015e-22 3.044298400635085e-15 3.044298191361701e-15 2.0927338426667555e-22
1.07808044048254 1.0754783067784324e-22 3.0776714410022276e-15 3.0776712129221597e-15 2.280800687378414e-22
1.0861967418109137 1.0907993673942717e-22 3.1450156159342235e-15 3.1450153452846064e-15 2.7064961646775993e-22
1.0902777775684922 1.0984269834574918e-22 3.178906733946231e-15 3.1789064392634966e-15 2.946827337206027e-22
1.0943741465085532 1.106054371369916e-22 3.2130074629177324e-15 3.2130071421724194e-15 3.207453130345219e-22
1.1026131145906286 1.1213074076040038e-22 3.2818390475425782e-15 3.2818386679238837e-15 3.7961869459791763e-22
1.1109141095355224 1.1365564540709369e-22 3.351513154088652e-15 3.3515127053729874e-15 4.487156651740876e-22
1.1192775983109025 1.1517871221656397e-22 3.421995729562665e-15 3.4219951998585017e-15 5.297041629735241e-22
1.1277040513999907 1.1669401771288878e-22 3.4931172737263927e-15 3.4931166492207932e-15 6.2450559845670655e-22
1.1361939428280308 1.1820822028313225e-22 3.5650824762155884e-15 3.5650817408853374e-15 7.353302506426701e-22
1.1447477501889525 1.1972118012642578e-22 3.63789551046042e-15 3.6378946457430655e-15 8.647173539901952e-22
1.1533659546722406 1.212333870457861e-22 3.711579774490364e-15 3.71157875890881e-15 1.015581553605787e-21
1.1707974979042381 1.2426015713048517e-22 3.86174076943035e-15 3.861739373837843e-15 1.395592506588149e-21
1.1884924949847024 1.272824517783615e-22 4.0154517243854804e-15 4.0154498161625524e-15 1.9082229281496028e-21
1.2064549276569216 1.3032140195556228e-22 4.173460216771257e-15 4.1734576204574236e-15 2.596313834208269e-21
1.2246888378427687 1.3335391219469703e-22 4.335118303775228e-15 4.335114788506595e-15 3.515268632534533e-21
1.2431983285522175 1.3637632794756407e-22 4.500376447028475e-15 4.500371710542673e-15 4.736485802630238e-21
1.2619875648066055 1.393916573033766e-22 4.669402271832206e-15 4.669395920324815e-15 6.3515073906832545e-21
1.3004222497298317 1.4537497729160094e-22 5.018148215544404e-15 5.018136954560382e-15 1.1260984022949717e-20
1.3400274889804893 1.5131229744630817e-22 5.382169439344065e-15 5.382149839100152e-15 1.960024391418089e-20
1.3808389325824078 1.5721619225298976e-22 5.762483966327243e-15 5.7624504593736716e-15 3.3506953571540205e-20
1.4228933163050095 1.631325228111722e-22 6.1614414366351784e-15 6.161385149256692e-15 5.628737848766517e-20
1.466228494730424 1.691720713450888e-22 6.58415058877146e-15 6.584057626573822e-15 9.296219763707026e-20
1.5108834753276823 1.7530679485820932e-22 7.030709502244668e-15 7.0305584900541986e-15 1.5101219046991853e-19
1.5568984535646726 1.815182379432951e-22 7.501532365443118e-15 7.501290828381192e-15 2.415370619243478e-19
1.6043148490894465 1.8784143588419388e-22 7.999271470727458e-15 7.99889038031479e-15 3.81090412668904e-19
1.6531753430134553 1.9431411171087406e-22 8.526929923110021e-15 8.526337495769564e-15 5.9242734045735545e-19
1.7035239163302658 2.0098472529190769e-22 9.088259535201354e-15 9.087351908678867e-15 9.076265224860162e-19
1.755405889504358 2.0800937152886356e-22 9.69236779749927e-15 9.690996723398305e-15 1.3710741009658895e-18
1.8088679632656115 2.1537925020722327e-22 1.0341419623816627e-14 1.0339376712946489e-14 2.0429108701402112e-18
1.8639582606462262 2.230848734182959e-22 1.1037627654973576e-14 1.1034624039098512e-14 3.0036158750634614e-18
1.9207263702978936 2.311514716164443e-22 1.1785054485983728e-14 1.1780695268673443e-14 4.359217310289407e-18
1.979223391128241 2.396199526031577e-22 1.2588883830855747e-14 1.258263630050986e-14 6.247530345890929e-18
2.039501978296691 2.485272022069811e-22 1.3454497884814235e-14 1.3445652888573997e-14 8.84499624023552e-18
2.1016163906111602 2.5799259488758977e-22 1.4392297266704673e-14 1.4379922003734735e-14 1.2375262969938308e-17
2.1656225393682647 2.6807078531550675e-22 1.540996607071079e-14 1.5392849101637608e-14 1.7116969073180186e-17
2.231578038680979 2.7872608012074137e-22 1.6510457931817048e-14 1.648704537913725e-14 2.3412552679794522e-17
2.299542257339062 2.899633382754304e-22 1.7699211494726616e-14 1.7667533945087135e-14 3.167754963947508e-17
2.369576372248914 3.01823020259732e-22 1.898420891157837e-14 1.894179833007657e-14 4.241058150181073e-17
2.4417434235010123 3.143547242667245e-22 2.037461688632177e-14 2.0318415651452134e-14 5.620123486963818e-17
2.5161083711144245 3.2767652390406686e-22 2.1884876670439817e-14 2.1811136357667257e-14 7.374031277255384e-17
2.5927381535095444 3.4200265180111003e-22 2.353734998859228e-14 2.3441523390426926e-14 9.582659816536194e-17
2.6717017477616296 3.5754266885548904e-22 2.53562651888246e-14 2.5232898214154817e-14 1.2336697466978916e-16
2.753070231689431 3.7462445109268196e-22 2.7376810081700935e-14 2.7219430816275817e-14 1.5737926542512559e-16
2.836916847834745 3.941234312478327e-22 2.9678933769869725e-14 2.947993521011485e-14 1.9899855975487976e-16
2.9233170693905177 4.1801321100107363e-22 3.243660282395039e-14 3.218717702328047e-14 2.4942580066992046e-16
2.967498994190263 4.335720033002649e-22 3.415240127293754e-14 3.3874570034982765e-14 2.778312379547742e-16
3.0123486681368425 4.505466820745717e-22 3.602586914786548e-14 3.5716806806712454e-14 3.0906234115303397e-16
3.0578761833420214 4.804826250631843e-22 3.900021641978807e-14 3.8656766233065254e-14 3.4345018672281473e-16
3.1040917844459814 5.165269320658485e-22 4.255954323233378e-14 4.217862623282084e-14 3.809169995129357e-16
3.127460860933648 5.511981050883692e-22 4.5758210547068095e-14 4.5357214988509166e-14 4.009955585589268e-16
3.1510058709225794 5.959113801066225e-22 4.984255819530936e-14 4.942062049007477e-14 4.2193770523458665e-16
3.162844764501044 6.366467202975154e-22 5.344976695999518e-14 5.30169866193622e-14 4.32780340632983e-16
3.1747281389236908 6.831737462651865e-22 5.757144669649985e-14 5.712759973990253e-14 4.438469565973265e-16
3.1986289994194426 8.10417769201075e-22 6.880852656616446e-14 6.834180536614201e-14 4.6672120002244615e-16
3.2227097969389145 1.1065810976795425e-21 9.466160850794302e-14 9.417063530798201e-14 4.909731999609923e-16
3.2348180950136065 1.3854200695568726e-21 1.1895994959939308e-13 1.1845603069201726e-13 5.039189073758298e-16
3.240889293275058 1.5937590123177783e-21 1.3710594381477791e-13 1.3659519632351698e-13 5.10747491260942e-16
3.2469718861334385 1.835076733263176e-21 1.5816201534331176e-13 1.576442021932942e-13 5.178131500175924e-16
3.2714166318528037 3.109154101875472e-21 2.6998991258241135e-13 2.694428892833904e-13 5.47023299020895e-16
3.2744851364798273 3.1889144968732068e-21 2.7717581379540325e-13 2.7662534486095323e-13 5.504689344499737e-16
3.2775565192852394 3.270867530592204e-21 2.845657175845704e-13 2.840117854885778e-13 5.539320959925534e-16
3.283707930232385 3.1926748595895133e-21 2.7828426278607685e-13 2.777241307356318e-13 5.601320504450088e-16
3.2898708863219004 2.9434640158054728e-21 2.5704373193523837e-13 2.564779514004592e-13 5.657805347791782e-16
3.29141343181113 2.8846099431250034e-21 2.520222974650815e-13 2.514550984057861e-13 5.671990592953972e-16
3.292184975758714 2.8556785732776464e-21 2.495531089110187e-13 2.489851996276236e-13 5.679092833950621e-16
3.295272960557952 2.6743744614737632e-21 2.339284505226182e-13 2.3335777743637816e-13 5.706730862400184e-16
3.3076538914384823 2.0431507020031335e-21 1.793865566106539e-13 1.788047796272484e-13 5.817769834054867e-16
3.310756385682612 1.913808511363932e-21 1.6818805186524606e-13 1.676034754089391e-13 5.84576456306986e-16
3.313861789986515 1.7941296414826534e-21 1.5781840358314832e-13 1.572310182337991e-13 5.873853493492247e-16
3.3200813396944477 1.6267845390322038e-21 1.4336666837648402e-13 1.4277324425292032e-13 5.934241235636687e-16
3.345076488085796 1.3326344153848258e-21 1.1832772386048248e-13 1.1770739608987382e-13 6.203277706086581e-16
3.3482140837626964 1.3443820826126152e-21 1.1948279344976462e-13 1.188588214735912e-13 6.239719761734146e-16
3.3513546224236106 1.356244845168352e-21 1.2065016454945794e-13 1.2002253160614212e-13 6.276329433158477e-16
3.3576445397418455 1.4402051719052805e-21 1.283596477044962e-13 1.2772436165762325e-13 6.352860468729385e-16
3.3702598118196083 1.7460541015787938e-21 1.5620341017264478e-13 1.555520707855507e-13 6.5133938709411e-16
3.382922481734668 1.8183017208768204e-21 1.6327790863464007e-13 1.6261095192438237e-13 6.669567102577018e-16
3.389271646505754 1.8556148258101e-21 1.6694124394086196e-13 1.6626636868008535e-13 6.748752607766599e-16
3.395632727569191 1.8963604637650143e-21 1.7092714400542165e-13 1.7024410812000478e-13 6.830358854168418e-16
3.421196662673239 2.093260196545526e-21 1.9009499747237628e-13 1.893781652068958e-13 7.168322654805273e-16
3.4276182099114902 2.0568461757921938e-21 1.871387343999211e-13 1.864143448670544e-13 7.243895328667237e-16
3.4340518103208963 1.8924516472832715e-21 1.7250475401304156e-13 1.7177320931768598e-13 7.315446953555892e-16
3.4469541582030403 1.6572694966814146e-21 1.5163451887788563e-13 1.5088922590427704e-13 7.452929736085696e-16
3.472904465399547 1.5927061107883074e-21 1.4682429224764672e-13 1.46047351057706e-13 7.769411899407398e-16
3.4990501388274233 1.4940505243471052e-21 1.3876657937594977e-13 1.379572184950115e-13 8.093608809382469e-16
3.5253949054701885 1.1407727854833864e-21 1.0675208292337941e-13 1.0591117267342742e-13 8.409102499519948e-16
3.5519380250092896 8.056862644773472e-22 7.596276638129308e-14 7.509010270090568e-14 8.72663680387394e-16
3.578680990867387 6.747000500952248e-22 6.409190228484424e-14 6.318442939328528e-14 9.074728915589607e-16
3.605625307711299 6.239386001182336e-22 5.971616104825486e-14 5.877200139540077e-14 9.441596528540676e-16
3.660119384959845 5.913442555923309e-22 5.745198874997817e-14 5.6430637340512224e-14 1.0213514094659539e-15
3.715437065384467 5.695150215320757e-22 5.616742652985984e-14 5.5064532167699035e-14 1.1028943621608092e-15
3.8285932144167436 5.677889605950568e-22 5.770262928352231e-14 5.642389533219039e-14 1.278733951331902e-15
3.94519561050918 5.769469855805766e-22 6.041904868480864e-14 5.894769123032255e-14 1.4713574544860896e-15
4.06534921144712 5.901839515393698e-22 6.3687571089041e-14 6.200682119877912e-14 1.6807498902618846e-15
4.189162171576248 6.054913398972551e-22 6.732936866711665e-14 6.542186766626349e-14 1.9075010008531493e-15
4.316745939156006 6.220539727864366e-22 7.127775135180889e-14 6.912675367949374e-14 2.150997672315149e-15
4.448215356677963 6.395377309490531e-22 7.55129453173467e-14 7.310481476452927e-14 2.4081305528174355e-15
4.58368876423945 6.579069581642714e-22 8.004773240416559e-14 7.736832403941672e-14 2.679408364748897e-15
4.723288106065518 6.7733891435225005e-22 8.492193815085613e-14 8.19552329457182e-14 2.9667052051379356e-15
4.867139040275056 6.981546914181371e-22 9.019757193224162e-14 8.693471636788302e-14 3.2628555643586193e-15
4.940699165968905 7.096729176998478e-22 9.307136344753321e-14 8.965618087059671e-14 3.415182576936501e-15
5.015371051989984 7.211443863631352e-22 9.60051939127476e-14 9.243527779637237e-14 3.569916116375228e-15
5.091171501069577 7.34386052070668e-22 9.924567271289127e-14 9.551535908349657e-14 3.730313629394682e-15
5.129500256944802 7.409888052809755e-22 1.0089186166506052e-13 9.708057691064856e-14 3.81128475441197e-15
5.168117569889187 7.477392222206155e-22 1.0257746918594553e-13 9.868395615377997e-14 3.893513032165554e-15
5.20702561229733 7.558639832328719e-22 1.0447269517391877e-13 1.0048964059138727e-13 3.983054582531501e-15
5.246226572918644 7.640372474537767e-22 1.0639739800759012e-13 1.0232404206311453e-13 4.073355944475624e-15
5.265937586045735 7.681430036261993e-22 1.0737105482921912e-13 1.0325227289882542e-13 4.118781930393685e-15
5.285722656980489 7.722620349297998e-22 1.0835238867945584e-13 1.0418800245583649e-13 4.164386223619329e-15
5.305582063971359 7.763947529727797e-22 1.0934150846748519e-13 1.0513134362385125e-13 4.210164843633965e-15
5.3255160863122235 7.80802977151575e-22 1.1037547727051028e-13 1.0611901690825906e-13 4.256460362251238e-15
5.365609099470188 7.917044923008176e-22 1.1275909254410881e-13 1.0840685034347293e-13 4.35224220063589e-15
5.406003951863644 8.028077856459582e-22 1.1520129670237852e-13 1.1075247949625024e-13 4.448817206128291e-15
5.446702915881641 8.141254611051466e-22 1.1770487705510494e-13 1.1315872308401779e-13 4.546153971087151e-15
5.487708281020852 8.261760305128773e-22 1.2034638260365345e-13 1.157017632423281e-13 4.644619361325345e-15
5.529022354014368 8.429993867223705e-22 1.2372146034065742e-13 1.1897416754665944e-13 4.7472927939979835e-15
5.570647458961463 8.604826342519423e-22 1.2723811248235192e-13 1.223873047267621e-13 4.850807755589812e-15
5.612585937458331 8.786776983900143e-22 1.3090674993007947e-13 1.2595161739938454e-13 4.9551325306949605e-15
5.654840148729818 8.984136972822336e-22 1.348547134122753e-13 1.2979398340019438e-13 5.060730012080891e-15
5.67608639626678 9.120338338142142e-22 1.37413493208935e-13 1.322975254232232e-13 5.115967785711783e-15
5.686739436050992 9.190053704607608e-22 1.3872374734379296e-13 1.335800727806131e-13 5.1436745631798725e-15
5.6974124697621304 9.26088071570833e-22 1.400552474416437e-13 1.3488380816115408e-13 5.1714392804895896e-15
5.718818669136295 9.4059793080754e-22 1.4278407695479972e-13 1.375569363997109e-13 5.2271405550888264e-15
5.740305295436557 9.565569152866415e-22 1.4575224052851715e-13 1.4046876791742272e-13 5.283472611094436e-15
5.7835210386641895 9.981833968737393e-22 1.5323998281997512e-13 1.4784001699657487e-13 5.3999658234002706e-15
5.827062130521658 1.0454494852610643e-21 1.6170451081994744e-13 1.5618604477569465e-13 5.518466044252745e-15
5.8489554468988025 1.0790454254597341e-21 1.6752802716350557e-13 1.619456084638938e-13 5.582418699611821e-15
5.870931020387893 1.1147273971457861e-21 1.737181060648458e-13 1.6807138805251003e-13 5.646718012335774e-15
5.892989160043636 1.152659946115626e-21 1.8030438021455254e-13 1.7459301963774117e-13 5.7113605768113174e-15
5.915130176081913 1.195682007080335e-21 1.8773680981731728e-13 1.8195845048997618e-13 5.778359327341117e-15
5.95966208400165 1.316723091383175e-21 2.0829820172254486e-13 2.0236735027110808e-13 5.930851451436799e-15
6.004529249263818 1.490566359090968e-21 2.3757443936187587e-13 2.314720713041492e-13 6.1023680577266845e-15
6.027089341400364 1.611512170277729e-21 2.578164665266175e-13 2.5161508244831216e-13 6.201384078305275e-15
6.049734195844842 1.7535241526873853e-21 2.8159016279504217e-13 2.7528390787095275e-13 6.3062549240894196e-15
6.095279466722835 2.163651443676666e-21 3.5006634047052553e-13 3.435026024938483e-13 6.563737976677161e-15
6.141167624020661 2.7912954322535833e-21 4.550154984905922e-13 4.4811793592608404e-13 6.897562564508084e-15
6.164241091010745 3.1919204069803713e-21 5.22277242602108e-13 5.151703330134316e-13 7.106909588676277e-15
6.187401249150058 3.644369410894903e-21 5.985495469725081e-13 5.912275882316881e-13 7.321958740819958e-15
6.1990139391386085 3.864703854101897e-21 6.359284667611827e-13 6.28497067856161e-13 7.43139890502167e-15
6.204828454712694 3.980432686043182e-21 6.555857362653e-13 6.480990516344422e-13 7.486684630857674e-15
6.210648424152782 4.064523012317251e-21 6.700635053606446e-13 6.625296770703753e-13 7.5338282902694e-15
6.233982942956859 4.347928736210423e-21 7.194779026317526e-13 7.117795360808761e-13 7.698366550876423e-15
6.239830258556775 4.382869723391753e-21 7.259400728342886e-13 7.182187438239928e-13 7.721329010295744e-15
6.245683058788269 4.383877090284293e-21 7.267879938569659e-13 7.19043662597871e-13 7.744331259094795e-15
6.257405133728602 4.371443919837005e-21 7.260869287220378e-13 7.183022587707322e-13 7.784669951305831e-15
6.269149208991335 4.309912347742345e-21 7.172102328954942e-13 7.094103683934983e-13 7.79986450199602e-15
6.280915325867298 4.1624868743212326e-21 6.939772741515456e-13 6.861933172096477e-13 7.783956941897973e-15
6.304513850009849 3.801771946624584e-21 6.362196785235819e-13 6.284956912944357e-13 7.723987229145994e-15
6.32820103803542 3.3591108115474427e-21 5.642532008953304e-13 5.566191400554056e-13 7.634060839924884e-15
6.3519772230701035 2.9543595473708495e-21 4.981288705232808e-13 4.905752162599998e-13 7.553654263281147e-15
6.375842739491607 2.613081668886048e-21 4.422420280749821e-13 4.3475902977274353e-13 7.482998302238683e-15
6.399797922933955 2.3412041725278214e-21 3.9771775896733917e-13 3.9026983981015204e-13 7.447919157187113e-15
6.42384311029221 2.114378080942721e-21 3.605346472655182e-13 3.531147260454059e-13 7.419921220112365e-15
6.447978639727206 1.9494020452555894e-21 3.336525439788933e-13 3.2623284443173823e-13 7.419699547155041e-15
6.472204850670314 1.8114617816041528e-21 3.112080793809552e-13 3.037830783733993e-13 7.425001007555846e-15
6.496522083828205 1.721546162888294e-21 2.968718541060124e-13 2.894190156549471e-13 7.452838451065334e-15
