Dust emission spectrum from A.P. Jones, M. Kohler, N. Ysard, M. Bocchio, and L. Verstraete (2017), A&A, 602A, 46J 
inside the DustPedia framework.

lambda    nu*dP/dnu     j_nu    j_nu(carb.) j_nu(sil)
 (um)   (erg s-1 H-1) (Jy cm2 sr-1 H-1)
0.9927057738263894 5.227226249147902e-21 1.3774038067028434e-13 1.3774037712692442e-13 3.54335992928409e-21
1.0001793341362166 5.315111306349742e-21 1.4111061141843102e-13 1.4111060715432855e-13 4.264102451014962e-21
1.0077091589558085 5.403345315996823e-21 1.445331147869922e-13 1.4453310966238e-13 5.124612193727193e-21
1.0114953028030835 5.447589129420509e-21 1.4626406793169144e-13 1.462640623165555e-13 5.615135900011059e-21
1.0152956718711033 5.491915391337033e-21 1.4800820979521767e-13 1.4800820364466023e-13 6.1505574591047075e-21
1.0229392996569957 5.580765989137548e-21 1.5153505434749817e-13 1.5153504697536287e-13 7.372135280702557e-21
1.0267826658714554 5.6251893918468935e-21 1.533151634844085e-13 1.5331515541705985e-13 8.067348693165121e-21
1.0306404723013447 5.669687122923237e-21 1.5510854330981322e-13 1.5510853448463725e-13 8.825175941666458e-21
1.03451277320114 5.7142578114509944e-21 1.5691523840993808e-13 1.5691522875896825e-13 9.650969838145997e-21
1.0383996230291617 5.7589001282531985e-21 1.5873529441499391e-13 1.5873528386447946e-13 1.055051446301546e-20
1.0403485208654093 5.7812477435606575e-21 1.5965034731350726e-13 1.5965033628363056e-13 1.1029876690803131e-20
1.0423010764483396 5.803612786940647e-21 1.6056875804689994e-13 1.6056874651684236e-13 1.153005762329634e-20
1.0462171883269815 5.848394544953345e-21 1.6241567716766303e-13 1.6241566457131748e-13 1.259634556620739e-20
1.0471985131304309 5.85960063987048e-21 1.6287951508933104e-13 1.6287950221201863e-13 1.2877312437108264e-20
1.048180758391296 5.870810960145643e-21 1.6334419781703726e-13 1.633441846527649e-13 1.316427240695044e-20
1.0501480137395462 5.893244204593628e-21 1.6427610082840086e-13 1.6427608707174076e-13 1.3756660090522342e-20
1.0521189612883777 5.91569413576288e-21 1.6521139252708905e-13 1.6521137815257994e-13 1.4374509027844948e-20
1.0531058218030118 5.9269104445251974e-21 1.656798954424448e-13 1.6567988074911883e-13 1.4693326003175528e-20
1.0540936079674168 5.938082154971402e-21 1.6614788402940422e-13 1.661478690104307e-13 1.5018973529669433e-20
1.058054026499678 5.982807886437755e-21 1.6802826180489603e-13 1.6802824541294586e-13 1.6391950182351128e-20
1.0590464539527713 5.9939989602480905e-21 1.685004661694553e-13 1.6850044941595005e-13 1.67535052678531e-20
1.06003981227728 6.005193858516795e-21 1.6897351614676456e-13 1.689734990240846e-13 1.7122679965243983e-20
1.0620293250338977 6.027595066140071e-21 1.6992215627267257e-13 1.6992213838817142e-13 1.7884501160260498e-20
1.0660195594769086 6.072442700674684e-21 1.7182962085632346e-13 1.718296013498379e-13 1.950648560929492e-20
1.070024785945596 6.117349847029268e-21 1.7375071043456273e-13 1.737506891660362e-13 2.1268526522542782e-20
1.0740450607676866 6.162315613548361e-21 1.7568548139396928e-13 1.7568545821190347e-13 2.318206582135107e-20
1.07808044048254 6.207339160886641e-21 1.7763399168228263e-13 1.776339664228595e-13 2.5259423085867557e-20
1.0861967418109137 6.2974875788033896e-21 1.8157048279007348e-13 1.8157045283043226e-13 2.9959641178079366e-20
1.0902777775684922 6.3424543220086415e-21 1.8355403734270974e-13 1.8355400473058756e-13 3.261212220279359e-20
1.0943741465085532 6.3874733259700476e-21 1.8555145205122897e-13 1.8555141656343632e-13 3.548779273541664e-20
1.1026131145906286 6.477665970760775e-21 1.8958812699905147e-13 1.8958808501809883e-13 4.198095266399305e-20
1.1109141095355224 6.568061809316443e-21 1.9368105712606734e-13 1.9368100752869639e-13 4.9597371011205893e-20
1.1192775983109025 6.658587286953634e-21 1.9782872044994743e-13 1.9782866193047967e-13 5.851946778030871e-20
1.1277040513999907 6.748915171189466e-21 2.0202194273059306e-13 2.0202187377336257e-13 6.895723049963855e-20
1.1361939428280308 6.839430460600569e-21 2.062727416416535e-13 2.062726604896064e-13 8.115204707853591e-20
1.1447477501889525 6.93013353160937e-21 2.1058180043756648e-13 2.10581705056542e-13 9.538102451976526e-20
1.1533659546722406 7.021058105100415e-21 2.1495083073584824e-13 2.1495071877384538e-13 1.1196200280915535e-19
1.1707974979042381 7.203847064557294e-21 2.2388020865553068e-13 2.2388005496654265e-13 1.536889880080745e-19
1.1884924949847024 7.387549950625664e-21 2.330592298762329e-13 2.330590199669078e-13 2.099093251343713e-19
1.2064549276569216 7.573407633397029e-21 2.4253357460159846e-13 2.425332893230813e-13 2.8527851717150027e-19
1.2246888378427687 7.760215646561776e-21 2.5227196065711416e-13 2.522715748493038e-13 3.858078104266849e-19
1.2431983285522175 7.947821301339594e-21 2.622756333745295e-13 2.622751141429924e-13 5.19231537070071e-19
1.2619875648066055 8.136497345536362e-21 2.7255992162655684e-13 2.72559226176159e-13 6.954503978970059e-19
1.3004222497298317 8.515894615397908e-21 2.939572006419304e-13 2.939559706211172e-13 1.2300208131889091e-18
1.3400274889804893 8.899527973614833e-21 3.165556818088353e-13 3.165535462256519e-13 2.1355831833762763e-18
1.3808389325824078 9.28877158595965e-21 3.404636415874693e-13 3.404600000688594e-13 3.6415186098469825e-18
1.4228933163050095 9.686842887643885e-21 3.6586766470343754e-13 3.6586156335316295e-13 6.1013502745165094e-18
1.466228494730424 1.0100596532712244e-20 3.9311363914284154e-13 3.931035891863892e-13 1.0049956452406179e-17
1.5108834753276823 1.0529084709465854e-20 4.2227077379775656e-13 4.2225449251251187e-13 1.6281285244672768e-17
1.5568984535646726 1.0971780729036891e-20 4.5342643900678914e-13 4.5340046982977664e-13 2.596917701249278e-17
1.6043148490894465 1.1431069852913694e-20 4.867947826521037e-13 4.867539238806542e-13 4.085877144949274e-17
1.6531753430134553 1.190941509376211e-20 5.22611286620494e-13 5.225479501281774e-13 6.333649231663736e-17
1.7035239163302658 1.240966072957424e-20 5.6114820313018e-13 5.610514498954757e-13 9.675323470434403e-17
1.755405889504358 1.294064352901673e-20 6.029799316140664e-13 6.028342059167331e-13 1.4572569733318527e-16
1.8088679632656115 1.3501690743027853e-20 6.482827360124631e-13 6.480662556010626e-13 2.1648041140048204e-16
1.8639582606462262 1.4091734118945482e-20 6.972203531082222e-13 6.969030427331967e-13 3.1731037502555057e-16
1.9207263702978936 1.471152475106947e-20 7.500541508597421e-13 7.49595063712938e-13 4.590871468041283e-16
1.979223391128241 1.5362505768652462e-20 8.070980666318207e-13 8.064421975210886e-13 6.558691107322335e-16
2.039501978296691 1.6045556779476315e-20 8.686570638264991e-13 8.677315066719296e-13 9.255571545694357e-16
2.1016163906111602 1.6766222734849046e-20 9.353154564179204e-13 9.340247408821874e-13 1.290715535733034e-15
2.1656225393682647 1.752605976902642e-20 1.007480117895278e-12 1.0057008301063339e-12 1.7792877889442696e-15
2.231578038680979 1.8320991460275192e-20 1.0852517232797812e-12 1.0828263250928902e-12 2.4253981868910608e-15
2.299542257339062 1.9149349595846723e-20 1.1688663487568467e-12 1.1655961704194837e-12 3.2701783373629703e-15
2.369576372248914 2.0011107581407396e-20 1.2586682306425515e-12 1.2543055939706068e-12 4.3626366719446084e-15
2.4417434235010123 2.0906646833522288e-20 1.355045388944831e-12 1.349285107480438e-12 5.760281464393286e-15
2.5161083711144245 2.183994883269745e-20 1.4586476351666633e-12 1.451117677834891e-12 7.529957331772538e-15
2.5927381535095444 2.2819778593375194e-20 1.5705057039347636e-12 1.560757415468201e-12 9.748288466562692e-15
2.6717017477616296 2.3853238682680933e-20 1.6916275967466297e-12 1.6791261686565855e-12 1.2501428090044213e-14
2.753070231689431 2.4952456272017365e-20 1.8234758954961097e-12 1.8075908444441314e-12 1.5885051051978178e-14
2.836916847834745 2.6156023790966372e-20 1.969644117116918e-12 1.949639427666335e-12 2.0004689450583984e-14
2.9233170693905177 2.755281869692604e-20 2.138018161225552e-12 2.1130482321786477e-12 2.496992904690498e-14
2.967498994190263 2.8412012186827667e-20 2.2380099125176548e-12 2.2102587447391244e-12 2.775116777852996e-14
3.0123486681368425 2.933131567646765e-20 2.345342186584481e-12 2.314540130583872e-12 3.0802056000608724e-14
3.0578761833420214 3.085545707831659e-20 2.504501601129871e-12 2.470347384624761e-12 3.415421650510949e-14
3.1040917844459814 3.2643598365636464e-20 2.6896886680134093e-12 2.6518927396700513e-12 3.779592834335787e-14
3.127460860933648 3.4310563908556155e-20 2.848322577351104e-12 2.8085792279489717e-12 3.9743349402131584e-14
3.1510058709225794 3.64310366761257e-20 3.0471243313399267e-12 3.0053528491584434e-12 4.177148218148337e-14
3.162844764501044 3.835158205470964e-20 3.2198125868196093e-12 3.176992223854653e-12 4.282036296495513e-14
3.1747281389236908 4.052556015446021e-20 3.415112391295937e-12 3.3712223001616213e-12 4.389009113431621e-14
3.1986289994194426 4.641517480745359e-20 3.940880753343187e-12 3.894782081609198e-12 4.609867173398923e-14
3.2227097969389145 6.00589612571679e-20 5.13769654103215e-12 5.0892593871524344e-12 4.843715387971414e-14
3.2348180950136065 7.286173373290749e-20 6.2563177501560375e-12 6.206633103002154e-12 4.9684647153884674e-14
3.240889293275058 8.242612438057756e-20 7.090853441988281e-12 7.040510772615051e-12 5.034266937323095e-14
3.2469718861334385 9.351075756367382e-20 8.059526669629139e-12 8.008503142931446e-12 5.102352669769539e-14
3.2714166318528037 1.5167796278860563e-19 1.3171273784490614e-11 1.3117438085610595e-11 5.383569888002287e-14
3.2744851364798273 1.5531294172610758e-19 1.3499575187137279e-11 1.3445408490409692e-11 5.416669672758542e-14
3.2775565192852394 1.5904512869212042e-19 1.3836937983975557e-11 1.378243867268882e-11 5.449931128673235e-14
3.283707930232385 1.5545987245203443e-19 1.3550404566938646e-11 1.349531126101172e-11 5.5093305926928496e-14
3.2898708863219004 1.4406442795292702e-19 1.2580706949801869e-11 1.2525073836491736e-11 5.563311331014036e-14
3.29141343181113 1.4137130445013348e-19 1.2351313226272886e-11 1.2295544583981115e-11 5.576864229177302e-14
3.292184975758714 1.4004713136356172e-19 1.2238491177854523e-11 1.2182654684415327e-11 5.583649343919588e-14
3.295272960557952 1.317898995190313e-19 1.1527707668891449e-11 1.1471607391050112e-11 5.610027784133595e-14
3.3076538914384823 1.029680366365174e-19 9.040489042279262e-12 8.983329660734995e-12 5.715938154426564e-14
3.310756385682612 9.704101847517519e-20 8.528094504463945e-12 8.470668245703695e-12 5.742625876024905e-14
3.313861789986515 9.154856099409152e-20 8.052956381949225e-12 7.995262404379529e-12 5.769397756969337e-14
3.3200813396944477 8.387773239273338e-20 7.392049011772926e-12 7.333778843975948e-12 5.827016779697805e-14
3.345076488085796 7.048063945889359e-20 6.258140677684579e-12 6.197301836306615e-12 6.083884137796179e-14
3.3482140837626964 7.1024887078771e-20 6.312380998215798e-12 6.2511941506312896e-12 6.11868475845081e-14
3.3513546224236106 7.157407206040402e-20 6.367156787600977e-12 6.305620407334758e-12 6.1536380266218e-14
3.3576445397418455 7.542833584119612e-20 6.722621751666032e-12 6.66035444610211e-12 6.226730556392355e-14
3.3702598118196083 8.939071084297545e-20 7.99696519071432e-12 7.933164810956881e-12 6.380037975743956e-14
3.382922481734668 9.272490782083556e-20 8.326411867456762e-12 8.261122544787147e-12 6.52893226696139e-14
3.389271646505754 9.44436423058338e-20 8.49666585411041e-12 8.430622070751088e-12 6.604378335932407e-14
3.395632727569191 9.633427203243671e-20 8.683023245303304e-12 8.616201944691022e-12 6.682130061228234e-14
3.421196662673239 1.0550474957754235e-19 9.581190688746951e-12 9.511152111503689e-12 7.003857724326498e-14
3.4276182099114902 1.0384971159563125e-19 9.448593591748847e-12 9.377838314927654e-12 7.075527682119237e-14
3.4340518103208963 9.633327312563015e-20 8.781174202080167e-12 8.70974167941302e-12 7.143252266714645e-14
3.4469541582030403 8.554889679878631e-20 7.827432914558466e-12 7.75470177726202e-12 7.27311372964457e-14
3.472904465399547 8.256351753439068e-20 7.611153084270616e-12 7.535428597332824e-12 7.572448693779486e-14
3.4990501388274233 7.804542943853095e-20 7.248815955434107e-12 7.170031211428484e-12 7.878474400562233e-14
3.5253949054701885 6.20044820499018e-20 5.80230146935663e-12 5.720548313679107e-12 8.175315567752275e-14
3.5519380250092896 4.6736827583510985e-20 4.4065027190603664e-12 4.32176977208259e-12 8.473294697777787e-14
3.578680990867387 4.0797235240249326e-20 3.875459049011222e-12 3.787460679845964e-12 8.799836916525862e-14
3.605625307711299 3.8528802251790386e-20 3.687529766275542e-12 3.596094595654922e-12 9.143517062062045e-14
3.660119384959845 3.713489571645864e-20 3.6078368746417604e-12 3.50919183615835e-12 9.864503848341002e-14
3.715437065384467 3.621374184518831e-20 3.571517181388983e-12 3.4652870513619533e-12 1.0623013002703002e-13
3.8285932144167436 3.6270983631122684e-20 3.686107457992728e-12 3.5636298439448333e-12 1.2247761404789508e-13
3.94519561050918 3.679313799251557e-20 3.85305140887371e-12 3.712939262263237e-12 1.4011214661047328e-13
4.06534921144712 3.7468551455230206e-20 4.043283502006885e-12 3.884190935703555e-12 1.5909256630333054e-13
4.189162171576248 3.8204808029776676e-20 4.248294624873978e-12 4.068861769095792e-12 1.7943285577818596e-13
4.316745939156006 3.896248700582525e-20 4.4644975875795116e-12 4.263465478873707e-12 2.0103210870580544e-13
4.448215356677963 3.9723311182489633e-20 4.690300634328395e-12 4.466739136435593e-12 2.2356149789280082e-13
4.58368876423945 4.048371701026253e-20 4.925665712680176e-12 4.678641404024495e-12 2.470243086556796e-13
4.723288106065518 4.1249803391565275e-20 5.171728920526396e-12 4.90018481292912e-12 2.7154410759727377e-13
4.867139040275056 4.203002421298607e-20 5.430037467146616e-12 5.1336144130866816e-12 2.964230540599346e-13
4.940699165968905 4.245079618088407e-20 5.56728794554233e-12 5.258220078410147e-12 3.0906786713218416e-13
5.015371051989984 4.285607832546422e-20 5.705384646652808e-12 5.3835789407293714e-12 3.218057059234358e-13
5.091171501069577 4.332633918857364e-20 5.855165232009501e-12 5.5202459210051156e-12 3.3491931100438673e-13
5.129500256944802 4.3554937835545396e-20 5.930371324932322e-12 5.588876441517404e-12 3.414948834149177e-13
5.168117569889187 4.378642051208263e-20 6.006773574752806e-12 5.658622989336857e-12 3.481505854159487e-13
5.20702561229733 4.4076171453532164e-20 6.092043710038211e-12 5.736601935350727e-12 3.5544177468748427e-13
5.246226572918644 4.436353174406464e-20 6.1779243874902436e-12 5.8151608337446446e-12 3.62763553745599e-13
5.265937586045735 4.450634252475497e-20 6.221098051944146e-12 5.854663232113091e-12 3.6643481983105407e-13
5.285722656980489 4.464858936966261e-20 6.264429805630503e-12 5.894317392466058e-12 3.7011241316444323e-13
5.305582063971359 4.479028475769214e-20 6.307921687185811e-12 5.9341258002385975e-12 3.7379588694721296e-13
5.3255160863122235 4.4942864979944116e-20 6.353190647610006e-12 5.975674435276647e-12 3.7751621233335565e-13
5.365609099470188 4.5334949265991166e-20 6.4568633745026624e-12 6.071648258173211e-12 3.852151163294513e-13
5.406003951863644 4.57298295893928e-20 6.562138236412322e-12 6.1691945811119415e-12 3.92943655300379e-13
5.446702915881641 4.6127933624311255e-20 6.669098333671161e-12 6.268400086439302e-12 4.006982472318587e-13
5.487708281020852 4.655141543058646e-20 6.78099369292178e-12 6.372482884316905e-12 4.0851080860487683e-13
5.529022354014368 4.7172145583950505e-20 6.923144703271913e-12 6.506490546517568e-12 4.166541567543431e-13
5.570647458961463 4.7811912029795273e-20 7.0698666058869104e-12 6.6450396688072505e-12 4.2482693707965954e-13
5.612585937458331 4.847255261899816e-20 7.221515165110424e-12 6.788489664609174e-12 4.3302550050124893e-13
5.654840148729818 4.918865577819468e-20 7.383371489292495e-12 6.942081786613797e-12 4.412897026786975e-13
5.67608639626678 4.970055636610268e-20 7.48823871602657e-12 7.042620343985169e-12 4.4561837204140097e-13
5.686739436050992 4.9961921260512157e-20 7.541745853213922e-12 7.0939600384628045e-12 4.477858147511178e-13
5.6974124697621304 5.0227022737455996e-20 7.59599255589096e-12 7.14603730352451e-12 4.499552523664504e-13
5.718818669136295 5.076883061273762e-20 7.7067792514606e-12 7.252479371663888e-12 4.542998797967107e-13
5.740305295436557 5.136743554102917e-20 7.826945475654897e-12 7.36825904253601e-12 4.586864331188863e-13
5.7835210386641895 5.2955236264006777e-20 8.129627802605671e-12 7.66187818099945e-12 4.677496216062223e-13
5.827062130521658 5.475399607174833e-20 8.469054005042069e-12 7.99212047334958e-12 4.769335316924903e-13
5.8489554468988025 5.605613253121213e-20 8.703037955393666e-12 8.221128895375964e-12 4.819090600176999e-13
5.870931020387893 5.743448223367142e-20 8.950537595106374e-12 8.463637539362063e-12 4.869000557443115e-13
5.892989160043636 5.889509835599168e-20 9.212642672747968e-12 8.720736614298176e-12 4.919060584497928e-13
5.915130176081913 6.055438195667199e-20 9.507784194866716e-12 9.010683804951507e-12 4.971003899152107e-13
5.95966208400165 6.526654081729717e-20 1.0324800388070257e-11 9.815768260372773e-12 5.090321276974839e-13
6.004529249263818 7.205316917410377e-20 1.1484219515878262e-11 1.0961706925402935e-11 5.225125904753299e-13
6.027089341400364 7.678882101970227e-20 1.2284997202740696e-11 1.1754647759960272e-11 5.303494427804305e-13
6.049734195844842 8.233915225446418e-20 1.322245562013303e-11 1.2683794602064271e-11 5.386610180687622e-13
6.095279466722835 9.838761605650518e-20 1.591854954326317e-11 1.5359295516665873e-11 5.592540265972965e-13
6.141167624020661 1.2289825164068446e-19 2.003392711059615e-11 1.9447744209468987e-11 5.861829011271681e-13
6.164241091010745 1.3852051188318736e-19 2.2665386903749494e-11 2.206220551804798e-11 6.031813857015115e-13
6.187401249150058 1.56089830713762e-19 2.5636121624068812e-11 2.501550406656335e-11 6.206175575054625e-13
6.1990139391386085 1.6461874581474976e-19 2.708765032927735e-11 2.645816423924912e-11 6.29486090028238e-13
6.204828454712694 1.6909245481846996e-19 2.784988724411027e-11 2.721592373944636e-11 6.339635046639078e-13
6.210648424152782 1.7232125603371707e-19 2.840829896058885e-11 2.777054238840685e-11 6.377565721820014e-13
6.233982942956859 1.8312050175296824e-19 3.03020501308703e-11 2.9651161016918164e-11 6.5088911395213e-13
6.239830258556775 1.8440243755021773e-19 3.0542801268213785e-11 2.989015908877781e-11 6.526421794359721e-13
6.245683058788269 1.8435623116306822e-19 3.056378923099515e-11 2.9909391893430814e-11 6.543973375643289e-13
6.257405133728602 1.8369757223297713e-19 3.051175046100335e-11 2.985432149841838e-11 6.574289625849759e-13
6.269149208991335 1.8111848904770485e-19 3.013983191088091e-11 2.948148485367541e-11 6.583470572055056e-13
6.280915325867298 1.7518815227524514e-19 2.920768282289076e-11 2.855102860048652e-11 6.566542224042365e-13
6.304513850009849 1.607887009139276e-19 2.6907699105020764e-11 2.6256789074398795e-11 6.509100306219668e-13
6.32820103803542 1.432667579704946e-19 2.4065513554614815e-11 2.3422856737478122e-11 6.426568171366876e-13
6.3519772230701035 1.2728649348201964e-19 2.1461530397507974e-11 2.082632464271426e-11 6.352057547937142e-13
6.375842739491607 1.1380983756770176e-19 1.9261354889945306e-11 1.8632775399666117e-11 6.28579490279191e-13
6.399797922933955 1.03096014524089e-19 1.7513686476439797e-11 1.6888764357210096e-11 6.249221192297017e-13
6.42384311029221 9.41487966350278e-20 1.60538474605017e-11 1.543198929636056e-11 6.218581641411451e-13
6.447978639727206 8.763120902365834e-20 1.4998638117698423e-11 1.4377534092462127e-11 6.21104025236297e-13
6.472204850670314 8.217164873966326e-20 1.4117041410164998e-11 1.3496234856903227e-11 6.208065532617729e-13
6.496522083828205 7.858454546564961e-20 1.3551504002265557e-11 1.2929128201218435e-11 6.223758010471203e-13
