Dust emission spectrum from A.P. Jones, M. Kohler, N. Ysard, M. Bocchio, and L. Verstraete (2017), A&A, 602A, 46J 
inside the DustPedia framework.

lambda    nu*dP/dnu     j_nu    j_nu(carb.) j_nu(sil)
 (um)   (erg s-1 H-1) (Jy cm2 sr-1 H-1)
0.9927057738263894 9.09449215744349e-24 2.396450339170574e-16 2.396450337677244e-16 1.4933304318507059e-25
1.0001793341362166 9.24481726372204e-24 2.4544016885911713e-16 2.454401686792608e-16 1.7985628953820136e-25
1.0077091589558085 9.394989726934036e-24 2.5130489524804e-16 2.513048950317022e-16 2.163377754469605e-25
1.0114953028030835 9.470001163156993e-24 2.542630988744436e-16 2.5426309863729317e-16 2.3715049999135557e-25
1.0152956718711033 9.544953435967602e-24 2.5723838951793105e-16 2.572383892580501e-16 2.5988090328928745e-25
1.0229392996569957 9.694579195514932e-24 2.6323780429566265e-16 2.632378039838771e-16 3.117855490307408e-25
1.0267826658714554 9.769072019551841e-24 2.662571461041604e-16 2.6625714576281063e-16 3.4134983986359574e-25
1.0306404723013447 9.843474319659553e-24 2.692929838503577e-16 2.69292983476762e-16 3.7359561457860317e-25
1.03451277320114 9.91777931529366e-24 2.7234520336793933e-16 2.7234520295918514e-16 4.087541063879214e-25
1.0383996230291617 9.991980267708858e-24 2.754136891178678e-16 2.7541368867079245e-16 4.470753757075702e-25
1.0403485208654093 1.0029039633624145e-23 2.7695399535721783e-16 2.769539948897122e-16 4.675056950319361e-25
1.0423010764483396 1.0066070481351514e-23 2.784983242231771e-16 2.7849832373434747e-16 4.888297454008919e-25
1.0462171883269815 1.0140043305224937e-23 2.815989905039271e-16 2.8159898996961783e-16 5.343093373498137e-25
1.0471985131304309 1.0158517393979201e-23 2.823766479748423e-16 2.823766474285445e-16 5.462977418824287e-25
1.048180758391296 1.0176983630075072e-23 2.831552980562149e-16 2.831552974976712e-16 5.585437427881026e-25
1.0501480137395462 1.0213892134227218e-23 2.8471556851230495e-16 2.847155679284752e-16 5.838297168792318e-25
1.0521189612883777 1.0250767999429694e-23 2.8627978674889775e-16 2.8627978613868707e-16 6.102106569199858e-25
1.0531058218030118 1.0269165389784183e-23 2.870625874956872e-16 2.870625868718605e-16 6.238266494216818e-25
1.0540936079674168 1.0287462422017474e-23 2.8784379684259277e-16 2.8784379620485627e-16 6.377364369008044e-25
1.058054026499678 1.0360560081660084e-23 2.909782387953413e-16 2.9097823809893596e-16 6.964052341157276e-25
1.0590464539527713 1.0378811377884204e-23 2.9176424071083774e-16 2.9176423999897695e-16 7.118608738647087e-25
1.06003981227728 1.0397053226797589e-23 2.925511952966271e-16 2.9255119456898245e-16 7.276447197529386e-25
1.0620293250338977 1.0433508184658842e-23 2.941279546439607e-16 2.9412795388373695e-16 7.602236775760677e-25
1.0660195594769086 1.0506300365909582e-23 2.9729281896333376e-16 2.9729281813371334e-16 8.296204056488082e-25
1.070024785945596 1.0578930313741627e-23 3.0047270527497515e-16 3.004727043699175e-16 9.050576472903893e-25
1.0740450607676866 1.0651391771071254e-23 3.0366748608302696e-16 3.036674850959932e-16 9.870336781806498e-25
1.07808044048254 1.0723678536527435e-23 3.0687703291032956e-16 3.0687703183424405e-16 1.0760854424369026e-24
1.0861967418109137 1.0867576941789901e-23 3.133362578944545e-16 3.1333625661668e-16 1.2777744259380363e-24
1.0902777775684922 1.0938888738971481e-23 3.1657732009412856e-16 3.165773187024231e-16 1.3917054221205576e-24
1.0943741465085532 1.1009996589325639e-23 3.1983238911110406e-16 3.198323875957986e-16 1.5153055151280005e-24
1.1026131145906286 1.1151577026145314e-23 3.2638401100269113e-16 3.26384009208015e-16 1.794676100210636e-24
1.1109141095355224 1.1292272039894426e-23 3.329900432635398e-16 3.329900411407177e-16 2.1228220692597413e-24
1.1192775983109025 1.1431907370042542e-23 3.396455599146354e-16 3.3964555740688273e-16 2.5077526278911123e-24
1.1277040513999907 1.1569845923696742e-23 3.463316238699885e-16 3.4633162091128477e-16 2.9587038449299267e-24
1.1361939428280308 1.1706748258149048e-23 3.5306785745212677e-16 3.530678539658158e-16 3.486311106172725e-24
1.1447477501889525 1.1842572785747955e-23 3.598531381337749e-16 3.598531340309691e-16 4.102805754087531e-24
1.1533659546722406 1.1977350964115065e-23 3.6668853913644187e-16 3.666885343141994e-16 4.822242456151069e-24
1.1707974979042381 1.2244202694324236e-23 3.805237159340475e-16 3.805237092972212e-16 6.63682626737634e-24
1.1884924949847024 1.2506349999055407e-23 3.9454491933359146e-16 3.945449102446268e-16 9.08896452580062e-24
1.2064549276569216 1.2765821734954928e-23 4.088173419389329e-16 4.0881732955264747e-16 1.238628534116464e-23
1.2246888378427687 1.3019889263618138e-23 4.232553760959857e-16 4.2325535929807615e-16 1.679790958188493e-23
1.2431983285522175 1.326799665475973e-23 4.378397669373518e-16 4.378397442658909e-16 2.267146087418493e-23
1.2619875648066055 1.3510097448349714e-23 4.525671115359536e-16 4.525670810822841e-16 3.0453669336479665e-23
1.3004222497298317 1.3972519105479726e-23 4.8231252119256e-16 4.823124670104684e-16 5.418209144060081e-23
1.3400274889804893 1.4405710691402287e-23 5.124102742727152e-16 5.124101796261268e-16 9.464658865215255e-23
1.3808389325824078 1.480847251481566e-23 5.42778604478001e-16 5.427784420772573e-16 1.624007438309387e-22
1.4228933163050095 1.5183001670524043e-23 5.73455090457666e-16 5.734548166043802e-16 2.7385328576921657e-22
1.466228494730424 1.553804442265916e-23 6.047382615840886e-16 6.047378075266203e-16 4.540574683832638e-22
1.5108834753276823 1.586775320879675e-23 6.363790026199112e-16 6.363782620648174e-16 7.405550938003202e-22
1.5568984535646726 1.6167484163917768e-23 6.681472181396198e-16 6.681460287890445e-16 1.1893505751448732e-21
1.6043148490894465 1.6438183056763937e-23 7.00023869268303e-16 7.000219848990341e-16 1.884369268912011e-21
1.6531753430134553 1.668104500676773e-23 7.320008853942282e-16 7.3199794350665e-16 2.941887578171229e-21
1.7035239163302658 1.6898835482874315e-23 7.641426605328954e-16 7.641381337007849e-16 4.526832110459055e-21
1.755405889504358 1.7105222906059785e-23 7.970319339229171e-16 7.970250649989535e-16 6.868923963716481e-21
1.8088679632656115 1.7297512124213685e-23 8.305388339519362e-16 8.305285522852603e-16 1.0281666675619862e-20
1.8639582606462262 1.747397127966261e-23 8.645641709510907e-16 8.645489832562749e-16 1.5187694815526723e-20
1.9207263702978936 1.7636663710728907e-23 8.991897881005122e-16 8.991676399083438e-16 2.214819216831588e-20
1.979223391128241 1.778974668858243e-23 9.346177228146386e-16 9.345858242523733e-16 3.189856226509211e-20
2.039501978296691 1.7938017314640045e-23 9.711090531513907e-16 9.710636646050854e-16 4.538854630536228e-20
2.1016163906111602 1.8094351623546806e-23 1.0094060549599632e-15 1.0093422221212996e-15 6.383283866358523e-20
2.1656225393682647 1.8266284002464273e-23 1.0500316787025101e-15 1.049942919075478e-15 8.875962703197755e-20
2.231578038680979 1.845438520063899e-23 1.0931533582386992e-15 1.0930312916920933e-15 1.2206654660578453e-19
2.299542257339062 1.866306826315703e-23 1.1391839888957633e-15 1.1390179071139434e-15 1.660817818201137e-19
2.369576372248914 1.8901809018897377e-23 1.1888950382668292e-15 1.1886714064778374e-15 2.2363178899174206e-19
2.4417434235010123 1.9181714662003244e-23 1.2432454717284706e-15 1.2429473705030545e-15 2.981012254157698e-19
2.5161083711144245 1.9521828458874684e-23 1.3038248914317546e-15 1.3034313823852145e-15 3.9350904653985983e-19
2.5927381535095444 1.9953229403223885e-23 1.3732236910825806e-15 1.3727091206063279e-15 5.145704762523883e-19
2.6717017477616296 2.0512326452159042e-23 1.4546962767425835e-15 1.4540295502337164e-15 6.667265088669635e-19
2.753070231689431 2.125379003234004e-23 1.5531847201499653e-15 1.552328527324039e-15 8.561928259264575e-19
2.836916847834745 2.230248608739316e-23 1.6794586543497279e-15 1.6783686235378835e-15 1.0900308118447126e-18
2.9233170693905177 2.3933514843843182e-23 1.8571707657556988e-15 1.855794833471536e-15 1.3759322841631106e-18
2.967498994190263 2.523928001294068e-23 1.988094277953246e-15 1.986555801338599e-15 1.5384766146466719e-18
3.0123486681368425 2.674527546887805e-23 2.13856151360125e-15 2.13684358147469e-15 1.7179321265604567e-18
3.0578761833420214 2.996745035767073e-23 2.4324231273601677e-15 2.4305068275346597e-15 1.9162998255087494e-18
3.1040917844459814 3.4077959214074433e-23 2.807873681708069e-15 2.805740152155153e-15 2.133529552916139e-18
3.127460860933648 3.835997634281129e-23 3.1844882227842567e-15 3.1822378414440598e-15 2.2503813401962407e-18
3.1510058709225794 4.403941025614323e-23 3.683495469051422e-15 3.681122887711689e-15 2.372581339731971e-18
3.162844764501044 4.9306584571742574e-23 4.139541398597571e-15 4.137105424620295e-15 2.435973977275925e-18
3.1747281389236908 5.541828338913042e-23 4.670130791165371e-15 4.667630027538219e-15 2.5007636271516852e-18
3.1986289994194426 7.242275013338233e-23 6.149054124837565e-15 6.1464191747940035e-15 2.634950043561675e-18
3.2227097969389145 1.1242983577889645e-22 9.617721757069351e-15 9.614944197466536e-15 2.777559602817102e-18
3.2348180950136065 1.5033296708389177e-22 1.2908433030818637e-14 1.290557925688944e-14 2.8537739291929762e-18
3.240889293275058 1.786673305030537e-22 1.537017377668872e-14 1.5367279798506058e-14 2.893978182668003e-18
3.2469718861334385 2.1145145712216007e-22 1.8224626795987194e-14 1.822169121507165e-14 2.9355809155403746e-18
3.2714166318528037 3.8612720030040976e-22 3.353016468109894e-14 3.3527056830356595e-14 3.1078507423385894e-18
3.2744851364798273 3.9705314480236665e-22 3.451128233087769e-14 3.4508154082644584e-14 3.12824823311672e-18
3.2775565192852394 4.0829142146472337e-22 3.5521383928286876e-14 3.55182351714742e-14 3.1487568126749227e-18
3.283707930232385 3.975136729614216e-22 3.464862671348803e-14 3.464544108809251e-14 3.1856253955193148e-18
3.2898708863219004 3.632831507074606e-22 3.1724409167436066e-14 3.172118981152039e-14 3.219355915676033e-18
3.29141343181113 3.552093037417566e-22 3.103388900926705e-14 3.103066117860774e-14 3.2278306593058588e-18
3.292184975758714 3.512418864624863e-22 3.069445755089969e-14 3.0691225476538687e-14 3.2320743610067942e-18
3.295272960557952 3.262166004252794e-22 2.853427781769532e-14 2.853102920263157e-14 3.24861506375519e-18
3.3076538914384823 2.394678115622888e-22 2.1025030651499167e-14 2.1021715507246153e-14 3.3151442530112274e-18
3.310756385682612 2.217976474659465e-22 1.9491873933096155e-14 1.948854200006763e-14 3.3319330285234127e-18
3.313861789986515 2.0548847449581192e-22 1.807554050155806e-14 1.8072191716928477e-14 3.3487846295772158e-18
3.3200813396944477 1.8262625253977938e-22 1.609464360921877e-14 1.6091258659562392e-14 3.3849496563793598e-18
3.345076488085796 1.4192601498533782e-22 1.2601942525215516e-14 1.2598396606930442e-14 3.5459182850697935e-18
3.3482140837626964 1.4346855931597555e-22 1.2750857409504393e-14 1.2747289692252589e-14 3.567717251801835e-18
3.3513546224236106 1.4502793678747364e-22 1.2901538022439513e-14 1.2897948397642264e-14 3.589624797244805e-18
3.3576445397418455 1.5636168222406924e-22 1.3935882773016396e-14 1.3932247375195527e-14 3.6353978208663425e-18
3.3702598118196083 1.980933991074954e-22 1.77215954793742e-14 1.7717864046540495e-14 3.7314328336984385e-18
3.382922481734668 2.076550430346672e-22 1.8646784939403103e-14 1.8642959808763276e-14 3.825130639828262e-18
3.389271646505754 2.1260694959712667e-22 1.9127282312330883e-14 1.91234096184714e-14 3.872693859490028e-18
3.395632727569191 2.1795140069793786e-22 1.9644899355957076e-14 1.9640977641605638e-14 3.9217143514272756e-18
3.421196662673239 2.4363204222617333e-22 2.2124928629323907e-14 2.212080358669182e-14 4.125042632087552e-18
3.4276182099114902 2.3852992177700477e-22 2.1702248910601436e-14 2.169807810591811e-14 4.170804683321148e-18
3.4340518103208963 2.160529575531726e-22 1.9694116016123174e-14 1.9689901741219328e-14 4.214274903844742e-18
3.4469541582030403 1.8402694573064518e-22 1.683783924842094e-14 1.683354115458117e-14 4.298093839770338e-18
3.472904465399547 1.7510530926395992e-22 1.6142157631806434e-14 1.613766697955409e-14 4.490652252337676e-18
3.4990501388274233 1.6143924502782687e-22 1.4994387033421844e-14 1.4989698428707306e-14 4.6886047145361065e-18
3.5253949054701885 1.126638592313602e-22 1.054294228980734e-14 1.0538059950211401e-14 4.8823395959358805e-18
3.5519380250092896 6.67579024402706e-23 6.2941558901529606e-15 6.28907766026548e-15 5.07822988748184e-18
3.578680990867387 4.8597386992593537e-23 4.6164202566584484e-15 4.611127102980443e-15 5.293153678005622e-18
3.605625307711299 4.130111934555352e-23 3.952863781540213e-15 3.9473435266560456e-15 5.5202548841665684e-18
3.660119384959845 3.60807041652537e-23 3.505417005728886e-15 3.4994163438383746e-15 6.000661890512109e-18
3.715437065384467 3.24175854230399e-23 3.197127869649174e-15 3.1906159199336747e-15 6.511949715500298e-18
3.8285932144167436 3.078968253059559e-23 3.1290598446266594e-15 3.121431846918157e-15 7.627997708501777e-18
3.94519561050918 3.0725340683835947e-23 3.2176194711649994e-15 3.2087480512342907e-15 8.87141993070968e-18
4.06534921144712 3.1303744663984056e-23 3.378030626621808e-15 3.3677827210362e-15 1.024790558560823e-17
4.189162171576248 3.225477986501099e-23 3.586663956542345e-15 3.574896514557409e-15 1.1767441984936657e-17
4.316745939156006 3.347683576366476e-23 3.835926913092884e-15 3.822493655487585e-15 1.3433257605298079e-17
4.448215356677963 3.493521909900685e-23 4.124950197321484e-15 4.109717324772446e-15 1.523287254903889e-17
4.58368876423945 3.663314312768829e-23 4.457165259949273e-15 4.439987755652467e-15 1.7177504296806735e-17
4.723288106065518 3.8602177590137644e-23 4.839780600724826e-15 4.820492180122356e-15 1.9288420602470942e-17
4.867139040275056 4.090559322885013e-23 5.2847674491676056e-15 5.263239169288478e-15 2.1528279879127808e-17
4.940699165968905 4.226453743096756e-23 5.542860698318426e-15 5.520154897878233e-15 2.270580044019413e-17
5.015371051989984 4.366355038722656e-23 5.812882553222636e-15 5.788962209399888e-15 2.3920343822748736e-17
5.091171501069577 4.5341328300539425e-23 6.127472895482055e-15 6.10227713698397e-15 2.5195758498083643e-17
5.129500256944802 4.619880804426316e-23 6.29035650346303e-15 6.2645089670380725e-15 2.584753642495757e-17
5.168117569889187 4.7089146619263955e-23 6.459853038048705e-15 6.433339356511438e-15 2.651368153726669e-17
5.20702561229733 4.8169600806763727e-23 6.657822218503508e-15 6.630588714920405e-15 2.7233503583104256e-17
5.246226572918644 4.927421059383838e-23 6.8617699117864145e-15 6.8338047120535366e-15 2.7965199732881143e-17
5.265937586045735 4.9835808632745556e-23 6.966051003400022e-15 6.937715503628253e-15 2.833549977177127e-17
5.285722656980489 5.040373160956479e-23 7.071906258801118e-15 7.043197491885667e-15 2.87087669154504e-17
5.305582063971359 5.097807942112433e-23 7.179363437656339e-15 7.150278437409293e-15 2.9085000247044046e-17
5.3255160863122235 5.1593165074608e-23 7.29328702072892e-15 7.263820524586165e-15 2.9466496142753975e-17
5.365609099470188 5.311412399605683e-23 7.56481803667095e-15 7.534561691738733e-15 3.025634493221842e-17
5.406003951863644 5.46877470608118e-23 7.847581311220094e-15 7.816522022996551e-15 3.1059288223543344e-17
5.446702915881641 5.631655922132917e-23 8.142152525625247e-15 8.110277183253908e-15 3.187534237134054e-17
5.487708281020852 5.807031405984563e-23 8.458914293872835e-15 8.426207033230631e-15 3.270726064220217e-17
5.529022354014368 6.049511536649785e-23 8.878469112201837e-15 8.844892566546783e-15 3.3576545655055386e-17
5.570647458961463 6.305376173957391e-23 9.323653156149925e-15 9.289192723987434e-15 3.446043216248982e-17
5.612585937458331 6.57558353918432e-23 9.796405116296407e-15 9.761046152853664e-15 3.535896344274459e-17
5.654840148729818 6.871675743150808e-23 1.0314600788121925e-14 1.027832511324059e-14 3.627567488133458e-17
5.67608639626678 7.073091432610697e-23 1.0656821770267954e-14 1.062006695228022e-14 3.6754817987731406e-17
5.686739436050992 7.176767772383965e-23 1.0833322102373696e-14 1.079632616512946e-14 3.699593724424184e-17
5.6974124697621304 7.282485873357988e-23 1.1013535238105219e-14 1.0976297148121686e-14 3.723808998352852e-17
5.718818669136295 7.500242893745612e-23 1.138547325530305e-14 1.134774775438967e-14 3.772550091338012e-17
5.740305295436557 7.740025704294428e-23 1.1793611756088477e-14 1.1755391682057513e-14 3.8220074030968675e-17
5.7835210386641895 8.361630853611744e-23 1.2836680838085652e-14 1.2797435399777537e-14 3.924543830811659e-17
5.827062130521658 9.07543131765196e-23 1.4037389681572942e-14 1.3997093327243134e-14 4.029635432981414e-17
5.8489554468988025 9.576706743216197e-23 1.4868389685549144e-14 1.4827528879934428e-14 4.0860805614713546e-17
5.870931020387893 1.0113496513401599e-22 1.5760781196371523e-14 1.5719350386141656e-14 4.1430810229868334e-17
5.892989160043636 1.0688637233319774e-22 1.6719658891474905e-14 1.6677652496117243e-14 4.2006395357665146e-17
5.915130176081913 1.1342196109889858e-22 1.780864562136079e-14 1.7766043226779476e-14 4.260239458131895e-17
5.95966208400165 1.3170433098715076e-22 2.0834885848987472e-14 2.0790945028157834e-14 4.3940820829637383e-17
6.004529249263818 1.5802678880806967e-22 2.518715488663695e-14 2.5141717512651903e-14 4.543737398505389e-17
6.027089341400364 1.7632402281543107e-22 2.820905567110836e-14 2.8162763533628047e-14 4.629213748031421e-17
6.049734195844842 1.9791799636893053e-22 3.1782716384136084e-14 3.1735520462555784e-14 4.7195921580292803e-17
6.095279466722835 2.602940692330806e-22 4.211408104984171e-14 4.206469878424734e-14 4.938226559437732e-17
6.141167624020661 3.56205324285377e-22 5.806585047282423e-14 5.801367391746139e-14 5.2176555362860334e-17
6.164241091010745 4.174838243824983e-22 6.831069476314007e-14 6.825678570476498e-14 5.390905837508057e-17
6.187401249150058 4.87185400498519e-22 8.001510491451599e-14 7.995941058678457e-14 5.569432773142944e-17
6.1990139391386085 5.212235428775046e-22 8.57661805341486e-14 8.570957644059469e-14 5.660409355391358e-17
6.204828454712694 5.3914430447184755e-22 8.879821458600712e-14 8.874115032056376e-14 5.706426544339715e-17
6.210648424152782 5.522320309515229e-22 9.10391033118656e-14 9.098164179287827e-14 5.746151898732942e-17
6.233982942956859 5.9667827816734555e-22 9.873594121874562e-14 9.867707240322418e-14 5.886881552146392e-17
6.239830258556775 6.023512836945501e-22 9.976817983507391e-14 9.970909913297589e-14 5.908070209799128e-17
6.245683058788269 6.028329671331754e-22 9.994161647108359e-14 9.988232329121302e-14 5.929317987056434e-17
6.257405133728602 6.015886382568648e-22 9.992250952227398e-14 9.98628346111313e-14 5.967491114263982e-17
6.269149208991335 5.928209536880321e-22 9.865102117045198e-14 9.85911588401358e-14 5.986233031619909e-17
6.280915325867298 5.70866437304419e-22 9.517587587101452e-14 9.51160671870726e-14 5.980868394193944e-17
6.304513850009849 5.167330315286691e-22 8.647434086454676e-14 8.641485836674683e-14 5.948249779991714e-17
6.32820103803542 4.496740370019839e-22 7.553487484415816e-14 7.547595141434732e-14 5.89234298108559e-17
6.3519772230701035 3.88181327596379e-22 6.545050565896461e-14 6.539206745089284e-14 5.843820807179167e-17
6.375842739491607 3.3640701100786747e-22 5.693404862856198e-14 5.687602064054916e-14 5.802798801281732e-17
6.399797922933955 2.949603742094991e-22 5.0107111712562805e-14 5.004921384662389e-14 5.789786593889216e-17
6.42384311029221 2.6046623889262427e-22 4.4413581662679217e-14 4.435575812310665e-14 5.782353957256908e-17
6.447978639727206 2.353499699244253e-22 4.0281642456338433e-14 4.022367273000365e-14 5.796972633478589e-17
6.472204850670314 2.144080683295286e-22 3.6835181302872404e-14 3.677702042684373e-14 5.816087602866506e-17
6.496522083828205 2.008093700704475e-22 3.462855153105898e-14 3.457001889104631e-14 5.853264001267013e-17
6.520930681187647 1.8934566198377808e-22 3.277437181080726e-14 3.2715437726938706e-14 5.8934083868562e-17
6.57002334288761 1.776140103989875e-22 3.0975160549793306e-14 3.09151660637898e-14 5.999448600350528e-17
