Dust emission spectrum from A.P. Jones, M. Kohler, N. Ysard, M. Bocchio, and L. Verstraete (2017), A&A, 602A, 46J 
inside the DustPedia framework.

lambda    nu*dP/dnu     j_nu    j_nu(carb.) j_nu(sil)
 (um)   (erg s-1 H-1) (Jy cm2 sr-1 H-1)
0.9927057738263894 9.838011819036829e-20 2.592371993107788e-12 2.5923719220479124e-12 7.105987487913245e-20
1.0001793341362166 1.000297196831836e-19 2.6556837836388094e-12 2.6556836981462902e-12 8.549251925521809e-20
1.0077091589558085 1.0168644497085652e-19 2.719992479426168e-12 2.7199923767076382e-12 1.0271853035399564e-19
1.0114953028030835 1.0251741390346985e-19 2.7525229298916506e-12 2.75252281735596e-12 1.1253569084280387e-19
1.0152956718711033 1.0335008700167502e-19 2.785305356930101e-12 2.7853052336804257e-12 1.2324967570065642e-19
1.0229392996569957 1.050196357596703e-19 2.8516078694880866e-12 2.851607721800307e-12 1.4768777927955624e-19
1.0267826658714554 1.0585461931246305e-19 2.8850794408793524e-12 2.885079279286968e-12 1.6159238427636136e-19
1.0306404723013447 1.0669117286834178e-19 2.9188052266086246e-12 2.91880504986189e-12 1.7674673500445375e-19
1.03451277320114 1.0752927533880676e-19 2.9527862467150847e-12 2.9527860534576785e-12 1.9325740613162352e-19
1.0383996230291617 1.0836890646293455e-19 2.9870235443799216e-12 2.9870233331403884e-12 2.1123953327733862e-19
1.0403485208654093 1.087892891696852e-19 3.0042386298485714e-12 3.004238409027702e-12 2.208208707148814e-19
1.0423010764483396 1.0921004682691523e-19 3.021518186861232e-12 3.0215179560437756e-12 2.30817455004632e-19
1.0462171883269815 1.100526778834149e-19 3.056271266440714e-12 3.056271014315315e-12 2.5212539922463874e-19
1.0471985131304309 1.1026356647878563e-19 3.0650000475939945e-12 3.0649997898545634e-12 2.577394316131284e-19
1.048180758391296 1.1047454686696811e-19 3.0737450685582832e-12 3.073744805085324e-12 2.6347295963070764e-19
1.0501480137395462 1.1089678197075268e-19 3.0912839013819154e-12 3.0912836260736992e-12 2.753082168003631e-19
1.0521189612883777 1.1131938112855538e-19 3.1088879089132755e-12 3.1088876212622095e-12 2.876510655014171e-19
1.0531058218030118 1.1153053927898724e-19 3.1177066465465013e-12 3.1177063525268085e-12 2.9401969300899853e-19
1.0540936079674168 1.1174087918609268e-19 3.1265162979955453e-12 3.1265159974710576e-12 3.0052448723019916e-19
1.058054026499678 1.1258310030726593e-19 3.1619171152259195e-12 3.1619167872793913e-12 3.279465296141293e-19
1.0590464539527713 1.1279386981748903e-19 3.170807964991223e-12 3.170807629824268e-12 3.3516695572743117e-19
1.06003981227728 1.1300472457556205e-19 3.1797151103870585e-12 3.1797147678478417e-12 3.4253921653493946e-19
1.0620293250338977 1.1342668897740138e-19 3.1975783639116044e-12 3.197578006160179e-12 3.5775142461492774e-19
1.0660195594769086 1.1427163153389274e-19 3.2335012595377307e-12 3.2335008694026166e-12 3.9013511451512504e-19
1.070024785945596 1.1511791530165163e-19 3.2696870487342096e-12 3.2696866234255357e-12 4.2530867357255904e-19
1.0740450607676866 1.1596552861079932e-19 3.3061370102987995e-12 3.3061365467994047e-12 4.634993949419657e-19
1.07808044048254 1.1681446081408516e-19 3.3428524562295108e-12 3.3428519512775614e-12 5.049519492646836e-19
1.0861967418109137 1.1851495636853727e-19 3.4170480809060497e-12 3.4170474821903713e-12 5.987156785480259e-19
1.0902777775684922 1.1936357521786947e-19 3.4544460283888037e-12 3.45444537677404e-12 6.516147641790783e-19
1.0943741465085532 1.2021343088537801e-19 3.492112689715919e-12 3.4921119807618207e-12 7.089540979506968e-19
1.1026131145906286 1.2191683364205765e-19 3.568258110897624e-12 3.568257272510989e-12 8.383866343301947e-19
1.1109141095355224 1.2362513795209663e-19 3.645496662646342e-12 3.6454956724950524e-12 9.901512887678726e-19
1.1192775983109025 1.2533701162580113e-19 3.723801996789095e-12 3.723800828925516e-12 1.1678635794672644e-18
1.1277040513999907 1.2704638019781162e-19 3.803004763494147e-12 3.8030033878108105e-12 1.375683336544864e-18
1.1361939428280308 1.2876048747104864e-19 3.883331940981057e-12 3.883330322590895e-12 1.6183901626435447e-18
1.1447477501889525 1.304793853056744e-19 3.964798622181099e-12 3.964796720712946e-12 1.901468153170297e-18
1.1533659546722406 1.3220373665092605e-19 4.047438803968343e-12 4.047436572763957e-12 2.2312043857559275e-18
1.1707974979042381 1.3567402291692808e-19 4.216459384489136e-12 4.21645632400731e-12 3.0604818253177195e-18
1.1884924949847024 1.3916722889891697e-19 4.390387531450006e-12 4.39038335457897e-12 4.176871035546261e-18
1.2064549276569216 1.4270677142346644e-19 4.5700938162312814e-12 4.570088143986662e-12 5.6722446196875454e-18
1.2246888378427687 1.4627066128765488e-19 4.755020761052971e-12 4.755013095947826e-12 7.665105143931307e-18
1.2431983285522175 1.4985630390269323e-19 4.945211465011206e-12 4.945201157251464e-12 1.030775974196673e-17
1.2619875648066055 1.5346929556542275e-19 5.140981112018921e-12 5.140967317049389e-12 1.379496953060223e-17
1.3004222497298317 1.6075694711211784e-19 5.549113075140254e-12 5.549088716320773e-12 2.4358819481427425e-17
1.3400274889804893 1.6815728393954596e-19 5.981344609110019e-12 5.98130238770189e-12 4.222140812837037e-17
1.3808389325824078 1.7569843159269003e-19 6.439918054576001e-12 6.439846183264599e-12 7.187131140256736e-17
1.4228933163050095 1.8344223341218502e-19 6.928529999398334e-12 6.9284097892823325e-12 1.2021011600069093e-16
1.466228494730424 1.9151759427836139e-19 7.453834850527613e-12 7.453637195853743e-12 1.9765467387140043e-16
1.5108834753276823 1.999074053307961e-19 8.01732126450139e-12 8.017001635818355e-12 3.1962868303659583e-16
1.5568984535646726 2.0860108586361957e-19 8.620774500694311e-12 8.620265617931897e-12 5.08882762413935e-16
1.6043148490894465 2.176409165406687e-19 9.268289322596915e-12 9.267490150991912e-12 7.991716050038798e-16
1.6531753430134553 2.270693110008996e-19 9.964299996258041e-12 9.96306350081928e-12 1.2364954387587894e-15
1.7035239163302658 2.3693355299374384e-19 1.0713817276795943e-11 1.0711931996771131e-11 1.885280024812463e-15
1.755405889504358 2.473908944495282e-19 1.1527382257507697e-11 1.152454821429797e-11 2.8340432097272068e-15
1.8088679632656115 2.584193991663082e-19 1.2407989363609254e-11 1.240378754905388e-11 4.201814555373706e-15
1.8639582606462262 2.6998689676124086e-19 1.3358211126151448e-11 1.3352064476455689e-11 6.146649695760902e-15
1.9207263702978936 2.8209331398945997e-19 1.4382279516757337e-11 1.4373404422994607e-11 8.875093762731911e-15
1.979223391128241 2.947494428943491e-19 1.548521504781198e-11 1.5472561679286866e-11 1.2653368525114686e-14
2.039501978296691 3.079529305863295e-19 1.667162393654359e-11 1.6653804638983547e-11 1.7819297560046294e-14
2.1016163906111602 3.2178708073753675e-19 1.7951117258143067e-11 1.7926320033132055e-11 2.4797225011012978e-14
2.1656225393682647 3.362586353016802e-19 1.932972350897449e-11 1.929561282884074e-11 3.4110680133762344e-14
2.231578038680979 3.5126690398786955e-19 2.0807444493959874e-11 2.0761048029630022e-11 4.6396464329857665e-14
2.299542257339062 3.667563644480997e-19 2.238661790835776e-11 2.2324198952165904e-11 6.241895619185497e-14
2.369576372248914 3.826999576911497e-19 2.4071245264887074e-11 2.398816031362352e-11 8.308495126356394e-14
2.4417434235010123 3.99078003743527e-19 2.586587955055953e-11 2.5756426026976853e-11 1.0945352358267518e-13
2.5161083711144245 4.159361891406863e-19 2.7779567769040506e-11 2.7636818094457275e-11 1.4274967458323465e-13
2.5927381535095444 4.334058779032907e-19 2.9827914437503606e-11 2.964354425355733e-11 1.8437018394627445e-13
2.6717017477616296 4.515821386716419e-19 3.20253705644367e-11 3.1789494322308075e-11 2.358762421286278e-13
2.753070231689431 4.70646390128544e-19 3.439390248182061e-11 3.4094912063521054e-11 2.9899041829954095e-13
2.836916847834745 4.912473592801971e-19 3.6992720261618654e-11 3.661712013412945e-11 3.756001274891929e-13
2.9233170693905177 5.14905432774699e-19 3.995515590239157e-11 3.948751405574919e-11 4.676418466423832e-13
2.967498994190263 5.294038880587014e-19 4.170106437410516e-11 4.118204544495066e-11 5.190189291544922e-13
3.0123486681368425 5.448503170896556e-19 4.356642054994898e-11 4.299111853650733e-11 5.753020134416377e-13
3.0578761833420214 5.707457376621926e-19 4.6326768395777016e-11 4.568970000335547e-11 6.370683924215343e-13
3.1040917844459814 6.01055577185231e-19 4.9524331132048424e-11 4.88202769775623e-11 7.040541544861194e-13
3.127460860933648 6.295985499239087e-19 5.2266694572413703e-11 5.152686518814528e-11 7.398293842684151e-13
3.1510058709225794 6.659297598929752e-19 5.569895779724033e-11 5.492190361831204e-11 7.770541789282885e-13
3.162844764501044 6.990484040590856e-19 5.868870929430669e-11 5.7892416414363034e-11 7.962928799436575e-13
3.1747281389236908 7.364852954823531e-19 6.206404178060978e-11 6.12481367066141e-11 8.15905073995676e-13
3.1986289994194426 8.378709896428739e-19 7.113944244669667e-11 7.028307275140079e-11 8.563696952958855e-13
3.2227097969389145 1.0733246902451994e-18 9.18167153252094e-11 9.091753451215136e-11 8.991808130580404e-13
3.2348180950136065 1.2943528189666032e-18 1.1114040390460696e-10 1.1021839318783069e-10 9.220107167762665e-13
3.240889293275058 1.4595457220176726e-18 1.2556000763693513e-10 1.2462595459410858e-10 9.340530428265924e-13
3.2469718861334385 1.6510381885338304e-18 1.4230005894245703e-10 1.413535456850832e-10 9.465132573738624e-13
3.2714166318528037 2.654327004733292e-18 2.304940483782357e-10 2.2949609769774646e-10 9.979506804892313e-13
3.2744851364798273 2.7168996702477455e-18 2.361489710181224e-10 2.3514497404755825e-10 1.003996970564103e-12
3.2775565192852394 2.7811336027547008e-18 2.41958829565673e-10 2.4094875749152494e-10 1.0100720741481093e-12
3.283707930232385 2.7188475780493383e-18 2.369838856633367e-10 2.3596298079418874e-10 1.0209048691479686e-12
3.2898708863219004 2.5217344753694044e-18 2.2021537787385682e-10 2.19184643447935e-10 1.0307344259217954e-12
3.29141343181113 2.475140723300895e-18 2.1624783382667672e-10 2.152146318748127e-10 1.033201951864018e-12
3.292184975758714 2.4522297858976483e-18 2.1429637514581067e-10 2.132619379093027e-10 1.0344372365079637e-12
3.295272960557952 2.3096321192153107e-18 2.0202431286588512e-10 2.009850760667255e-10 1.0392367991596403e-12
3.3076538914384823 1.8115699095828905e-18 1.590539982297644e-10 1.579954983545453e-10 1.0584998752190776e-12
3.310756385682612 1.7090458476472857e-18 1.5019323508982195e-10 1.4912988272227142e-10 1.0633523675505415e-12
3.313861789986515 1.6139990697803234e-18 1.419734397604176e-10 1.4090522020061876e-10 1.0682195597988215e-12
3.3200813396944477 1.4812292859307444e-18 1.3053904972068668e-10 1.2946034777503219e-10 1.0787019456544757e-12
3.345076488085796 1.2492166068925571e-18 1.1092086171256969e-10 1.09795409163093e-10 1.1254525494767154e-12
3.3482140837626964 1.2585183027540621e-18 1.1185159662979645e-10 1.1071980935222937e-10 1.1317872775671017e-12
3.3513546224236106 1.2679028611379202e-18 1.1279135133599714e-10 1.116532023350685e-10 1.1381490009286061e-12
3.3576445397418455 1.334233412075375e-18 1.189148144100864e-10 1.1776335932137458e-10 1.15145508871183e-12
3.3702598118196083 1.5745431664378023e-18 1.4085990338972324e-10 1.3968054062855033e-10 1.179362761172925e-12
3.382922481734668 1.6316552980192676e-18 1.4651763324776854e-10 1.453111932352728e-10 1.2064400124956885e-12
3.389271646505754 1.6610823454915775e-18 1.49440039596314e-10 1.4821988448250894e-10 1.2201551138050924e-12
3.395632727569191 1.6935312622423066e-18 1.5264527365449427e-10 1.5141098423637683e-10 1.2342894181174478e-12
3.421196662673239 1.851229752694797e-18 1.6811551461211362e-10 1.668227677160733e-10 1.2927468960402427e-12
3.4276182099114902 1.8224417796678427e-18 1.65811839591371e-10 1.6450610007099886e-10 1.305739520372131e-12
3.4340518103208963 1.6925594010552255e-18 1.5428375332634772e-10 1.5296575089173444e-10 1.318002434613268e-12
3.4469541582030403 1.5059565014467828e-18 1.3778989476676802e-10 1.3644840754637735e-10 1.341487220390658e-12
3.472904465399547 1.4532707149876714e-18 1.3397038080470887e-10 1.3257471430905283e-10 1.3956664956560455e-12
3.4990501388274233 1.3743048663124898e-18 1.2764466944733657e-10 1.2619367671044163e-10 1.4509927368949562e-12
3.5253949054701885 1.097406922393891e-18 1.0269395998120905e-10 1.0118940551255496e-10 1.504554468654093e-12
3.5519380250092896 8.337427927313583e-19 7.860802868151629e-11 7.704979037089554e-11 1.558238310620768e-12
3.578680990867387 7.307585471396978e-19 6.941707710038266e-11 6.780001803492338e-11 1.6170590654592789e-12
3.605625307711299 6.910028758764907e-19 6.613477514106103e-11 6.445585684893143e-11 1.6789182921295894e-12
3.660119384959845 6.6553730936147e-19 6.466020705963512e-11 6.285174150868529e-11 1.8084655509498393e-12
3.715437065384467 6.481039934422043e-19 6.391812693095672e-11 6.197369509095474e-11 1.9444318400019987e-12
3.8285932144167436 6.456943712590683e-19 6.561991430085478e-11 6.338536215665022e-11 2.2345521442045643e-12
3.94519561050918 6.509608026821825e-19 6.816992446815374e-11 6.562215476992811e-11 2.547769698225618e-12
4.06534921144712 6.585555260225593e-19 7.106564278856826e-11 6.818266502021059e-11 2.8829777683576704e-12
4.189162171576248 6.6690767697931445e-19 7.415873670115586e-11 7.091867392523749e-11 3.240062775918374e-12
4.316745939156006 6.753556524844252e-19 7.738529834669216e-11 7.376846086811316e-11 3.6168374785789653e-12
4.448215356677963 6.83602154865019e-19 8.071581963200038e-11 7.670872851605077e-11 4.007091115949613e-12
4.58368876423945 6.916029008622218e-19 8.414752762706117e-11 7.973699176189625e-11 4.410535865164881e-12
4.723288106065518 6.994769364338567e-19 8.769751135676643e-11 8.28685173805761e-11 4.828993976190321e-12
4.867139040275056 7.073739354743848e-19 9.138864525617099e-11 8.613887015003414e-11 5.249775106136864e-12
4.940699165968905 7.117578089842457e-19 9.33447903596207e-11 8.788259910803918e-11 5.462191251581527e-12
5.015371051989984 7.15832843441533e-19 9.529807378839083e-11 8.962291505602242e-11 5.675158732368408e-12
5.091171501069577 7.209398600297577e-19 9.742854074154704e-11 9.153496901565099e-11 5.893571725896036e-12
5.129500256944802 7.233652410617617e-19 9.849226508468304e-11 9.248959267598728e-11 6.002672408695774e-12
5.168117569889187 7.258264326966726e-19 9.957139644644815e-11 9.345849076292508e-11 6.112905683523067e-12
5.20702561229733 7.292442713108216e-19 1.0079341806726889e-10 9.45592574919428e-11 6.234160575326086e-12
5.246226572918644 7.326077004536508e-19 1.0202061921504449e-10 9.566498575427723e-11 6.35563346076726e-12
5.265937586045735 7.342696003554187e-19 1.0263622938308497e-10 9.621979827095712e-11 6.416431112127857e-12
5.285722656980489 7.359186237771107e-19 1.0325321866585882e-10 9.677596013769896e-11 6.477258528159858e-12
5.305582063971359 7.375550329326583e-19 1.0387161887667987e-10 9.733351149885032e-11 6.538107377829513e-12
5.3255160863122235 7.393674852654213e-19 1.0451809413199192e-10 9.791856896362405e-11 6.59952516836791e-12
5.365609099470188 7.444126519570128e-19 1.0602351752367284e-10 9.929684484078838e-11 6.726672682884486e-12
5.406003951863644 7.494850334115054e-19 1.0754958939337937e-10 1.0069559345968313e-10 6.853995933696237e-12
5.446702915881641 7.545918986600499e-19 1.0909761566477795e-10 1.021161876610285e-10 6.981428003749423e-12
5.487708281020852 7.600965345185653e-19 1.1072079675574237e-10 1.0361127239037803e-10 7.109524365364357e-12
5.529022354014368 7.688097431941201e-19 1.1283313564666701e-10 1.0559008022866067e-10 7.243055418006327e-12
5.570647458961463 7.778060794041102e-19 1.1501287008158346e-10 1.076361402628432e-10 7.376729818740236e-12
5.612585937458331 7.87115121622257e-19 1.1726561693916308e-10 1.0975513734713686e-10 7.510479592026228e-12
5.654840148729818 7.972998123865297e-19 1.1967720219348946e-10 1.120322080393931e-10 7.644994154096371e-12
5.67608639626678 8.048852070896053e-19 1.2126972030832566e-10 1.1355419327393983e-10 7.715527034385838e-12
5.686739436050992 8.0876195123371e-19 1.220825168061503e-10 1.1433170675022086e-10 7.750810055929423e-12
5.6974124697621304 8.126967477101388e-19 1.2290671653128695e-10 1.1512061384075623e-10 7.786102690530697e-12
5.718818669136295 8.207467918484261e-19 1.2459050700555852e-10 1.167337945444599e-10 7.856712461098633e-12
5.740305295436557 8.297081021791032e-19 1.264240662993166e-10 1.1849612469865124e-10 7.927941600665339e-12
5.7835210386641895 8.539277265119374e-19 1.3109401593937922e-10 1.2301895173671487e-10 8.075064202664318e-12
5.827062130521658 8.815008633024322e-19 1.363458186141687e-10 1.2812197917026665e-10 8.223839443902039e-12
5.8489554468988025 9.017775684632634e-19 1.400061697315365e-10 1.317015168460919e-10 8.304652885444637e-12
5.870931020387893 9.232616392960992e-19 1.438802560980453e-10 1.3549464039998746e-10 8.385615698057863e-12
5.892989160043636 9.460494277966067e-19 1.4798541088031202e-10 1.3951869186447209e-10 8.46671901583988e-12
5.915130176081913 9.720186282627149e-19 1.5261890307996105e-10 1.4406795699918122e-10 8.550946080779766e-12
5.95966208400165 1.0463408190988939e-18 1.6552524401941175e-10 1.5677969034779772e-10 8.74555367161402e-12
6.004529249263818 1.1539017448627747e-18 1.839150323247927e-10 1.7494896259014132e-10 8.966069734651365e-12
6.027089341400364 1.2291924152290063e-18 1.9665135083717379e-10 1.8755653071148717e-10 9.09482012568668e-12
6.049734195844842 1.3175044667436617e-18 2.1157182049928874e-10 2.0234032623254313e-10 9.231494266745585e-12
6.095279466722835 1.5733058473272836e-18 2.545518235039002e-10 2.449798691693903e-10 9.57195433450985e-12
6.141167624020661 1.9642937638392873e-18 3.2020405142629004e-10 3.1018463889029735e-10 1.001941253599276e-11
6.164241091010745 2.2133903353527495e-18 3.621654846474681e-10 3.5186255749707616e-10 1.030292715039188e-11
6.187401249150058 2.4934077651315476e-18 4.0951613845061473e-10 3.9892260964585694e-10 1.0593528804757714e-11
6.1990139391386085 2.629169237422183e-18 4.3262397977402036e-10 4.218826793465212e-10 1.0741300427499057e-11
6.204828454712694 2.7003727068384856e-18 4.4475713291442516e-10 4.339412505778389e-10 1.0815882336586018e-11
6.210648424152782 2.7515982996561595e-18 4.536191814942748e-10 4.427403439353245e-10 1.0878837558950357e-11
6.233982942956859 2.922440364385412e-18 4.835937733807034e-10 4.724979338460572e-10 1.109583953464599e-11
6.239830258556775 2.9424115011971384e-18 4.873552157134415e-10 4.762311456922703e-10 1.1124070021171264e-11
6.245683058788269 2.9411202233824335e-18 4.875982658322315e-10 4.764459397263162e-10 1.1152326105915466e-11
6.257405133728602 2.9294762306836492e-18 4.865793632737744e-10 4.753786776004666e-10 1.1200685673307756e-11
6.269149208991335 2.887111700478647e-18 4.804427301590649e-10 4.692295955613993e-10 1.1213134597665397e-11
6.280915325867298 2.7911829531871265e-18 4.6535102596015467e-10 4.5416977570541443e-10 1.1181250254740296e-11
6.304513850009849 2.5589553222883513e-18 4.282365579418776e-10 4.1715907282193113e-10 1.1077485119946387e-11
6.32820103803542 2.277162310347246e-18 3.825107877223395e-10 3.715796096235805e-10 1.093117809875891e-11
6.3519772230701035 2.0203587559810985e-18 3.406487968142884e-10 3.2985026317413357e-10 1.079853364015482e-11
6.375842739491607 1.8038705469036675e-18 3.052898723167283e-10 2.9460990744611175e-10 1.0679964870616538e-11
6.399797922933955 1.6316673905097836e-18 2.7718347060391874e-10 2.6657179559246033e-10 1.0611675011458373e-11
6.42384311029221 1.4878671367930166e-18 2.5370469840590386e-10 2.431512289364672e-10 1.0553469469436686e-11
6.447978639727206 1.3829094077823011e-18 2.366937303271441e-10 2.2615941492657278e-10 1.053431540057122e-11
6.472204850670314 1.294940094121249e-18 2.224699542090209e-10 2.1194708082258839e-10 1.0522873386432552e-11
6.496522083828205 1.2368329725175352e-18 2.1328553697026637e-10 2.0274260359999706e-10 1.054293337026931e-11
