Dust emission spectrum from A.P. Jones, M. Kohler, N. Ysard, M. Bocchio, and L. Verstraete (2017), A&A, 602A, 46J 
inside the DustPedia framework.

lambda    nu*dP/dnu     j_nu    j_nu(carb.) j_nu(sil)
 (um)   (erg s-1 H-1) (Jy cm2 sr-1 H-1)
0.9927057738263894 8.121481167925888e-21 2.140056416840597e-13 2.1400563502221546e-13 6.6618442593052975e-21
1.0001793341362166 8.258027859028179e-21 2.192419486880308e-13 2.1924194067112402e-13 8.01690683456e-21
1.0077091589558085 8.39511682574982e-21 2.2455947433788284e-13 2.2455946470313815e-13 9.634744707079486e-21
1.0114953028030835 8.463858376944286e-21 2.2724884847203654e-13 2.2724883791506196e-13 1.0556974625003902e-20
1.0152956718711033 8.532728061323138e-21 2.299587147715314e-13 2.2995870320791473e-13 1.15636166571265e-20
1.0229392996569957 8.670775286062994e-21 2.354383621828863e-13 2.3543834832259047e-13 1.3860295899573796e-20
1.0267826658714554 8.739796012689099e-21 2.382041138824436e-13 2.3820409871508223e-13 1.5167361389175783e-20
1.0306404723013447 8.808932265993842e-21 2.409904854130019e-13 2.409904688208552e-13 1.6592146679332237e-20
1.03451277320114 8.878181918774522e-21 2.437975461379396e-13 2.43797527993224e-13 1.8144715551369765e-20
1.0383996230291617 8.947542908839632e-21 2.466253670483874e-13 2.466253472124448e-13 1.9835942611214722e-20
1.0403485208654093 8.982264529099e-21 2.480470852213023e-13 2.480470644841144e-13 2.0737187917660416e-20
1.0423010764483396 9.017013240647554e-21 2.494740208377099e-13 2.4947399916013565e-13 2.1677574313692483e-20
1.0462171883269815 9.086590986933663e-21 2.5234358197702407e-13 2.523435582947298e-13 2.3682294227281287e-20
1.0471985131304309 9.104001987797874e-21 2.530642479378254e-13 2.530642237272875e-13 2.4210537920646115e-20
1.048180758391296 9.121419557302964e-21 2.5378622658007124e-13 2.5378620183002204e-13 2.4750049194097175e-20
1.0501480137395462 9.156274290324957e-21 2.5523412679173674e-13 2.5523410092794383e-13 2.5863792806895767e-20
1.0521189612883777 9.191154965011307e-21 2.5668729245515073e-13 2.5668726542974476e-13 2.7025405930700593e-20
1.0531058218030118 9.208581858405824e-21 2.5741520708874023e-13 2.5741517946392886e-13 2.762481131972754e-20
1.0540936079674168 9.225939464083624e-21 2.5814232274599647e-13 2.5814229450893767e-13 2.8237058776442647e-20
1.058054026499678 9.295430351559506e-21 2.6106387407852924e-13 2.610638432601474e-13 3.0818381818518075e-20
1.0590464539527713 9.312818063351155e-21 2.617975404121598e-13 2.6179750891402107e-13 3.149813880590957e-20
1.06003981227728 9.330211721650952e-21 2.6253252070541956e-13 2.625324885131982e-13 3.2192221368103917e-20
1.0620293250338977 9.365016781267104e-21 2.640064283584524e-13 2.6400639473393673e-13 3.362451564695897e-20
1.0660195594769086 9.434697214106193e-21 2.669700687359237e-13 2.6697003206192734e-13 3.6673996367554475e-20
1.070024785945596 9.504470189512923e-21 2.699548806308597e-13 2.699548406440635e-13 3.998679618943229e-20
1.0740450607676866 9.57433432697237e-21 2.729609518153812e-13 2.729609082309542e-13 4.358442698255826e-20
1.07808044048254 9.6442883275125e-21 2.7598837249714386e-13 2.759883250070932e-13 4.749005069658533e-20
1.0861967418109137 9.78435404438674e-21 2.8210454810708454e-13 2.8210449178018923e-13 5.632689525654813e-20
1.0902777775684922 9.854220092008293e-21 2.851864264083393e-13 2.8518636509453443e-13 6.131380481133863e-20
1.0943741465085532 9.924167449686942e-21 2.8828984274612205e-13 2.8828977602579085e-13 6.67203312754111e-20
1.1026131145906286 1.0064302788981089e-20 2.945617023055852e-13 2.9456162337751293e-13 7.892807224957667e-20
1.1109141095355224 1.0204754365428307e-20 3.009209825651294e-13 3.0092088931748645e-13 9.324764289875395e-20
1.1192775983109025 1.0345407962276322e-20 3.073653211274745e-13 3.073652111054648e-13 1.1002200969423305e-19
1.1277040513999907 1.0485755234191047e-20 3.1388046666400906e-13 3.138803370180405e-13 1.2964596860314557e-19
1.1361939428280308 1.0626394426855574e-20 3.204850937252768e-13 3.204849411519255e-13 1.5257335121195165e-19
1.1447477501889525 1.0767326212195718e-20 3.2718026706423704e-13 3.271800877390927e-13 1.7932514430506548e-19
1.1533659546722406 1.0908603078390223e-20 3.33968649563551e-13 3.3396843906463454e-13 2.104989164409254e-19
1.1707974979042381 1.1192620229949417e-20 3.4784277484341376e-13 3.4784248589390745e-13 2.889495063762528e-19
1.1884924949847024 1.14780625026168e-20 3.6210495024870623e-13 3.6210455559976833e-13 3.9464893788071725e-19
1.2064549276569216 1.1766859025930342e-20 3.7682619496236975e-13 3.768256586123826e-13 5.363499869757983e-19
1.2246888378427687 1.2057139871038626e-20 3.9195796273156646e-13 3.9195723737721406e-13 7.253543524734293e-19
1.2431983285522175 1.2348669544027078e-20 4.07502257939113e-13 4.0750128173581893e-13 9.762032939113221e-19
1.2619875648066055 1.2641873878587867e-20 4.234829813409822e-13 4.23481673829938e-13 1.3075110441286204e-18
1.3004222497298317 1.3231505307522091e-20 4.567337239525363e-13 4.567314113996891e-13 2.3125528472136184e-18
1.3400274889804893 1.3827800846101235e-20 4.918540553759725e-13 4.918500402821479e-13 4.015093824611438e-18
1.3808389325824078 1.4432931207169924e-20 5.290137960763336e-13 5.290069496846797e-13 6.846391653772507e-18
1.4228933163050095 1.5051944079319156e-20 5.68505104647846e-13 5.684936335452455e-13 1.1471102600776683e-17
1.466228494730424 1.569555520220822e-20 6.1086855651788e-13 6.108496616706063e-13 1.889484727346266e-17
1.5108834753276823 1.6362379079824765e-20 6.562160592172064e-13 6.561854488957018e-13 3.061032150443988e-17
1.5568984535646726 1.705171126293942e-20 7.046893214393717e-13 7.046404969856746e-13 4.882445369711907e-17
1.6043148490894465 1.7767405291194892e-20 7.566291089380814e-13 7.565522906702637e-13 7.681826781793105e-17
1.6531753430134553 1.8513474644881743e-20 8.12411921811784e-13 8.122928433506157e-13 1.1907846116817549e-16
1.7035239163302658 1.929457342335908e-20 8.724747148710118e-13 8.722928098446954e-13 1.8190502631624552e-16
1.755405889504358 2.0124723416829518e-20 9.377280443914602e-13 9.374540666077784e-13 2.7397778368185284e-16
1.8088679632656115 2.1003235050424814e-20 1.0084688608819941e-12 1.00806185769442e-12 4.0700318757392714e-16
1.8639582606462262 2.1928876919859176e-20 1.0849806830215083e-12 1.0843841101803436e-12 5.965728411646477e-16
1.9207263702978936 2.2903325125108365e-20 1.1677058883600032e-12 1.166842762080287e-12 8.631262797160578e-16
1.979223391128241 2.3929421064158187e-20 1.2571770365684904e-12 1.2559439420036174e-12 1.233094564872495e-15
2.039501978296691 2.500922327903388e-20 1.3539223824214296e-12 1.3521822494008273e-12 1.7401330206026006e-15
2.1016163906111602 2.6152141600463783e-20 1.4589155019694476e-12 1.4564888374324763e-12 2.4266645369714236e-15
2.1656225393682647 2.7361491205218665e-20 1.5728668479119095e-12 1.5695216223692063e-12 3.3452255427027086e-15
2.231578038680979 2.8631925009519027e-20 1.696024258554578e-12 1.6914642857292561e-12 4.5599728253218175e-15
2.299542257339062 2.996193239859577e-20 1.8288607844958803e-12 1.8227125468856903e-12 6.1482376101903974e-15
2.369576372248914 3.135264084761225e-20 1.9720334229925756e-12 1.963831262712939e-12 8.20216027963633e-15
2.4417434235010123 3.2805877347234796e-20 2.1262832430106538e-12 2.1154533813055507e-12 1.0829861705103246e-14
2.5161083711144245 3.4329133283111864e-20 2.2927759338778475e-12 2.278618917931229e-12 1.4157015946618171e-14
2.5927381535095444 3.593736088991713e-20 2.473285620674776e-12 2.4549579371046383e-12 1.8327683570137254e-14
2.6717017477616296 3.764292672970963e-20 2.669566784007514e-12 2.6460629434107707e-12 2.350384059674278e-14
2.753070231689431 3.9465954185020807e-20 2.8840934681786737e-12 2.854228103589316e-12 2.986536458935836e-14
2.836916847834745 4.1467667601155585e-20 3.122666816405976e-12 3.0850561507566412e-12 3.761066564933584e-14
2.9233170693905177 4.3787190445185256e-20 3.397757936515317e-12 3.3508121613764092e-12 4.694577513890704e-14
2.967498994190263 4.5202126535857414e-20 3.560564686123398e-12 3.508389925036745e-12 5.217476108665324e-14
3.0123486681368425 4.671550579874054e-20 3.7353880652997976e-12 3.677477352293594e-12 5.791071300620437e-14
3.0578761833420214 4.917460940602197e-20 3.991445911163189e-12 3.927232826493125e-12 6.421308467006475e-14
3.1040917844459814 5.204883759183487e-20 4.2885948750490666e-12 4.21753503543797e-12 7.105983961109627e-14
3.127460860933648 5.468894429675857e-20 4.540052305380761e-12 4.465331134135352e-12 7.472117124540846e-14
3.1510058709225794 5.803502952468172e-20 4.8541015208215866e-12 4.7755672724451845e-12 7.853424837640243e-14
3.162844764501044 6.104551330958527e-20 5.12508484898159e-12 5.0445786077606815e-12 8.050624122091107e-14
3.1747281389236908 6.445008312746045e-20 5.431245778460114e-12 5.348728349381828e-12 8.251742907828326e-14
3.1986289994194426 7.365576688323281e-20 6.253743420917848e-12 6.167073656123526e-12 8.666976479432142e-14
3.2227097969389145 9.491249921522587e-20 8.119214996589453e-12 8.028148669162802e-12 9.106632742665133e-14
3.2348180950136065 1.1483545866089978e-19 9.86041755472277e-12 9.767005824606886e-12 9.341173011588196e-14
3.240889293275058 1.297123028354613e-19 1.1158730753641825e-11 1.1064081880917817e-11 9.464887272400899e-14
3.2469718861334385 1.4695150212308627e-19 1.266548984694747e-11 1.256956089950655e-11 9.592894744091925e-14
3.2714166318528037 2.373946003352599e-19 2.0614657650256406e-11 2.0513441559120548e-11 1.0121609113585889e-13
3.2744851364798273 2.430501204372478e-19 2.1125563257127213e-11 2.1023724859436378e-11 1.0183839769083321e-13
3.2775565192852394 2.4885669541886877e-19 2.165055094566111e-11 2.1548087201848054e-11 1.0246374381305518e-13
3.283707930232385 2.4330002132893957e-19 2.1206846938390043e-11 2.1103266429737168e-11 1.0358050865287441e-13
3.2898708863219004 2.256071089823843e-19 1.970158049582373e-11 1.9596985099383915e-11 1.0459539643981936e-13
3.29141343181113 2.2142585683049203e-19 1.934551092066889e-11 1.9240660717213622e-11 1.0485020345527303e-13
3.292184975758714 2.193700169942042e-19 1.917038922203801e-11 1.9065411452152577e-11 1.0497776988543177e-13
3.295272960557952 2.0654678024279343e-19 1.8066717641330723e-11 1.7961243932381755e-11 1.0547370894896522e-13
3.3076538914384823 1.6179036086191476e-19 1.4205029369277276e-11 1.4097564447450085e-11 1.0746492182718856e-13
3.310756385682612 1.5258759809209688e-19 1.3409602219616598e-11 1.3301635543949915e-11 1.0796667566668565e-13
3.313861789986515 1.4406002047773517e-19 1.267206222241752e-11 1.2563592210637824e-11 1.0847001177969667e-13
3.3200813396944477 1.3215516016342755e-19 1.164668372903449e-11 1.153713042635731e-11 1.0955330267718099e-13
3.345076488085796 1.1140074465905625e-19 9.891532441072682e-12 9.777149794583122e-12 1.1438264648955603e-13
3.3482140837626964 1.1225477893285075e-19 9.976713271064639e-12 9.861676340732755e-12 1.15036930331884e-13
3.3513546224236106 1.1311651133110151e-19 1.0062730010718637e-11 9.94703592662999e-12 1.1569408408864596e-13
3.3576445397418455 1.1912284315102067e-19 1.0616936030159317e-11 1.0499867738935162e-11 1.170682912241555e-13
3.3702598118196083 1.4085400149036375e-19 1.2600912737677123e-11 1.2480962125232715e-11 1.1995061244440685e-13
3.382922481734668 1.460692801776284e-19 1.311657262891968e-11 1.2993822666143985e-11 1.2274996277569137e-13
3.389271646505754 1.4875730085179918e-19 1.3383019204237507e-11 1.3258850785613436e-11 1.241684186240739e-13
3.395632727569191 1.517130476755388e-19 1.3674551037651003e-11 1.3548920814708008e-11 1.256302229429982e-13
3.421196662673239 1.6603757789200383e-19 1.507835146427937e-11 1.4946672463825065e-11 1.3167900045430205e-13
3.4276182099114902 1.634812015758893e-19 1.487406570367722e-11 1.474103924175579e-11 1.3302646192142626e-13
3.4340518103208963 1.518144052567882e-19 1.3838507669167625e-11 1.3704207922442778e-11 1.3429974672484698e-13
3.4469541582030403 1.350832531014221e-19 1.2359657939466316e-11 1.2222916677178298e-11 1.367412622880133e-13
3.472904465399547 1.3050853168080118e-19 1.2030984665984046e-11 1.1888615629627838e-11 1.423690363562109e-13
3.4990501388274233 1.2355252976995204e-19 1.1475490052060812e-11 1.1327367449488866e-11 1.4812260257194228e-13
3.5253949054701885 9.868703391816091e-20 9.235008550655241e-12 9.081305059703242e-12 1.5370349095200022e-13
3.5519380250092896 7.502305942967481e-20 7.073422233855755e-12 6.914116459770317e-12 1.5930577408543936e-13
3.578680990867387 6.586138678921482e-20 6.256382470763008e-12 6.090937401068873e-12 1.6544506969413357e-13
3.605625307711299 6.240764720982069e-20 5.972935655396418e-12 5.801029081225542e-12 1.7190657417087471e-13
3.660119384959845 6.038851349841119e-20 5.86703965638999e-12 5.681577864067237e-12 1.8546179232275428e-13
3.715437065384467 5.910796402134849e-20 5.829419946760275e-12 5.629697481075337e-12 1.9972246568493777e-13
3.8285932144167436 5.95104399700204e-20 6.047861255510454e-12 5.8175920177468385e-12 2.302692377636138e-13
3.94519561050918 6.064882473596149e-20 6.351266903164573e-12 6.087843113827848e-12 2.634237893367247e-13
4.06534921144712 6.203675164038853e-20 6.694472155546006e-12 6.395363422400704e-12 2.991087331453017e-13
4.189162171576248 6.352847457721097e-20 7.0642332991821134e-12 6.726882941314805e-12 3.37350357867307e-13
4.316745939156006 6.506010495676258e-20 7.454880423411109e-12 7.076921473136363e-12 3.779589502747447e-13
4.448215356677963 6.659986028773891e-20 7.863729323034411e-12 7.443413038191237e-12 4.203162848431706e-13
4.58368876423945 6.813975688391826e-20 8.290584188907278e-12 7.826155650635924e-12 4.644285382713543e-13
4.723288106065518 6.968702314691538e-20 8.737069352141186e-12 8.226541324944535e-12 5.10528027196653e-13
4.867139040275056 7.125046648002767e-20 9.205150598478253e-12 8.647847851812634e-12 5.573027466656196e-13
4.940699165968905 7.207726589887671e-20 9.45270594870875e-12 8.871629784423549e-12 5.810761642851991e-13
5.015371051989984 7.287745131528267e-20 9.702098466959934e-12 9.097073988102978e-12 6.050244788569565e-13
5.091171501069577 7.377710180239201e-20 9.970312043019676e-12 9.340632774225821e-12 6.29679268793857e-13
5.129500256944802 7.421555172028472e-20 1.0105071931174225e-11 9.463029978320897e-12 6.420419528533319e-13
5.168117569889187 7.465783365256323e-20 1.0241821484557282e-11 9.587266196606162e-12 6.545552879511226e-13
5.20702561229733 7.519172614063337e-20 1.0392719403156161e-11 9.724456005286353e-12 6.682633978698068e-13
5.246226572918644 7.572098666011894e-20 1.0544663865607561e-11 9.862634846192201e-12 6.820290194153601e-13
5.265937586045735 7.598390744943233e-20 1.0621033133644809e-11 9.932101794571307e-12 6.88931339073502e-13
5.285722656980489 7.624570517314262e-20 1.0697669843125882e-11 1.000182428858315e-11 6.958455545427304e-13
5.305582063971359 7.650639348593254e-20 1.0774576256638014e-11 1.0071805430837554e-11 7.027708258004553e-13
5.3255160863122235 7.678391372390468e-20 1.0854288946094047e-11 1.0144523564614503e-11 7.097653814795421e-13
5.365609099470188 7.747457407635108e-20 1.1034372992759714e-11 1.0310132959985098e-11 7.242400327746179e-13
5.406003951863644 7.816851563235233e-20 1.1217024203248609e-11 1.0478253802686405e-11 7.387704005622039e-13
5.446702915881641 7.886635831992692e-20 1.140236419731864e-11 1.0649014446994353e-11 7.533497503242873e-13
5.487708281020852 7.960276700629689e-20 1.1595476872528274e-11 1.0827438784532396e-11 7.680380879958787e-13
5.529022354014368 8.064693669830105e-20 1.183601902619223e-11 1.1052670690802996e-11 7.833483353892348e-13
5.570647458961463 8.171949650595876e-20 1.2083723801661227e-11 1.1285009883666957e-11 7.987139179942666e-13
5.612585937458331 8.282325938490161e-20 1.2339136095702955e-11 1.1525008120498956e-11 8.141279752040009e-13
5.654840148729818 8.401232881197133e-20 1.2610514019664508e-11 1.1780848580321293e-11 8.296654393432135e-13
5.67608639626678 8.484715782654985e-20 1.27836752470425e-11 1.1945871509101387e-11 8.378037379411159e-13
5.686739436050992 8.527286631791122e-20 1.2871928655254833e-11 1.2030049924634094e-11 8.418787306207384e-13
5.6974124697621304 8.57043003459387e-20 1.2961334197300804e-11 1.2115376723393454e-11 8.459574739073524e-13
5.718818669136295 8.658495640316775e-20 1.3143717068975274e-11 1.2289591293827653e-11 8.54125775147624e-13
5.740305295436557 8.755401288891963e-20 1.3340757190594028e-11 1.247838428965318e-11 8.623729009408469e-13
5.7835210386641895 9.010169068860466e-20 1.3832309349580342e-11 1.2952896816369466e-11 8.794125332108778e-13
5.827062130521658 9.29768000533015e-20 1.4381152013737687e-11 1.3484472880489777e-11 8.966791332479057e-13
5.8489554468988025 9.504380910847296e-20 1.4756099658421156e-11 1.3850066071922151e-11 9.060335864990052e-13
5.870931020387893 9.722892857515501e-20 1.5152068003385707e-11 1.4236650883490974e-11 9.154171198947401e-13
5.892989160043636 9.954155754128574e-20 1.557074911690595e-11 1.4645920249107764e-11 9.248288677981814e-13
5.915130176081913 1.0216404483885867e-19 1.604101403425403e-11 1.5106419343072278e-11 9.345946911817555e-13
5.95966208400165 1.0958639770747217e-19 1.7335952961635546e-11 1.6378925500304916e-11 9.57027461330633e-13
6.004529249263818 1.2024632390290089e-19 1.916550230207816e-11 1.8183130324423577e-11 9.823719776545832e-13
6.027089341400364 1.2767252167974372e-19 2.042558475145845e-11 1.9428478766934206e-11 9.971059845242455e-13
6.049734195844842 1.363685086815632e-19 2.189877481921652e-11 2.088604230472484e-11 1.0127325144916777e-12
6.095279466722835 1.6148473647230141e-19 2.6127300173009562e-11 2.5075850898610477e-11 1.0514492743990914e-12
6.141167624020661 1.998023477231259e-19 3.257024097066966e-11 3.1468162922514413e-11 1.1020780481552541e-12
6.164241091010745 2.242183549572541e-19 3.6687676770310996e-11 3.55536399996047e-11 1.1340367707062991e-12
6.187401249150058 2.51660072070325e-19 4.1332533874982006e-11 4.0165715489267746e-11 1.1668183857142555e-12
6.1990139391386085 2.6498098293879904e-19 4.360203435052095e-11 4.2418542303746465e-11 1.183492046774494e-12
6.204828454712694 2.7196675374267043e-19 4.479350325838869e-11 4.360159325815125e-11 1.1919100002374365e-12
6.210648424152782 2.770099312212637e-19 4.566691957982281e-11 4.4467878261973036e-11 1.199041317849778e-12
6.233982942956859 2.938759550528691e-19 4.862942072036499e-11 4.74056890098519e-11 1.223731710513075e-12
6.239830258556775 2.958775757133037e-19 4.900656474387068e-11 4.777953710817279e-11 1.22702763569787e-12
6.245683058788269 2.9580783323474945e-19 4.9040969273597364e-11 4.781064177834954e-11 1.2303274952478224e-12
6.257405133728602 2.9478423486676207e-19 4.896299338504697e-11 4.7726966154479204e-11 1.236027230567752e-12
6.269149208991335 2.9076275487888005e-19 4.838567616189578e-11 4.714792282856135e-11 1.2377533333344303e-12
6.280915325867298 2.8151135178353764e-19 4.693407726007871e-11 4.569950661267736e-11 1.2345706474013463e-12
6.304513850009849 2.590455166826465e-19 4.335080001133038e-11 4.21270289755442e-11 1.223771035786165e-12
6.32820103803542 2.317150619851527e-19 3.892279021320869e-11 3.771453598180453e-11 1.208254231404163e-12
6.3519772230701035 2.0679389027635979e-19 3.486711936810443e-11 3.36728738227739e-11 1.1942455453305206e-12
6.375842739491607 1.8577236464839068e-19 3.144040551071352e-11 3.025861795528459e-11 1.1817875554289323e-12
6.399797922933955 1.690762377134583e-19 2.8722237533611206e-11 2.7547326173888166e-11 1.1749113597230352e-12
6.42384311029221 1.5513102720132544e-19 2.6452274867998196e-11 2.5283124027111755e-11 1.1691508408864425e-12
6.447978639727206 1.4498312820738256e-19 2.481478342455973e-11 2.3647050434536384e-11 1.16773299002335e-12
6.472204850670314 1.3648325761530885e-19 2.344774419281572e-11 2.2280570477606485e-11 1.167173715209237e-12
6.496522083828205 1.3090910880699838e-19 2.257460804054027e-11 2.1404483994413803e-11 1.1701240461264677e-12
