Dust emission spectrum from A.P. Jones, M. Kohler, N. Ysard, M. Bocchio, and L. Verstraete (2017), A&A, 602A, 46J 
inside the DustPedia framework.

lambda    nu*dP/dnu     j_nu    j_nu(carb.) j_nu(sil)
 (um)   (erg s-1 H-1) (Jy cm2 sr-1 H-1)
0.9927057738263894 9.775271301468492e-24 2.575839510369505e-16 2.5758395099399094e-16 4.2959562464890583e-26
1.0001793341362166 9.936451841354943e-24 2.638023390005612e-16 2.638023389488109e-16 5.175034622838184e-26
1.0077091589558085 1.0097415614691174e-23 2.7009395934209153e-16 2.7009395927983157e-16 6.2259892385229e-26
1.0114953028030835 1.0177796740228833e-23 2.7326692935928763e-16 2.732669292910308e-16 6.825679954038563e-26
1.0152956718711033 1.025810037090181e-23 2.764578409550482e-16 2.764578408802412e-16 7.48071654364708e-26
1.0229392996569957 1.0418365407975257e-23 2.8289083817212793e-16 2.8289083808235975e-16 8.976805864765337e-26
1.0267826658714554 1.0498132410769762e-23 2.8612776827940477e-16 2.8612776818111353e-16 9.829139134447788e-26
1.0306404723013447 1.0577787239986795e-23 2.893819596502796e-16 2.893819595426903e-16 1.0758914601697043e-25
1.03451277320114 1.0657322359144937e-23 2.9265327781424573e-16 2.926532776965175e-16 1.177282505360287e-25
1.0383996230291617 1.0736730275568056e-23 2.9594158665564943e-16 2.9594158652686833e-16 1.2878109684229878e-25
1.0403485208654093 1.0776384203631476e-23 2.975920696029427e-16 2.975920694682682e-16 1.346743919780242e-25
1.0423010764483396 1.0816003541848758e-23 2.9924674844839666e-16 2.992467483075707e-16 1.4082595887099047e-25
1.0462171883269815 1.08951347572805e-23 3.025686238907418e-16 3.025686237367944e-16 1.5394744010457585e-25
1.0471985131304309 1.0914894502983301e-23 3.034016877874498e-16 3.034016876300432e-16 1.5740658774156852e-25
1.048180758391296 1.093464479632241e-23 3.0423578527645444e-16 3.0423578511551405e-16 1.6094019947098357e-25
1.0501480137395462 1.0974116569258511e-23 3.059070721401486e-16 3.059070719719116e-16 1.6823695267156865e-25
1.0521189612883777 1.1013549164753772e-23 3.0758246664148747e-16 3.0758246646563716e-16 1.7585027417748896e-25
1.0531058218030118 1.103322022048887e-23 3.0842085258983576e-16 3.084208524100559e-16 1.797799656841713e-25
1.0540936079674168 1.1052781979502179e-23 3.0925748256870676e-16 3.092574823849121e-16 1.8379460027523333e-25
1.058054026499678 1.1130921324510446e-23 3.126139762375269e-16 3.126139760367977e-16 2.007292450641326e-25
1.0590464539527713 1.1150428679138148e-23 3.134555816383185e-16 3.1345558143312753e-16 2.0519092674697771e-25
1.06003981227728 1.1169924818314833e-23 3.142981752319045e-16 3.142981750221569e-16 2.097475358307972e-25
1.0620293250338977 1.120888300643116e-23 3.1598631775385416e-16 3.1598631753470076e-16 2.191532617568157e-25
1.0660195594769086 1.128665992671369e-23 3.19374359139856e-16 3.193743589006651e-16 2.391909213083131e-25
1.070024785945596 1.1364245042822494e-23 3.22777951092948e-16 3.2277795083197177e-16 2.6097626208102962e-25
1.0740450607676866 1.1441631369428446e-23 3.261969430210524e-16 3.261969427363986e-16 2.8465380662946645e-25
1.07808044048254 1.1518811979568642e-23 3.2963118307784064e-16 3.296311827674613e-16 3.1037932702732587e-25
1.0861967418109137 1.1672392322411804e-23 3.365408637611266e-16 3.365408633924679e-16 3.6865863632780215e-25
1.0902777775684922 1.1748468520751213e-23 3.40006994152804e-16 3.4000699375121596e-16 4.015879726521446e-25
1.0943741465085532 1.1824306493741103e-23 3.434874992733121e-16 3.4348749883599416e-16 4.373180729704927e-25
1.1026131145906286 1.197524151017965e-23 3.5049099760999375e-16 3.504909970918945e-16 5.18099284248787e-25
1.1109141095355224 1.2125145527957026e-23 3.575500766955376e-16 3.575500760825201e-16 6.130173747034677e-25
1.1192775983109025 1.2273828771423886e-23 3.6465930928472125e-16 3.6465930856032113e-16 7.244003512905224e-25
1.1277040513999907 1.242060304539655e-23 3.7179817696157096e-16 3.7179817610663684e-16 8.549340913028974e-25
1.1361939428280308 1.2566177583286657e-23 3.789876828183758e-16 3.7898768181066306e-16 1.0077127997818724e-24
1.1447477501889525 1.2710505385462424e-23 3.8622648414113327e-16 3.8622648295483655e-16 1.1862967065848981e-24
1.1533659546722406 1.2853618835319962e-23 3.9351562189848265e-16 3.9351562050370384e-16 1.3947787227524758e-24
1.1707974979042381 1.3136667595688771e-23 4.0825962239412005e-16 4.0825962047319335e-16 1.9209267638893133e-24
1.1884924949847024 1.3414269760462695e-23 4.2318757918661545e-16 4.231875765541253e-16 2.6324902424420932e-24
1.2064549276569216 1.3688597990703993e-23 4.3836866608493204e-16 4.383686624948612e-16 3.590070703859085e-24
1.2246888378427687 1.3956684999777708e-23 4.53709078397533e-16 4.537090735252346e-16 4.872298307326398e-24
1.2431983285522175 1.4217917894374828e-23 4.691868726824161e-16 4.691868661015698e-16 6.580846530530528e-24
1.2619875648066055 1.447221637516492e-23 4.847965891786939e-16 4.847965803321811e-16 8.84651279250227e-24
1.3004222497298317 1.4955872096969565e-23 5.162565406615837e-16 5.16256524897533e-16 1.576405063786702e-23
1.3400274889804893 1.54059002478215e-23 5.479869574304128e-16 5.479869298487132e-16 2.758169958313523e-23
1.3808389325824078 1.5820789631241427e-23 5.798833140415999e-16 5.798832666357713e-16 4.740582873722019e-23
1.4228933163050095 1.620267423427127e-23 6.119676609605107e-16 6.119675808826201e-16 8.00778903980663e-23
1.466228494730424 1.656071201092109e-23 6.445403243586056e-16 6.445401913500428e-16 1.330085628808783e-22
1.5108834753276823 1.6888317310819712e-23 6.773089034577317e-16 6.773086861257939e-16 2.1733193762678023e-22
1.5568984535646726 1.7180207697494536e-23 7.099996427248854e-16 7.099992930251082e-16 3.496997773188201e-22
1.6043148490894465 1.7437106473805248e-23 7.425632565646526e-16 7.425627014420015e-16 5.551226509799718e-22
1.6531753430134553 1.7659985670411563e-23 7.749589514053786e-16 7.749580830260367e-16 8.683793419393072e-22
1.7035239163302658 1.7851528284388425e-23 8.072221504040936e-16 8.072208114596131e-16 1.338944480255092e-21
1.755405889504358 1.80261069712227e-23 8.399412845584812e-16 8.399392486099637e-16 2.0359485174131054e-21
1.8088679632656115 1.8180529533258018e-23 8.729368530428045e-16 8.729337989822488e-16 3.0540605549551166e-21
1.8639582606462262 1.8312716419815584e-23 9.060629799584967e-16 9.06058458597924e-16 4.521360572397738e-21
1.9207263702978936 1.8424673128758893e-23 9.393657552358691e-16 9.393591466717107e-16 6.608564158352257e-21
1.979223391128241 1.8520686573571927e-23 9.730190212019692e-16 9.730094809220688e-16 9.540279900539887e-21
2.039501978296691 1.8605813853804215e-23 1.0072615026373334e-15 1.007247894815999e-15 1.3607821334195316e-20
2.1016163906111602 1.86937444452101e-23 1.0428436025479696e-15 1.0428244171197097e-15 1.9185428259573194e-20
2.1656225393682647 1.8792540625708264e-23 1.080283377704817e-15 1.0802566314953402e-15 2.6746209476642923e-20
2.231578038680979 1.890300017727928e-23 1.1197272572301177e-15 1.1196903765374392e-15 3.688069267840957e-20
2.299542257339062 1.9030030912315855e-23 1.1615831983156724e-15 1.1615328809179791e-15 5.031739769301613e-20
2.369576372248914 1.91841166506991e-23 1.2066517589266546e-15 1.2065838129549013e-15 6.794597175291894e-20
2.4417434235010123 1.9377577315410302e-23 1.2559401323059945e-15 1.2558492937102136e-15 9.083859578130764e-20
2.5161083711144245 1.9631350521323445e-23 1.3111396566179384e-15 1.311019379580056e-15 1.2027703788288808e-19
2.5927381535095444 1.997950957321472e-23 1.3750323482832672e-15 1.3748745719905936e-15 1.5777629267366585e-19
2.6717017477616296 2.04624368206022e-23 1.4511581962892007e-15 1.4509530972550984e-15 2.0509903410265526e-19
2.753070231689431 2.1140725857604415e-23 1.54492221504718e-15 1.5446579379452423e-15 2.642771019372761e-19
2.836916847834745 2.215163450861603e-23 1.668098979535592e-15 1.6677613388255956e-15 3.3764070999694865e-19
2.9233170693905177 2.3797133619377686e-23 1.846587981541685e-15 1.846160217728536e-15 4.2776381314891055e-19
2.967498994190263 2.5155862020042258e-23 1.981523455240606e-15 1.9810442129811976e-15 4.792422594075809e-19
3.0123486681368425 2.673401269871506e-23 2.1376609385880987e-15 2.137124734405815e-15 5.3620418228455375e-19
3.0578761833420214 3.0188789295708755e-23 2.4503889517944524e-15 2.4497896470810876e-15 5.993047133657438e-19
3.1040917844459814 3.4621060858243655e-23 2.8526228641217064e-15 2.851954272446146e-15 6.685916755620525e-19
3.127460860933648 3.927408307232861e-23 3.2603736218914225e-15 3.2596676852089168e-15 7.059366825060524e-19
3.1510058709225794 4.5460879369139603e-23 3.80238841077487e-15 3.801643364860135e-15 7.450459147350201e-19
3.162844764501044 5.120815755221818e-23 4.299188231642351e-15 4.298422876050372e-15 7.6535559198085255e-19
3.1747281389236908 5.788564781346151e-23 4.878057018150501e-15 4.877270890336166e-15 7.861278143333186e-19
3.1986289994194426 7.64907226556299e-23 6.4944453613148226e-15 6.4936161657579146e-15 8.291955569077566e-19
3.2227097969389145 1.2030401831416452e-22 1.0291312500700041e-14 1.0290437474618365e-14 8.75026081676837e-19
3.2348180950136065 1.6183421439495274e-22 1.3895994731791815e-14 1.3895095196561179e-14 8.995352306382646e-19
3.240889293275058 1.9288120002293628e-22 1.659294709481383e-14 1.6592034629733974e-14 9.124650798544576e-19
3.2469718861334385 2.2880034663477787e-22 1.9719896873552147e-14 1.971897102814206e-14 9.258454100844123e-19
3.2714166318528037 4.203113165175393e-22 3.649861405567402e-14 3.649763275587284e-14 9.812998011851384e-19
3.2744851364798273 4.322873881992556e-22 3.757379156296085e-14 3.757280368431586e-14 9.878786449843296e-19
3.2775565192852394 4.446067867168509e-22 3.8680823396765243e-14 3.8679828902174405e-14 9.9449459083816e-19
3.283707930232385 4.327787836771527e-22 3.7722452195002424e-14 3.772144578171888e-14 1.0064132835354133e-18
3.2898708863219004 3.9523659085220974e-22 3.4514805604719504e-14 3.451378826398486e-14 1.0173407346439164e-18
3.29141343181113 3.863825668434378e-22 3.37574313741866e-14 3.375641128727198e-14 1.0200869146226919e-18
3.292184975758714 3.820319175000225e-22 3.3385148317285485e-14 3.3384126855128213e-14 1.02146215727661e-18
3.295272960557952 3.545768127689341e-22 3.1014955309054425e-14 3.1013928482285246e-14 1.026826769184201e-18
3.3076538914384823 2.5943986480852094e-22 2.2778556642887694e-14 2.2777508225943893e-14 1.0484169437845972e-18
3.310756385682612 2.400705857880248e-22 2.109772419449659e-14 2.109667032649305e-14 1.0538680035400448e-18
3.313861789986515 2.2219686934476144e-22 1.954527387005589e-14 1.954421452948933e-14 1.0593405665539398e-18
3.3200813396944477 1.971359837460929e-22 1.7373369692591197e-14 1.737229861752086e-14 1.0710750703478184e-18
3.345076488085796 1.5247316325677524e-22 1.3538448466957848e-14 1.353732518338707e-14 1.1232835707787124e-18
3.3482140837626964 1.541571864508237e-22 1.3700815791672605e-14 1.3699685438218076e-14 1.1303534545297232e-18
3.3513546224236106 1.5585973051960257e-22 1.3865123396277316e-14 1.3863985936270724e-14 1.1374600065970752e-18
3.3576445397418455 1.6826670583469553e-22 1.4996929258880698e-14 1.499577695426132e-14 1.1523046193831637e-18
3.3702598118196083 2.139922474382609e-22 1.9143919292157365e-14 1.914273583800569e-14 1.1834541516733196e-18
3.382922481734668 2.244373355811598e-22 2.0153783254162794e-14 2.01525693625293e-14 1.2138916334962076e-18
3.389271646505754 2.298478759176777e-22 2.0678370203315475e-14 2.0677140851239527e-14 1.2293520759511092e-18
3.395632727569191 2.3568164679399135e-22 2.1243002873520825e-14 2.1241757586382328e-14 1.2452871384889645e-18
3.421196662673239 2.637000572241013e-22 2.394736296720616e-14 2.3946051527987257e-14 1.311439218905595e-18
3.4276182099114902 2.5809340304293693e-22 2.3482199773068358e-14 2.348087339545671e-14 1.3263776116506776e-18
3.4340518103208963 2.334576229983079e-22 2.128062288175563e-14 2.1279282289942293e-14 1.3405918133299072e-18
3.4469541582030403 1.9836648843249115e-22 1.8149858604884908e-14 1.8148490555983162e-14 1.3680489017423373e-18
3.472904465399547 1.885689160799565e-22 1.7383305969512554e-14 1.738187490139121e-14 1.4310681213427353e-18
3.4990501388274233 1.7356626547746035e-22 1.612073792878612e-14 1.6119241952393133e-14 1.495976392986274e-18
3.5253949054701885 1.200709892072893e-22 1.1236092199655138e-14 1.1234532508483093e-14 1.5596911720428559e-18
3.5519380250092896 6.97609841113268e-23 6.577296364876544e-15 6.575672092113762e-15 1.6242727627814032e-18
3.578680990867387 4.9838049729391805e-23 4.734274753459063e-15 4.732579584060795e-15 1.6951693982678189e-18
3.605625307711299 4.1808906793437e-23 4.001463302407085e-15 3.999693111727982e-15 1.7701906791030774e-18
3.660119384959845 3.6013502238152995e-23 3.4988880095929568e-15 3.4969586578237708e-15 1.9293517691866896e-18
3.715437065384467 3.193269754522819e-23 3.1493066476927385e-15 3.1472072144250764e-15 2.099433267662158e-18
3.8285932144167436 3.000839917680925e-23 3.049660442986878e-15 3.0471872841783152e-15 2.473158808562563e-18
3.94519561050918 2.9802197668462714e-23 3.120946077971429e-15 3.118052680898052e-15 2.8933970733773657e-18
4.06534921144712 3.030636442223509e-23 3.2704019374927473e-15 3.267038687998233e-15 3.3632494945146754e-18
4.189162171576248 3.122564024332987e-23 3.472225786361642e-15 3.4683383752280113e-15 3.887411133632901e-18
4.316745939156006 3.2449822112273196e-23 3.718247054300416e-15 3.713778497860606e-15 4.468556439809425e-18
4.448215356677963 3.394196775254962e-23 4.007672778051626e-15 4.002568551333016e-15 5.104226718608925e-18
4.58368876423945 3.5706621575613174e-23 4.344435111184556e-15 4.3386349706985844e-15 5.800140485971289e-18
4.723288106065518 3.777928362550766e-23 4.736609575277619e-15 4.730043791627505e-15 6.565783650111188e-18
4.867139040275056 4.023066991032103e-23 5.197571237038573e-15 5.1901803050939464e-15 7.390931944627212e-18
4.940699165968905 4.168782855171537e-23 5.467227148882344e-15 5.4593973205750425e-15 7.829828307298676e-18
5.015371051989984 4.319335189035885e-23 5.750285521722573e-15 5.741999277634805e-15 8.286244087767575e-18
5.091171501069577 4.500655125330097e-23 6.082230787236215e-15 6.073461846326477e-15 8.768940909735523e-18
5.129500256944802 4.593557472816556e-23 6.2545150722240196e-15 6.245497848178015e-15 9.017224046005945e-18
5.168117569889187 4.690174950837311e-23 6.434145250097106e-15 6.424873364257886e-15 9.271885839218224e-18
5.20702561229733 4.807555358079783e-23 6.644823362375633e-15 6.635277049912e-15 9.546312463631419e-18
5.246226572918644 4.9277505653446566e-23 6.862228771311601e-15 6.85240231427598e-15 9.826457035620142e-18
5.265937586045735 4.9889308817932695e-23 6.973529261081191e-15 6.963560568200155e-15 9.96869288103461e-18
5.285722656980489 5.050847972405063e-23 7.086602965230875e-15 7.076490583781077e-15 1.0112381449795461e-17
5.305582063971359 5.1135133705669575e-23 7.20148176382702e-15 7.191224233293106e-15 1.0257530533914738e-17
5.3255160863122235 5.180646040755079e-23 7.323438768176166e-15 7.31303382910689e-15 1.0404939069278484e-17
5.365609099470188 5.346621903783681e-23 7.614965431041558e-15 7.604255032587867e-15 1.0710398453691187e-17
5.406003951863644 5.518598484139595e-23 7.91907742699733e-15 7.908055132839403e-15 1.1022294157925216e-17
5.446702915881641 5.69686118740705e-23 8.23642519119228e-15 8.22508448634633e-15 1.1340704845948738e-17
5.487708281020852 5.888983848087924e-23 8.578291758098616e-15 8.566625084703648e-15 1.1666673394967054e-17
5.529022354014368 6.154274833918818e-23 9.032223294380096e-15 9.02021543172248e-15 1.2007862657613097e-17
5.570647458961463 6.434602296091926e-23 9.514737638384788e-15 9.502381268078456e-15 1.235637030632931e-17
5.612585937458331 6.731039026015302e-23 1.00280050826678e-14 1.0015292785618488e-14 1.2712297049312006e-17
5.654840148729818 7.056153390080717e-23 1.0591507521433768e-14 1.0578430527647102e-14 1.3076993786665374e-17
5.67608639626678 7.276938251820143e-23 1.0963951862031703e-14 1.0950684201282374e-14 1.3267660749329163e-17
5.686739436050992 7.390643425372335e-23 1.1156167136818624e-14 1.1142803358253084e-14 1.3363778565538781e-17
5.6974124697621304 7.50662710043478e-23 1.1352511151776864e-14 1.1339050729845542e-14 1.34604219313245e-17
5.718818669136295 7.745648045927471e-23 1.175800169690993e-14 1.174434640356908e-14 1.3655293340849683e-17
5.740305295436557 8.008849007073392e-23 1.2203222497071613e-14 1.2189369096144882e-14 1.3853400926733684e-17
5.7835210386641895 8.690598054952332e-23 1.3341707554014322e-14 1.3327442717072322e-14 1.426483694200809e-17
5.827062130521658 9.474246267613835e-23 1.4654255224102364e-14 1.4639566932008887e-14 1.46882920934797e-17
5.8489554468988025 1.002378520933575e-22 1.5562504795525946e-14 1.5547589412661763e-14 1.4915382864177353e-17
5.870931020387893 1.0612721600955464e-22 1.6538769042834868e-14 1.6523623787987077e-14 1.5145254847790383e-17
5.892989160043636 1.1244208531044503e-22 1.75887091160344e-14 1.7573331181321744e-14 1.5377934712656604e-17
5.915130176081913 1.1961888189811456e-22 1.8781638553132172e-14 1.8766019687809548e-14 1.5618865322626126e-17
5.95966208400165 1.3968045331741e-22 2.2096663628221808e-14 2.208050668469578e-14 1.615694352602612e-17
6.004529249263818 1.6856746021405364e-22 2.68671834774483e-14 2.685042609103233e-14 1.675738641597615e-17
6.027089341400364 1.8864318489811037e-22 3.0179926817664884e-14 3.0162828047309645e-14 1.7098770355256113e-17
6.049734195844842 2.123472354573779e-22 3.4099839748360905e-14 3.408238018508885e-14 1.7459563272055927e-17
6.095279466722835 2.8081135269377773e-22 4.5433659329639734e-14 4.5415332891645964e-14 1.8326437993780203e-17
6.141167624020661 3.8611846905672664e-22 6.29420611104664e-14 6.29226341207208e-14 1.9426989745580813e-17
6.164241091010745 4.533948668203808e-22 7.418663082420486e-14 7.416652526290183e-14 2.010556130305239e-17
6.187401249150058 5.299681312876673e-22 8.704172083757175e-14 8.702091470680973e-14 2.080613076203563e-17
6.1990139391386085 5.673667706346899e-22 9.335894654852097e-14 9.333778309400562e-14 2.116345451537956e-17
6.204828454712694 5.870610862113631e-22 9.669021053567136e-14 9.666886620323442e-14 2.1344332436994498e-17
6.210648424152782 6.014473529562239e-22 9.915257470321635e-14 9.913107320792235e-14 2.1501495294011643e-17
6.233982942956859 6.5032830655595505e-22 1.0761373389729211e-13 1.0759167127153995e-13 2.2062625752156613e-17
6.239830258556775 6.565812931132648e-22 1.0875036262209969e-13 1.087282123497086e-13 2.215027239106318e-17
6.245683058788269 6.571343857287794e-22 1.0894406299773268e-13 1.0892182478301857e-13 2.2238214714102442e-17
6.257405133728602 6.558167167539944e-22 1.0892967047149795e-13 1.0890727251961473e-13 2.2397951883198003e-17
6.269149208991335 6.462373984296973e-22 1.0754002347085545e-13 1.075175390245934e-13 2.248444626206601e-17
6.280915325867298 6.221762610971417e-22 1.037303416814746e-13 1.0370786177683384e-13 2.2479904640784507e-17
6.304513850009849 5.6281933316859125e-22 9.418680032433228e-14 9.416441225320233e-14 2.2388071129966312e-17
6.32820103803542 4.892421501878787e-22 8.218140595643332e-14 8.215919773321852e-14 2.2208223214767358e-17
6.3519772230701035 4.2176210372394695e-22 7.111249561499646e-14 7.109043920040628e-14 2.2056414590164693e-17
6.375842739491607 3.6496079933145233e-22 6.176653641790423e-14 6.174460346898201e-14 2.1932948922252036e-17
6.399797922933955 3.1947188532487706e-22 5.427106434177132e-14 5.4249147911067025e-14 2.1916430704275553e-17
6.42384311029221 2.8162746345841234e-22 4.802190256956791e-14 4.799998121816111e-14 2.192135140681098e-17
6.447978639727206 2.540701169572923e-22 4.3485714544175016e-14 4.346370360816022e-14 2.201093601481468e-17
6.472204850670314 2.3110227130224476e-22 3.9703235653615615e-14 3.968111748612759e-14 2.21181674880174e-17
6.496522083828205 2.1619407232278262e-22 3.728156495641901e-14 3.725926977432957e-14 2.2295182089437987e-17
6.520930681187647 2.0363300291763468e-22 3.524740773382776e-14 3.522492344956591e-14 2.2484284261862647e-17
