Dust emission spectrum from A.P. Jones, M. Kohler, N. Ysard, M. Bocchio, and L. Verstraete (2017), A&A, 602A, 46J 
inside the DustPedia framework.

lambda    nu*dP/dnu     j_nu    j_nu(carb.) j_nu(sil)
 (um)   (erg s-1 H-1) (Jy cm2 sr-1 H-1)
0.9927057738263894 1.63981882033291e-22 4.321015731426795e-15 4.321015669684952e-15 6.174184359184702e-23
1.0001793341362166 1.6674240478883884e-22 4.426835362981638e-15 4.426835288668157e-15 7.431347954342709e-23
1.0077091589558085 1.6951259689717275e-22 4.5342620529260666e-15 4.534261963599715e-15 8.932635172688847e-23
1.0114953028030835 1.7090116990693637e-22 4.588580329943628e-15 4.588580232057928e-15 9.788569859994426e-23
1.0152956718711033 1.7229198338261096e-22 4.643303147523434e-15 4.643303040293873e-15 1.0722955959289395e-22
1.0229392996569957 1.7507875207232094e-22 4.75392952544698e-15 4.753929396895395e-15 1.2855158615047226e-22
1.0267826658714554 1.7647152755507797e-22 4.809751141297481e-15 4.809751000609206e-15 1.406882761303311e-22
1.0306404723013447 1.7786625186109964e-22 4.8659784273822705e-15 4.865978273462643e-15 1.5391962836123505e-22
1.03451277320114 1.792628726072798e-22 4.922612405910853e-15 4.922612237571464e-15 1.6833938985520689e-22
1.0383996230291617 1.8066133863436614e-22 4.979654124724593e-15 4.979653940675715e-15 1.840488767661485e-22
1.0403485208654093 1.8136124798359996e-22 5.008328221540616e-15 5.008328029119479e-15 1.9242113798629564e-22
1.0423010764483396 1.8206160003932646e-22 5.0371046586924975e-15 5.037104457534952e-15 2.011575455282056e-22
1.0462171883269815 1.8346360820748026e-22 5.0949651111266544e-15 5.094964891343049e-15 2.197836038077731e-22
1.0471985131304309 1.8381437760948769e-22 5.109494406114053e-15 5.109494181422103e-15 2.246919486219469e-22
1.048180758391296 1.8416525249580163e-22 5.124049409683692e-15 5.124049179978546e-15 2.2970514668686633e-22
1.0501480137395462 1.8486731584437793e-22 5.1532366152169296e-15 5.153236375162266e-15 2.400546637916416e-22
1.0521189612883777 1.855697925528758e-22 5.182526874282016e-15 5.182526623432324e-15 2.5084969065628305e-22
1.0531058218030118 1.8592071283712598e-22 5.197197519981675e-15 5.197197263561371e-15 2.5642030648088405e-22
1.0540936079674168 1.8627019022448293e-22 5.2118507551537075e-15 5.211850493043263e-15 2.6211044407044734e-22
1.058054026499678 1.8766903561916228e-22 5.270719442817434e-15 5.270719156714627e-15 2.861028056681223e-22
1.0590464539527713 1.8801897759479043e-22 5.285500645484808e-15 5.285500353063435e-15 2.924213726207489e-22
1.06003981227728 1.8836901050731979e-22 5.300307498544286e-15 5.300307199670978e-15 2.98873307132055e-22
1.0620293250338977 1.8906934656114749e-22 5.329998233160809e-15 5.329997920972782e-15 3.1218802773783024e-22
1.0660195594769086 1.9047108183503762e-22 5.389688365799144e-15 5.389688025260144e-15 3.405390019005564e-22
1.070024785945596 1.9187420171739176e-22 5.449791118069092e-15 5.4497907467270465e-15 3.7134204554986247e-22
1.0740450607676866 1.9327866800657685e-22 5.510307806575985e-15 5.510307401778112e-15 4.0479787268632664e-22
1.07808044048254 1.9468444405225441e-22 5.571239788758103e-15 5.57123934763547e-15 4.4112262929904e-22
1.0861967418109137 1.9749760809868628e-22 5.6942924624516756e-15 5.694291939124243e-15 5.233274307999973e-22
1.0902777775684922 1.988999769715743e-22 5.756272248397078e-15 5.7562716786696946e-15 5.697273843336308e-22
1.0943741465085532 2.0030343896469271e-22 5.818669144126572e-15 5.818668524088181e-15 6.20038392682744e-22
1.1026131145906286 2.0311353187999016e-22 5.944720560014748e-15 5.944719826352415e-15 7.336623328589157e-22
1.1109141095355224 2.059276834817568e-22 6.072459819378548e-15 6.0724589523997136e-15 8.669788344816312e-22
1.1192775983109025 2.0874348255358568e-22 6.201834454697799e-15 6.20183343150467e-15 1.0231931305873412e-21
1.1277040513999907 2.1155050350735223e-22 6.332550138818547e-15 6.332548932822399e-15 1.2059961484875422e-21
1.1361939428280308 2.1436081462770344e-22 6.464981724503413e-15 6.464980304871231e-15 1.4196321807942253e-21
1.1447477501889525 2.1717433492267934e-22 6.5991459252919195e-15 6.5991442563165925e-15 1.6689753258380382e-21
1.1533659546722406 2.1999206092003383e-22 6.73509256613342e-15 6.735090606515269e-15 1.9596181522573963e-21
1.1707974979042381 2.2564865670656587e-22 7.012679182884727e-15 7.012676491517424e-15 2.6913673030664334e-21
1.1884924949847024 2.313217182806064e-22 7.297637495034355e-15 7.29763381716758e-15 3.677866777371196e-21
1.2064549276569216 2.3704992892715933e-22 7.591373580398537e-15 7.591368579227215e-15 5.0011713218759896e-21
1.2246888378427687 2.427941012414718e-22 7.892840450033796e-15 7.892833682722508e-15 6.767311288215025e-21
1.2431983285522175 2.4854878783441675e-22 8.202032768748312e-15 8.202023655932809e-15 9.112815502532545e-21
1.2619875648066055 2.5432146524608715e-22 8.519370890405564e-15 8.519358677817339e-15 1.2212588224842958e-20
1.3004222497298317 2.6588043533178466e-22 9.177834156645126e-15 9.17781253122537e-15 2.1625419755199198e-20
1.3400274889804893 2.774991172765835e-22 9.870627131155382e-15 9.870589539440544e-15 3.759171483329475e-20
1.3808389325824078 2.892133912508006e-22 1.0600609937480359e-14 1.060054575832448e-14 6.417915587956694e-20
1.4228933163050095 3.011177714947896e-22 1.1373081729035692e-14 1.1372974061454938e-14 1.0766758075272318e-19
1.466228494730424 3.134220804274138e-22 1.2198338407588702e-14 1.2198160832506128e-14 1.775750825734944e-19
1.5108834753276823 3.2608874469927074e-22 1.3077845829002319e-14 1.3077557773335148e-14 2.8805566717234807e-19
1.5568984535646726 3.390944798024361e-22 1.4013623336161481e-14 1.4013163264524408e-14 4.600716370775456e-19
1.6043148490894465 3.5250889610236343e-22 1.5011673768868064e-14 1.5010948934665338e-14 7.248342027338079e-19
1.6531753430134553 3.6640433296203466e-22 1.6078626730620003e-14 1.60775015996092e-14 1.1251310108047793e-18
1.7035239163302658 3.8086689661102874e-22 1.7222289901585364e-14 1.7220568745151915e-14 1.7211564334520942e-18
1.755405889504358 3.9617242416308444e-22 1.8459980038364185e-14 1.8457384025178198e-14 2.596013185989208e-18
1.8088679632656115 4.1229663706627316e-22 1.979639417115849e-14 1.9792532141948892e-14 3.862029209587851e-18
1.8639582606462262 4.292050359950422e-22 2.1235887948663922e-14 2.1230218800134176e-14 5.66914852974998e-18
1.9207263702978936 4.46920486786776e-22 2.2785847958710666e-14 2.277763355566895e-14 8.214403041715866e-18
1.979223391128241 4.654877554693956e-22 2.4455272670865158e-14 2.444351946651411e-14 1.1753204351055227e-17
2.039501978296691 4.849351116467663e-22 2.6252894556346067e-14 2.6236282940852848e-14 1.6611615493220853e-17
2.1016163906111602 5.054361312698428e-22 2.8196107929912762e-14 2.8172906202085507e-14 2.3201727827262216e-17
2.1656225393682647 5.270387907430926e-22 3.029666165875069e-14 3.0264626327499204e-14 3.203533125147561e-17
2.231578038680979 5.496153617033565e-22 3.2556699768291285e-14 3.251296047263566e-14 4.3739295655636535e-17
2.299542257339062 5.731101910567443e-22 3.498234825694169e-14 3.4923276643639925e-14 5.907161330177331e-17
2.369576372248914 5.975207629593072e-22 3.758314718096601e-14 3.7504208736013546e-14 7.893844495245184e-17
2.4417434235010123 6.228560885303499e-22 4.0369853542748625e-14 4.026544659994116e-14 1.0440694280747444e-16
2.5161083711144245 6.49239731947719e-22 4.336145688418325e-14 4.322473470770809e-14 1.3672217647515316e-16
2.5927381535095444 6.7695244979703945e-22 4.658930757581966e-14 4.641199036314474e-14 1.773172126749165e-16
2.6717017477616296 7.062355624135299e-22 5.008492067159115e-14 4.985710997058989e-14 2.278107010012609e-16
2.753070231689431 7.375073187356402e-22 5.3895568588754364e-14 5.3605559453075643e-14 2.900091356787306e-16
2.836916847834745 7.720733882047753e-22 5.813994585772157e-14 5.777403043905059e-14 3.6591541867098136e-16
2.9233170693905177 8.129664826660256e-22 6.308382178704418e-14 6.262619375609074e-14 4.57628030953439e-16
2.967498994190263 8.388669488407574e-22 6.607742297321164e-14 6.556828663522315e-14 5.091363379884901e-16
3.0123486681368425 8.66770056923874e-22 6.930723473147014e-14 6.874153616983497e-14 5.656985616351822e-16
3.0578761833420214 9.151030670148721e-22 7.427785272214297e-14 7.364994598846994e-14 6.279067336730241e-16
3.1040917844459814 9.725574453149089e-22 8.013444811921485e-14 7.943886841153755e-14 6.955797076772774e-16
3.127460860933648 1.0275754095447119e-21 8.530510447854009e-14 8.457330020450965e-14 7.318042740304542e-16
3.1510058709225794 1.0981700226726952e-21 9.185191807146647e-14 9.108236153757961e-14 7.695565338868754e-16
3.162844764501044 1.1626888534624832e-21 9.761370990101403e-14 9.682461908014095e-14 7.890908208730756e-16
3.1747281389236908 1.2360195485324915e-21 1.0416008217995589e-13 1.0335106171845852e-13 8.090204614973606e-16
3.1986289994194426 1.4357342001558073e-21 1.2190102266731084e-13 1.210508334452128e-13 8.501892220980518e-16
3.2227097969389145 1.900708513096033e-21 1.6259461284103356e-13 1.6170080647253564e-13 8.938063684979513e-16
3.2348180950136065 2.3380673905808264e-21 2.0075959996193913e-13 1.998425187187448e-13 9.170812431943694e-16
3.240889293275058 2.664975269228031e-21 2.2925922094029694e-13 2.2832986277579417e-13 9.293581645027937e-16
3.2469718861334385 3.0438378708904584e-21 2.623429981493247e-13 2.614009369598219e-13 9.42061189502857e-16
3.2714166318528037 5.036713484476535e-21 4.373735713376799e-13 4.363790201950267e-13 9.945511426532748e-16
3.2744851364798273 5.161289679826922e-21 4.4861179835412947e-13 4.4761106271232733e-13 1.0007356418021306e-15
3.2775565192852394 5.2892350380446505e-21 4.601638403259082e-13 4.591568893979277e-13 1.006950927980495e-15
3.283707930232385 5.1662979013185024e-21 4.5031187516116895e-13 4.4929381186817025e-13 1.018063292998768e-15
3.2898708863219004 4.775632019966358e-21 4.170413737589579e-13 4.160131999571103e-13 1.0281738018476598e-15
3.29141343181113 4.683321778776184e-21 4.0917196353305295e-13 4.081412509919397e-13 1.0307125411132575e-15
3.292184975758714 4.637936612183131e-21 4.0530174205639056e-13 4.042697584768758e-13 1.0319835795148502e-15
3.295272960557952 4.354497391336451e-21 3.808893788937762e-13 3.7985245166183725e-13 1.0369272319388751e-15
3.3076538914384823 3.3658939144352948e-21 2.955220672833053e-13 2.944652851816062e-13 1.0567821016990455e-15
3.310756385682612 3.1628069814371774e-21 2.7795170806018164e-13 2.768899216315496e-13 1.0617864286320457e-15
3.313861789986515 2.974691913524271e-21 2.616651094154726e-13 2.6059830238827455e-13 1.0668070271980463e-15
3.3200813396944477 2.7117566462162965e-21 2.3898402430545966e-13 2.3790641740167273e-13 1.0776069037869666e-15
3.345076488085796 2.250727354344919e-21 1.99847341322979e-13 1.9872160320660798e-13 1.1257381163711193e-15
3.3482140837626964 2.2691237427345463e-21 2.0166978344298002e-13 2.0053752511373446e-13 1.1322583292455848e-15
3.3513546224236106 2.2876930045904585e-21 2.0351084719383483e-13 2.0237203940797984e-13 1.1388077858550036e-15
3.3576445397418455 2.4192595620388576e-21 2.15618795951293e-13 2.1446629441560857e-13 1.152501535684416e-15
3.3702598118196083 2.8973664916236214e-21 2.5920074647305416e-13 2.580195220106144e-13 1.1812244624398374e-15
3.382922481734668 3.010622316421357e-21 2.7034463525503953e-13 2.6913549292930276e-13 1.209142325736655e-15
3.389271646505754 3.0690537072251044e-21 2.7610883275940484e-13 2.7488553997098367e-13 1.2232927884211092e-15
3.395632727569191 3.133194128511106e-21 2.824082943269594e-13 2.811704186050095e-13 1.2378757219500025e-15
3.421196662673239 3.44420326115281e-21 3.1277803461971776e-13 3.114797927950801e-13 1.2982418246375727e-15
3.4276182099114902 3.387074867156025e-21 3.0816738335487395e-13 3.068556701718152e-13 1.311713183058539e-15
3.4340518103208963 3.129146239515603e-21 2.8523455439053256e-13 2.8391009982282483e-13 1.324454567707754e-15
3.4469541582030403 2.7592600741621564e-21 2.52462906390516e-13 2.511139967256343e-13 1.3489096648817246e-15
3.472904465399547 2.656017310413348e-21 2.448460887777495e-13 2.434408449979446e-13 1.4052437798049603e-15
3.4990501388274233 2.4998768721200067e-21 2.3218716954484234e-13 2.307242796899689e-13 1.4628898548734926e-15
3.5253949054701885 1.9472007635330553e-21 1.822165991530622e-13 1.8069770837331022e-13 1.5188907797519293e-15
3.5519380250092896 1.421566917627741e-21 1.3403003181291938e-13 1.3245485693068885e-13 1.5751748822304993e-15
3.578680990867387 1.2157014047553038e-21 1.1548334053054827e-13 1.1384647728098002e-13 1.6368632495682025e-15
3.605625307711299 1.1356431432687452e-21 1.0869058081024615e-13 1.0698875042144282e-13 1.7018303888033465e-15
3.660119384959845 1.0833335410701452e-21 1.0525115586299638e-13 1.0341284763994109e-13 1.838308223055302e-15
3.715437065384467 1.0473427064736739e-21 1.0329234926796651e-13 1.0131018841403867e-13 1.9821608539278506e-15
3.8285932144167436 1.0404627448823035e-21 1.0573899849750321e-13 1.0344774902406498e-13 2.2912494734382226e-15
3.94519561050918 1.0495754669474391e-21 1.0991365380315626e-13 1.0728549711291089e-13 2.628156690245387e-15
4.06534921144712 1.0640414487446576e-21 1.148221926940876e-13 1.1182975533408916e-13 2.99243735999842e-15
4.189162171576248 1.0807446319744736e-21 1.2017653922773556e-13 1.1679184217435834e-13 3.3846970533771696e-15
4.316745939156006 1.0984189158009423e-21 1.2586179621983144e-13 1.2205841264603997e-13 3.803383573791513e-15
4.448215356677963 1.1165558431399268e-21 1.3183650666188124e-13 1.275939274426655e-13 4.242579219215732e-15
4.58368876423945 1.135113492620731e-21 1.3810959130025592e-13 1.334068926935424e-13 4.702698606713552e-15
4.723288106065518 1.1543791500107935e-21 1.447312603818196e-13 1.3954477152434836e-13 5.1864888574712044e-15
4.867139040275056 1.1748326906775665e-21 1.5178162866812744e-13 1.461006837594909e-13 5.680944908636485e-15
4.940699165968905 1.186410932207231e-21 1.5559404947771694e-13 1.4966041341525563e-13 5.933636062461277e-15
5.015371051989984 1.1976673342424837e-21 1.5944419292617683e-13 1.532550293604727e-13 6.189163565704205e-15
5.091171501069577 1.211389291332362e-21 1.6370837217902928e-13 1.5725531630562033e-13 6.45305587340894e-15
5.129500256944802 1.2181192596841e-21 1.6585718834577047e-13 1.5927139886726328e-13 6.585789478507132e-15
5.168117569889187 1.2250084215908263e-21 1.680509192029278e-13 1.613305781355159e-13 6.720341067411884e-15
5.20702561229733 1.2339355594811721e-21 1.7054996193702634e-13 1.6368265383090657e-13 6.867308106119798e-15
5.246226572918644 1.2428548552133558e-21 1.7307601577866968e-13 1.6606083590301037e-13 7.015179875659318e-15
5.265937586045735 1.2473130120183989e-21 1.743494546853907e-13 1.6726001903903028e-13 7.089435646360378e-15
5.285722656980489 1.2517709870370379e-21 1.75629993953325e-13 1.6846609976920344e-13 7.16389418412153e-15
5.305582063971359 1.2562294144296952e-21 1.7691775817524645e-13 1.6967921064415175e-13 7.23854753109471e-15
5.3255160863122235 1.2610867309708533e-21 1.782691074234908e-13 1.7095511701516958e-13 7.313990408321199e-15
5.365609099470188 1.2738975431968628e-21 1.8143579120992133e-13 1.739657051477665e-13 7.470086062154844e-15
5.406003951863644 1.2869043399117633e-21 1.846681750482349e-13 1.7704107668288776e-13 7.627098365347166e-15
5.446702915881641 1.3001245646128647e-21 1.8796980237707456e-13 1.801848385759696e-13 7.78496380110491e-15
5.487708281020852 1.3143391050072389e-21 1.9145551427333393e-13 1.835112092625041e-13 7.94430501082988e-15
5.529022354014368 1.3356094240579574e-21 1.960185867176857e-13 1.8790817785983067e-13 8.11040885785504e-15
5.570647458961463 1.35769448507244e-21 2.007599883273601e-13 1.924825282133074e-13 8.277460114052778e-15
5.612585937458331 1.3806647445372848e-21 2.0569354927476035e-13 1.9724815514716477e-13 8.445394127595538e-15
5.654840148729818 1.4057505505177619e-21 2.1100756610533686e-13 2.0239257392410662e-13 8.614992181230285e-15
5.67608639626678 1.4238087696571403e-21 2.1452113885059942e-13 2.0581737504808914e-13 8.703763802510254e-15
5.686739436050992 1.433050612227828e-21 2.1631881319898034e-13 2.0757056452166944e-13 8.74824867731092e-15
5.6974124697621304 1.4424390631863557e-21 2.1814465180551233e-13 2.0935185356759241e-13 8.792798237919849e-15
5.718818669136295 1.4616706994585784e-21 2.2188364953651314e-13 2.130015622181937e-13 8.882087318319443e-15
5.740305295436557 1.4829786693870153e-21 2.259640385897852e-13 2.1699173352932898e-13 8.972305060456208e-15
5.7835210386641895 1.5397060228300052e-21 2.3637392209212125e-13 2.2721514851700298e-13 9.158773575118261e-15
5.827062130521658 1.6042910031147655e-21 2.48143115022659e-13 2.387950606680402e-13 9.34805435461878e-15
5.8489554468988025 1.651092013592111e-21 2.5634156002714834e-13 2.468911531260544e-13 9.450406901093924e-15
5.870931020387893 1.7007581590995572e-21 2.6504460824198166e-13 2.55491423248936e-13 9.553184993045686e-15
5.892989160043636 1.7535155422819306e-21 2.7429298130223485e-13 2.6463660044380207e-13 9.656380858432852e-15
5.915130176081913 1.813527691321232e-21 2.847461961189633e-13 2.74982798966771e-13 9.76339715219228e-15
5.95966208400165 1.9840188906572748e-21 3.138606513487544e-13 3.0385250774103753e-13 1.0008143607716929e-14
6.004529249263818 2.2300691216617213e-21 3.554403452658901e-13 3.4515628591446313e-13 1.0284059351426888e-14
6.027089341400364 2.4018951354312963e-21 3.842652436671617e-13 3.738213109198261e-13 1.0443932747335702e-14
6.049734195844842 2.6035914367486304e-21 4.1809845356405996e-13 4.074850757387853e-13 1.0613377825274771e-14
6.095279466722835 3.1872831364154197e-21 5.156840520081028e-13 5.046526293859853e-13 1.1031422622117463e-14
6.141167624020661 4.080499023904491e-21 6.651715457984529e-13 6.535956380466864e-13 1.157590775176631e-14
6.164241091010745 4.6503797101479e-21 7.609173107065423e-13 7.489987415949349e-13 1.19185691116077e-14
6.187401249150058 5.292659700757692e-21 8.692639820479285e-13 8.569937029512138e-13 1.227027909671479e-14
6.1990139391386085 5.604871170379252e-21 9.22269147735649e-13 9.098199369900714e-13 1.2449210745577565e-14
6.204828454712694 5.768750450860256e-21 9.501254788000135e-13 9.37585907598549e-13 1.2539571201464392e-14
6.210648424152782 5.88732269592915e-21 9.705640910062227e-13 9.57947741733864e-13 1.2616349272358669e-14
6.233982942956859 6.285147346850567e-21 1.0400411104218989e-12 1.0271579620146706e-12 1.2883148407227977e-14
6.239830258556775 6.333109432756861e-21 1.0489606611727491e-12 1.0360411564264948e-12 1.2919504746254333e-14
6.245683058788269 6.332584074551448e-21 1.049857461942518e-12 1.036901548629431e-12 1.2955913313086784e-14
6.257405133728602 6.3108986822447984e-21 1.0482259696557965e-12 1.0352067186862135e-12 1.3019250969582794e-14
6.269149208991335 6.2191635147494714e-21 1.0349277091830274e-12 1.0218870664698552e-12 1.3040642713172029e-14
6.280915325867298 6.005017743076247e-21 1.0011673238612386e-12 9.881571365306676e-13 1.3010187330570868e-14
6.304513850009849 5.483558044883543e-21 9.176635488561342e-13 9.047611537342832e-13 1.2902395121851158e-14
6.32820103803542 4.8467657878936056e-21 8.141449518151212e-13 8.014002269748573e-13 1.2744724840264026e-14
6.3519772230701035 4.2652810215897794e-21 7.1916081427519e-13 7.065578629079407e-13 1.2602951367249654e-14
6.375842739491607 3.774975659075078e-21 6.388827839869007e-13 6.264052884501706e-13 1.2477495536730084e-14
6.399797922933955 3.3845015755955663e-21 5.749504454427504e-13 5.625393020333339e-13 1.2411143409416655e-14
6.42384311029221 3.0585230096774096e-21 5.215261756572232e-13 5.091695975124924e-13 1.2356578144730819e-14
6.447978639727206 2.8209401509467507e-21 4.828218273733177e-13 4.704737613715888e-13 1.2348066001728819e-14
6.472204850670314 2.622006556530685e-21 4.5045919978481735e-13 4.381105226720826e-13 1.2348677112734716e-14
6.496522083828205 2.4914169937846714e-21 4.296321517485067e-13 4.1724558188832437e-13 1.2386569860182522e-14
6.520930681187647 2.3805789322736663e-21 4.120610857089301e-13 3.9963101432712077e-13 1.2430071381809387e-14
