Dust emission spectrum from A.P. Jones, M. Kohler, N. Ysard, M. Bocchio, and L. Verstraete (2017), A&A, 602A, 46J 
inside the DustPedia framework.

lambda    nu*dP/dnu     j_nu    j_nu(carb.) j_nu(sil)
 (um)   (erg s-1 H-1) (Jy cm2 sr-1 H-1)
0.9927057738263894 7.393049270187573e-23 1.9481104743759703e-15 1.9481102735267182e-15 2.0084925152328597e-22
1.0001793341362166 7.517492153716995e-23 1.995815050715818e-15 1.99581480892698e-15 2.417888374141123e-22
1.0077091589558085 7.642269922365282e-23 2.0442170753964243e-15 2.04421678470679e-15 2.9068963462557408e-22
1.0114953028030835 7.704776145006191e-23 2.0686800613972505e-15 2.0686797428227454e-15 3.1857450470859756e-22
1.0152956718711033 7.76735627975246e-23 2.093317933523225e-15 2.0933175845043842e-15 3.490188408698955e-22
1.0229392996569957 7.892664794970709e-23 2.143102561512894e-15 2.1431021430093877e-15 4.185035070622602e-22
1.0267826658714554 7.9552490264132e-23 2.168211983780471e-15 2.1682115257185374e-15 4.580619333851594e-22
1.0306404723013447 8.01789152647521e-23 2.193495775206823e-15 2.1934952740131132e-15 5.011937091257469e-22
1.03451277320114 8.080589303998661e-23 2.218954130121365e-15 2.2189535819159424e-15 5.482054238065425e-22
1.0383996230291617 8.143339420266359e-23 2.2445872503597164e-15 2.244586650931239e-15 5.99428476563993e-22
1.0403485208654093 8.174733201803322e-23 2.2574694127523275e-15 2.2574687860222685e-15 6.267300601264825e-22
1.0423010764483396 8.206138990561452e-23 2.270395345877801e-15 2.2703946906568475e-15 6.552209532890737e-22
1.0462171883269815 8.268985185723022e-23 2.29637863537692e-15 2.296377919407285e-15 7.159696350631281e-22
1.0471985131304309 8.284703693521855e-23 2.3029018583243526e-15 2.3029011263449102e-15 7.319794430328392e-22
1.048180758391296 8.300424899088912e-23 2.3094360487611498e-15 2.3094353004293565e-15 7.483317938983466e-22
1.0501480137395462 8.331875233697482e-23 2.3225373469398336e-15 2.3225365648476874e-15 7.820921462434474e-22
1.0521189612883777 8.36333585221888e-23 2.3356825599953458e-15 2.3356817426872545e-15 8.17308091156696e-22
1.0531058218030118 8.379048323295164e-23 2.3422656088773532e-15 2.342264773395693e-15 8.354816591896695e-22
1.0540936079674168 8.394692505346633e-23 2.348839844987895e-15 2.348838990942147e-15 8.540457480000652e-22
1.058054026499678 8.457289971798858e-23 2.3752454708811664e-15 2.3752445385536723e-15 9.323274940235833e-22
1.0590464539527713 8.4729443223238e-23 2.381874067059077e-15 2.381873114113792e-15 9.529452843399656e-22
1.06003981227728 8.488600587023504e-23 2.3885135470199738e-15 2.3885125730210045e-15 9.73998968156475e-22
1.0620293250338977 8.519918702177268e-23 2.4018251744786145e-15 2.4018241570293976e-15 1.0174492168332568e-21
1.0660195594769086 8.582576192379435e-23 2.4285792156477896e-15 2.4285781056706793e-15 1.109977110158482e-21
1.070024785945596 8.645260003906062e-23 2.455507867184766e-15 2.4555066566633232e-15 1.2105214419467463e-21
1.0740450607676866 8.707967765373269e-23 2.482611415519254e-15 2.4826100957795037e-15 1.3197397508373286e-21
1.07808044048254 8.770697174019375e-23 2.5098901614311663e-15 2.509888723090911e-15 1.4383402559375122e-21
1.0861967418109137 8.896112752398207e-23 2.5649458886504005e-15 2.564944181854007e-15 1.7067963929240934e-21
1.0902777775684922 8.958568814127075e-23 2.592657969864171e-15 2.5926561115078446e-15 1.8583563262918907e-21
1.0943741465085532 9.021034072488069e-23 2.620544753350602e-15 2.620542730635955e-15 2.02271464663185e-21
1.1026131145906286 9.145984590670771e-23 2.676843937205689e-15 2.6768415432181143e-15 2.3939875736105488e-21
1.1109141095355224 9.270949921119685e-23 2.7338466558556414e-15 2.7338438261221708e-15 2.829733471500771e-21
1.1192775983109025 9.395815145572699e-23 2.791526201773777e-15 2.791522861302927e-15 3.340470851130068e-21
1.1277040513999907 9.520100444732366e-23 2.8497456821586463e-15 2.849741743841952e-15 3.938316694174132e-21
1.1361939428280308 9.644350231528324e-23 2.908672842087756e-15 2.9086682048780846e-15 4.637209672729672e-21
1.1447477501889525 9.768555759995326e-23 2.968312299080426e-15 2.9683068459174773e-15 5.453162949023179e-21
1.1533659546722406 9.892759322032815e-23 3.0286842847746924e-15 3.0286778802175553e-15 6.404557135668707e-21
1.1707974979042381 1.0141545203486034e-22 3.1517760384124435e-15 3.1517672373940367e-15 8.80101840646896e-21
1.1884924949847024 1.0390243820520544e-22 3.2778691707278696e-15 3.277857136910667e-15 1.2033817203094823e-20
1.2064549276569216 1.0640601694371343e-22 3.407585184596937e-15 3.4075688114753167e-15 1.6373121621080812e-20
1.2246888378427687 1.0890778009052236e-22 3.5404143989764824e-15 3.540392230654573e-15 2.2168321908129153e-20
1.2431983285522175 1.1140511886068947e-22 3.676334306286841e-15 3.676304436608884e-15 2.9869677956954357e-20
1.2619875648066055 1.1390098351599059e-22 3.815504611125718e-15 3.815464556644778e-15 4.00544809393432e-20
1.3004222497298317 1.1886925693125849e-22 4.103206484814683e-15 4.1031354697245375e-15 7.101509014491682e-20
1.3400274889804893 1.2382477950547909e-22 4.404440057652218e-15 4.404316452726965e-15 1.2360492525263904e-19
1.3808389325824078 1.2878487867599765e-22 4.720384000152013e-15 4.7201726954095914e-15 2.1130474241992252e-19
1.4228933163050095 1.3379623756422698e-22 5.053423241350466e-15 5.05306827652242e-15 3.54964828044828e-19
1.466228494730424 1.3896137569406425e-22 5.40835503353389e-15 5.407768786467754e-15 5.862470661364924e-19
1.5108834753276823 1.4427363401114362e-22 5.786119188283231e-15 5.7851668608225625e-15 9.523274606679083e-19
1.5568984535646726 1.4973873697785766e-22 6.1881935089678105e-15 6.186670304939556e-15 1.523204028256003e-18
1.6043148490894465 1.5541185668877329e-22 6.6182502575721486e-15 6.615846988909849e-15 2.4032686623000186e-18
1.6531753430134553 1.6135734486102833e-22 7.080714622807757e-15 7.076978601079896e-15 3.736021727860005e-18
1.7035239163302658 1.6765674683486026e-22 7.581213079002617e-15 7.575489318167792e-15 5.7237608348214706e-18
1.755405889504358 1.7448970154446716e-22 8.130491197653453e-15 8.121844799552128e-15 8.646398101328431e-18
1.8088679632656115 1.8191298784765898e-22 8.734539379001909e-15 8.721656179868984e-15 1.2883199132923634e-17
1.8639582606462262 1.899958854386934e-22 9.400475286897346e-15 9.381533598347559e-15 1.8941688549789448e-17
1.9207263702978936 1.9885111241988229e-22 1.01382490800464e-14 1.0110758568593973e-14 2.7490511452427262e-17
1.979223391128241 2.0862120808780713e-22 1.0960306621960234e-14 1.0920907850965943e-14 3.9398770994294074e-17
2.039501978296691 2.1946316854523474e-22 1.1881060546955078e-14 1.1825281389108833e-14 5.577915784624566e-17
2.1016163906111602 2.3162184646921404e-22 1.292118663057144e-14 1.2843144568388957e-14 7.804206218248268e-17
2.1656225393682647 2.453099422738704e-22 1.4101566057633722e-14 1.399362139673903e-14 1.0794466089469431e-16
2.231578038680979 2.6068489869124214e-22 1.544178087474728e-14 1.529413440481066e-14 1.4764646993662066e-16
2.299542257339062 2.779584925437517e-22 1.6966441949341122e-14 1.6766673968275407e-14 1.997679810657162e-16
2.369576372248914 2.9739152118870627e-22 1.8705474360173317e-14 1.8438020711179284e-14 2.674536489940263e-16
2.4417434235010123 3.19269505065692e-22 2.0693163954742e-14 2.0338742373825514e-14 3.5442158091648135e-16
2.5161083711144245 3.439527821244957e-22 2.2971936248484544e-14 2.2506908063786076e-14 4.650281846984718e-16
2.5927381535095444 3.718917945898044e-22 2.5594384374061405e-14 2.4990073552568257e-14 6.043108214931529e-16
2.6717017477616296 4.0353840935171334e-22 2.861819808570637e-14 2.7840209518533304e-14 7.779885671730835e-16
2.753070231689431 4.394380561126591e-22 3.2113259478334975e-14 3.1120779363376226e-14 9.924801149587578e-16
2.836916847834745 4.805824798650379e-22 3.618961589194437e-14 3.493467221870051e-14 1.2549436732438522e-15
2.9233170693905177 5.288118756734955e-22 4.103425520626751e-14 3.946130246306109e-14 1.5729527432064334e-15
2.967498994190263 5.569778994464928e-22 4.3873065090139e-14 4.212097927268446e-14 1.7520858174545271e-15
3.0123486681368425 5.873101090094678e-22 4.6961520255722793e-14 4.5012481880518077e-14 1.9490383752047225e-15
3.0578761833420214 6.292429129463831e-22 5.1074916147695615e-14 4.890901786535333e-14 2.1658982823422833e-15
3.1040917844459814 6.770850076487084e-22 5.578882119416115e-14 5.338664612837277e-14 2.4021750657883643e-15
3.127460860933648 7.147908775725073e-22 5.93390129086939e-14 5.681021652143428e-14 2.5287963872596217e-15
3.1510058709225794 7.608053996412847e-22 6.363444074543679e-14 6.097357699815886e-14 2.6608637472779634e-15
3.162844764501044 7.987059627505948e-22 6.70554739662019e-14 6.432623335887051e-14 2.7292406073313913e-15
3.1747281389236908 8.412831600843138e-22 7.089541843819116e-14 6.80963884832334e-14 2.799029954957765e-15
3.1986289994194426 9.53989491722793e-22 8.099848470716681e-14 7.805520301970257e-14 2.9432816874642185e-15
3.2227097969389145 1.2024630612342854e-21 1.0286375556795037e-13 9.97675336087048e-14 3.0962219592455485e-15
3.2348180950136065 1.4316362849207571e-21 1.22928333464455e-13 1.1975047205220412e-13 3.1778614122508604e-15
3.240889293275058 1.6015338055448879e-21 1.3777478418219163e-13 1.345538597039372e-13 3.220924478254442e-15
3.2469718861334385 1.797899126019421e-21 1.5495774318360854e-13 1.5169226057523526e-13 3.265482608373299e-15
3.2714166318528037 2.8297888516877658e-21 2.457306455903877e-13 2.422809551587568e-13 3.4496904316310214e-15
3.2744851364798273 2.8951013766652037e-21 2.5163800436925795e-13 2.4816658474335325e-13 3.4714196259047588e-15
3.2775565192852394 2.962166083022349e-21 2.5770866876633026e-13 2.5421540942130694e-13 3.493259345023289e-15
3.283707930232385 2.9024386400229916e-21 2.529862991825197e-13 2.4945394109424154e-13 3.5323580882781656e-15
3.2898708863219004 2.705727671393946e-21 2.3628294231591713e-13 2.3271496321771076e-13 3.567979098206277e-15
3.29141343181113 2.659302369942746e-21 2.3233764915933525e-13 2.287607244267098e-13 3.576924732625392e-15
3.292184975758714 2.6364853475436585e-21 2.3039816918985527e-13 2.2681676557436347e-13 3.581403615491783e-15
3.295272960557952 2.492864187291514e-21 2.1805168464519115e-13 2.1445285167293168e-13 3.598832972259409e-15
3.3076538914384823 1.993284430779251e-21 1.7500834864141538e-13 1.7133949121513863e-13 3.6688574262767476e-15
3.310756385682612 1.891088505584782e-21 1.661913873673758e-13 1.6250487563842107e-13 3.686511728954722e-15
3.313861789986515 1.796600582681987e-21 1.5803575688160034e-13 1.5433153144377873e-13 3.704225437821567e-15
3.3200813396944477 1.6654717022242026e-21 1.4677612400056674e-13 1.4303381626960324e-13 3.742307730963491e-15
3.345076488085796 1.4426594736828146e-21 1.2809710589483316e-13 1.241851358225318e-13 3.9119700723013474e-15
3.3482140837626964 1.4537626159552832e-21 1.2920405635696519e-13 1.2526910484847596e-13 3.9349515084892465e-15
3.3513546224236106 1.4649631986562684e-21 1.3032163890351167e-13 1.2636360025537781e-13 3.9580386481338345e-15
3.3576445397418455 1.5357305725013497e-21 1.3687343935483526e-13 1.3286713797624162e-13 4.006301378593648e-15
3.3702598118196083 1.7878139331526857e-21 1.5993927843364488e-13 1.5583173995225013e-13 4.1075384813947e-15
3.382922481734668 1.852724932401765e-21 1.663690072800125e-13 1.621629813480269e-13 4.20602593198565e-15
3.389271646505754 1.8861623530998636e-21 1.6968946632739322e-13 1.6543350367803778e-13 4.2559626493554645e-15
3.395632727569191 1.9225085738507392e-21 1.7328398589465763e-13 1.6897655993706704e-13 4.3074259575905464e-15
3.421196662673239 2.095834010148459e-21 1.9032873291107203e-13 1.8580817700318315e-13 4.520555907888813e-15
3.4276182099114902 2.069852986382951e-21 1.8832213746680157e-13 1.8375392319961534e-13 4.568214267186126e-15
3.4340518103208963 1.9408130961466306e-21 1.7691309905681823e-13 1.722997622224964e-13 4.613336834321781e-15
3.4469541582030403 1.75781564347186e-21 1.6083414912759704e-13 1.5613411159153303e-13 4.700037536064007e-15
3.472904465399547 1.7192414798860556e-21 1.584890092260203e-13 1.535893886942403e-13 4.899620531779975e-15
3.4990501388274233 1.6535233390559315e-21 1.5357832545814396e-13 1.4847425678366612e-13 5.104068674477834e-15
3.5253949054701885 1.3831995150149189e-21 1.2943807145949944e-13 1.2413504314950856e-13 5.303028309990921e-15
3.5519380250092896 1.1272873181811932e-21 1.0628437764312917e-13 1.0078110282601041e-13 5.503274817118755e-15
3.578680990867387 1.0364739802660227e-21 9.845795780601747e-14 9.273516582655597e-14 5.722791979461484e-15
3.605625307711299 1.0106978668965052e-21 9.673226913558855e-14 9.077811960856727e-14 5.954149527021276e-15
3.660119384959845 1.015479925740691e-21 9.865884502597247e-14 9.221790149318725e-14 6.440943532785217e-15
3.715437065384467 1.0299044431574452e-21 1.0157253093729681e-13 9.461735347205406e-14 6.955177465242722e-15
3.8285932144167436 1.0956258437071453e-21 1.1134505296936933e-13 1.0328097914576381e-13 8.064073823605529e-15
3.94519561050918 1.1740415301393097e-21 1.2294799026654668e-13 1.1366917577089859e-13 9.278814495648066e-15
4.06534921144712 1.2594391840984941e-21 1.3590783409203899e-13 1.2530852908872404e-13 1.059930500331495e-14
4.189162171576248 1.3499328299467685e-21 1.501097029707362e-13 1.3808043853724228e-13 1.2029264433493927e-14
4.316745939156006 1.4444906530847243e-21 1.6551625759961703e-13 1.5195143129294437e-13 1.3564826306672637e-14
4.448215356677963 1.5423144538375162e-21 1.8210764022000077e-13 1.669212580903409e-13 1.5186382129659874e-14
4.58368876423945 1.6430019266462336e-21 1.9990452590846077e-13 1.8300738585557635e-13 1.6897140052884386e-14
4.723288106065518 1.7463411698482435e-21 2.189489983134521e-13 2.00240079631908e-13 1.8708918681544125e-14
4.867139040275056 1.85183133368272e-21 2.392459607869174e-13 2.1866943059573463e-13 2.057653019118273e-14
4.940699165968905 1.9058006418527567e-21 2.499397395229896e-13 2.284025902734944e-13 2.153714924949515e-14
5.015371051989984 1.9597848966057213e-21 2.6090410267877047e-13 2.383911581101774e-13 2.2512944568593018e-14
5.091171501069577 2.015469188071477e-21 2.72372541442291e-13 2.488480828744508e-13 2.3524458567840144e-14
5.129500256944802 2.043263628382532e-21 2.782075381852099e-13 2.541724518376972e-13 2.4035086347512754e-14
5.168117569889187 2.0711874011321907e-21 2.8413269694079495e-13 2.59579054840058e-13 2.4553642100737015e-14
5.20702561229733 2.1005643716472024e-21 2.9033215784893696e-13 2.6521384034193927e-13 2.5118317506997604e-14
5.246226572918644 2.1299379729104828e-21 2.966083904815735e-13 2.709206059752942e-13 2.5687784506279257e-14
5.265937586045735 2.1446212254387087e-21 2.9977522687499846e-13 2.7380097271603363e-13 2.5974254158964938e-14
5.285722656980489 2.1593009175625563e-21 3.0296117342724433e-13 2.76699325157917e-13 2.6261848269327323e-14
5.305582063971359 2.173976168568911e-21 3.061662031247942e-13 2.796156613897775e-13 2.6550541735016726e-14
5.3255160863122235 2.188894599803048e-21 3.09425416165137e-13 2.8258292125024015e-13 2.6842494914896847e-14
5.365609099470188 2.2206453481701352e-21 3.1627704119028707e-13 2.8883051778522063e-13 2.7446523405066355e-14
5.406003951863644 2.2524840495592812e-21 3.2322691427545484e-13 2.9517136043831687e-13 2.8055553837137986e-14
5.446702915881641 2.2844109207488563e-21 3.3027625275971544e-13 3.0160686461469715e-13 2.866938814501819e-14
5.487708281020852 2.3168976879653733e-21 3.374949711822398e-13 3.08204631289953e-13 2.929033989228685e-14
5.529022354014368 2.353675912550363e-21 3.454334910035503e-13 3.154956622136215e-13 2.9937828789928824e-14
5.570647458961463 2.3908779672456766e-21 3.535350832413335e-13 3.229444586294253e-13 3.0590624611908234e-14
5.612585937458331 2.428534804403091e-21 3.6180683647598397e-13 3.3055830912479356e-13 3.124852735119044e-14
5.654840148729818 2.4673949543721196e-21 3.7036372047010005e-13 3.384492643248146e-13 3.1914456145285446e-14
5.67608639626678 2.490189290636251e-21 3.7518959987126114e-13 3.4292679807226407e-13 3.226280179899699e-14
5.686739436050992 2.501703266682323e-21 3.7763179960785435e-13 3.4519427071829637e-13 3.243752888955802e-14
5.6974124697621304 2.5132976642435283e-21 3.8009400732596436e-13 3.474813859605733e-13 3.26126213653911e-14
5.718818669136295 2.536735692078097e-21 3.8508001390211296e-13 3.521161239128637e-13 3.2963889989249245e-14
5.740305295436557 2.5614144211168406e-21 3.9028716936091754e-13 3.5696803285694406e-13 3.3319136503973434e-14
5.7835210386641895 2.619322745705473e-21 4.021154567477223e-13 3.6806167979130305e-13 3.4053776956419265e-14
5.827062130521658 2.6818172410108855e-21 4.148090856421192e-13 3.800080114569199e-13 3.480107418519914e-14
5.8489554468988025 2.721987601765676e-21 4.2260427793671416e-13 3.873998995136288e-13 3.520437842308531e-14
5.870931020387893 2.7637824644290773e-21 4.30705351393692e-13 3.950954826126077e-13 3.560986878108417e-14
5.892989160043636 2.8073295050375797e-21 4.391354173185192e-13 4.031178935362578e-13 3.601752378226131e-14
5.915130176081913 2.855257876517801e-21 4.483106727114985e-13 4.1187063513036075e-13 3.6440037581137825e-14
5.95966208400165 2.9820799344298486e-21 4.717483059267316e-13 4.343466082394123e-13 3.740169768731946e-14
6.004529249263818 3.154665452606888e-21 5.028074541642198e-13 4.643241224360999e-13 3.848333172811984e-14
6.027089341400364 3.270740228896958e-21 5.232667207194266e-13 4.841589649342453e-13 3.910775578518134e-14
6.049734195844842 3.4045835536336054e-21 5.467259949900014e-13 5.069568929158302e-13 3.976910207417133e-14
6.095279466722835 3.7818699820109824e-21 6.118847786722158e-13 5.704919130640758e-13 4.1392865608139867e-14
6.141167624020661 4.345595114693477e-21 7.083854702381426e-13 6.648874091150586e-13 4.349806112308402e-14
6.164241091010745 4.7030775322283186e-21 7.695399797264552e-13 7.247217150498209e-13 4.481826467663443e-14
6.187401249150058 5.101787423881238e-21 8.379152075487051e-13 7.917407800777451e-13 4.61744274709598e-14
6.1990139391386085 5.2958465257351625e-21 8.71419826318341e-13 8.245552371957145e-13 4.686458912262656e-14
6.204828454712694 5.397334340743839e-21 8.889524548558463e-13 8.417392177977654e-13 4.7213237058080944e-14
6.210648424152782 5.471617204604126e-21 9.020322908735156e-13 8.54521752125371e-13 4.7510538748144527e-14
6.233982942956859 5.7219589976296704e-21 9.468469490481187e-13 8.982987839653324e-13 4.854816508278654e-14
6.239830258556775 5.7530812571731866e-21 9.528898850367647e-13 9.041969119768302e-13 4.8692973059934206e-14
6.245683058788269 5.7552028729263936e-21 9.541354066527366e-13 9.052973746927203e-13 4.883803196001667e-14
6.257405133728602 5.7468978088351786e-21 9.545467026950057e-13 9.054542831583955e-13 4.909241953661023e-14
6.269149208991335 5.696140222630341e-21 9.478916799359298e-13 8.987034391176798e-13 4.918824081825018e-14
6.280915325867298 5.571392582605294e-21 9.288725597086838e-13 8.797846365962587e-13 4.908792311242506e-14
6.304513850009849 5.264951425923966e-21 8.810801254445658e-13 8.323703888183155e-13 4.870973662625026e-14
6.32820103803542 4.890192416194998e-21 8.21439624541879e-13 7.732969899248302e-13 4.814263461704885e-14
6.3519772230701035 4.549071542136739e-21 7.670101871083222e-13 7.193746197706879e-13 4.7635567337634275e-14
6.375842739491607 4.260743185425161e-21 7.210948398074171e-13 6.739048495289672e-13 4.7189990278449775e-14
6.399797922933955 4.035908653682742e-21 6.856098088217961e-13 6.386410377925197e-13 4.696877102927645e-14
6.42384311029221 3.848341698115695e-21 6.562026579790835e-13 6.09410450041335e-13 4.679220793774871e-14
6.447978639727206 3.715618526207899e-21 6.359517149074445e-13 5.891609048282017e-13 4.679081007924269e-14
6.472204850670314 3.605405095292631e-21 6.194064961738839e-13 5.725822534658713e-13 4.682424270801243e-14
6.496522083828205 3.5375558808369186e-21 6.100334664193541e-13 5.630336725973787e-13 4.699979382197551e-14
6.520930681187647 3.4812551072934855e-21 6.025802126086385e-13 5.553831653657579e-13 4.719704724288074e-14
6.57002334288761 3.4313944299543654e-21 5.984212232961823e-13 5.50632259445164e-13 4.778896385101835e-14
