Dust emission spectrum from A.P. Jones, M. Kohler, N. Ysard, M. Bocchio, and L. Verstraete (2017), A&A, 602A, 46J 
inside the DustPedia framework.

lambda    nu*dP/dnu     j_nu    j_nu(carb.) j_nu(sil)
 (um)   (erg s-1 H-1) (Jy cm2 sr-1 H-1)
0.9927057738263894 6.334561501083621e-26 1.6691929351265739e-18 1.6691929351265739e-18 6.340270409642659e-41
1.0001793341362166 6.438775607343925e-26 1.7094271603549267e-18 1.7094271603549267e-18 8.874210027128127e-41
1.0077091589558085 6.542829093079563e-26 1.75012961977849e-18 1.75012961977849e-18 1.2399338793405767e-40
1.0114953028030835 6.594782777692348e-26 1.7706543817370272e-18 1.7706543817370272e-18 1.4646910252546612e-40
1.0152956718711033 6.646680958311229e-26 1.791293710153289e-18 1.791293710153289e-18 1.7294178405552575e-40
1.0229392996569957 6.750239394678508e-26 1.832898737417423e-18 1.832898737417423e-18 2.4077973677233427e-40
1.0267826658714554 6.801773585540627e-26 1.8538309674738077e-18 1.8538309674738077e-18 2.839106823778727e-40
1.0306404723013447 6.853229474498405e-26 1.8748731944299152e-18 1.8748731944299152e-18 3.346136477033593e-40
1.03451277320114 6.904602094109094e-26 1.8960245047952683e-18 1.8960245047952683e-18 3.941887737712586e-40
1.0383996230291617 6.955886505082274e-26 1.917283973869554e-18 1.917283973869554e-18 4.641540684070667e-40
1.0403485208654093 6.981494096731593e-26 1.9279539759420887e-18 1.9279539759420887e-18 5.0357561619657266e-40
1.0423010764483396 7.007077797221538e-26 1.9386506659603864e-18 1.9386506659603864e-18 5.462809569207635e-40
1.0462171883269815 7.058171090345154e-26 1.96012363460129e-18 1.96012363460129e-18 6.426354686540303e-40
1.0471985131304309 7.070928532314449e-26 1.9655083705502325e-18 1.9655083705502325e-18 6.692211126598882e-40
1.048180758391296 7.083679470648335e-26 1.9708996739649115e-18 1.9708996739649115e-18 6.9688586005407464e-40
1.0501480137395462 7.10916153518573e-26 1.9817019227698724e-18 1.9817019227698724e-18 7.556259253196028e-40
1.0521189612883777 7.134616682773399e-26 1.9925302597748108e-18 1.9925302597748108e-18 8.192192380706926e-40
1.0531058218030118 7.147314336590741e-26 1.997948683490702e-18 1.997948683490702e-18 8.529569095034382e-40
1.0540936079674168 7.159940694504145e-26 2.0033555702356493e-18 2.0033555702356493e-18 8.880560835179828e-40
1.058054026499678 7.210372452616877e-26 2.0250463882110207e-18 2.0250463882110207e-18 1.043188997874152e-39
1.0590464539527713 7.222961604972955e-26 2.0304848326360828e-18 2.0304848326360828e-18 1.085952720738184e-39
1.06003981227728 7.235543095423724e-26 2.0359295417769607e-18 2.0359295417769607e-18 1.1304353069976316e-39
1.0620293250338977 7.260682797640665e-26 2.0468376913996435e-18 2.0468376913996435e-18 1.2248301599934312e-39
1.0660195594769086 7.310867044388263e-26 2.068728474339744e-18 2.068728474339744e-18 1.4374013274731721e-39
1.070024785945596 7.360920543669102e-26 2.0907177223744533e-18 2.0907177223744533e-18 1.6860427800970294e-39
1.0740450607676866 7.41083868304791e-26 2.1128044118704628e-18 2.1128044118704628e-18 1.9767268152039237e-39
1.07808044048254 7.460616887581762e-26 2.1349875104361126e-18 2.1349875104361126e-18 2.3163886300270488e-39
1.0861967418109137 7.559646990670235e-26 2.1796132769496236e-18 2.1796132769496236e-18 3.176122881160663e-39
1.0902777775684922 7.608688936719955e-26 2.2019954773240756e-18 2.2019954773240756e-18 3.716337943409579e-39
1.0943741465085532 7.657569540544571e-26 2.224468228547198e-18 2.224468228547198e-18 4.3462739314659636e-39
1.1026131145906286 7.754829358077412e-26 2.2696810546136913e-18 2.2696810546136913e-18 5.93568291401044e-39
1.1109141095355224 7.851392141738584e-26 2.3152430261332866e-18 2.3152430261332866e-18 8.090106012242744e-39
1.1192775983109025 7.947134168085862e-26 2.3611185315493055e-18 2.3611185315493055e-18 1.1004325682709668e-38
1.1277040513999907 8.041608636200192e-26 2.4071741282206e-18 2.4071741282206e-18 1.493795359818467e-38
1.1361939428280308 8.135274611519338e-26 2.4535455222370647e-18 2.4535455222370647e-18 2.0236769675816898e-38
1.1447477501889525 8.228100901363305e-26 2.500223544161161e-18 2.500223544161161e-18 2.735976767962514e-38
1.1533659546722406 8.320107954380957e-26 2.547214522134407e-18 2.547214522134407e-18 3.6915171833458253e-38
1.1707974979042381 8.501964311792398e-26 2.642229252021094e-18 2.642229252021094e-18 6.679750588168216e-38
1.1884924949847024 8.680152065510325e-26 2.738376821973432e-18 2.738376821973432e-18 1.1989527049198716e-37
1.2064549276569216 8.856074753271602e-26 2.836101753427602e-18 2.836101753427602e-18 2.134824096599406e-37
1.2246888378427687 9.027800362431534e-26 2.934790734662968e-18 2.934790734662968e-18 3.770772460791307e-37
1.2431983285522175 9.194926723949546e-26 3.034297248165082e-18 3.034297248165082e-18 6.607301127469586e-37
1.2619875648066055 9.357392344100968e-26 3.134579925029124e-18 3.134579925029124e-18 1.1485909865406207e-36
1.3004222497298317 9.665630567157833e-26 3.3364453557508365e-18 3.3364453557508365e-18 3.389750177900211e-36
1.3400274889804893 9.95131480646072e-26 3.539676770265824e-18 3.539676770265824e-18 9.697239514377167e-36
1.3808389325824078 1.0213391532646201e-25 3.743539651055055e-18 3.743539651055055e-18 2.6906638971726305e-35
1.4228933163050095 1.045316028345703e-25 3.948111253623694e-18 3.948111253623694e-18 7.245677517680909e-35
1.466228494730424 1.0676454849366229e-25 4.155259548667061e-18 4.155259548667061e-18 1.89514011693717e-34
1.5108834753276823 1.0878896950703707e-25 4.36300054582119e-18 4.36300054582119e-18 4.81715563396542e-34
1.5568984535646726 1.1056947693395095e-25 4.5694610042945665e-18 4.5694610042945665e-18 1.1906586191967494e-33
1.6043148490894465 1.1210943875966628e-25 4.774206664510104e-18 4.7742066645101e-18 2.863784496300841e-33
1.6531753430134553 1.1341365905772844e-25 4.976840408522033e-18 4.976840408522027e-18 6.70723170659128e-33
1.7035239163302658 1.14497942991347e-25 5.177443313867333e-18 5.1774433138673175e-18 1.5307733818741195e-32
1.755405889504358 1.1545340466970519e-25 5.379646375101069e-18 5.379646375101036e-18 3.407501285370656e-32
1.8088679632656115 1.1625750726028893e-25 5.58209607397563e-18 5.5820960739755556e-18 7.402599770847602e-32
1.8639582606462262 1.1689499270840388e-25 5.783643617229658e-18 5.7836436172295e-18 1.5704667489007959e-31
1.9207263702978936 1.173768583225221e-25 5.98435589032221e-18 5.9843558903218844e-18 3.2557362937336625e-31
1.979223391128241 1.1772875097391836e-25 6.185100837645658e-18 6.185100837644998e-18 6.600114435749847e-31
2.039501978296691 1.1798135790139936e-25 6.387147629054588e-18 6.387147629053277e-18 1.3092721573580889e-30
2.1016163906111602 1.1822070350003543e-25 6.595024592053935e-18 6.5950245920513936e-18 2.5434225174704726e-30
2.1656225393682647 1.1849660087826733e-25 6.8117404023698764e-18 6.811740402365034e-18 4.841924728416227e-30
2.231578038680979 1.1881251540045937e-25 7.037909895058555e-18 7.037909895049518e-18 9.037605085400625e-30
2.299542257339062 1.1919821875712318e-25 7.275797333982397e-18 7.275797333965847e-18 1.6548909973162072e-29
2.369576372248914 1.1971969060774596e-25 7.530186449566195e-18 7.530186449536449e-18 2.9746317937843515e-29
2.4417434235010123 1.2045485592711255e-25 7.807172446149208e-18 7.80717244609669e-18 5.251695503840606e-29
2.5161083711144245 1.2153723486273118e-25 8.117235144425121e-18 8.117235144333993e-18 9.1127861164176e-29
2.5927381535095444 1.2318541950491359e-25 8.477882604445065e-18 8.477882604289544e-18 1.5552028669960867e-28
2.6717017477616296 1.2566052639084006e-25 8.911612259126639e-18 8.911612258865466e-18 2.611752983860324e-28
2.753070231689431 1.2935574719370963e-25 9.453060828169432e-18 9.453060827737655e-18 4.317783592166897e-28
2.836916847834745 1.351620434508458e-25 1.0178195503569075e-17 1.0178195502865883e-17 7.031921452718485e-28
2.9233170693905177 1.4504189711781577e-25 1.1254827086387907e-17 1.1254827085259013e-17 1.1288911487802653e-27
2.967498994190263 1.5344693107625116e-25 1.2086991605377298e-17 1.2086991603954151e-17 1.4231466137362584e-27
3.0123486681368425 1.632665167601705e-25 1.305484737329875e-17 1.3054847371510693e-17 1.7880549726994252e-27
3.0578761833420214 1.8526633331762515e-25 1.5037853020674407e-17 1.5037853018432273e-17 2.2421316065706185e-27
3.1040917844459814 2.1362550159767553e-25 1.760180003472928e-17 1.7601800031926478e-17 2.8027979922198115e-27
3.127460860933648 2.4363735682178366e-25 2.022577611872414e-17 2.0225776115588718e-17 3.135422714167858e-27
3.1510058709225794 2.836306757406636e-25 2.3723122151232498e-17 2.3723122147725124e-17 3.5073746069682345e-27
3.162844764501044 3.2085978273610586e-25 2.6937829203086322e-17 2.6937829199369024e-17 3.717297772247422e-27
3.1747281389236908 3.641588041768973e-25 3.068787303134064e-17 3.0687873027401685e-17 3.938953950479698e-27
3.1986289994194426 4.8494575203553375e-25 4.1174322590410144e-17 4.11743225859803e-17 4.429838287400371e-27
3.2227097969389145 7.696792788912092e-25 6.58416077482782e-17 6.584160774322206e-17 5.056125322221754e-27
3.2348180950136065 1.0397026678907182e-24 8.927471146725516e-17 8.927471146179472e-17 5.460456477878765e-27
3.240889293275058 1.2415786021361004e-24 1.0680899982397156e-16 1.068089998182624e-16 5.7091502984477465e-27
3.2469718861334385 1.4751143470939379e-24 1.2713749445416312e-16 1.2713749444817172e-16 5.991383540269953e-27
3.2714166318528037 2.720861950959731e-24 2.362717498773399e-16 2.362717498700489e-16 7.290984521619357e-27
3.2744851364798273 2.7987274876420185e-24 2.4326132599019787e-16 2.432613259827697e-16 7.428072831362781e-27
3.2775565192852394 2.878829631524946e-24 2.5045839130950627e-16 2.504583913019387e-16 7.567631086435254e-27
3.283707930232385 2.8017566637328586e-24 2.4421052000676382e-16 2.4421051999903674e-16 7.72713155390159e-27
3.2898708863219004 2.557398969763259e-24 2.2332984935621707e-16 2.233298493484257e-16 7.79137464637326e-27
3.29141343181113 2.499774085868179e-24 2.183999988510307e-16 2.1839999884322315e-16 7.807490799866475e-27
3.292184975758714 2.471459370809205e-24 2.159768173155468e-16 2.1597681730773122e-16 7.815557209804112e-27
3.295272960557952 2.2927345845697e-24 2.0054627972047372e-16 2.0054627971264674e-16 7.827001413720094e-27
3.3076538914384823 1.6736033443216657e-24 1.4694067391876496e-16 1.4694067391090352e-16 7.861454810103867e-27
3.310756385682612 1.547600524977616e-24 1.3600520418634546e-16 1.3600520417847541e-16 7.870066373952652e-27
3.313861789986515 1.4313456083115e-24 1.2590655304752418e-16 1.259065530396455e-16 7.878678201586346e-27
3.3200813396944477 1.2683071506541046e-24 1.117744644755016e-16 1.1177446446754795e-16 7.95364943939023e-27
3.345076488085796 9.77431576628027e-25 8.678843376437849e-17 8.678843375577057e-17 8.607902016724815e-27
3.3482140837626964 9.883299717956294e-25 8.783844072868097e-17 8.783844071994918e-17 8.731794979893485e-27
3.3513546224236106 9.99348870407921e-25 8.890106096002447e-17 8.890106095116712e-17 8.857359513254794e-27
3.3576445397418455 1.079911016249854e-24 9.624809041246266e-17 9.624809040329486e-17 9.167798964481168e-27
3.3702598118196083 1.3770850005473958e-24 1.2319513638701227e-16 1.231951363770937e-16 9.918559930006642e-27
3.382922481734668 1.4447327248473124e-24 1.2973256041100915e-16 1.2973256040047532e-16 1.0533863383216582e-26
3.389271646505754 1.4797788408317618e-24 1.331289861504385e-16 1.3312898613958365e-16 1.0854849654210663e-26
3.395632727569191 1.5175396484251776e-24 1.3678239078308964e-16 1.3678239077188806e-16 1.1201593428667846e-26
3.421196662673239 1.698844077482726e-24 1.5427693181573221e-16 1.5427693180300683e-16 1.2725370014882596e-26
3.4276182099114902 1.662261224271964e-24 1.5123807770044297e-16 1.5123807768744668e-16 1.2996302833954975e-26
3.4340518103208963 1.5020395665250603e-24 1.369170865280641e-16 1.3691708651486387e-16 1.3200217415112956e-26
3.4469541582030403 1.2738588178191128e-24 1.1655374659652328e-16 1.1655374658301231e-16 1.3511001742162233e-26
3.472904465399547 1.2098692095080925e-24 1.1153230919062887e-16 1.1153230917584342e-16 1.4785431529873303e-26
3.4990501388274233 1.112026310234456e-24 1.032843834479614e-16 1.0328438343183903e-16 1.6122348944969443e-26
3.5253949054701885 7.639555158631005e-25 7.148999662069736e-17 7.148999660355372e-17 1.7143644275144815e-26
3.5519380250092896 4.368540209027564e-25 4.118804228850998e-17 4.1188042270402654e-17 1.8107343861249927e-26
3.578680990867387 3.071474149294076e-25 2.917690920864722e-17 2.917690918905752e-17 1.958969452085304e-26
3.605625307711299 2.546675512022507e-25 2.4373822197370836e-17 2.437382217596746e-17 2.1403387524699414e-26
3.660119384959845 2.163450323342794e-25 2.1018978786447312e-17 2.1018978760732212e-17 2.571509593471563e-26
3.715437065384467 1.8919604323584578e-25 1.8659130060524746e-17 1.8659130029706706e-17 3.081803640898954e-26
3.8285932144167436 1.75321212939746e-25 1.781735056137284e-17 1.7817350517209875e-17 4.416296349954582e-26
3.94519561050918 1.7254674172745795e-25 1.8069441819417236e-17 1.8069441756706655e-17 6.27105831378192e-26
4.06534921144712 1.743247199972556e-25 1.8811623000666725e-17 1.8811622912452838e-17 8.821388881870345e-26
4.189162171576248 1.7873378087111675e-25 1.9874822037225332e-17 1.987482191427731e-17 1.229480205532969e-25
4.316745939156006 1.8505651176698112e-25 2.1204610224856657e-17 2.1204610055009853e-17 1.698468019635017e-25
4.448215356677963 1.9305008659447902e-25 2.279424641746311e-17 2.279424618481013e-17 2.326529770453142e-25
4.58368876423945 2.027401239476919e-25 2.4667450295152602e-17 2.4667449979031352e-17 3.1612124803322324e-25
4.723288106065518 2.14350317183805e-25 2.687435195703667e-17 2.68743515307603e-17 4.262763719235943e-25
4.867139040275056 2.2833173975282813e-25 2.949914793086293e-17 2.949914736010544e-17 5.707574961960102e-25
4.940699165968905 2.3678148314053356e-25 3.105314423783496e-17 3.105314357892739e-17 6.589075745710162e-25
5.015371051989984 2.4552889817993085e-25 3.2687004054521933e-17 3.26870032952278e-17 7.592941172355245e-25
5.091171501069577 2.562253847935418e-25 3.462655725589337e-17 3.462655638181063e-17 8.740827451418518e-25
5.129500256944802 2.6171395176269087e-25 3.563455699853022e-17 3.5634556061334656e-17 9.371955684734161e-25
5.168117569889187 2.674369914371049e-25 3.668793736250962e-17 3.668793635801424e-17 1.004495375378468e-24
5.20702561229733 2.744767736135107e-25 3.793715395645531e-17 3.7937152879607825e-17 1.0768474838591988e-24
5.246226572918644 2.8169592171085576e-25 3.922807847296492e-17 3.922807731906337e-17 1.1539015675979083e-24
5.265937586045735 2.8537455030831533e-25 3.988966422055529e-17 3.9889663026279104e-17 1.1942761741929387e-24
5.285722656980489 2.8910020262078025e-25 4.056226527375996e-17 4.056226403783081e-17 1.235929151426732e-24
5.305582063971359 2.9287363946209416e-25 4.124608700217543e-17 4.1246085723278844e-17 1.2788965816034497e-24
5.3255160863122235 2.969303086978573e-25 4.197451277423045e-17 4.197451145083929e-17 1.3233911541037187e-24
5.365609099470188 3.070547744545127e-25 4.373250128745177e-17 4.373249986941995e-17 1.418031819136346e-24
5.406003951863644 3.1756577337114935e-25 4.5570047444437437e-17 4.557004592565694e-17 1.5187805006947546e-24
5.446702915881641 3.284820669851455e-25 4.749137959253646e-17 4.749137796654901e-17 1.6259874607962154e-24
5.487708281020852 3.4028288330830965e-25 4.9567903879605334e-17 4.9567902139112676e-17 1.7404926541495416e-24
5.529022354014368 3.5672228796530006e-25 5.235377759255997e-17 5.2353775725978437e-17 1.8665815397135846e-24
5.570647458961463 3.741352738501161e-25 5.532275046914948e-17 5.5322748468224175e-17 2.0009253011063044e-24
5.612585937458331 3.9259216888352994e-25 5.84889829009092e-17 5.848898075690477e-17 2.1440044173653686e-24
5.654840148729818 4.128898180937831e-25 6.197605652977024e-17 6.197605423250592e-17 2.297264323912625e-24
5.67608639626678 4.267330492576082e-25 6.429463117717353e-17 6.429462879542717e-17 2.3817463569906615e-24
5.686739436050992 4.338695083877423e-25 6.549254878845856e-17 6.549254636341698e-17 2.4250415940245525e-24
5.6974124697621304 4.411537774187494e-25 6.671709025621867e-17 6.671708778716506e-17 2.4690535924388632e-24
5.718818669136295 4.561800167190926e-25 6.924876238728232e-17 6.924875982801179e-17 2.5592705358965544e-24
5.740305295436557 4.7274943004384755e-25 7.20336527145616e-17 7.203365006065356e-17 2.6539080697925168e-24
5.7835210386641895 5.157689625988212e-25 7.918026608663088e-17 7.9180263222171e-17 2.8644599032913333e-24
5.827062130521658 5.6534950084378865e-25 8.744522405443387e-17 8.744522096107004e-17 3.093363821731919e-24
5.8489554468988025 6.001536574870656e-25 9.317731752667736e-17 9.317731429861572e-17 3.2280616593161486e-24
5.870931020387893 6.375106675649515e-25 9.934908395459058e-17 9.934908058640622e-17 3.368184326397257e-24
5.892989160043636 6.776262601096484e-25 1.0599742209999482e-16 1.0599741858606331e-16 3.513931519213411e-24
5.915130176081913 7.232600100772401e-25 1.1356073450657767e-16 1.1356073083589356e-16 3.670684091933197e-24
5.95966208400165 8.50901356958007e-25 1.3460781819466683e-16 1.3460781414172762e-16 4.052939230754651e-24
6.004529249263818 1.0349469345296723e-24 1.6495537836378427e-16 1.6495537382608844e-16 4.537695864409332e-24
6.027089341400364 1.1629082505037601e-24 1.8604693254526234e-16 1.8604692769815725e-16 4.8471050634268586e-24
6.049734195844842 1.3141493690445031e-24 2.1103304120397568e-16 2.11033036010036e-16 5.1939396540837256e-24
6.095279466722835 1.751080654708576e-24 2.833147633155316e-16 2.8331475717946387e-16 6.136067887388708e-24
6.141167624020661 2.4236036187565817e-24 3.9507720895089547e-16 3.950772014434295e-16 7.50746589264751e-24
6.164241091010745 2.8530612917911488e-24 4.6683149780077e-16 4.668314893903739e-16 8.410396092977475e-24
6.187401249150058 3.342330200931876e-24 5.489427667841871e-16 5.489427573758689e-16 9.408318236860762e-24
6.1990139391386085 3.581215358502379e-24 5.89281062158708e-16 5.892810522363537e-16 9.922354268243767e-24
6.204828454712694 3.70705629924888e-24 6.105600634427184e-16 6.105600532529221e-16 1.0189796413724375e-23
6.210648424152782 3.798902442153616e-24 6.262741972916843e-16 6.262741868795873e-16 1.0412096913644596e-23
6.233982942956859 4.110915462459877e-24 6.8025789157827e-16 6.802578803762061e-16 1.120206378352687e-23
6.239830258556775 4.1507807659701534e-24 6.874988949559083e-16 6.874988836446016e-16 1.1311306860432283e-23
6.245683058788269 4.154199786556295e-24 6.887105789629904e-16 6.887105675414605e-16 1.1421529903968774e-23
6.257405133728602 4.145540622409054e-24 6.885649029508005e-16 6.885648913364874e-16 1.1614313261323814e-23
6.269149208991335 4.0840604336759296e-24 6.796263354010779e-16 6.796263237248336e-16 1.1676244306110843e-23
6.280915325867298 3.930015231788349e-24 6.552191851356347e-16 6.552191735601984e-16 1.1575436484786951e-23
6.304513850009849 3.5501898063876205e-24 5.941178610997496e-16 5.941178498775696e-16 1.1222179785563656e-23
6.32820103803542 3.0794379524920817e-24 5.172746060293757e-16 5.172745953503116e-16 1.0679063983709719e-23
6.3519772230701035 2.647734417069488e-24 4.464293981394958e-16 4.464293879746162e-16 1.0164879530239999e-23
6.375842739491607 2.2845759797233575e-24 3.8664521151187407e-16 3.8664520179886295e-16 9.713011111736529e-24
6.399797922933955 1.993475755418795e-24 3.386465474922029e-16 3.386465380848339e-16 9.407369044350861e-24
6.42384311029221 1.751469744257281e-24 2.986530801343152e-16 2.9865307098570485e-16 9.148610452880888e-24
6.447978639727206 1.5750785359374523e-24 2.6958469740046807e-16 2.695846883737455e-16 9.026722546442473e-24
6.472204850670314 1.4281397378128454e-24 2.453535754415817e-16 2.453535665025153e-16 8.939066415052888e-24
6.496522083828205 1.3325994244709254e-24 2.297999731006683e-16 2.297999641298164e-16 8.970851892016915e-24
6.520930681187647 1.2521104656880583e-24 2.167313130954077e-16 2.1673130407070826e-16 9.024699472807229e-24
6.57002334288761 1.1696891628925133e-24 2.0398902953972975e-16 2.0398902022004599e-16 9.319683757210111e-24
