Dust emission spectrum from A.P. Jones, M. Kohler, N. Ysard, M. Bocchio, and L. Verstraete (2017), A&A, 602A, 46J 
inside the DustPedia framework.

lambda    nu*dP/dnu     j_nu    j_nu(carb.) j_nu(sil)
 (um)   (erg s-1 H-1) (Jy cm2 sr-1 H-1)
0.9927057738263894 2.5555361558722733e-24 6.733982922279328e-17 6.733982076736946e-17 8.455423817832963e-24
1.0001793341362166 2.59855883764541e-24 6.898900234673331e-17 6.898899216874117e-17 1.0177992150099418e-23
1.0077091589558085 2.64171562687147e-24 7.066277752096007e-17 7.06627652856653e-17 1.223529477347e-23
1.0114953028030835 2.663341750387461e-24 7.150891696294658e-17 7.150890355461255e-17 1.3408334008596997e-23
1.0152956718711033 2.684998357937707e-24 7.236123864696134e-17 7.236122395799616e-17 1.4688965175827445e-23
1.0229392996569957 2.7283780594367104e-24 7.408390144327791e-17 7.408388383173608e-17 1.7611541827899377e-23
1.0267826658714554 2.750051484971428e-24 7.495295956079886e-17 7.495294028555181e-17 1.9275247034205415e-23
1.0306404723013447 2.771750466907829e-24 7.582820145438719e-17 7.582818036526572e-17 2.1089121452939186e-23
1.03451277320114 2.793474093797446e-24 7.670963892140295e-17 7.670961585536558e-17 2.3066037364304896e-23
1.0383996230291617 2.815221473474777e-24 7.759728411386407e-17 7.759725889395658e-17 2.5219907507583523e-23
1.0403485208654093 2.8261037972170972e-24 7.804343850724606e-17 7.804341213939419e-17 2.636785188320969e-23
1.0423010764483396 2.8369917336151323e-24 7.849114956134688e-17 7.849112199558318e-17 2.756576369561546e-23
1.0462171883269815 2.858784022291681e-24 7.939124819430302e-17 7.93912180744621e-17 3.011984091853867e-23
1.0471985131304309 2.8642354385716197e-24 7.961724834314561e-17 7.961721755022652e-17 3.07929190766013e-23
1.048180758391296 2.8696881668183183e-24 7.984363911154684e-17 7.984360763115996e-17 3.1480386854750413e-23
1.0501480137395462 2.8805975085315884e-24 8.029759336779531e-17 8.029756046812805e-17 3.289966728530859e-23
1.0521189612883777 2.8915119469250327e-24 8.075311270274016e-17 8.075307832264913e-17 3.43800910466755e-23
1.0531058218030118 2.896963643405949e-24 8.098125288588051e-17 8.098121774181989e-17 3.514406065888359e-23
1.0540936079674168 2.9023923233381958e-24 8.120910599765019e-17 8.120907007321608e-17 3.592443413084267e-23
1.058054026499678 2.92411818001575e-24 8.212439784568945e-17 8.212435863068768e-17 3.9215001747518496e-23
1.0590464539527713 2.9295523692686893e-24 8.235419177803382e-17 8.235415169640108e-17 4.0081632707651876e-23
1.06003981227728 2.934987625211829e-24 8.258437455369253e-17 8.258433358712197e-17 4.096657057068003e-23
1.0620293250338977 2.945861291217445e-24 8.304590756200532e-17 8.304586476916138e-17 4.2792843904633e-23
1.0660195594769086 2.9676209232642388e-24 8.397365001618396e-17 8.397360333446788e-17 4.6681716063951113e-23
1.070024785945596 2.989396366464966e-24 8.490764063396278e-17 8.490758972674219e-17 5.090722060979235e-23
1.0740450607676866 3.011186935662095e-24 8.584789542358526e-17 8.584783992664469e-17 5.549694059654994e-23
1.07808044048254 3.032991970776038e-24 8.679443100259167e-17 8.679437052200926e-17 6.04805824046577e-23
1.0861967418109137 3.0766087881561405e-24 8.870542990857939e-17 8.870535814857467e-17 7.176000469212774e-23
1.0902777775684922 3.09834175137009e-24 8.966767573839648e-17 8.966759761114068e-17 7.812725580322384e-23
1.0943741465085532 3.1200854472230014e-24 9.063621180260893e-17 9.063612677092118e-17 8.503168772814041e-23
1.1026131145906286 3.1636029865062092e-24 9.259223422258004e-17 9.259213359603066e-17 1.0062654936943013e-22
1.1109141095355224 3.207157593936441e-24 9.45736643772771e-17 9.457354545044822e-17 1.1892682886003779e-22
1.1192775983109025 3.2507109080763314e-24 9.657964246521793e-17 9.657950209183824e-17 1.4037337969913225e-22
1.1277040513999907 3.294099092560496e-24 9.86055212350324e-17 9.860535576107917e-17 1.6547395325130008e-22
1.1361939428280308 3.337510606179177e-24 1.0065713321606374e-16 1.0065693840353383e-16 1.948125299212511e-22
1.1447477501889525 3.3809436877552815e-24 1.0273470283049432e-16 1.0273447377062125e-16 2.290598730846288e-22
1.1533659546722406 3.424413823729441e-24 1.0483898369381728e-16 1.0483871470805207e-16 2.689857652138359e-22
1.1707974979042381 3.511600011424058e-24 1.0913304186319454e-16 1.0913267233267774e-16 3.6953051676424363e-22
1.1884924949847024 3.598924096682912e-24 1.1353730045302784e-16 1.1353679533213956e-16 5.0512088827110175e-22
1.2064549276569216 3.6869944162168244e-24 1.180736570098103e-16 1.1807296994859425e-16 6.870612160456971e-22
1.2246888378427687 3.775193742416228e-24 1.2272539458124053e-16 1.227244646165903e-16 9.2996465022246e-22
1.2431983285522175 3.863441884367056e-24 1.274923817244441e-16 1.2749112906915308e-16 1.2526552910064215e-21
1.2619875648066055 3.951856958080587e-24 1.3238102060768313e-16 1.323793413496685e-16 1.6792580146168686e-21
1.3004222497298317 4.128588378896079e-24 1.425133045057521e-16 1.425103291326979e-16 2.975373054174967e-21
1.3400274889804893 4.305926417132839e-24 1.5316154708826746e-16 1.5315637169502325e-16 5.175393244163673e-21
1.3808389325824078 4.484600762470369e-24 1.6437518056364827e-16 1.6436633905570662e-16 8.84150794166426e-21
1.4228933163050095 4.6663603064600005e-24 1.762463134575102e-16 1.7623147103016689e-16 1.484242734320943e-20
1.466228494730424 4.854888769512131e-24 1.8895151248103003e-16 1.8892701643618019e-16 2.4496044849879896e-20
1.5108834753276823 5.05014580959601e-24 2.025369761620798e-16 2.024972121183196e-16 3.976404376018457e-20
1.5568984535646726 5.252529471015576e-24 2.1706920623356898e-16 2.1700565188766826e-16 6.355434590069825e-20
1.6043148490894465 5.46415923102107e-24 2.3269249855588917e-16 2.325922984797186e-16 1.0020007617056073e-19
1.6531753430134553 5.687501686644861e-24 2.495800633962749e-16 2.494244139483202e-16 1.5564944795470942e-19
1.7035239163302658 5.9256341168765585e-24 2.679492219451075e-16 2.6771094295658894e-16 2.3827898851857746e-19
1.755405889504358 6.1850539391951504e-24 2.8819767679425284e-16 2.878380110426284e-16 3.596657516244315e-19
1.8088679632656115 6.468071321416926e-24 3.1056399178282247e-16 3.100285151476401e-16 5.354766351823531e-19
1.8639582606462262 6.777448637880345e-24 3.3532956927726817e-16 3.345429190396685e-16 7.8665023759975305e-19
1.9207263702978936 7.117500613491724e-24 3.6287950903988664e-16 3.6173877343334725e-16 1.1407356065393361e-18
1.979223391128241 7.493626022657394e-24 3.936917040766845e-16 3.920582126513678e-16 1.6334914253167319e-18
2.039501978296691 7.9117588226543e-24 4.2831827421413957e-16 4.260076427204668e-16 2.3106314936728112e-18
2.1016163906111602 8.380947624747779e-24 4.6753702231108e-16 4.64307009154893e-16 3.2300131561867944e-18
2.1656225393682647 8.909176084826873e-24 5.121412280103037e-16 5.076776256972542e-16 4.463602313049607e-18
2.231578038680979 9.50252081306848e-24 5.628858629318773e-16 5.56786172333509e-16 6.099690598368323e-18
2.299542257339062 1.0169012233465085e-23 6.207112226084184e-16 6.124660011437725e-16 8.245221464646144e-18
2.369576372248914 1.0918370746851773e-23 6.867489134988093e-16 6.757206384668122e-16 1.1028275031997043e-17
2.4417434235010123 1.1761178740493594e-23 7.622901533548702e-16 7.476901708215518e-16 1.459998253331829e-17
2.5161083711144245 1.2710581355251141e-23 8.489149666721381e-16 8.297779323448084e-16 1.91370343273297e-17
2.5927381535095444 1.3782709739778183e-23 9.485554022107318e-16 9.23712147744303e-16 2.4843254466428846e-17
2.6717017477616296 1.4993484661847147e-23 1.0633102180708687e-15 1.0313607807146083e-15 3.194943735626044e-17
2.753070231689431 1.636169735360333e-23 1.195680313330774e-15 1.1549664510886637e-15 4.0713862242110456e-17
2.836916847834745 1.7920781024835585e-23 1.3495002605059102e-15 1.2980765612076863e-15 5.1423699298223926e-17
2.9233170693905177 1.97314015583631e-23 1.5310990625768904e-15 1.4667177999936947e-15 6.438126258319531e-17
2.967498994190263 2.0774277893683854e-23 1.6363867347985963e-15 1.564717666583828e-15 7.166906821476804e-17
3.0123486681368425 2.189321222734705e-23 1.7505888519634217e-15 1.6709121560528047e-15 7.967669591061678e-17
3.0578761833420214 2.3398669546508923e-23 1.8992428209635056e-15 1.810754360473633e-15 8.848846048987308e-17
3.1040917844459814 2.510007196000342e-23 2.0681353311897984e-15 1.970053842659007e-15 9.808148853079148e-17
3.127460860933648 2.6403373372688195e-23 2.1918999843924016e-15 2.0886806185766304e-15 1.032193658157716e-16
3.1510058709225794 2.797769182921962e-23 2.340079044838521e-15 2.2315030491822513e-15 1.0857599565626937e-16
3.162844764501044 2.925307900377342e-23 2.4559464547046357e-15 2.3445979622544704e-15 1.11348492450165e-16
3.1747281389236908 3.067927194065589e-23 2.5853599891312155e-15 2.4711823285543004e-15 1.1417766057691495e-16
3.1986289994194426 3.442602898999323e-23 2.922942240840435e-15 2.802918644674195e-15 1.200235961662408e-16
3.2227097969389145 4.2596784200811567e-23 3.643908357164325e-15 3.5176890200532737e-15 1.2621933711105167e-16
3.2348180950136065 5.0097793458178503e-23 4.301677964526609e-15 4.172151931015332e-15 1.295260335112766e-16
3.240889293275058 5.565009211184364e-23 4.787397808202837e-15 4.6561275703203555e-15 1.3127023788248223e-16
3.2469718861334385 6.206542724088324e-23 5.349309310955101e-15 5.2162343237391005e-15 1.3307498721599945e-16
3.2714166318528037 9.569908763838305e-23 8.310230840638598e-15 8.16969672694862e-15 1.4053411368997798e-16
3.2744851364798273 9.783153167623647e-23 8.50337456015202e-15 8.36196109718302e-15 1.4141346296900003e-16
3.2775565192852394 1.0002054237856091e-22 8.70179460003991e-15 8.559497364437328e-15 1.4229723560258289e-16
3.283707930232385 9.809447871728579e-23 8.550244197661314e-15 8.406365852076743e-15 1.4387834558457244e-16
3.2898708863219004 9.171289725401612e-23 8.009007499388214e-15 7.863689666052624e-15 1.4531783333558978e-16
3.29141343181113 9.020672728320725e-23 7.881171841240778e-15 7.735492529917155e-15 1.456793113236229e-16
3.292184975758714 8.94664680939959e-23 7.818329228320477e-15 7.672468936788034e-15 1.4586029153244395e-16
3.295272960557952 8.480831804046091e-23 7.418212638667562e-15 7.271648257194528e-15 1.4656438147303423e-16
3.3076538914384823 6.859819602554382e-23 6.022851942668924e-15 5.873459302096678e-15 1.493926405722463e-16
3.310756385682612 6.528045890942776e-23 5.7369340472945826e-15 5.586828460725212e-15 1.5010558656937e-16
3.313861789986515 6.221232071818615e-23 5.4724301477084155e-15 5.3216092580654096e-15 1.5082088964300486e-16
3.3200813396944477 5.796199612826438e-23 5.108124695052456e-15 4.955765537317191e-15 1.5235915773526564e-16
3.345076488085796 5.0801006683326e-23 4.5107400959049035e-15 4.3515265518779226e-15 1.5921354402698036e-16
3.3482140837626964 5.117394325734306e-23 4.548116023939131e-15 4.387973979997621e-15 1.6014204394150982e-16
3.3513546224236106 5.1550033290850404e-23 4.5858386273159274e-15 4.424763867947375e-15 1.6107475936855198e-16
3.3576445397418455 5.387679896248954e-23 4.801820649708062e-15 4.63879591298879e-15 1.6302473671927298e-16
3.3702598118196083 6.212033206992774e-23 5.55733508005619e-15 5.390220131053408e-15 1.6711494900278068e-16
3.382922481734668 6.428054305039355e-23 5.7721952933674976e-15 5.601103061807142e-15 1.7109223156035521e-16
3.389271646505754 6.539236450790206e-23 5.8830542434460135e-15 5.7099457480739255e-15 1.7310849537208773e-16
3.395632727569191 6.660183729022628e-23 6.00311072238364e-15 5.827924335108281e-15 1.7518638727535946e-16
3.421196662673239 7.236103327135823e-23 6.571314191861007e-15 6.3875244765992436e-15 1.8378971526176528e-16
3.4276182099114902 7.153653283182582e-23 6.508632670282305e-15 6.322921154570376e-15 1.857115157119281e-16
3.4340518103208963 6.735407864737848e-23 6.139601392469241e-15 5.9520713027784354e-15 1.8753008969080488e-16
3.4469541582030403 6.142835290022963e-23 5.620485235587422e-15 5.429462826590997e-15 1.9102240899642536e-16
3.472904465399547 6.024892332969541e-23 5.5540726984383475e-15 5.355008200531334e-15 1.9906449790701397e-16
3.4990501388274233 5.819026603316544e-23 5.404679452810051e-15 5.197381368840672e-15 2.0729808396937868e-16
3.5253949054701885 4.948560766259652e-23 4.630800944705968e-15 4.415497529307767e-15 2.1530341539819987e-16
3.5519380250092896 4.124059445275483e-23 3.888299676887873e-15 3.664945008542673e-15 2.233546683452008e-16
3.578680990867387 3.8376550870632515e-23 3.6455105466240755e-15 3.413330753747914e-15 2.3217979287616033e-16
3.605625307711299 3.763322853908667e-23 3.6018158449886315e-15 3.3603385391934173e-15 2.414773057952158e-16
3.660119384959845 3.798317211940361e-23 3.690251079054806e-15 3.4292273083103708e-15 2.6102377074443543e-16
3.715437065384467 3.864756285330132e-23 3.811548537001467e-15 3.529900204215256e-15 2.8164833278621146e-16
3.8285932144167436 4.118379496787702e-23 4.18538122162407e-15 3.859341243994561e-15 3.260399776295093e-16
3.94519561050918 4.4138018171571005e-23 4.622222033235104e-15 4.247679192410886e-15 3.745428408242189e-16
4.06534921144712 4.7320559582734066e-23 5.106427402063198e-15 4.679305999722637e-15 4.27121402340561e-16
4.189162171576248 5.066617269944042e-23 5.6339722731811265e-15 5.150080582695979e-15 4.83891690485149e-16
4.316745939156006 5.413651784868464e-23 6.203206517573494e-15 5.658543908572328e-15 5.446626090011641e-16
4.448215356677963 5.769975406010042e-23 6.812855852459176e-15 6.204241556361953e-15 6.086142960972223e-16
4.58368876423945 6.133835364609674e-23 7.463055463761885e-15 6.787217448266756e-15 6.758380154951283e-16
4.723288106065518 6.504127699745112e-23 8.154605007025753e-15 7.407840646204865e-15 7.467643608208882e-16
4.867139040275056 6.878473257516775e-23 8.886591955267521e-15 8.067040069544742e-15 8.195518857227818e-16
4.940699165968905 7.068419363856793e-23 9.270008918268155e-15 8.41314383159966e-15 8.568650866684945e-16
5.015371051989984 7.257491836023706e-23 9.661822572751523e-15 8.76714377074993e-15 8.946788020015898e-16
5.091171501069577 7.451249847581762e-23 1.0069694292123077e-14 9.135894101022574e-15 9.338001911005025e-16
5.129500256944802 7.547576072557788e-23 1.02766599925929e-14 9.323148049315174e-15 9.535119432777275e-16
5.168117569889187 7.644077082118858e-23 1.0486411011280257e-14 9.512900178882568e-15 9.735108323976898e-16
5.20702561229733 7.745266540150177e-23 1.070521797888824e-14 9.70989599031819e-15 9.953219885700472e-16
5.246226572918644 7.846151129886126e-23 1.09263006139593e-14 9.909008906516369e-15 1.0172917074429323e-15
5.265937586045735 7.896469297027107e-23 1.1037687433796276e-14 1.00093540366303e-14 1.0283333971659808e-15
5.285722656980489 7.946699577989469e-23 1.1149633705241684e-14 1.01102221575912e-14 1.0394115476504782e-15
5.305582063971359 7.996838183562313e-23 1.1262136260106119e-14 1.021161118471899e-14 1.050525075387128e-15
5.3255160863122235 8.04770246183959e-23 1.1376352628637178e-14 1.0314592739781868e-14 1.0617598888553072e-15
5.365609099470188 8.155503640637153e-23 1.1615535830621574e-14 1.0530531609482548e-14 1.0850042211390305e-15
5.406003951863644 8.26324635031798e-23 1.1857591711842671e-14 1.0749179903893503e-14 1.1084118079491668e-15
5.446702915881641 8.37092271410966e-23 1.2102537949919356e-14 1.0970563911121368e-14 1.131974038797987e-15
5.487708281020852 8.480069080725604e-23 1.2352641572775672e-14 1.1196859787677623e-14 1.1557817850980472e-15
5.529022354014368 8.602863708143233e-23 1.262585569867864e-14 1.1445252910775613e-14 1.1806027879030245e-15
5.570647458961463 8.726600222082964e-23 1.2903876225360365e-14 1.1698281311170137e-14 1.2055949141902292e-15
5.612585937458331 8.85136538479438e-23 1.3186899782367433e-14 1.1956150360606477e-14 1.230749421760955e-15
5.654840148729818 8.97958076130148e-23 1.3478632324850671e-14 1.2222451684842567e-14 1.2561806400081045e-15
5.67608639626678 9.054440620992744e-23 1.3642063141233659e-14 1.2372575505494028e-14 1.2694876357396276e-15
5.686739436050992 9.092194125547688e-23 1.3724655820464003e-14 1.2448496817078516e-14 1.2761590033854867e-15
5.6974124697621304 9.130171014574891e-23 1.380784830174766e-14 1.2525006199795894e-14 1.2828421019517689e-15
5.718818669136295 9.20681893522743e-23 1.3976079473487642e-14 1.267983653268203e-14 1.2962429408056102e-15
5.740305295436557 9.287335379103126e-23 1.4151274413592125e-14 1.2841485391832058e-14 1.3097890217600689e-15
5.7835210386641895 9.475525025450983e-23 1.45467185354719e-14 1.3208924744708372e-14 1.3377937907635319e-15
5.827062130521658 9.677725424340027e-23 1.4968985853983037e-14 1.3602736374861264e-14 1.3662494791217751e-15
5.8489554468988025 9.807354998192066e-23 1.5226484407171727e-14 1.3844862663260756e-14 1.3816217439109685e-15
5.870931020387893 9.941906093713452e-23 1.5493376243345158e-14 1.4096309070436608e-14 1.3970671729085506e-15
5.892989160043636 1.0081771443969083e-22 1.5770371459470085e-14 1.435778670002469e-14 1.4125847594453934e-15
5.915130176081913 1.0235449331403175e-22 1.6070916791803155e-14 1.464224449111339e-14 1.4286723006897606e-15
5.95966208400165 1.064147641990987e-22 1.6834218344356854e-14 1.5368840205297617e-14 1.4653781390592423e-15
6.004529249263818 1.119242791300059e-22 1.7839090291498032e-14 1.633237876226145e-14 1.5067115292365867e-15
6.027089341400364 1.1562492145777833e-22 1.8498159208766384e-14 1.696754089527902e-14 1.5306183134873647e-15
6.049734195844842 1.1988438829323026e-22 1.9251667771064405e-14 1.7695720138943394e-14 1.5559476321210097e-15
6.095279466722835 1.3187761703661888e-22 2.1337038791947665e-14 1.971874624330175e-14 1.618292548645919e-15
6.141167624020661 1.497583303684393e-22 2.441245041937345e-14 2.2713136131561664e-14 1.6993142878117908e-15
6.164241091010745 1.6108970254283513e-22 2.6358265535592698e-14 2.460804810806879e-14 1.7502174275239056e-15
6.187401249150058 1.7369783358892235e-22 2.8528051874748266e-14 2.6725567220588967e-14 1.8024846541592987e-15
6.1990139391386085 1.798285041774635e-22 2.9590382409289825e-14 2.7761303052396367e-14 1.8290793568934514e-15
6.204828454712694 1.8303215373941119e-22 3.014578532887007e-14 2.8303273537309032e-14 1.842511791561039e-15
6.210648424152782 1.8537325052868418e-22 3.056000659190066e-14 2.8706061962087125e-14 1.8539446298135293e-15
6.233982942956859 1.9324279324363336e-22 3.197704654718198e-14 3.008329052879102e-14 1.8937560183909487e-15
6.239830258556775 1.9420897478345096e-22 3.216707002421878e-14 3.0267826269588305e-14 1.8992437546304827e-15
6.245683058788269 1.9425882782426448e-22 3.220550687342539e-14 3.030076672694577e-14 1.904740146479632e-15
6.257405133728602 1.9396046522635079e-22 3.2216393729911955e-14 3.030205445664707e-14 1.9143392732648898e-15
6.269149208991335 1.9231661877943062e-22 3.200330675326189e-14 3.0085543526844046e-14 1.917763226417847e-15
6.280915325867298 1.8833172604645855e-22 3.139900300569466e-14 2.9485451250047564e-14 1.913551755647097e-15
6.304513850009849 1.7856445353672315e-22 2.988243924671461e-14 2.7984218311905945e-14 1.8982209348086686e-15
6.32820103803542 1.6665802773002942e-22 2.7994707789425866e-14 2.6119167431453735e-14 1.875540357972134e-15
6.3519772230701035 1.5583066383835285e-22 2.627430795949358e-14 2.441910923650826e-14 1.855198722985315e-15
6.375842739491607 1.4667030083888054e-22 2.48227110823542e-14 2.2985455583157762e-14 1.8372554991964357e-15
6.399797922933955 1.395433250822039e-22 2.3705262096223908e-14 2.187723200389872e-14 1.828030092325181e-15
6.42384311029221 1.3359041545155809e-22 2.277926249188463e-14 2.0958721037638873e-14 1.8205414542457606e-15
6.447978639727206 1.2938135072850138e-22 2.2144440095901328e-14 2.0324588139451653e-14 1.8198519564496714e-15
6.472204850670314 1.2588146024181168e-22 2.1626361576799207e-14 1.980585003847556e-14 1.820511538323648e-15
6.496522083828205 1.2372513301867988e-22 2.1335768061626964e-14 1.950908709809306e-14 1.8266809635339085e-15
