Dust emission spectrum from A.P. Jones, M. Kohler, N. Ysard, M. Bocchio, and L. Verstraete (2017), A&A, 602A, 46J 
inside the DustPedia framework.

lambda    nu*dP/dnu     j_nu    j_nu(carb.) j_nu(sil)
 (um)   (erg s-1 H-1) (Jy cm2 sr-1 H-1)
0.9927057738263894 9.635255542877791e-20 2.538944562707224e-12 2.5389444795190596e-12 8.318816409963522e-20
1.0001793341362166 9.796816732704142e-20 2.6009517382160176e-12 2.600951638131888e-12 1.0008412952022825e-19
1.0077091589558085 9.959075746923555e-20 2.6639353102993484e-12 2.6639351900491228e-12 1.20250225231833e-19
1.0114953028030835 1.0040460564258165e-19 2.6957954631801393e-12 2.6957953314371894e-12 1.3174294962973735e-19
1.0152956718711033 1.012201232420306e-19 2.7279024108667035e-12 2.7279022665811377e-12 1.4428556572682505e-19
1.0229392996569957 1.0285527563848891e-19 2.7928387992154476e-12 2.792838626320755e-12 1.7289469252677114e-19
1.0267826658714554 1.036730573797033e-19 2.825620727390133e-12 2.8256205382176387e-12 1.8917249436898215e-19
1.0306404723013447 1.0449237725773674e-19 2.8586516455021754e-12 2.8586514385888304e-12 2.0691334484664314e-19
1.03451277320114 1.0531321464981421e-19 2.8919325535815128e-12 2.8919323273395038e-12 2.2624200847655117e-19
1.0383996230291617 1.0613554974549211e-19 2.9254644743870782e-12 2.925464227093808e-12 2.472932718850876e-19
1.0403485208654093 1.0654727296827518e-19 2.9423248906153237e-12 2.9423246321054005e-12 2.5850992365099645e-19
1.0423010764483396 1.0695936356588861e-19 2.9592484543261476e-12 2.959248184113452e-12 2.7021269537337984e-19
1.0462171883269815 1.0778463798274733e-19 2.993285564385426e-12 2.9932852692280094e-12 2.9515741647533506e-19
1.0471985131304309 1.0799118276327674e-19 3.0018345214042844e-12 3.001834219674649e-12 3.0172963530331236e-19
1.048180758391296 1.0819781748701459e-19 3.0103993848461718e-12 3.010399076404426e-12 3.0844174492083583e-19
1.0501480137395462 1.0861135573732363e-19 3.027576901073661e-12 3.027576578776652e-12 3.222970087707275e-19
1.0521189612883777 1.0902525071525984e-19 3.0448182542757945e-12 3.044817917529296e-12 3.3674649837293585e-19
1.0531058218030118 1.092320597586415e-19 3.053455321986799e-12 3.053454977784695e-12 3.4420210438253383e-19
1.0540936079674168 1.0943806746919527e-19 3.0620834922351363e-12 3.0620831404180186e-12 3.518171176375952e-19
1.058054026499678 1.1026294252504586e-19 3.0967550564302018e-12 3.0967546725107288e-12 3.839194730901158e-19
1.0590464539527713 1.1046937122631174e-19 3.1054627590909197e-12 3.105462366718659e-12 3.9237226017149345e-19
1.06003981227728 1.1067588346900094e-19 3.1141864231216744e-12 3.114186022118878e-12 4.0100279664349627e-19
1.0620293250338977 1.1108915774149632e-19 3.1316817096736693e-12 3.1316812908622902e-12 4.1881137939470898e-19
1.0660195594769086 1.119166997860705e-19 3.166864644040995e-12 3.166864187318773e-12 4.567222216830117e-19
1.070024785945596 1.1274555629617074e-19 3.202305082210206e-12 3.202304584311106e-12 4.978990997427461e-19
1.0740450607676866 1.1357571589654215e-19 3.2380042784694513e-12 3.238003735861352e-12 5.426081004518737e-19
1.07808044048254 1.144071682164745e-19 3.273963519733939e-12 3.273962928598285e-12 5.911356541129622e-19
1.0861967418109137 1.1607265304465057e-19 3.346631079190871e-12 3.346630378288171e-12 7.009026993193278e-19
1.0902777775684922 1.169038018693629e-19 3.383258865479385e-12 3.3832581026489405e-12 7.628304443889851e-19
1.0943741465085532 1.1773616329093976e-19 3.42014986876783e-12 3.4201490388115437e-12 8.299562860157892e-19
1.1026131145906286 1.1940450558590797e-19 3.4947273711647368e-12 3.494726389684752e-12 9.814799847907162e-19
1.1109141095355224 1.2107765443778096e-19 3.57037567347355e-12 3.5703745143261693e-12 1.1591473814665508e-18
1.1192775983109025 1.2275430582946628e-19 3.647068996083574e-12 3.647067628892494e-12 1.3671910801976397e-18
1.1277040513999907 1.244285112893331e-19 3.724641508172383e-12 3.7246398976914844e-12 1.6104808985982988e-18
1.1361939428280308 1.2610736619557448e-19 3.8033155415816555e-12 3.803313646969447e-12 1.894612207750488e-18
1.1447477501889525 1.2779092230827302e-19 3.8831059136899426e-12 3.88310368768483e-12 2.2260051122410892e-18
1.1533659546722406 1.2947982998565333e-19 3.964045960356643e-12 3.964043348336895e-12 2.6120197495112167e-18
1.1707974979042381 1.3287882030330051e-19 4.129590446439036e-12 4.129586863603226e-12 3.582835809119144e-18
1.1884924949847024 1.3630031557134502e-19 4.299943390061934e-12 4.2999385002949076e-12 4.889767027018411e-18
1.2064549276569216 1.3976726335156748e-19 4.475957935164474e-12 4.475951294797924e-12 6.640366550580697e-18
1.2246888378427687 1.432581435239518e-19 4.65708871929322e-12 4.657079745930607e-12 8.973362613414445e-18
1.2431983285522175 1.4677043416790344e-19 4.843378722613378e-12 4.8433666555556975e-12 1.2067057680200789e-17
1.2619875648066055 1.5030963906911036e-19 5.035137566519062e-12 5.035121417064944e-12 1.6149454118982774e-17
1.3004222497298317 1.5744894677812628e-19 5.4349253635938384e-12 5.434896847283111e-12 2.851631072727152e-17
1.3400274889804893 1.6469952995735549e-19 5.858352505191171e-12 5.858303077558011e-12 4.942763315970854e-17
1.3808389325824078 1.7208932557150322e-19 6.307632599230554e-12 6.307548461136345e-12 8.413809420833237e-17
1.4228933163050095 1.7967943544374073e-19 6.786410825851954e-12 6.786270098628986e-12 1.4072722296951717e-16
1.466228494730424 1.8759682360341432e-19 7.301239068359577e-12 7.301007678570712e-12 2.313897888652557e-16
1.5108834753276823 1.9582567897448707e-19 7.85362291896906e-12 7.853248737007993e-12 3.741819610662851e-16
1.5568984535646726 2.043568700666655e-19 8.445375474527464e-12 8.444779737160643e-12 5.957373668215912e-16
1.6043148490894465 2.132333964761788e-19 9.080594050025269e-12 9.079658478174994e-12 9.35571850272913e-16
1.6531753430134553 2.2249880147833417e-19 9.763736001864204e-12 9.762288465042011e-12 1.4475368221922267e-15
1.7035239163302658 2.322019059410318e-19 1.049985854743698e-11 1.0497651493394954e-11 2.2070540420261753e-15
1.755405889504358 2.4249983134158137e-19 1.1299479148072925e-11 1.129616139875241e-11 3.317749320516706e-15
1.8088679632656115 2.533748621652342e-19 1.2165776272581292e-11 1.2160857304748274e-11 4.918967833016977e-15
1.8639582606462262 2.6480000790828192e-19 1.3101578092412106e-11 1.309438235073055e-11 7.195741681556049e-15
1.9207263702978936 2.7678053857241103e-19 1.411141233462834e-11 1.4101022466118305e-11 1.0389868510035933e-14
1.979223391128241 2.893332773811535e-19 1.5200666629729165e-11 1.518585362169797e-11 1.4813008031196394e-14
2.039501978296691 3.024630978937832e-19 1.6374421289533817e-11 1.6353560646982906e-11 2.0860642550901414e-14
2.1016163906111602 3.1625978143277416e-19 1.7642773002328848e-11 1.761374346031318e-11 2.902954201566574e-14
2.1656225393682647 3.307391212026655e-19 1.901243595041969e-11 1.8972503360313898e-11 3.993259010579662e-14
2.231578038680979 3.458125230960781e-19 2.048435192142766e-11 2.0430036645825508e-11 5.4315275602159826e-14
2.299542257339062 3.6143650214064254e-19 2.2061896277469825e-11 2.1988823838495673e-11 7.307243897414766e-14
2.369576372248914 3.775962234358628e-19 2.375022814283931e-11 2.3652962497892988e-11 9.7265644946319e-14
2.4417434235010123 3.942845988003471e-19 2.555519934835768e-11 2.5427064621177732e-11 1.2813472717994803e-13
2.5161083711144245 4.1155911530366766e-19 2.748723153463696e-11 2.732011776790717e-11 1.6711376672979352e-13
2.5927381535095444 4.295612627101032e-19 2.956331984182738e-11 2.934748190032677e-11 2.1583794150060654e-13
2.6717017477616296 4.4839672835281735e-19 3.1799467152578516e-11 3.152333225126076e-11 2.761349013177595e-13
2.753070231689431 4.682550138192124e-19 3.421914545551468e-11 3.386912423715443e-11 3.5002121836024905e-13
2.836916847834745 4.897828648172925e-19 3.688243848001214e-11 3.644273203394027e-11 4.397064460718673e-13
2.9233170693905177 5.14478022098303e-19 3.9921990083732955e-11 3.9374532510179477e-11 5.474575735534701e-13
2.967498994190263 5.294903379568691e-19 4.170787401953832e-11 4.110027047502379e-11 6.076035445145436e-13
3.0123486681368425 5.454805396832442e-19 4.36168133673727e-11 4.294332050825301e-11 6.734928591196783e-13
3.0578761833420214 5.717635825143085e-19 4.640938567982357e-11 4.566358433888966e-11 7.458013409339178e-13
3.1040917844459814 6.024175754696202e-19 4.963655378931625e-11 4.8812333754619567e-11 8.242200346966936e-13
3.127460860933648 6.308774709189307e-19 5.2372865358603005e-11 5.150676408374236e-11 8.661012748606236e-13
3.1510058709225794 6.669781756198566e-19 5.578664822173032e-11 5.487696873438328e-11 9.096794873470365e-13
3.162844764501044 6.996810708512733e-19 5.874182492582985e-11 5.7809623132894024e-11 9.322017929358457e-13
3.1747281389236908 7.366163470004333e-19 6.207508556782921e-11 6.111992422958135e-11 9.551613382478552e-13
3.1986289994194426 8.364647726429164e-19 7.102004758212609e-11 7.001751524072524e-11 1.0025323414008593e-12
3.2227097969389145 1.067652415238617e-18 9.133148502699767e-11 9.027883469290761e-11 1.0526503340900466e-12
3.2348180950136065 1.2844401395421269e-18 1.1028924556596111e-10 1.0920986878772633e-10 1.0793767782348052e-12
3.240889293275058 1.4463963761423656e-18 1.2442881185209746e-10 1.2333533739922815e-10 1.093474452869327e-12
3.2469718861334385 1.6341136988540698e-18 1.4084136713524956e-10 1.3973330579527637e-10 1.1080613399731676e-12
3.2714166318528037 2.6174183603848854e-18 2.2728900889333187e-10 2.261207309430387e-10 1.1682779502931535e-12
3.2744851364798273 2.6787802100030915e-18 2.3283568293055743e-10 2.3166032672728677e-10 1.1753562032706311e-12
3.2775565192852394 2.741769312113882e-18 2.385341333624049e-10 2.3735166517484317e-10 1.182468187561741e-12
3.283707930232385 2.6809034759175618e-18 2.3367655029308896e-10 2.3248140040112458e-10 1.1951498919643848e-12
3.2898708863219004 2.4879728197338522e-18 2.1726707549466167e-10 2.1606041836625308e-10 1.2066571284085615e-12
3.29141343181113 2.4423694281167345e-18 2.1338467476321206e-10 2.1217512895883343e-10 1.2095458043786622e-12
3.292184975758714 2.4199457282716516e-18 2.1147512382424372e-10 2.1026413190049254e-10 1.2109919237511646e-12
3.295272960557952 2.280345949817469e-18 1.9946264159371601e-10 1.982460309321589e-10 1.2166106615571813e-12
3.3076538914384823 1.7927851570976963e-18 1.5740471603937152e-10 1.561655545369211e-10 1.2391615024504682e-12
3.310756385682612 1.6924335201581197e-18 1.4873332152963032e-10 1.4748847932581288e-10 1.2448422038174303e-12
3.313861789986515 1.5994051868528207e-18 1.4068970682805572e-10 1.3943916671401624e-10 1.2505401140395222e-12
3.3200813396944477 1.4695032359144744e-18 1.295056462897389e-10 1.28242834687237e-10 1.2628116025018801e-12
3.345076488085796 1.2428741501489034e-18 1.1035770015716039e-10 1.0904015869608308e-10 1.317541461077294e-12
3.3482140837626964 1.2520682352588064e-18 1.1127834287088371e-10 1.0995338548906621e-10 1.324957381817458e-12
3.3513546224236106 1.2613437300890325e-18 1.1220785769679988e-10 1.1087545279149814e-10 1.3324049053017516e-12
3.3576445397418455 1.3264866582263175e-18 1.182243776484943e-10 1.1687639561171126e-10 1.3479820367830233e-12
3.3702598118196083 1.5622220869299799e-18 1.3975764966551741e-10 1.3837699675729987e-10 1.3806529082175885e-12
3.382922481734668 1.6185044951485472e-18 1.453367315498027e-10 1.4392437992511203e-10 1.4123516246906543e-12
3.389271646505754 1.6475001712401322e-18 1.4821811302328826e-10 1.4678970544437155e-10 1.428407578916727e-12
3.395632727569191 1.6794620135929711e-18 1.513771516197422e-10 1.4993219733526805e-10 1.4449542844741225e-12
3.421196662673239 1.834669416369514e-18 1.6661162269409433e-10 1.6509823358230637e-10 1.5133891117879033e-12
3.4276182099114902 1.806622679545988e-18 1.6437256503064236e-10 1.6284396575183907e-10 1.5285992788033176e-12
3.4340518103208963 1.6795282041361286e-18 1.5309590611120145e-10 1.51552950920233e-10 1.5429551909684682e-12
3.4469541582030403 1.4970090882587157e-18 1.369712369101605e-10 1.3540078861965564e-10 1.5704482905048433e-12
3.472904465399547 1.4460348268055082e-18 1.333033373659144e-10 1.3166946264172608e-10 1.6338747241883047e-12
3.4990501388274233 1.3693213874689306e-18 1.271818067119446e-10 1.2548316282734015e-10 1.6986438846044607e-12
3.5253949054701885 1.0986869242042998e-18 1.0281374094122637e-10 1.0105239356694338e-10 1.7613473742829678e-12
3.5519380250092896 8.410130303174197e-19 7.929349073248568e-11 7.746929691690766e-11 1.824193815577985e-12
3.578680990867387 7.408013841863652e-19 7.037107811248688e-11 6.847802418965017e-11 1.893053922836736e-12
3.605625307711299 7.02555054356517e-19 6.7240415584593e-11 6.527494448528248e-11 1.9654710993105077e-12
3.660119384959845 6.790414144837416e-19 6.597219696775747e-11 6.385506786674451e-11 2.1171291010129798e-12
3.715437065384467 6.634285711617342e-19 6.542948670307881e-11 6.315318498904156e-11 2.2763017140372535e-12
3.8285932144167436 6.640918079920895e-19 6.748958867856726e-11 6.487364978509943e-11 2.6159388934678424e-12
3.94519561050918 6.723769993358568e-19 7.041267165394534e-11 6.743005616096042e-11 2.9826154929849263e-12
4.06534921144712 6.830221555376335e-19 7.370587080982542e-11 7.033083492497941e-11 3.3750358848459888e-12
4.189162171576248 6.944647414123922e-19 7.72230245420241e-11 7.34299574369289e-11 3.79306710509519e-12
4.316745939156006 7.060281774255832e-19 8.089989467069731e-11 7.666574607134345e-11 4.234148599353843e-12
4.448215356677963 7.17385518000824e-19 8.470476528705094e-11 8.001375571402823e-11 4.691009573022714e-12
4.58368876423945 7.284679506830748e-19 8.863290904232969e-11 8.346959596384851e-11 5.163313078481206e-12
4.723288106065518 7.393692770727401e-19 9.269904723879663e-11 8.70458548568686e-11 5.6531923819280284e-12
4.867139040275056 7.501922927422819e-19 9.692053082131215e-11 9.077473963101917e-11 6.145791190292978e-12
4.940699165968905 7.559886641937459e-19 9.914552742894721e-11 9.275106553391799e-11 6.394461895029212e-12
5.015371051989984 7.614468557055428e-19 1.013706192804659e-10 9.472684124507308e-11 6.643778035392802e-12
5.091171501069577 7.678905380168813e-19 1.0377350277891164e-10 9.687403366640992e-11 6.899469112501702e-12
5.129500256944802 7.709709266909957e-19 1.0497417981098417e-10 9.794698903390645e-11 7.027190777077727e-12
5.168117569889187 7.740775192623543e-19 1.0619064845075094e-10 9.903441010961303e-11 7.156238341137901e-12
5.20702561229733 7.781297361408313e-19 1.075501843359528e-10 1.0025199567679998e-10 7.298188659152818e-12
5.246226572918644 7.821171161358916e-19 1.0891514303966377e-10 1.0147474886234862e-10 7.440394177315139e-12
5.265937586045735 7.8408693628790805e-19 1.0959969827182315e-10 1.0208812967987726e-10 7.511568591945906e-12
5.285722656980489 7.860411000244078e-19 1.1028566333137655e-10 1.0270288547998242e-10 7.582777851394136e-12
5.305582063971359 7.879798127116737e-19 1.109730598177311e-10 1.0331904761502122e-10 7.654012202709886e-12
5.3255160863122235 7.900895198546419e-19 1.1168823684371693e-10 1.0396232424367821e-10 7.725912600038696e-12
5.365609099470188 7.957034573866741e-19 1.1332864807724255e-10 1.0545388680106337e-10 7.874761276179155e-12
5.406003951863644 8.013311837260048e-19 1.1498940730751549e-10 1.0696559162474976e-10 8.023815682765751e-12
5.446702915881641 8.069794255907199e-19 1.166717153719963e-10 1.0849871789045631e-10 8.172997481539983e-12
5.487708281020852 8.130063165505391e-19 1.1842799308767057e-10 1.101050361364761e-10 8.322956951194474e-12
5.529022354014368 8.221850997162888e-19 1.206666847086674e-10 1.1218740601980494e-10 8.479278688862483e-12
5.570647458961463 8.316271999302808e-19 1.2297130818927228e-10 1.1433553994842159e-10 8.635768240850682e-12
5.612585937458331 8.4136122247325555e-19 1.2534728416685636e-10 1.165549381371012e-10 8.792346029755168e-12
5.654840148729818 8.519419248090948e-19 1.2787915462729287e-10 1.1892933548796197e-10 8.94981913933093e-12
5.67608639626678 8.596845809860239e-19 1.2952618307712176e-10 1.2049379271415838e-10 9.032390362963404e-12
5.686739436050992 8.636368455325419e-19 1.303658753336547e-10 1.2129217994741212e-10 9.073695386242589e-12
5.6974124697621304 8.67645039894425e-19 1.3121672169668372e-10 1.2210171003337603e-10 9.115011663307713e-12
5.718818669136295 8.758353609046407e-19 1.3295302857383298e-10 1.2375535567320904e-10 9.19767290062391e-12
5.740305295436557 8.849188137566273e-19 1.3483661842768262e-10 1.2555555920867537e-10 9.28105921900724e-12
5.7835210386641895 9.09275313556873e-19 1.3959091472016092e-10 1.301376224486937e-10 9.453292271467207e-12
5.827062130521658 9.36909977148044e-19 1.4491620271755183e-10 1.352887426868098e-10 9.627460030742007e-12
5.8489554468988025 9.571162598475312e-19 1.485978208100503e-10 1.3887575433864206e-10 9.722066471408234e-12
5.870931020387893 9.785014139237012e-19 1.5248877245130493e-10 1.4267192467394738e-10 9.816847777357521e-12
5.892989160043636 1.0011597577387672e-18 1.5660602263760127e-10 1.4669422906811912e-10 9.911793569482135e-12
5.915130176081913 1.0269440450759337e-18 1.6124287038007902e-10 1.5123247411939078e-10 1.0010396260688213e-11
5.95966208400165 1.1005439678043544e-18 1.740998778789782e-10 1.6386165897958011e-10 1.0238218899398051e-11
6.004529249263818 1.2068251576145789e-18 1.9235024893688304e-10 1.8185387694518414e-10 1.0496371991698852e-11
6.027089341400364 1.2811276034019314e-18 2.0496015976216693e-10 1.943130626435866e-10 1.0647097118580313e-11
6.049734195844842 1.368218267806201e-18 2.197157103198367e-10 2.0890861192213897e-10 1.0807098397697733e-11
6.095279466722835 1.6202744443236971e-18 2.6215107194829353e-10 2.509454047656842e-10 1.1205667182609336e-11
6.141167624020661 2.0052094538037406e-18 3.268738123015233e-10 3.151443160753643e-10 1.1729496226158903e-11
6.164241091010745 2.250406714026404e-18 3.6822228109593606e-10 3.561608808197434e-10 1.2061400276192702e-11
6.187401249150058 2.5258902620249364e-18 4.148510487212229e-10 4.0244944776001447e-10 1.2401600961208395e-11
6.1990139391386085 2.6594482988852348e-18 4.37606332331443e-10 4.250317385240919e-10 1.257459380735097e-11
6.204828454712694 2.729483154400582e-18 4.49551685593315e-10 4.3688978045727757e-10 1.2661905136037422e-11
6.210648424152782 2.779876341158151e-18 4.5828100369484726e-10 4.4554539832533946e-10 1.2735605369507887e-11
6.233982942956859 2.9479167026310252e-18 4.878094962040876e-10 4.74819851603652e-10 1.2989644600435577e-11
6.239830258556775 2.967547581151627e-18 4.915185353794455e-10 4.784958419965616e-10 1.3022693382883783e-11
6.245683058788269 2.9662855774960386e-18 4.917703438477082e-10 4.787145717151288e-10 1.3055772132579195e-11
6.257405133728602 2.954847695946114e-18 4.907935061582353e-10 4.776811205903684e-10 1.3112385567866834e-11
6.269149208991335 2.913194069237176e-18 4.847830833408574e-10 4.716561241030525e-10 1.3126959237804875e-11
6.280915325867298 2.8188726193831002e-18 4.699674967501031e-10 4.568778637805472e-10 1.3089632969556105e-11
6.304513850009849 2.5905255619603238e-18 4.3351978061199285e-10 4.205516231034581e-10 1.2968157508534836e-11
6.32820103803542 2.313516801374486e-18 3.8861750437441395e-10 3.758206251366076e-10 1.2796879237806461e-11
6.3519772230701035 2.061108924999655e-18 3.4751960429095805e-10 3.3487800887553425e-10 1.2641595415423816e-11
6.375842739491607 1.848274226555323e-18 3.1280482050107325e-10 3.003020308219981e-10 1.2502789679075143e-11
6.399797922933955 1.6791064055942216e-18 2.8524228879175295e-10 2.728194444829681e-10 1.24228443087849e-11
6.42384311029221 1.5378115496531233e-18 2.62221004659596e-10 2.4986630024254946e-10 1.2354704417046502e-11
6.447978639727206 1.4347593074631039e-18 2.455681700434941e-10 2.332358888551215e-10 1.2332281188372562e-11
6.472204850670314 1.3483827470105167e-18 2.316513708591496e-10 2.193324845740387e-10 1.231888628511082e-11
