Dust emission spectrum from A.P. Jones, M. Kohler, N. Ysard, M. Bocchio, and L. Verstraete (2017), A&A, 602A, 46J 
inside the DustPedia framework.

lambda    nu*dP/dnu     j_nu    j_nu(carb.) j_nu(sil)
 (um)   (erg s-1 H-1) (Jy cm2 sr-1 H-1)
0.9927057738263894 8.376907355512517e-24 2.2073626680614555e-16 2.2073626680482537e-16 1.3201064408160575e-27
1.0001793341362166 8.514676564374193e-24 2.2605570171101263e-16 2.26055701709422e-16 1.5906982525498613e-27
1.0077091589558085 8.65223660157219e-24 2.314371251078456e-16 2.314371251059313e-16 1.9143284755206056e-27
1.0114953028030835 8.720921316293127e-24 2.341508137874051e-16 2.341508137853059e-16 2.0990544632712463e-27
1.0152956718711033 8.789533556852225e-24 2.368796738450797e-16 2.3687967384277884e-16 2.30087253622757e-27
1.0229392996569957 8.926446346460206e-24 2.4238062209985543e-16 2.423806220970935e-16 2.761975045239008e-27
1.0267826658714554 8.994580287667481e-24 2.4514828767829545e-16 2.451482876752706e-16 3.0247546416849873e-27
1.0306404723013447 9.062611768832928e-24 2.4793052589492554e-16 2.4793052589161405e-16 3.3114758567574324e-27
1.03451277320114 9.13053426221518e-24 2.507272173989992e-16 2.50727217395375e-16 3.624215040819891e-27
1.0383996230291617 9.198341277710219e-24 2.5353824138808324e-16 2.5353824138411803e-16 3.9652187965224574e-27
1.0403485208654093 9.232199463690255e-24 2.549490899239579e-16 2.5494908991981086e-16 4.147071708369735e-27
1.0423010764483396 9.266026364093639e-24 2.563634756371564e-16 2.563634756328194e-16 4.3369170707312646e-27
1.0462171883269815 9.333583110235164e-24 2.5920279652774347e-16 2.592027965230015e-16 4.74193718084279e-27
1.0471985131304309 9.350451496217303e-24 2.59914813171269e-16 2.599148131664203e-16 4.8487266317853306e-27
1.048180758391296 9.3673113634929e-24 2.6062770045898514e-16 2.6062770045402724e-16 4.957821604861613e-27
1.0501480137395462 9.401005146285464e-24 2.6205607907707576e-16 2.6205607907189265e-16 5.183118836506097e-27
1.0521189612883777 9.434663669021979e-24 2.6348791655078467e-16 2.634879165453665e-16 5.418219663975035e-27
1.0531058218030118 9.451453490261902e-24 2.642044013828805e-16 2.6420440137734096e-16 5.539580476779239e-27
1.0540936079674168 9.468149111580671e-24 2.649193627688346e-16 2.6491936276317104e-16 5.6635719930363124e-27
1.058054026499678 9.534835043615816e-24 2.677875989645224e-16 2.677875989583357e-16 6.186679432485756e-27
1.0590464539527713 9.551481904061173e-24 2.685067455161537e-16 2.6850674550982916e-16 6.324521310721473e-27
1.06003981227728 9.568118722417436e-24 2.692267229880704e-16 2.692267229816052e-16 6.465304866600535e-27
1.0620293250338977 9.601361848207988e-24 2.7066916249343167e-16 2.7066916248667577e-16 6.755937323532666e-27
1.0660195594769086 9.667723373958562e-24 2.7356392209457114e-16 2.73563922087196e-16 7.37521136392859e-27
1.070024785945596 9.733913517455455e-24 2.764717453241296e-16 2.7647174531608085e-16 8.048672537114831e-27
1.0740450607676866 9.799926224274745e-24 2.7939249858474985e-16 2.7939249857596903e-16 8.780819647840932e-27
1.07808044048254 9.865755489954466e-24 2.8232604715474957e-16 2.8232604714517304e-16 9.576503395298995e-27
1.0861967418109137 9.99672305419792e-24 2.882276159430346e-16 2.882276159316549e-16 1.1379800634256223e-26
1.0902777775684922 1.0061583828180704e-23 2.9118764439753883e-16 2.911876443851397e-16 1.2399119255857642e-26
1.0943741465085532 1.0126233038976915e-23 2.9415970107490777e-16 2.9415970106140223e-16 1.3505437929903826e-26
1.1026131145906286 1.0254873998869911e-23 3.001393345740367e-16 3.001393345580289e-16 1.6007738440883065e-26
1.1109141095355224 1.0382600955867234e-23 3.061653783461829e-16 3.061653783272332e-16 1.8949601126623618e-26
1.1192775983109025 1.0509250690308032e-23 3.1223314005733217e-16 3.122331400349283e-16 2.2403746093245755e-26
1.1277040513999907 1.0634232764438265e-23 3.183249912063285e-16 3.1832499117987436e-16 2.6454136501889053e-26
1.1361939428280308 1.075815462544412e-23 3.244588949882143e-16 3.244588949570168e-16 3.119757192941152e-26
1.1447477501889525 1.0880975429959925e-23 3.306336575055536e-16 3.306336574688081e-16 3.67455182294118e-26
1.1533659546722406 1.1002722637924904e-23 3.368501351185239e-16 3.368501350752976e-16 4.3226219044986376e-26
1.1707974979042381 1.12433946543336e-23 3.4942073570566224e-16 3.49420735646065e-16 5.959717647810299e-26
1.1884924949847024 1.1479259433234395e-23 3.621427104980198e-16 3.6214271041625454e-16 8.176523911625754e-26
1.2064549276569216 1.1712176649404277e-23 3.7507502654670255e-16 3.7507502643506626e-16 1.116363229602659e-25
1.2246888378427687 1.1939595019340481e-23 3.8813677121401135e-16 3.8813677106232375e-16 1.5168750549045015e-25
1.2431983285522175 1.2160986440915019e-23 4.0130877385384356e-16 4.0130877364871596e-16 2.0512734983481333e-25
1.2619875648066055 1.237627365521363e-23 4.1458578971262243e-16 4.1458578943653176e-16 2.760906564018845e-25
1.3004222497298317 1.2784967544578045e-23 4.4131984241640265e-16 4.413198419231632e-16 4.932393455585414e-25
1.3400274889804893 1.3164124047029301e-23 4.682471110241153e-16 4.682471101588172e-16 8.652982231287698e-25
1.3808389325824078 1.351238837699767e-23 4.952729121179624e-16 4.952729106266281e-16 1.4913341267481593e-24
1.4228933163050095 1.3831522160088496e-23 5.224103219904996e-16 5.224103194641272e-16 2.5263723454212076e-24
1.466228494730424 1.4129289406027834e-23 5.499097364118265e-16 5.499097322031157e-16 4.208710850423118e-24
1.5108834753276823 1.4399953503446488e-23 5.775126401144265e-16 5.775126332164522e-16 6.897974020969122e-24
1.5568984535646726 1.4638893188686578e-23 6.049757439993566e-16 6.049757328650374e-16 1.1134319238513581e-23
1.6043148490894465 1.484661958780043e-23 6.322467667818164e-16 6.322467490495777e-16 1.7732238736749336e-23
1.6531753430134553 1.50238420133621e-23 6.592791789328688e-16 6.592791511014784e-16 2.783139047750677e-23
1.7035239163302658 1.5172731274095938e-23 6.860905448241159e-16 6.860905017629366e-16 4.306117936909804e-23
1.755405889504358 1.5305438061058775e-23 7.131694783715124e-16 7.131694126606555e-16 6.571085684758553e-23
1.8088679632656115 1.541907975895557e-23 7.403460354098179e-16 7.403459364756513e-16 9.893416635399004e-23
1.8639582606462262 1.5511740383149554e-23 7.674783682387503e-16 7.674782212142544e-16 1.4702449594897917e-22
1.9207263702978936 1.558498668797759e-23 7.945868395158447e-16 7.94586623773218e-16 2.157426269838557e-22
1.979223391128241 1.5642333654810386e-23 8.21799349697802e-16 8.217990369764953e-16 3.127213064787787e-22
2.039501978296691 1.5687966928253196e-23 8.492982497643442e-16 8.49297801829361e-16 4.479349834970395e-22
2.1016163906111602 1.573341902848367e-23 8.776997796321525e-16 8.776991453333354e-16 6.342988171300005e-22
2.1656225393682647 1.5785432598189302e-23 9.074207040625178e-16 9.074198157813313e-16 8.882811867929713e-22
2.231578038680979 1.5844599433315442e-23 9.385615880542059e-16 9.385603574259048e-16 1.2306283009277764e-21
2.299542257339062 1.5915006374865627e-23 9.7144371920944e-16 9.714420320206062e-16 1.6871888335301108e-21
2.369576372248914 1.6005536642258173e-23 1.0067239109100207e-15 1.0067216210459763e-15 2.289864044269837e-21
2.4417434235010123 1.6126659980739268e-23 1.045234868125443e-15 1.0452317905788854e-15 3.077546557930869e-21
2.5161083711144245 1.6296225084207597e-23 1.0883931259781794e-15 1.0883890286728505e-15 4.0973053291677294e-21
2.5927381535095444 1.6543362070120165e-23 1.1385493679121148e-15 1.1385439623882707e-15 5.405523844080533e-21
2.6717017477616296 1.6902790539114425e-23 1.1987146617014492e-15 1.1987075929119262e-15 7.068789523334107e-21
2.753070231689431 1.7426699377893544e-23 1.2735085438976224e-15 1.2734993787831588e-15 9.165114463175531e-21
2.836916847834745 1.823321039526037e-23 1.3730273331370433e-15 1.373015547626881e-15 1.1785510162172427e-20
2.9233170693905177 1.9582323076816762e-23 1.519531008342586e-15 1.5195159753824842e-15 1.5032960101895786e-20
2.967498994190263 2.0716945231952352e-23 1.6318706496856379e-15 1.6318537459584682e-15 1.6903727170460767e-20
3.0123486681368425 2.2039779563553188e-23 1.7623084270609468e-15 1.7622894444110264e-15 1.89826499200455e-20
3.0578761833420214 2.4976505194245598e-23 2.0273139072561575e-15 2.0272926120512172e-15 2.1295204939712943e-20
3.1040917844459814 2.8755943112752025e-23 2.369363005330536e-15 2.3693391579459037e-15 2.3847384631812944e-20
3.127460860933648 3.274274328360973e-23 2.718168526395445e-15 2.718143298245111e-15 2.5228150334231494e-20
3.1510058709225794 3.805131879275563e-23 3.182646169631547e-15 3.182619491643193e-15 2.6677988353187833e-20
3.162844764501044 4.298848800387319e-23 3.6091046926242e-15 3.609077260224545e-15 2.74323996562489e-20
3.1747281389236908 4.872877570429982e-23 4.106402109832879e-15 4.1063739047885125e-15 2.820504436673084e-20
3.1986289994194426 6.47354594401214e-23 5.496364652825466e-15 5.496334842564929e-15 2.981026053631427e-20
3.2227097969389145 1.0245254513866434e-22 8.764222286912013e-15 8.764190764186155e-15 3.1522725856367086e-20
3.2348180950136065 1.3821497336637553e-22 1.1867914018889944e-14 1.1867881579161364e-14 3.243972858112051e-20
3.240889293275058 1.6495102829849814e-22 1.419020456875345e-14 1.4190171645153557e-14 3.292359988956935e-20
3.2469718861334385 1.9588112511383098e-22 1.6882647441465766e-14 1.6882614017056734e-14 3.342440903277468e-20
3.2714166318528037 3.6084625192476563e-22 3.133484054524367e-14 3.133480504171219e-14 3.550353147519274e-20
3.2744851364798273 3.7115970365362766e-22 3.226066205573319e-14 3.2260626304670975e-14 3.575106220772214e-20
3.2775565192852394 3.8176921515338804e-22 3.3213950013485464e-14 3.321391401340519e-14 3.6000080277828044e-20
3.283707930232385 3.71571248955857e-22 3.238739791419822e-14 3.238736146385209e-14 3.645034613398539e-20
3.2898708863219004 3.3922219756916776e-22 2.962323954029753e-14 2.9623202675594535e-14 3.686470300308263e-20
3.29141343181113 3.3159335250242754e-22 2.89706130705759e-14 2.897057610169249e-14 3.6968883429398214e-20
3.292184975758714 3.278447883553645e-22 2.864982317686131e-14 2.864978615579872e-14 3.702106258720532e-20
3.295272960557952 3.041849009062736e-22 2.660715751158052e-14 2.6607120286692775e-14 3.722488774953457e-20
3.3076538914384823 2.22214765603997e-22 1.9510230738566173e-14 1.9510192692461093e-14 3.804610507739888e-20
3.310756385682612 2.055303451233875e-22 1.8062281644289747e-14 1.8062243390647853e-14 3.8253641889380126e-20
3.313861789986515 1.9013580101640122e-22 1.6725061493111573e-14 1.6725023031034594e-14 3.8462076977743666e-20
3.3200813396944477 1.6854803123644566e-22 1.4853946002068817e-14 1.485390709369307e-14 3.890837574521286e-20
3.345076488085796 1.300496445656988e-22 1.1547411842789729e-14 1.1547370949806117e-14 4.0892983612262834e-20
3.3482140837626964 1.3149591850859238e-22 1.1686781513865583e-14 1.1686740352115987e-14 4.116174959811655e-20
3.3513546224236106 1.3295815767765583e-22 1.1827822726220732e-14 1.182778129420594e-14 4.143201479130843e-20
3.3576445397418455 1.4363421717552162e-22 1.2801535416353583e-14 1.2801493419996975e-14 4.1996356607434264e-20
3.3702598118196083 1.830021515257043e-22 1.6371520281873757e-14 1.6371477100890643e-14 4.318098311466906e-20
3.382922481734668 1.9197636751922183e-22 1.7238888043673068e-14 1.723884370196535e-14 4.4341707718769394e-20
3.389271646505754 1.9662543088708219e-22 1.7689497608086437e-14 1.7689452676096337e-14 4.4931990097684014e-20
3.395632727569191 2.0163574595113995e-22 1.8174299055151474e-14 1.817425351466078e-14 4.5540490692007306e-20
3.421196662673239 2.256940997798752e-22 2.0495932325082323e-14 2.0495884254315863e-14 4.8070766459436856e-20
3.4276182099114902 2.208561539952174e-22 2.009423049206902e-14 2.0094181846457077e-14 4.8645611945320263e-20
3.4340518103208963 1.9963814905217998e-22 1.8197838683648184e-14 1.81977894894136e-14 4.9194234581108274e-20
3.4469541582030403 1.6941901116893862e-22 1.5501262950178833e-14 1.5501212692758026e-14 5.025742080743893e-20
3.472904465399547 1.6096222290306387e-22 1.4838371182397932e-14 1.4838318488127722e-14 5.269427021100666e-20
3.4990501388274233 1.4802149691629848e-22 1.37481540727403e-14 1.3748098859495746e-14 5.521324455848825e-20
3.5253949054701885 1.0193263560437075e-22 9.538727875617676e-15 9.538670176201006e-15 5.769941666834167e-20
3.5519380250092896 5.860780218689667e-23 5.525737476153093e-15 5.525677245235006e-15 6.023091808810666e-20
3.578680990867387 4.143776913343205e-23 3.936305399454214e-15 3.9362423858642805e-15 6.301358993404086e-20
3.605625307711299 3.450209263511829e-23 3.3021398578483646e-15 3.302073891368882e-15 6.596647948279036e-20
3.660119384959845 2.946193123121312e-23 2.862370819773696e-15 2.8622985537425035e-15 7.22660311940115e-20
3.715437065384467 2.5900890229118658e-23 2.5544301625063483e-15 2.554351112282448e-15 7.905022389999478e-20
3.8285932144167436 2.414063072795998e-23 2.453337352853791e-15 2.45324320571863e-15 9.414713516079399e-20
3.94519561050918 2.3855786722985823e-23 2.4982259643493593e-15 2.4981145397286084e-15 1.1142462074985342e-19
4.06534921144712 2.4178995293245437e-23 2.6091890123132797e-15 2.6090579012602477e-15 1.3111105303252495e-19
4.189162171576248 2.4855987583923408e-23 2.763933753218061e-15 2.763780236208145e-15 1.535170099164941e-19
4.316745939156006 2.5791951927308124e-23 2.95535824346167e-15 2.955179345854896e-15 1.788976067754132e-19
4.448215356677963 2.6955058879032014e-23 3.182698672270134e-15 3.1824913521534774e-15 2.0732011665484313e-19
4.58368876423945 2.8349114092758143e-23 3.4492450195756274e-15 3.4490058079036637e-15 2.3921167196423513e-19
4.723288106065518 3.0004398568576114e-23 3.7618267982299235e-15 3.761551600552916e-15 2.751976770075951e-19
4.867139040275056 3.198153482739297e-23 4.131830414600188e-15 4.1315152968282015e-15 3.1511777198658016e-19
4.940699165968905 3.3167151917869714e-23 4.349767299381702e-15 4.349430483499677e-15 3.368158820248005e-19
5.015371051989984 3.43938730844182e-23 4.578820160457116e-15 4.578460436859361e-15 3.597235977564596e-19
5.091171501069577 3.588282820138667e-23 4.849241640206207e-15 4.8488573661062324e-15 3.84274099977247e-19
5.129500256944802 3.6646514585904787e-23 4.9897313613337726e-15 4.98933430803475e-15 3.9705329902305235e-19
5.168117569889187 3.7441910825332237e-23 5.1364116523705174e-15 5.136001402761012e-15 4.102496095045829e-19
5.20702561229733 3.841417400972263e-23 5.309463581676176e-15 5.309039155353661e-15 4.2442632251482034e-19
5.246226572918644 3.9410662020128817e-23 5.4882034961940046e-15 5.487764483516708e-15 4.3901267729620755e-19
5.265937586045735 3.991822771234608e-23 5.579771209467771e-15 5.579324746751817e-15 4.464627159523859e-19
5.285722656980489 4.043213861805404e-23 5.672839788224552e-15 5.672385769127645e-15 4.54019096907742e-19
5.305582063971359 4.095249548645145e-23 5.767436751538002e-15 5.766975068367892e-15 4.616831701096785e-19
5.3255160863122235 4.151093491044808e-23 5.868047877328142e-15 5.86757838704477e-15 4.694902833717012e-19
5.365609099470188 4.289799764374297e-23 6.1097787536992345e-15 6.109293048227961e-15 4.857054712740546e-19
5.406003951863644 4.433683490825342e-23 6.362246311550568e-15 6.3617439143388375e-15 5.023972117291605e-19
5.446702915881641 4.5829929967907795e-23 6.626013470938424e-15 6.625493892716942e-15 5.195782214834382e-19
5.487708281020852 4.744173106222398e-23 6.910683083179868e-15 6.910145778335896e-15 5.373048439703725e-19
5.529022354014368 4.967701376833903e-23 7.290767686887988e-15 7.29021175363217e-15 5.559332558184312e-19
5.570647458961463 5.2042131337675587e-23 7.695381983764368e-15 7.694806862483879e-15 5.751212804857967e-19
5.612585937458331 5.454639435667123e-23 8.126405414317053e-15 8.125810529703934e-15 5.948846131210963e-19
5.654840148729818 5.729690744091866e-23 8.600445491568918e-15 8.599830194123802e-15 6.152974451169781e-19
5.67608639626678 5.916865092347935e-23 8.914769069314604e-15 8.91414308365666e-15 6.259856579500199e-19
5.686739436050992 6.013312526519292e-23 9.077087843457227e-15 9.076456452375809e-15 6.313910814166964e-19
5.6974124697621304 6.111727472344058e-23 9.242960034925445e-15 9.242323197146086e-15 6.368377793573443e-19
5.718818669136295 6.314648912483021e-23 9.585725066271753e-15 9.585077210069162e-15 6.478562025915213e-19
5.740305295436557 6.538259302008218e-23 9.962459391541286e-15 9.961800293436706e-15 6.590981045793175e-19
5.7835210386641895 7.118140039556687e-23 1.0927687845621597e-14 1.0927005310950835e-14 6.825346707621951e-19
5.827062130521658 7.785621635189095e-23 1.2042381345982187e-14 1.2041674499536833e-14 7.06846445349513e-19
5.8489554468988025 8.253934710347481e-23 1.2814709795667389e-14 1.2813989925622826e-14 7.19870044560773e-19
5.870931020387893 8.756226132721154e-23 1.3645623351023586e-14 1.3644890239645483e-14 7.331113780974068e-19
5.892989160043636 9.295223612573339e-23 1.4540017097571543e-14 1.4539270523579632e-14 7.465739919087898e-19
5.915130176081913 9.908088193699335e-23 1.5556919464029058e-14 1.5556158939010285e-14 7.605250187671471e-19
5.95966208400165 1.1621813842639869e-22 1.8385057116550517e-14 1.8384265659550483e-14 7.914570000369668e-19
6.004529249263818 1.4091230850467432e-22 2.2459357470406068e-14 2.245853154761885e-14 8.259227872195579e-19
6.027089341400364 1.580783308902636e-22 2.529003345815839e-14 2.5289188056572538e-14 8.454015858510134e-19
6.049734195844842 1.7835750213784693e-22 2.8641588988519154e-14 2.8640722999508515e-14 8.659890106522216e-19
6.095279466722835 2.3693919151237593e-22 3.833539636395222e-14 3.833448139189595e-14 9.149720562789903e-19
6.141167624020661 3.270831446830828e-22 5.331857688947154e-14 5.331760032176303e-14 9.765677085242811e-19
6.164241091010745 3.846651100141546e-22 6.294074017136502e-14 6.293972595028391e-14 1.0142210811245395e-18
6.187401249150058 4.502384538271263e-22 7.394695547662762e-14 7.39459022205975e-14 1.053256030098631e-18
6.1990139391386085 4.822626151184208e-22 7.935524609032818e-14 7.935417288684801e-14 1.0732034801736036e-18
6.204828454712694 4.991297929973902e-22 8.220773937001855e-14 8.220665605232106e-14 1.083317697520083e-18
6.210648424152782 5.114478340552732e-22 8.431555866645355e-14 8.431446646336343e-14 1.0922030901431544e-18
6.233982942956859 5.533042614441398e-22 9.155858195781032e-14 9.155745759933258e-14 1.1243584777434938e-18
6.239830258556775 5.5865920788527885e-22 9.253140788039253e-14 9.253027819651055e-14 1.1296838820002835e-18
6.245683058788269 5.591321337495309e-22 9.269660472219883e-14 9.269546968914771e-14 1.1350330510942167e-18
6.257405133728602 5.580020293526423e-22 9.268287255722849e-14 9.26817276450819e-14 1.1449121465630826e-18
6.269149208991335 5.497955788654005e-22 9.14911913161117e-14 9.149004031798972e-14 1.1509981219525333e-18
6.280915325867298 5.291858970605082e-22 8.822682147709534e-14 8.822566912593785e-14 1.1523511574575133e-18
6.304513850009849 4.7834609537622555e-22 8.005035633278216e-14 8.004920558046004e-14 1.1507523221055738e-18
6.32820103803542 4.1531855025792204e-22 6.976394484178538e-14 6.976280026848888e-14 1.1445732964839657e-18
6.3519772230701035 3.575119212591655e-22 6.027939615336252e-14 6.027825627526941e-14 1.1398780930600597e-18
6.375842739491607 3.088656197581248e-22 5.227290050322036e-14 5.22717638260112e-14 1.1366772091470552e-18
6.399797922933955 2.698887346821613e-22 4.5848005905620953e-14 4.584686673854417e-14 1.139167076796431e-18
6.42384311029221 2.3747166487355244e-22 4.0492645900192236e-14 4.049150307126602e-14 1.1428289261939489e-18
6.447978639727206 2.138557186223813e-22 3.6602764799826934e-14 3.6601613745507946e-14 1.1510543189748346e-18
6.472204850670314 1.9417694117073474e-22 3.335948543628636e-14 3.335832515033027e-14 1.160285956087709e-18
6.496522083828205 1.8139443803440037e-22 3.128054553788044e-14 3.1279372206527805e-14 1.1733313526445092e-18
6.520930681187647 1.706248704612842e-22 2.9533937488084883e-14 2.9532750370482736e-14 1.1871176021429387e-18
6.57002334288761 1.5961974589339324e-22 2.78370340541179e-14 2.7835813597122567e-14 1.2204569953376078e-18
