Dust emission spectrum from A.P. Jones, M. Kohler, N. Ysard, M. Bocchio, and L. Verstraete (2017), A&A, 602A, 46J 
inside the DustPedia framework.

lambda    nu*dP/dnu     j_nu    j_nu(carb.) j_nu(sil)
 (um)   (erg s-1 H-1) (Jy cm2 sr-1 H-1)
0.9927057738263894 2.8136942460258505e-24 7.414244152920796e-17 7.414241874467787e-17 2.278453009486143e-23
1.0001793341362166 2.8610132155204625e-24 7.59568898653161e-17 7.595686243656045e-17 2.7428755650725903e-23
1.0077091589558085 2.9084518318850725e-24 7.779765643068704e-17 7.779762345457845e-17 3.297610858969414e-23
1.0114953028030835 2.9322128172171844e-24 7.872792248068324e-17 7.872788634128849e-17 3.6139394769649313e-23
1.0152956718711033 2.9559999201074156e-24 7.966478453401492e-17 7.966474494098568e-17 3.9593029215505086e-23
1.0229392996569957 3.0036244623731643e-24 8.155769244421088e-17 8.155764496877507e-17 4.7475435826354667e-23
1.0267826658714554 3.02740705914061e-24 8.251231663039234e-17 8.251226466741101e-17 5.1962981327389124e-23
1.0306404723013447 3.0512097623944472e-24 8.347351296762056e-17 8.347345611172957e-17 5.685589098452218e-23
1.03451277320114 3.075031423493312e-24 8.44412878901907e-17 8.444122570124608e-17 6.218894460474659e-23
1.0383996230291617 3.098870915766491e-24 8.541564816430667e-17 8.541558016457025e-17 6.799973642125235e-23
1.0403485208654093 3.11079700269161e-24 8.59053000201741e-17 8.590522892332007e-17 7.109685402362885e-23
1.0423010764483396 3.122727135226043e-24 8.639660091570605e-17 8.639652658681802e-17 7.432888803804132e-23
1.0462171883269815 3.146599001283127e-24 8.738415365794513e-17 8.738407243766887e-17 8.122027626879921e-23
1.0471985131304309 3.152569288232977e-24 8.763207401183145e-17 8.763199097538734e-17 8.3036444109766e-23
1.048180758391296 3.1585404706771852e-24 8.7880407486773e-17 8.788032259530266e-17 8.489147034258068e-23
1.0501480137395462 3.170485457468673e-24 8.83783143213589e-17 8.837822560008207e-17 8.872127681776631e-23
1.0521189612883777 3.1824338334866514e-24 8.887787522298068e-17 8.887778250677359e-17 9.271620709811079e-23
1.0531058218030118 3.1884010123587535e-24 8.91280459356598e-17 8.912795115782584e-17 9.47778339383298e-23
1.0540936079674168 3.194341993286782e-24 8.937787474134806e-17 8.937777785758623e-17 9.688376182691391e-23
1.058054026499678 3.2181124980992e-24 9.038128243662874e-17 9.038117667251118e-17 1.0576411753958819e-22
1.0590464539527713 3.2240566937423917e-24 9.063315817289707e-17 9.063305006987778e-17 1.0810301928002455e-22
1.06003981227728 3.230001487198728e-24 9.088544371922235e-17 9.088533322785316e-17 1.1049136919363797e-22
1.0620293250338977 3.241892808483841e-24 9.13912448294587e-17 9.139112940905198e-17 1.1542040672351188e-22
1.0660195594769086 3.2656819811823686e-24 9.240777135724109e-17 9.240764544038214e-17 1.2591685893378214e-22
1.070024785945596 3.2894791010455617e-24 9.34308720374839e-17 9.343073471478035e-17 1.3732270354670998e-22
1.0740450607676866 3.3132832817804625e-24 9.446055750121028e-17 9.44604077886779e-17 1.4971253237083603e-22
1.07808044048254 3.337093666703346e-24 9.549683902716038e-17 9.549667586047389e-17 1.6316668645518733e-22
1.0861967418109137 3.384691907630322e-24 9.758814703067149e-17 9.758795341006554e-17 1.936206059292756e-22
1.0902777775684922 3.4083920945548325e-24 9.864069933173446e-17 9.864048851802558e-17 2.1081370889980605e-22
1.0943741465085532 3.4320938630527676e-24 9.969982923863547e-17 9.969959977996243e-17 2.2945867305936894e-22
1.1026131145906286 3.479499422974681e-24 1.0183788134085813e-16 1.0183760976463116e-16 2.7157622696607473e-22
1.1109141095355224 3.52690349394279e-24 1.0400243129861039e-16 1.040021102909544e-16 3.210076560049888e-22
1.1192775983109025 3.574262748446709e-24 1.0619246930389434e-16 1.0619209035770427e-16 3.789461900472e-22
1.1277040513999907 3.621394878844196e-24 1.0840278922779584e-16 1.084023424614048e-16 4.467663910169118e-22
1.1361939428280308 3.668508060956712e-24 1.1063979958962843e-16 1.1063927354015329e-16 5.260494751320655e-22
1.1447477501889525 3.71559974266945e-24 1.1290369513774544e-16 1.1290307652575472e-16 6.186119907437061e-22
1.1533659546722406 3.7626870994052245e-24 1.1519527480176647e-16 1.1519454826271445e-16 7.265390520262251e-22
1.1707974979042381 3.857001029871754e-24 1.1986736914512095e-16 1.1986637074922338e-16 9.983958975539224e-22
1.1884924949847024 3.951281538760635e-24 1.2465332060052454e-16 1.2465195547285719e-16 1.3651276673450401e-21
1.2064549276569216 4.046209061338409e-24 1.2957727812039147e-16 1.2957542073790442e-16 1.8573824870793723e-21
1.2246888378427687 4.14109674646689e-24 1.3462030478042885e-16 1.3461778998491009e-16 2.5147955187166864e-21
1.2431983285522175 4.235867197476571e-24 1.3978230133600382e-16 1.3977891289133117e-16 3.388444672671176e-21
1.2619875648066055 4.3306567113982455e-24 1.4507021925076512e-16 1.450656754323567e-16 4.5438184084582185e-21
1.3004222497298317 4.519699536078613e-24 1.5601393433944242e-16 1.5600587832008303e-16 8.056019359418317e-21
1.3400274889804893 4.709024965308865e-24 1.674997385218276e-16 1.6748571666156206e-16 1.4021860265511837e-20
1.3808389325824078 4.8997729329693436e-24 1.795925887802e-16 1.7956861816927495e-16 2.3970610925061252e-20
1.4228933163050095 5.094396934854538e-24 1.9241306287779867e-16 1.9237279533014354e-16 4.0267547655107907e-20
1.466228494730424 5.297730211674627e-24 2.0618683222951787e-16 2.0612032780483072e-16 6.650442468722555e-20
1.5108834753276823 5.510763289920915e-24 2.2101012033449834e-16 2.209020874017231e-16 1.0803293277519129e-19
1.5568984535646726 5.7353700335452135e-24 2.37023367028675e-16 2.3685057331518484e-16 1.7279371349022433e-19
1.6043148490894465 5.9758273184580714e-24 2.5448200370447546e-16 2.5420937462198205e-16 2.726290824933812e-19
1.6531753430134553 6.2373696919901084e-24 2.7370947894544326e-16 2.732856610877812e-16 4.238178576620536e-19
1.7035239163302658 6.5266498884167365e-24 2.9512634850819933e-16 2.944770396359581e-16 6.493088722413085e-19
1.755405889504358 6.854960011530472e-24 3.19412501372246e-16 3.184316457491434e-16 9.808556231025557e-19
1.8088679632656115 7.229939544434134e-24 3.4714504118610526e-16 3.456835588248947e-16 1.4614823612106236e-18
1.8639582606462262 7.660902603179135e-24 3.7904044832460696e-16 3.7689168516248423e-16 2.14876316212277e-18
1.9207263702978936 8.160155097810902e-24 4.1603833092334045e-16 4.1291978116143395e-16 3.118549761906514e-18
1.979223391128241 8.742655554691624e-24 4.593118142105341e-16 4.548423801617443e-16 4.4694340487899175e-18
2.039501978296691 9.425521081995467e-24 5.102687043302569e-16 5.039410636196315e-16 6.327640710625465e-18
2.1016163906111602 1.0230999055722454e-23 5.707434347466049e-16 5.61890268996566e-16 8.853165750039071e-18
2.1656225393682647 1.118198144109531e-23 6.427927400137655e-16 6.305473950290752e-16 1.2245344984690239e-17
2.231578038680979 1.2300987791321263e-23 7.286542449146708e-16 7.119050889565913e-16 1.674915595807947e-17
2.299542257339062 1.361445230244618e-23 8.31019094065522e-16 8.083572243182188e-16 2.266186974730295e-17
2.369576372248914 1.5152506243601498e-23 9.530695962653339e-16 9.227293999799582e-16 3.0340196285375825e-17
2.4417434235010123 1.6947773467901524e-23 1.098454595489641e-15 1.0582486743010213e-15 4.02059211886196e-17
2.5161083711144245 1.9037443375496144e-23 1.2714737553648823e-15 1.2187205158562765e-15 5.275323950860634e-17
2.5927381535095444 2.146328921441571e-23 1.4771492194156165e-15 1.4085956251298886e-15 6.855359428572759e-17
2.6717017477616296 2.4267927498400217e-23 1.7210365610413718e-15 1.6327807981145048e-15 8.825576292686732e-17
2.753070231689431 2.749764045333875e-23 2.0094728952961744e-15 1.896885007199363e-15 1.1258788809681157e-16
2.836916847834745 3.121652532041962e-23 2.3507183639828064e-15 2.208356360217016e-15 1.423620037657905e-16
2.9233170693905177 3.5519077903192924e-23 2.756176580782425e-15 2.5777393256686437e-15 1.784372551137813e-16
2.967498994190263 3.792805702054946e-23 2.9875873280766086e-15 2.7888290466463738e-15 1.9875828143023486e-16
3.0123486681368425 4.051110532847946e-23 3.2392820492630726e-15 3.0181812823565762e-15 2.2110076690649682e-16
3.0578761833420214 4.3648771015142694e-23 3.542920029261164e-15 3.297218468225641e-15 2.457015610355232e-16
3.1040917844459814 4.7107828184307826e-23 3.881477471412489e-15 3.60897244732633e-15 2.725050240861575e-16
3.127460860933648 4.941095223541612e-23 4.1018950080694025e-15 3.81502594083621e-15 2.8686906723319313e-16
3.1510058709225794 5.2062445385537655e-23 4.3545492678030136e-15 4.0526983536279296e-15 3.0185091417508253e-16
3.162844764501044 5.397897401020847e-23 4.531812525849492e-15 4.222204875629089e-15 3.0960765022040315e-16
3.1747281389236908 5.608420882517945e-23 4.726248712784769e-15 4.4087240925846275e-15 3.175246202001409e-16
3.1986289994194426 6.138979723545873e-23 5.212301179096491e-15 4.878412505143209e-15 3.3388867395328174e-16
3.2227097969389145 7.202523912052913e-23 6.161342356755996e-15 5.810103992881178e-15 3.5123836387481713e-16
3.2348180950136065 8.145422883340317e-23 6.994117646771467e-15 6.63361802567945e-15 3.6049962109201523e-16
3.240889293275058 8.833278021072498e-23 7.598983978739685e-15 7.233599242469124e-15 3.653847362705611e-16
3.2469718861334385 9.624455364318328e-23 8.295147714588928e-15 7.92470826164222e-15 3.704394529467075e-16
3.2714166318528037 1.374987718369393e-22 1.1939994021541433e-14 1.1548657857847018e-14 3.913361636944117e-16
3.2744851364798273 1.4017012879685919e-22 1.2183383893538334e-14 1.1789582749371024e-14 3.9380114416730683e-16
3.2775565192852394 1.4291018153037499e-22 1.2433196385048772e-14 1.2036917722364875e-14 3.9627866268389077e-16
3.283707930232385 1.4082611835053258e-22 1.2274877414620745e-14 1.1874163353307863e-14 4.0071406131288303e-16
3.2898708863219004 1.3339565760496928e-22 1.164903578593727e-14 1.1244280843378597e-14 4.047549425586696e-16
3.29141343181113 1.316452718442751e-22 1.1501570234714983e-14 1.1095800490879515e-14 4.0576974383546547e-16
3.292184975758714 1.3078549236835849e-22 1.1429131599892044e-14 1.1022853767324298e-14 4.062778325677438e-16
3.295272960557952 1.2530864862264327e-22 1.0960790432176257e-14 1.0552535396801083e-14 4.082550353751723e-16
3.3076538914384823 1.0631933305319894e-22 9.334729464085017e-15 8.918530788052182e-15 4.1619867603283594e-16
3.310756385682612 1.0245603969472483e-22 9.003973812303346e-15 8.58577241538531e-15 4.1820139691803405e-16
3.313861789986515 9.889293170259309e-23 8.698994903212773e-15 8.278784046314981e-15 4.20210856897792e-16
3.3200813396944477 9.403179338110428e-23 8.286914840323526e-15 7.862383891870718e-15 4.245309484528082e-16
3.345076488085796 8.642035315348342e-23 7.6734651047698e-15 7.229687498920828e-15 4.4377760584897237e-16
3.3482140837626964 8.699596332109784e-23 7.73182032912679e-15 7.285435687292373e-15 4.463846418344198e-16
3.3513546224236106 8.757588823800597e-23 7.790662109516652e-15 7.341658440596011e-15 4.490036689206433e-16
3.3576445397418455 9.063087906943862e-23 8.077562791356953e-15 7.623084152372423e-15 4.5447863898453e-16
3.3702598118196083 1.0106974055680913e-22 9.041780621781962e-15 8.57581754952397e-15 4.659630722579921e-16
3.382922481734668 1.041907086361641e-22 9.356005557246278e-15 8.87886997488688e-15 4.771355823593988e-16
3.389271646505754 1.0579247920941701e-22 9.517669202226593e-15 9.034868751135544e-15 4.828004510910524e-16
3.395632727569191 1.0751692811379993e-22 9.690964247504626e-15 9.202325749760433e-15 4.88638497744193e-16
3.421196662673239 1.1555109621573088e-22 1.0493528410519288e-14 9.980712248415e-15 5.128161621042914e-16
3.4276182099114902 1.14805838694829e-22 1.0445418625822611e-14 9.927196054096977e-15 5.182225717256374e-16
3.4340518103208963 1.1000199130709963e-22 1.002713410332938e-14 9.503792784661861e-15 5.23341318667522e-16
3.4469541582030403 1.0333879471306004e-22 9.455148030608879e-15 8.921971301861832e-15 5.331767287470461e-16
3.472904465399547 1.0296438453557537e-22 9.491815711479833e-15 8.935998097802712e-15 5.558176136771214e-16
3.4990501388274233 1.0154104553047561e-22 9.431075673079509e-15 8.852065267567322e-15 5.790104055121875e-16
3.5253949054701885 9.206677388054507e-23 8.615492940269747e-15 8.013912364421272e-15 6.015805758484749e-16
3.5519380250092896 8.316411245946273e-23 7.840987645685966e-15 7.216690915565875e-15 6.2429673012009e-16
3.578680990867387 8.082889977146679e-23 7.678194103013872e-15 7.028995137128887e-15 6.491989658849859e-16
3.605625307711299 8.109041075297794e-23 7.761032939902024e-15 7.085588553667855e-15 6.754443862341684e-16
3.660119384959845 8.390368626342885e-23 8.151653784917102e-15 7.420987023410442e-15 7.306667615066598e-16
3.715437065384467 8.718622851607205e-23 8.598589851797687e-15 7.809587903579534e-15 7.890019482181506e-16
3.8285932144167436 9.547052771590511e-23 9.702373329907034e-15 8.787577123245079e-15 9.147962066619549e-16
3.94519561050918 1.0459786523258275e-22 1.0953698814207353e-14 9.901101269107604e-15 1.0525975450997515e-15
4.06534921144712 1.1432352610287647e-22 1.233681071272078e-14 1.1134415466737364e-14 1.202395245983417e-15
4.189162171576248 1.24550322560797e-22 1.3849734971811798e-14 1.2485123765573925e-14 1.3646112062378694e-15
4.316745939156006 1.3520588960762308e-22 1.5492500976375746e-14 1.3953694167404216e-14 1.5388068089715246e-15
4.448215356677963 1.4621390600007044e-22 1.7264098979796617e-14 1.554134133144482e-14 1.7227576483517957e-15
4.58368876423945 1.575269267062388e-22 1.9166347336735608e-14 1.724951967636296e-14 1.9168276603726497e-15
4.723288106065518 1.69106612295142e-22 2.1201884264928695e-14 1.907952670562741e-14 2.1223575593012827e-15
4.867139040275056 1.8086903724941295e-22 2.3367239665010725e-14 2.1033018469075348e-14 2.3342211959353734e-15
4.940699165968905 1.8683024654331019e-22 2.450219720287966e-14 2.2059002460779148e-14 2.443194742100509e-15
5.015371051989984 1.9279945630956253e-22 2.566718890043638e-14 2.3113299001790987e-14 2.5538898986453785e-15
5.091171501069577 1.9886146316044488e-22 2.6874338956166674e-14 2.420570193884552e-14 2.6686370173211412e-15
5.129500256944802 2.018890483757806e-22 2.7488892943121136e-14 2.4762329820109428e-14 2.7265631230117074e-15
5.168117569889187 2.049234154065584e-22 2.8112107409477304e-14 2.532671882359978e-14 2.785388585877516e-15
5.20702561229733 2.0804494091725335e-22 2.875519429033024e-14 2.5905748383906823e-14 2.8494459064234204e-15
5.246226572918644 2.1116377150080535e-22 2.940599547473535e-14 2.6491948684541812e-14 2.9140467901935355e-15
5.265937586045735 2.127218325697976e-22 2.973426489651189e-14 2.678772071344125e-14 2.9465441830706363e-15
5.285722656980489 2.1427880869427693e-22 3.006443372232274e-14 2.7085264586730213e-14 2.9791691355925178e-15
5.305582063971359 2.158345640654872e-22 3.039649189279083e-14 2.7384573092663334e-14 3.0119188001274954e-15
5.3255160863122235 2.174019001004494e-22 3.0732257925861693e-14 2.7687219676006274e-14 3.0450382498554233e-15
5.365609099470188 2.206323162551982e-22 3.1423719340710994e-14 2.8310159517364754e-14 3.113559823346236e-15
5.406003951863644 2.238613206583557e-22 3.212364763079495e-14 2.89409988084503e-14 3.1826488223446484e-15
5.446702915881641 2.270881197567425e-22 3.28320148351068e-14 2.957973205703556e-14 3.2522827780712216e-15
5.487708281020852 2.3033582266335704e-22 3.3552272176624916e-14 3.0229548033183226e-14 3.3227241434416867e-15
5.529022354014368 2.3379163956252604e-22 3.431205706397313e-14 3.091588115471569e-14 3.396175909257447e-15
5.570647458961463 2.3725750510010747e-22 3.5082866195729406e-14 3.1612636497489244e-14 3.4702296982401586e-15
5.612585937458331 2.4073385537443817e-22 3.58648986573205e-14 3.232003583588248e-14 3.5448628214380276e-15
5.654840148729818 2.4425713764238834e-22 3.666376235726426e-14 3.3043355928569774e-14 3.620406428694478e-15
5.67608639626678 2.4618149233363065e-22 3.709145162244485e-14 3.343152852515066e-14 3.659923097294196e-15
5.686739436050992 2.4714757865135554e-22 3.730689652038843e-14 3.362715221251306e-14 3.679744307875363e-15
5.6974124697621304 2.4811635560120635e-22 3.7523426383305825e-14 3.3823819415142515e-14 3.69960696816331e-15
5.718818669136295 2.500622482018979e-22 3.795979782785189e-14 3.4220342606143295e-14 3.739455221708579e-15
5.740305295436557 2.5206448817857472e-22 3.8407504375933556e-14 3.46277496446251e-14 3.779754731308465e-15
5.7835210386641895 2.5647295013537284e-22 3.9373436380152676e-14 3.551034332142415e-14 3.863093058728525e-15
5.827062130521658 2.6107428331807194e-22 4.038156780102579e-14 3.643370061675572e-14 3.94786718427007e-15
5.8489554468988025 2.6380716400843376e-22 4.0957584078633815e-14 3.696396566795148e-14 3.993618410682339e-15
5.870931020387893 2.6660323390682054e-22 4.154720605561553e-14 3.7507588422569886e-14 4.039617633045658e-15
5.892989160043636 2.694674451796599e-22 4.2151339477743676e-14 3.8065477062732594e-14 4.0858624150110835e-15
5.915130176081913 2.7253312902332703e-22 4.279105975451308e-14 3.865726696057375e-14 4.1337927939393276e-15
5.95966208400165 2.8014363603714825e-22 4.4317150654094416e-14 4.007426619450935e-14 4.242884459585066e-15
6.004529249263818 2.8987670405406353e-22 4.6202099644669124e-14 4.183651355457672e-14 4.365586090092408e-15
6.027089341400364 2.9614485789128407e-22 4.737849471431527e-14 4.294207334223969e-14 4.4364213720755855e-15
6.049734195844842 3.0320388572962244e-22 4.8690080151929906e-14 4.41786350019896e-14 4.5114451499402766e-15
6.095279466722835 3.2242758625367034e-22 5.216692620081481e-14 4.747127970113977e-14 4.695646499675044e-15
6.141167624020661 3.5015652644155487e-22 5.707982200218203e-14 5.214536001917668e-14 4.934461983005363e-15
6.164241091010745 3.6756292152231635e-22 6.014239851207888e-14 5.5058171315296573e-14 5.0842271967822875e-15
6.187401249150058 3.8662104524374386e-22 6.349846170612423e-14 5.826039003808035e-14 5.238071668043883e-15
6.1990139391386085 3.9589359045737914e-22 6.514341421346664e-14 5.982704991311726e-14 5.316364300349384e-15
6.204828454712694 4.007112258069985e-22 6.59979918569089e-14 6.06420765833296e-14 5.355915273579312e-15
6.210648424152782 4.0428303755899596e-22 6.6648733069957e-14 6.125909159339926e-14 5.389641476557728e-15
6.233982942956859 4.163384684708347e-22 6.889402891671853e-14 6.338667806324366e-14 5.5073508534748594e-15
6.239830258556775 4.17867927775567e-22 6.921197595847282e-14 6.368819794221672e-14 5.523778016256098e-15
6.245683058788269 4.180834682846141e-22 6.931262873513453e-14 6.377239509108802e-14 5.5402336440464966e-15
6.257405133728602 4.1793008114879893e-22 6.941723938510413e-14 6.384814775806757e-14 5.569091627036565e-15
6.269149208991335 4.1581323550302545e-22 6.919526046333006e-14 6.361529877429283e-14 5.579961689037219e-15
6.280915325867298 4.1029503399487317e-22 6.840512364044608e-14 6.283654209472935e-14 5.568581545716721e-15
6.304513850009849 3.966183451146067e-22 6.63733647278364e-14 6.084768504273187e-14 5.525679685104534e-15
6.32820103803542 3.799628382763125e-22 6.382500005110537e-14 5.836365299723549e-14 5.4613470538698716e-15
6.3519772230701035 3.649184774600866e-22 6.152820132269788e-14 5.6124376501054476e-14 5.4038248216434176e-15
6.375842739491607 3.5215126904086167e-22 5.95986314795126e-14 5.424535337642025e-14 5.353278103092326e-15
6.399797922933955 3.4257915218192026e-22 5.819646755866408e-14 5.286828479991036e-14 5.328182758753733e-15
6.42384311029221 3.346010365222562e-22 5.705472817966489e-14 5.174657492478385e-14 5.308153254881046e-15
6.447978639727206 3.2926160965615837e-22 5.6355216187309773e-14 5.1047221515518086e-14 5.30799467179168e-15
6.472204850670314 3.2489700824455297e-22 5.581711684961219e-14 5.050532955476599e-14 5.311787294846204e-15
6.496522083828205 3.225569729855739e-22 5.5623304613797757e-14 5.0291602630912563e-14 5.331701982885198e-15
