Dust emission spectrum from A.P. Jones, M. Kohler, N. Ysard, M. Bocchio, and L. Verstraete (2017), A&A, 602A, 46J 
inside the DustPedia framework.

lambda    nu*dP/dnu     j_nu    j_nu(carb.) j_nu(sil)
 (um)   (erg s-1 H-1) (Jy cm2 sr-1 H-1)
0.9927057738263894 8.483592787819558e-21 2.2354748854355196e-13 2.2354748279281125e-13 5.750740700313768e-21
1.0001793341362166 8.626226950164487e-21 2.290172470551383e-13 2.2901724013465945e-13 6.920478868855378e-21
1.0077091589558085 8.769427449282808e-21 2.345718420754987e-13 2.3457183375844467e-13 8.317054011994051e-21
1.0114953028030835 8.841233504459392e-21 2.373811143194192e-13 2.3738110520626354e-13 9.113155649561908e-21
1.0152956718711033 8.913173370457605e-21 2.4021179136094903e-13 2.402117813788243e-13 9.982124823779383e-21
1.0229392996569957 9.057374569098428e-21 2.459357282217966e-13 2.459357162570966e-13 1.196469996078578e-20
1.0267826658714554 9.129472090971878e-21 2.4882477880342894e-13 2.4882476571042363e-13 1.3093005339364763e-20
1.0306404723013447 9.201690245006272e-21 2.5173536721637635e-13 2.517353528934457e-13 1.432293063307997e-20
1.03451277320114 9.274026806256873e-21 2.546675658224166e-13 2.546675501592533e-13 1.5663163255599664e-20
1.0383996230291617 9.346479617519151e-21 2.5762144867767585e-13 2.5762143155458526e-13 1.7123090553200067e-20
1.0403485208654093 9.382748961720241e-21 2.591065453236392e-13 2.591065274225617e-13 1.790107752842914e-20
1.0423010764483396 9.419046591031522e-21 2.605970916100826e-13 2.6059707289723004e-13 1.871285248310916e-20
1.0462171883269815 9.49172571016556e-21 2.6359457229788433e-13 2.6359455185448637e-13 2.0443397952361375e-20
1.0471985131304309 9.509912783287588e-21 2.643473639046417e-13 2.6434734300524494e-13 2.089939668017221e-20
1.048180758391296 9.528106714007729e-21 2.651015266000167e-13 2.6510150523489476e-13 2.1365121983518865e-20
1.0501480137395462 9.564515031102736e-21 2.666139703492116e-13 2.666139480226666e-13 2.232654504814381e-20
1.0521189612883777 9.600950430122543e-21 2.6813191381125175e-13 2.6813189048196093e-13 2.332929077576302e-20
1.0531058218030118 9.61915407993347e-21 2.6889227652836823e-13 2.688922526816495e-13 2.384671880807554e-20
1.0540936079674168 9.637285348344603e-21 2.696518045097251e-13 2.6965178013449255e-13 2.437523256957291e-20
1.058054026499678 9.709873538488423e-21 2.7270358734333383e-13 2.7270356073981153e-13 2.6603522349536775e-20
1.0590464539527713 9.72803623291566e-21 2.7346995737413267e-13 2.734699301838199e-13 2.71903127369366e-20
1.06003981227728 9.746205134295861e-21 2.742376998028124e-13 2.7423767201334285e-13 2.778946946958065e-20
1.0620293250338977 9.782561456822027e-21 2.757773072632128e-13 2.75777278237336e-13 2.9025876789180367e-20
1.0660195594769086 9.855347491088411e-21 2.78873050973851e-13 2.7887301931555413e-13 3.165829691372099e-20
1.070024785945596 9.928230110813815e-21 2.819909075413494e-13 2.819908730233259e-13 3.451802344381125e-20
1.0740450607676866 1.0001207868874764e-20 2.8513096847901764e-13 2.851309308553915e-13 3.762362619005275e-20
1.07808044048254 1.0074279403045173e-20 2.882933278338709e-13 2.882932868387716e-13 4.099509937047026e-20
1.0861967418109137 1.0220586915216957e-20 2.9468210574009113e-13 2.946820571167135e-13 4.862337762124757e-20
1.0902777775684922 1.0293566258403029e-20 2.9790134062584615e-13 2.9790128769759106e-13 5.2928255164047986e-20
1.0943741465085532 1.0366630418842625e-20 3.011430700264516e-13 3.011430124310906e-13 5.759536093447127e-20
1.1026131145906286 1.0513009709577498e-20 3.076944425597719e-13 3.076943744262551e-13 6.813351675835766e-20
1.1109141095355224 1.065971877619668e-20 3.143371151458804e-13 3.143370346512015e-13 8.049467900381513e-20
1.1192775983109025 1.0806638242198745e-20 3.2106861766435445e-13 3.2106852268944587e-13 9.497490851653757e-20
1.1277040513999907 1.0953237021497233e-20 3.2787406066648356e-13 3.278739487514765e-13 1.1191500720484538e-19
1.1361939428280308 1.1100139952389238e-20 3.3477294838733206e-13 3.3477281668059344e-13 1.317067386215562e-19
1.1447477501889525 1.1247347645794281e-20 3.4176638972330967e-13 3.417662349234725e-13 1.5479983707279271e-19
1.1533659546722406 1.1394914829447356e-20 3.48857162565658e-13 3.488569808555129e-13 1.8171014497342982e-19
1.1707974979042381 1.1691574477266157e-20 3.6334920911357267e-13 3.6334895968209057e-13 2.494314820302884e-19
1.1884924949847024 1.1989717393809194e-20 3.7824641740638114e-13 3.7824607673139377e-13 3.406749874460304e-19
1.2064549276569216 1.2291357464846305e-20 3.9362292470688864e-13 3.9362246171052007e-13 4.629963685215491e-19
1.2246888378427687 1.2594539886584734e-20 4.0942796121531287e-13 4.094273350636595e-13 6.261516532891267e-19
1.2431983285522175 1.2899016850842153e-20 4.256635480585274e-13 4.256627053651537e-13 8.426933737207518e-19
1.2619875648066055 1.3205231017111108e-20 4.423545634238906e-13 4.4235343473389354e-13 1.1286899970796241e-18
1.3004222497298317 1.3820978602714568e-20 4.770815473502848e-13 4.770795510724881e-13 1.9962777967260168e-18
1.3400274889804893 1.4443601201356937e-20 5.137580374628914e-13 5.137545714912214e-13 3.4659716700100845e-18
1.3808389325824078 1.507532903271523e-20 5.525597624088055e-13 5.525538523602363e-13 5.910048569304704e-18
1.4228933163050095 1.5721383873857192e-20 5.93789542222404e-13 5.937796399590011e-13 9.902263402753386e-18
1.466228494730424 1.639289057204309e-20 6.38008740174458e-13 6.379924294708432e-13 1.6310703614834348e-17
1.5108834753276823 1.7088310864318642e-20 6.853296797095014e-13 6.853032557922086e-13 2.6423917292781167e-17
1.5568984535646726 1.78067899543411e-20 7.358941596208418e-13 7.358520126173818e-13 4.2147003459952894e-17
1.6043148490894465 1.8552199032335446e-20 7.900497339155301e-13 7.899834216569313e-13 6.631225859882931e-17
1.6531753430134553 1.9328535475781135e-20 8.481785808925819e-13 8.480757881333226e-13 1.0279275925942608e-16
1.7035239163302658 2.0140415441528892e-20 9.10722555724295e-13 9.105655288413913e-13 1.5702688290367918e-16
1.755405889504358 2.100218067477107e-20 9.786138872169338e-13 9.783773798579696e-13 2.365073589644821e-16
1.8088679632656115 2.1912739328930513e-20 1.0521386451561735e-12 1.0517873055413713e-12 3.5133961480253803e-16
1.8639582606462262 2.2870357669872128e-20 1.1315625682194492e-12 1.1310475853431087e-12 5.149828763401803e-16
1.9207263702978936 2.387625469556569e-20 1.2173098468322649e-12 1.216564765555509e-12 7.450812767561081e-16
1.979223391128241 2.4932772550838323e-20 1.3098899896014598e-12 1.3088255385537421e-12 1.0644510477174426e-15
2.039501978296691 2.6041338806236713e-20 1.4097979407277972e-12 1.4082957960669452e-12 1.502144660851446e-15
2.1016163906111602 2.7210952710441416e-20 1.5179820199473273e-12 1.515887236884923e-12 2.094783062404536e-15
2.1656225393682647 2.844413981117503e-20 1.6351025677224592e-12 1.6322148501578707e-12 2.8877175645886062e-15
2.231578038680979 2.9734284228357397e-20 1.7613229758489817e-12 1.7573866452627075e-12 3.936330586274846e-15
2.299542257339062 3.1078678515061907e-20 1.897026387150358e-12 1.891719009961116e-12 5.307377189242312e-15
2.369576372248914 3.2477279509679316e-20 2.0427714842986546e-12 2.0356910880728327e-12 7.0803962258223626e-15
2.4417434235010123 3.3930706237035853e-20 2.1991880092610177e-12 2.1898392877865832e-12 9.348721474434663e-15
2.5161083711144245 3.5445420491149236e-20 2.3673305818142372e-12 2.3551097425645824e-12 1.2220839249655171e-14
2.5927381535095444 3.7035647562788176e-20 2.548872045724503e-12 2.533050937973141e-12 1.5821107751361814e-14
2.6717017477616296 3.8712914652874956e-20 2.745448349739143e-12 2.7251589993022004e-12 2.028935043694204e-14
2.753070231689431 4.0496903707234154e-20 2.959433209594731e-12 2.9336523655838803e-12 2.578084401085094e-14
2.836916847834745 4.2450248796338363e-20 3.1966587689347033e-12 3.164191905811417e-12 3.2466863123288215e-14
2.9233170693905177 4.4717194710951146e-20 3.469923548030285e-12 3.4293982866626102e-12 4.052526136767478e-14
2.967498994190263 4.611163362498497e-20 3.6322064222872393e-12 3.5871673144319244e-12 4.503910785531522e-14
3.0123486681368425 4.7603628821442844e-20 3.8064026905895785e-12 3.75641210520419e-12 4.999058538538964e-14
3.0578761833420214 5.007725333816441e-20 4.064712470383586e-12 4.00928145381651e-12 5.543101656707651e-14
3.1040917844459814 5.297933979963758e-20 4.3652641569050476e-12 4.303922778166192e-12 6.1341378738853e-14
3.127460860933648 5.568476255798145e-20 4.622721061392444e-12 4.55821909107756e-12 6.450197031488318e-14
3.1510058709225794 5.912621058802477e-20 4.945368876114522e-12 4.877575322118435e-12 6.779355399608582e-14
3.162844764501044 6.224318393982696e-20 5.2256354589829e-12 5.156139610686583e-12 6.9495848296317e-14
3.1747281389236908 6.577146912375756e-20 5.542599740563028e-12 5.4713677634385405e-12 7.123197712448825e-14
3.1986289994194426 7.533009352830019e-20 6.395902136849174e-12 6.32108571597696e-12 7.481642087221367e-14
3.2227097969389145 9.747344887707903e-20 8.33828941852495e-12 8.259677728552007e-12 7.861168997294384e-14
3.2348180950136065 1.1825186998655073e-19 1.0153769822414564e-11 1.0073133497493911e-11 8.063632492065281e-14
3.240889293275058 1.337745184526831e-19 1.150819005198854e-11 1.1426485781605379e-11 8.170427038315905e-14
3.2469718861334385 1.5176446372108804e-19 1.3080310487584279e-11 1.2997501211216675e-11 8.280927636760488e-14
3.2714166318528037 2.461676632792271e-19 2.1376484957527188e-11 2.1289111630837864e-11 8.737332668931974e-14
3.2744851364798273 2.520670982047948e-19 2.190930586080802e-11 2.1821395336986127e-11 8.791052382189521e-14
3.2775565192852394 2.581242981266122e-19 2.2456833068110817e-11 2.2368382723293877e-11 8.845034481693302e-14
3.283707930232385 2.52305561280118e-19 2.1991800044020867e-11 2.190238566810878e-11 8.941437591208469e-14
3.2898708863219004 2.338111808651925e-19 2.0418017062569025e-11 2.032772659945413e-11 9.029046311488644e-14
3.29141343181113 2.2944034209984705e-19 2.004571962493299e-11 1.9955209203347524e-11 9.051042158546284e-14
3.292184975758714 2.2729125868320785e-19 1.9862613658087744e-11 1.977199311662656e-11 9.062054146118384e-14
3.295272960557952 2.1389008008776603e-19 1.870903859496068e-11 1.8617989941276137e-11 9.104865368454509e-14
3.3076538914384823 1.6711327410553458e-19 1.4672375746112842e-11 1.4579608206711956e-11 9.276753940088304e-14
3.310756385682612 1.5749394520523397e-19 1.3840778566588276e-11 1.3747577895442786e-11 9.32006711454903e-14
3.313861789986515 1.4857989204338305e-19 1.3069647156303308e-11 1.2976011987538487e-11 9.36351687648225e-14
3.3200813396944477 1.3613042398951989e-19 1.1997019201858365e-11 1.1902448897894946e-11 9.45703039634187e-14
3.345076488085796 1.1438744299461863e-19 1.0156728365645084e-11 1.0057989200486984e-11 9.873916515810079e-14
3.3482140837626964 1.152707365355349e-19 1.0244758378147929e-11 1.0145454411926463e-11 9.930396622146669e-14
3.3513546224236106 1.1616204323000217e-19 1.0333657436582788e-11 1.0233786191885828e-11 9.987124469695733e-14
3.3576445397418455 1.224173692584885e-19 1.0910563784563503e-11 1.0809506275433271e-11 1.0105750913023316e-13
3.3702598118196083 1.4507778191715927e-19 1.2978775546102914e-11 1.287522991486903e-11 1.0354563123388702e-13
3.382922481734668 1.5048905896665653e-19 1.3513455186426284e-11 1.340749305650856e-11 1.0596212991772653e-13
3.389271646505754 1.5327850078266455e-19 1.3789771041992682e-11 1.3682584450580302e-11 1.0718659141237904e-13
3.395632727569191 1.563469221496678e-19 1.4092222121116837e-11 1.3983773648269603e-11 1.0844847284723703e-13
3.421196662673239 1.7123026437637964e-19 1.554991430474768e-11 1.5436244312202976e-11 1.1366999254470068e-13
3.4276182099114902 1.6854419960365294e-19 1.5334714173327636e-11 1.5219881004161047e-11 1.1483316916659062e-13
3.4340518103208963 1.5634530096126393e-19 1.4251517454691794e-11 1.413558514083537e-11 1.159323138564255e-13
3.4469541582030403 1.3884266134575875e-19 1.2703630999694027e-11 1.2585591082841637e-11 1.180399168523884e-13
3.472904465399547 1.3399750240501817e-19 1.2352616920538765e-11 1.2229718909121809e-11 1.2289801141696012e-13
3.4990501388274233 1.2666481432957527e-19 1.1764557306042888e-11 1.1636692611809448e-11 1.2786469423343994e-13
3.5253949054701885 1.0063095639236614e-19 9.416918371614938e-12 9.284236056209059e-12 1.3268231540587703e-13
3.5519380250092896 7.585212395917882e-20 7.151589180403594e-12 7.014070775113876e-12 1.375184052897179e-13
3.578680990867387 6.621238763169593e-20 6.289725156442404e-12 6.1469070930169e-12 1.4281806342550523e-13
3.605625307711299 6.253080569449183e-20 5.9847229561078775e-12 5.8363270924016526e-12 1.4839586370622355e-13
3.660119384959845 6.026854749742935e-20 5.855384372224114e-12 5.6952871625101726e-12 1.6009720971393927e-13
3.715437065384467 5.877354920076008e-20 5.7964388678497196e-12 5.624031338121434e-12 1.7240752972828629e-13
3.8285932144167436 5.88664504794055e-20 5.98241460293642e-12 5.7836380140379665e-12 1.9877658889845203e-13
3.94519561050918 5.971388748773536e-20 6.253358394186104e-12 6.025961618187688e-12 2.273967759984163e-13
4.06534921144712 6.081005828807449e-20 6.56209796970754e-12 6.303896682111339e-12 2.5820128759619926e-13
4.189162171576248 6.200497518435869e-20 6.894823357988097e-12 6.603610540975283e-12 2.9121281701281377e-13
4.316745939156006 6.323465983742609e-20 7.245712683930873e-12 6.919445086882678e-12 3.2626759704819357e-13
4.448215356677963 6.44694490335128e-20 7.612182587386607e-12 7.249350633926264e-12 3.628319534603405e-13
4.58368876423945 6.570355926498818e-20 7.994171310666995e-12 7.593260092471866e-12 4.00911218195128e-13
4.723288106065518 6.694688882248078e-20 8.393522698178148e-12 7.952816762948606e-12 4.407059352295404e-13
4.867139040275056 6.821315804788327e-20 8.812747812739945e-12 8.331664277475665e-12 4.810835352642786e-13
4.940699165968905 6.889605522164882e-20 9.035500208206367e-12 8.53389461403933e-12 5.01605594167038e-13
5.015371051989984 6.955381299124078e-20 9.25962599150368e-12 8.737347361169611e-12 5.222786303340653e-13
5.091171501069577 7.031702879184234e-20 9.502714282142441e-12 8.959152761000807e-12 5.435615211416336e-13
5.129500256944802 7.06880358499491e-20 9.624770959452727e-12 9.070537530109905e-12 5.542334293428255e-13
5.168117569889187 7.106372358022417e-20 9.748768954690817e-12 9.183733569816982e-12 5.650353848738352e-13
5.20702561229733 7.153397852615191e-20 9.887159196521575e-12 9.310290484033746e-12 5.768687124878272e-13
5.246226572918644 7.200035353501334e-20 1.002654032546427e-11 9.437788639282402e-12 5.887516861818694e-13
5.265937586045735 7.223213009323767e-20 1.0096609568869326e-11 9.501899555077321e-12 5.947100137920067e-13
5.285722656980489 7.246299140476883e-20 1.0166935385188658e-11 9.566256774899657e-12 6.006786102890036e-13
5.305582063971359 7.269295772240253e-20 1.0237521083053078e-11 9.630864332517567e-12 6.066567505355102e-13
5.3255160863122235 7.294058971906074e-20 1.0310990913487407e-11 9.698296213930775e-12 6.126946995566316e-13
5.365609099470188 7.357692785764203e-20 1.047924787353453e-11 9.854058140607944e-12 6.251897329265837e-13
5.406003951863644 7.421780386032287e-20 1.0650105038820052e-11 1.0012372176067239e-11 6.377328627528146e-13
5.446702915881641 7.486391182628023e-20 1.0823697278076477e-11 1.017337900251642e-11 6.503182755600581e-13
5.487708281020852 7.555120696642742e-20 1.1005299263045808e-11 1.0342301492442017e-11 6.629977706037897e-13
5.529022354014368 7.655862879997054e-20 1.1236005038672837e-11 1.055979091845327e-11 6.762141202195684e-13
5.570647458961463 7.759694582455742e-20 1.1474129201567576e-11 1.078465096441112e-11 6.894782371564603e-13
5.612585937458331 7.866914080345585e-20 1.1720249143959883e-11 1.1017464944865158e-11 7.027841990947283e-13
5.654840148729818 7.983134946004204e-20 1.1982935907272996e-11 1.1266739216993082e-11 7.161966902799175e-13
5.67608639626678 8.066214497733285e-20 1.2153131495907572e-11 1.1429909537074896e-11 7.232219588326747e-13
5.686739436050992 8.108633043009816e-20 1.2239971579252633e-11 1.1513231941929732e-11 7.267396373228993e-13
5.6974124697621304 8.151658021662839e-20 1.2328011949739548e-11 1.1597751396269194e-11 7.302605534703609e-13
5.718818669136295 8.239591414327302e-20 1.2507814615000912e-11 1.1770502893630728e-11 7.373117213701872e-13
5.740305295436557 8.336742756365255e-20 1.270283990457594e-11 1.1958408971150705e-11 7.444309334252345e-13
5.7835210386641895 8.594436877872688e-20 1.319408200574549e-11 1.2434941856223407e-11 7.59140149522079e-13
5.827062130521658 8.88636887018818e-20 1.3744958043195716e-11 1.297091275093478e-11 7.740452922609354e-13
5.8489554468988025 9.097700749654173e-20 1.4124705247363875e-11 1.3342584858636197e-11 7.821203887276743e-13
5.870931020387893 9.321401753542861e-20 1.4526387910094794e-11 1.3736167321886136e-11 7.902205882086559e-13
5.892989160043636 9.558454289830321e-20 1.495177465257482e-11 1.4153429509119497e-11 7.983451434553222e-13
5.915130176081913 9.82774981515742e-20 1.5430778309407317e-11 1.4624002960168434e-11 8.067753492388859e-13
5.95966208400165 1.0592515582309289e-19 1.675676504765559e-11 1.5930624934051975e-11 8.261401136036093e-13
6.004529249263818 1.1693959993497756e-19 1.863845894838074e-11 1.7790440547642107e-11 8.480184007386356e-13
6.027089341400364 1.246253858428466e-19 1.993809119789747e-11 1.9077353878840424e-11 8.607373190570453e-13
6.049734195844842 1.3363336594336572e-19 2.1459551163393845e-11 2.058532446836365e-11 8.742266950302023e-13
6.095279466722835 1.5967942273854884e-19 2.5835210809899384e-11 2.49275624318761e-11 9.076483780232923e-13
6.141167624020661 1.9945926798643974e-19 3.251431475246773e-11 3.15629618177911e-11 9.513529346766331e-13
6.164241091010745 2.2481361233768e-19 3.678507562230228e-11 3.580613478263257e-11 9.789408396697012e-13
6.187401249150058 2.533279599885517e-19 4.160646701547841e-11 4.0599227920804495e-11 1.007239094673929e-12
6.1990139391386085 2.671700703526209e-19 4.396224384010459e-11 4.2940611448687276e-11 1.021632391417307e-12
6.204828454712694 2.7443073282058864e-19 4.5199325857425044e-11 4.4170426789437655e-11 1.0288990679873977e-12
6.210648424152782 2.7967095648747872e-19 4.610560719761458e-11 4.507055212284529e-11 1.0350550747692847e-12
6.233982942956859 2.9719772857098374e-19 4.917909455101611e-11 4.812272585190065e-11 1.0563686991154593e-12
6.239830258556775 2.9927826244605114e-19 4.956982464668766e-11 4.85106107878285e-11 1.0592138588591616e-12
6.245683058788269 2.9920327120708635e-19 4.960388732566814e-11 4.8541824910781464e-11 1.0620624148866792e-12
6.257405133728602 2.9813429238684407e-19 4.9519430347388064e-11 4.8452447718427095e-11 1.0669826289609655e-12
6.269149208991335 2.9394853679355417e-19 4.891582044433681e-11 4.784734778212878e-11 1.068472662208049e-12
6.280915325867298 2.843238219114727e-19 4.740297732197627e-11 4.6337252067365785e-11 1.0657252546105002e-12
6.304513850009849 2.6095405066092753e-19 4.367018973043e-11 4.2613787084341355e-11 1.0564026460886558e-12
6.32820103803542 2.325165923037872e-19 3.905742883434302e-11 3.8014420845202964e-11 1.0430079891400567e-12
6.3519772230701035 2.0658122044495964e-19 3.48312615176258e-11 3.3800346324117994e-11 1.0309151935078135e-12
6.375842739491607 1.847091117071238e-19 3.126045892017968e-11 3.024029790626277e-11 1.0201610139169153e-12
6.399797922933955 1.6732097743273987e-19 2.842405841986993e-11 2.7409833182439233e-11 1.014225237430698e-12
6.42384311029221 1.5279997728145255e-19 2.605479427160222e-11 2.5045541718737397e-11 1.009252552864822e-12
6.447978639727206 1.4222217624159718e-19 2.4342228956162705e-11 2.3334200342547728e-11 1.008028613614971e-12
6.472204850670314 1.3336151400079273e-19 2.2911430457434013e-11 2.1903884629713003e-11 1.0075458277210063e-12
6.496522083828205 1.275397794872834e-19 2.1993584386455167e-11 2.0983491728243285e-11 1.0100926582118894e-12
