Dust emission spectrum from A.P. Jones, M. Kohler, N. Ysard, M. Bocchio, and L. Verstraete (2017), A&A, 602A, 46J 
inside the DustPedia framework.

lambda    nu*dP/dnu     j_nu    j_nu(carb.) j_nu(sil)
 (um)   (erg s-1 H-1) (Jy cm2 sr-1 H-1)
0.9927057738263894 2.3761312873811558e-22 6.261240903812135e-15 6.2612408203649245e-15 8.3447208983924e-23
1.0001793341362166 2.4160799727444537e-22 6.4144380529246045e-15 6.414437952468152e-15 1.0045645424442236e-22
1.0077091589558085 2.4561277983630374e-22 6.569852198069957e-15 6.569852077296597e-15 1.207733586562481e-22
1.0114953028030835 2.4761861146228856e-22 6.648391526532758e-15 6.6483913941740205e-15 1.323587370614938e-22
1.0152956718711033 2.4962659120500933e-22 6.727486177193488e-15 6.727486032185984e-15 1.4500750155905099e-22
1.0229392996569957 2.5364661374218743e-22 6.887289929965546e-15 6.887289756089122e-15 1.7387642398199674e-22
1.0267826658714554 2.5565401665792315e-22 6.967878702211351e-15 6.967878511899515e-15 1.9031183632934833e-22
1.0306404723013447 2.5766304360650324e-22 7.049020253161987e-15 7.049020044930112e-15 2.0823187475008033e-22
1.03451277320114 2.59673592847328e-22 7.130714972073869e-15 7.130714744309949e-15 2.2776391855859883e-22
1.0383996230291617 2.6168556421527033e-22 7.212963266384054e-15 7.212963017338399e-15 2.4904565476536776e-22
1.0403485208654093 2.6269205233720347e-22 7.254295137039483e-15 7.254294876650789e-15 2.6038869404409265e-22
1.0423010764483396 2.6369885916575876e-22 7.295765563462167e-15 7.29576529123631e-15 2.72225857975977e-22
1.0462171883269815 2.657133808194956e-22 7.379122312386976e-15 7.379122014921752e-15 2.974652248396853e-22
1.0471985131304309 2.662171917144205e-22 7.400048187558178e-15 7.40004788344133e-15 3.041168492859237e-22
1.048180758391296 2.6672107185156925e-22 7.421008753007799e-15 7.421008442097007e-15 3.109107906608771e-22
1.0501480137395462 2.6772903400679334e-22 7.463033985747264e-15 7.463033660809996e-15 3.249372665184977e-22
1.0521189612883777 2.6873725566329315e-22 7.505198073651834e-15 7.505197734083331e-15 3.3956850010515365e-22
1.0531058218030118 2.692407642695722e-22 7.526312754435446e-15 7.52631240731634e-15 3.471191059357922e-22
1.0540936079674168 2.697420533865836e-22 7.547398340793637e-15 7.547397985961674e-15 3.548319621541167e-22
1.058054026499678 2.7174769357133357e-22 7.632084042643067e-15 7.632083655287246e-15 3.8735582356016063e-22
1.0590464539527713 2.722492175923645e-22 7.653341347373903e-15 7.653340951451967e-15 3.959219349310982e-22
1.06003981227728 2.727507844475317e-22 7.674633020301988e-15 7.67463261563284e-15 4.0466914777851105e-22
1.0620293250338977 2.7375404120855024e-22 7.717319504726322e-15 7.717319082004818e-15 4.2272150273744653e-22
1.0660195594769086 2.757610091957928e-22 7.80310527290864e-15 7.803104811744403e-15 4.611642372390345e-22
1.070024785945596 2.777685123819429e-22 7.889441926580614e-15 7.88944142364304e-15 5.029375762146672e-22
1.0740450607676866 2.797764676085973e-22 7.976330080603869e-15 7.97632953228916e-15 5.483147084555936e-22
1.07808044048254 2.8178479375097236e-22 8.063770387278836e-15 8.06376978968896e-15 5.975898790605816e-22
1.0861967418109137 2.8579904664521485e-22 8.24021806013228e-15 8.240217351006434e-15 7.091258454444996e-22
1.0902777775684922 2.877975492701766e-22 8.329015775891047e-15 8.329015003796319e-15 7.720947305033819e-22
1.0943741465085532 2.897959921176192e-22 8.41836269083512e-15 8.418361850454135e-15 8.403809850033909e-22
1.1026131145906286 2.9379242202439576e-22 8.598707508157975e-15 8.598706513523539e-15 9.946344327643e-22
1.1109141095355224 2.9778780657701874e-22 8.781259807159513e-15 8.781258631484929e-15 1.1756745846660744e-21
1.1192775983109025 3.017783758341628e-22 8.96593036599649e-15 8.965928978124902e-15 1.387871585802955e-21
1.1277040513999907 3.0574860976692006e-22 9.152275079107989e-15 9.152273442848287e-15 1.6362597009007347e-21
1.1361939428280308 3.0971595393615156e-22 9.340830251377425e-15 9.340828324747372e-15 1.9266300557644202e-21
1.1447477501889525 3.136800420512622e-22 9.531606817559614e-15 9.531604551923945e-15 2.2656356684395013e-21
1.1533659546722406 3.1764215743931833e-22 9.724666082553673e-15 9.724663421640509e-15 2.6609131659505987e-21
1.1707974979042381 3.255725617875322e-22 1.0118101121846584e-14 1.0118097465271234e-14 3.656575350248899e-21
1.1884924949847024 3.3349124009688434e-22 1.0520837369210243e-14 1.0520832369498012e-14 4.9997122289728336e-21
1.2064549276569216 3.414535573607919e-22 1.0934833543351586e-14 1.0934826740780546e-14 6.802571039081835e-21
1.2246888378427687 3.493990014194636e-22 1.1358391977003708e-14 1.1358382766690114e-14 9.210313591216644e-21
1.2431983285522175 3.5731799703456337e-22 1.1791382875274597e-14 1.1791370465264402e-14 1.2410010193478834e-20
1.2619875648066055 3.6521842566490974e-22 1.2234245431224966e-14 1.2234228789715891e-14 1.6641509073787197e-20
1.3004222497298317 3.8089525129868994e-22 1.3147990536087184e-14 1.3147961031316698e-14 2.9504770485283357e-20
1.3400274889804893 3.9645155331503876e-22 1.4101758220873197e-14 1.4101706866506916e-14 5.135436627606528e-20
1.3808389325824078 4.1192027797403775e-22 1.5098215795805304e-14 1.5098128004634235e-14 8.779117107124535e-20
1.4228933163050095 4.274215853978374e-22 1.6143519525109555e-14 1.614337204721774e-14 1.474778918176476e-19
1.466228494730424 4.432457347763269e-22 1.725105475385973e-14 1.725081118470987e-14 2.4356914986287755e-19
1.5108834753276823 4.593192509873801e-22 1.8421078459011318e-14 1.842068279376473e-14 3.956652465907452e-19
1.5568984535646726 4.755937792376964e-22 1.9654675850641002e-14 1.9654043002253928e-14 6.328483870720237e-19
1.6043148490894465 4.921611150583512e-22 2.0958796168460078e-14 2.0957797677996276e-14 9.984904638016409e-19
1.6531753430134553 5.091200961121058e-22 2.234130781224175e-14 2.2339755600403618e-14 1.5522118381287352e-18
1.7035239163302658 5.265976915250206e-22 2.381204086164444e-14 2.3809662800173277e-14 2.3780614711582893e-18
1.755405889504358 5.450028836946656e-22 2.5394857744346547e-14 2.5391265409379653e-14 3.592334966897361e-18
1.8088679632656115 5.643126152835066e-22 2.7095430725315154e-14 2.7090078118809148e-14 5.352606506015515e-18
1.8639582606462262 5.845020271346761e-22 2.891955711848236e-14 2.8911687380203806e-14 7.869738278563639e-18
1.9207263702978936 6.056372252619733e-22 3.087788128078952e-14 3.086645974729179e-14 1.142153349773361e-17
1.979223391128241 6.2782539171019435e-22 3.298398499974074e-14 3.2967615919687015e-14 1.6369080053722572e-17
2.039501978296691 6.511631706005952e-22 3.525197010111653e-14 3.5228795431524643e-14 2.3174669591883895e-17
2.1016163906111602 6.75963333537092e-22 3.7709087122819766e-14 3.767666284330042e-14 3.2424279519349964e-17
2.1656225393682647 7.023690805727565e-22 4.0375469068752783e-14 4.0330621101392335e-14 4.484796736045683e-17
2.231578038680979 7.302868919328271e-22 4.3258854722856334e-14 4.319751177166448e-14 6.134295119184434e-17
2.299542257339062 7.597294985524866e-22 4.637349381351924e-14 4.62904958419615e-14 8.299797155773445e-17
2.369576372248914 7.908029104552248e-22 4.974030028275195e-14 4.9629180821894154e-14 1.1111946085778732e-16
2.4417434235010123 8.236370792776193e-22 5.33832917026941e-14 5.3236039514746876e-14 1.4725218794723286e-16
2.5161083711144245 8.585413682766687e-22 5.734030542482921e-14 5.714709930719039e-14 1.9320611763884795e-16
2.5927381535095444 8.960770858199704e-22 6.166993113833521e-14 6.141885700667031e-14 2.510741316649059e-16
2.6717017477616296 9.367932999263417e-22 6.643564925015174e-14 6.611241690512061e-14 3.232323450311094e-16
2.753070231689431 9.815490746757625e-22 7.172965492479184e-14 7.131730738073641e-14 4.123475440554361e-16
2.836916847834745 1.0326381209795613e-21 7.776142185650288e-14 7.724002809371058e-14 5.213937627922953e-16
2.9233170693905177 1.0952314491582396e-21 8.49867577906627e-14 8.433324021290255e-14 6.535175777601669e-16
2.967498994190263 1.1359968560605384e-21 8.948230092731929e-14 8.875435860071695e-14 7.279423266023367e-16
3.0123486681368425 1.180472010298982e-21 9.4390951854152e-14 9.358118128500983e-14 8.097705691421465e-16
3.0578761833420214 1.258906818956865e-21 1.0218400381326645e-13 1.0128413405839133e-13 8.99869754875116e-16
3.1040917844459814 1.3533460796153785e-21 1.1150975371862576e-13 1.1051171761257434e-13 9.980361060514173e-16
3.127460860933648 1.4441876082420266e-21 1.198905439575318e-13 1.1883990025740867e-13 1.0506437001231122e-15
3.1510058709225794 1.561340329031817e-21 1.3059189471851966e-13 1.294863807486337e-13 1.1055139698859701e-15
3.162844764501044 1.668070510028683e-21 1.4004309955795956e-13 1.3890917692785053e-13 1.1339226301090305e-15
3.1747281389236908 1.789975418138069e-21 1.5084226367999148e-13 1.496793455408389e-13 1.1629181391525819e-15
3.1986289994194426 2.123365971281232e-21 1.8028440317717613e-13 1.7906155250451602e-13 1.2228506726600642e-15
3.2227097969389145 2.89933999052381e-21 2.480217561007613e-13 2.4673536305111733e-13 1.286393049643961e-15
3.2348180950136065 3.629922668807196e-21 3.11685550988961e-13 3.1036523904508316e-13 1.3203119438778913e-15
3.240889293275058 4.175789058172426e-21 3.5922965490217884e-13 3.578914514667706e-13 1.338203435408217e-15
3.2469718861334385 4.808062752550742e-21 4.143984178189004e-13 4.130417017349069e-13 1.3567160839935845e-15
3.2714166318528037 8.146257733094975e-21 7.073973631301839e-13 7.059641138817327e-13 1.433249248451234e-15
3.2744851364798273 8.355236996668008e-21 7.262250575472221e-13 7.24782780430309e-13 1.44227711691315e-15
3.2775565192852394 8.569961166911375e-21 7.4558725669104e-13 7.441359057857031e-13 1.451350905336882e-15
3.283707930232385 8.36508947835699e-21 7.291292915819939e-13 7.276616962496365e-13 1.4675953323573007e-15
3.2898708863219004 7.71213510658035e-21 6.734772289858326e-13 6.719948341267617e-13 1.4823948590709294e-15
3.29141343181113 7.557932249794255e-21 6.603206281730681e-13 6.588345166547608e-13 1.4861115183072346e-15
3.292184975758714 7.482129511291876e-21 6.538511365705547e-13 6.523631642025195e-13 1.4879723680350234e-15
3.295272960557952 7.007096761408752e-21 6.129131547102482e-13 6.114179409352065e-13 1.4952137750418015e-15
3.3076538914384823 5.353234886630937e-21 4.700085862972603e-13 4.684842793331428e-13 1.52430696411761e-15
3.310756385682612 5.0143469492094804e-21 4.40667517024962e-13 4.391358751951462e-13 1.5316418298158624e-15
3.313861789986515 4.700777763728983e-21 4.1349812472737243e-13 4.119591233502595e-13 1.5390013771129777e-15
3.3200813396944477 4.262318848453532e-21 3.7563330496404336e-13 3.740784814663372e-13 1.5548234977062142e-15
3.345076488085796 3.4916196032768866e-21 3.100290638397535e-13 3.0840375041597494e-13 1.6253134237785502e-15
3.3482140837626964 3.5223995266465515e-21 3.130554479511993e-13 3.11420586387705e-13 1.634861563494423e-15
3.3513546224236106 3.553481009917916e-21 3.1611406310396133e-13 3.144696094839404e-13 1.644453620020879e-15
3.3576445397418455 3.773464464755781e-21 3.363135883484682e-13 3.3464908292271775e-13 1.6645054257504573e-15
3.3702598118196083 4.574815612647991e-21 4.0926669967472687e-13 4.075601330829379e-13 1.7065665917891043e-15
3.382922481734668 4.7641107418438165e-21 4.278025090670739e-13 4.260550237123599e-13 1.7474853547140126e-15
3.389271646505754 4.861874364890085e-21 4.37400770391345e-13 4.3563253773646943e-13 1.768232654875512e-15
3.395632727569191 4.968631526936151e-21 4.4784417980764786e-13 4.460545655970811e-13 1.789614210566775e-15
3.421196662673239 5.484526178101891e-21 4.980656450086881e-13 4.961874813041357e-13 1.8781637045524025e-15
3.4276182099114902 5.3891182348365576e-21 4.903199752458016e-13 4.884220108347328e-13 1.897964411068922e-15
3.4340518103208963 4.95839008329962e-21 4.5197765705042247e-13 4.500609454831026e-13 1.9167115673199784e-15
3.4469541582030403 4.342192123902682e-21 3.9729580186070364e-13 3.9534306859282934e-13 1.9527332678743274e-15
3.472904465399547 4.173030363380982e-21 3.846925842006701e-13 3.826569298170881e-13 2.0356543835820007e-15
3.4990501388274233 3.914544033136084e-21 3.635806664116722e-13 3.614600695807751e-13 2.120596830897071e-15
3.5253949054701885 2.9889252256241298e-21 2.796998645110599e-13 2.7749660555314006e-13 2.203258957919814e-15
3.5519380250092896 2.110969011953422e-21 1.990291419417334e-13 1.9674268619788369e-13 2.2864557438496677e-15
3.578680990867387 1.767773587450163e-21 1.6792643191977477e-13 1.655487729751837e-13 2.3776589445910737e-15
3.605625307711299 1.63477411528867e-21 1.5646160427900683e-13 1.5398782278689644e-13 2.4737814921104134e-15
3.660119384959845 1.5493740603383122e-21 1.5052927333318141e-13 1.4785324263642358e-13 2.676030696757892e-15
3.715437065384467 1.4921795434555278e-21 1.4716360711774087e-13 1.4427392669916021e-13 2.889680418580677e-15
3.8285932144167436 1.4876571116958724e-21 1.5118597361811722e-13 1.4783557798049833e-13 3.350395637618934e-15
3.94519561050918 1.5116519441852522e-21 1.5830323182693676e-13 1.5444814563660476e-13 3.855086190332008e-15
4.06534921144712 1.5463339614707533e-21 1.6686704855612712e-13 1.6246333573189455e-13 4.4037128242325995e-15
4.189162171576248 1.5864406678925074e-21 1.7640887913469825e-13 1.7141105841886012e-13 4.997820715838144e-15
4.316745939156006 1.6298362256014422e-21 1.867539897096262e-13 1.8111818625704188e-13 5.635803452584348e-15
4.448215356677963 1.6756452126985636e-21 1.978505711148735e-13 1.9154105685620165e-13 6.309514258671835e-15
4.58368876423945 1.723774206743178e-21 2.0973211289874782e-13 2.0271182686715846e-13 7.020286031589337e-15
4.723288106065518 1.7746876443466713e-21 2.2250296148187923e-13 2.1472993241117803e-13 7.773029070701233e-15
4.867139040275056 1.829226814595929e-21 2.363255868907211e-13 2.277766177813755e-13 8.548969109345539e-15
4.940699165968905 1.859405582467976e-21 2.438551739062457e-13 2.3490709460052125e-13 8.94807930572445e-15
5.015371051989984 1.8894618412593593e-21 2.5154206826134557e-13 2.421885734467979e-13 9.353494814547743e-15
5.091171501069577 1.9241561723007126e-21 2.600324082765534e-13 2.502586578432778e-13 9.7737504332756e-15
5.129500256944802 1.9414559675623055e-21 2.643455683973899e-13 2.5435966648119756e-13 9.985901916192324e-15
5.168117569889187 1.9591426548072337e-21 2.687620086419212e-13 2.585606613918597e-13 1.0201347250061475e-14
5.20702561229733 1.9804302446329415e-21 2.737276677423102e-13 2.632917137396719e-13 1.04359540026383e-14
5.246226572918644 2.0018449171395278e-21 2.787705587759992e-13 2.680980072474928e-13 1.0672551528506374e-14
5.265937586045735 2.0126023601204423e-21 2.813216254496617e-13 2.705300538350022e-13 1.0791571614659473e-14
5.285722656980489 2.0233945851148783e-21 2.8389280661479485e-13 2.729817477331235e-13 1.0911058881671309e-14
5.305582063971359 2.0342226705725987e-21 2.8648438762306045e-13 2.75453384722828e-13 1.1031002900232397e-14
5.3255160863122235 2.045772606384421e-21 2.891934770028185e-13 2.7804117576413577e-13 1.1152301238682756e-14
5.365609099470188 2.0743355367433245e-21 2.9543875906959107e-13 2.840355009738131e-13 1.1403258095777856e-14
5.406003951863644 2.103427143756664e-21 3.018375491771964e-13 2.9018125605660533e-13 1.1656293120591072e-14
5.446702915881641 2.13308045080068e-21 3.0839715032289715e-13 2.9648582630056263e-13 1.1911324022334493e-14
5.487708281020852 2.164654004574264e-21 3.1531812763595354e-13 3.0314881561418657e-13 1.2169312021766963e-14
5.529022354014368 2.2087326803579845e-21 3.2416112872691935e-13 3.1172280326371877e-13 1.2438325463200553e-14
5.570647458961463 2.2545403295515304e-21 3.333750672340532e-13 3.206655234494932e-13 1.2709543784559986e-14
5.612585937458331 2.30221300098635e-21 3.429872206363066e-13 3.3000433674761954e-13 1.2982883888687039e-14
5.654840148729818 2.3539230572679328e-21 3.533312328637527e-13 3.400716742683291e-13 1.3259558595423707e-14
5.67608639626678 2.389609015221103e-21 3.6003546141686717e-13 3.4663117498684425e-13 1.3404286430022891e-14
5.686739436050992 2.4078750555837305e-21 3.634684427129592e-13 3.4999156208438173e-13 1.3476880628577543e-14
5.6974124697621304 2.4264323566368765e-21 3.6695709030433793e-13 3.534074636697148e-13 1.3549626634623063e-14
5.718818669136295 2.4644494664809467e-21 3.741068640998651e-13 3.60411295217261e-13 1.3695568882604136e-14
5.740305295436557 2.506263412160514e-21 3.818837142247596e-13 3.680405503913037e-13 1.3843163833455888e-14
5.7835210386641895 2.6153284621449725e-21 4.015022588663449e-13 3.8735387255098384e-13 1.4148386315360864e-14
5.827062130521658 2.73916977892182e-21 4.2368006814095733e-13 4.0922120080443686e-13 1.4458867336520493e-14
5.8489554468988025 2.8271941027978624e-21 4.3893819414342835e-13 4.2431176521420445e-13 1.462642892922398e-14
5.870931020387893 2.920684012996986e-21 4.551567463496678e-13 4.40361847554896e-13 1.4794898794771727e-14
5.892989160043636 3.0200706340059503e-21 4.724133650203112e-13 4.574490970101543e-13 1.4964268010156826e-14
5.915130176081913 3.13279222494158e-21 4.918869855432324e-13 4.767471749025953e-13 1.5139810640636874e-14
5.95966208400165 3.449930532248197e-21 5.457596442545262e-13 5.302202908107837e-13 1.553935344374245e-14
6.004529249263818 3.9054152131319335e-21 6.224659667624603e-13 6.064772246957801e-13 1.5988742066680234e-14
6.027089341400364 4.222303896478725e-21 6.755018617104873e-13 6.5925368894436e-13 1.6248172766127424e-14
6.049734195844842 4.594387804831476e-21 7.377910409293894e-13 7.212680973058349e-13 1.6522943623554515e-14
6.095279466722835 5.668957448632468e-21 9.172046607255928e-13 9.000070888142287e-13 1.7197571911363908e-14
6.141167624020661 7.313440008210684e-21 1.1921807031118687e-12 1.1741084813629575e-12 1.807222174891121e-14
6.164241091010745 8.363112746036845e-21 1.3684123999516535e-12 1.3497916705512557e-12 1.8620729400398102e-14
6.187401249150058 9.548569007193727e-21 1.568252558702084e-12 1.5490683815724177e-12 1.9184177129666088e-14
6.1990139391386085 1.0125864664800226e-20 1.6661886224692516e-12 1.6467177024652452e-12 1.9470920004006602e-14
6.204828454712694 1.0429084402791044e-20 1.7176924008161832e-12 1.6980766273385745e-12 1.961577347760884e-14
6.210648424152782 1.0649408467872089e-20 1.7556254316620242e-12 1.735886137642343e-12 1.9739294019680887e-14
6.233982942956859 1.1391956438870215e-20 1.88509550702856e-12 1.8649251082665787e-12 2.017039876198086e-14
6.239830258556775 1.148350490436962e-20 1.902026962421276e-12 1.881796399992109e-12 2.023056242916697e-14
6.245683058788269 1.1486144294399682e-20 1.904248590221542e-12 1.8839577598735076e-12 2.0290830348034286e-14
6.257405133728602 1.1453568292186735e-20 1.902411737788475e-12 1.8820152165121052e-12 2.039652127637035e-14
6.269149208991335 1.129235015098773e-20 1.8791540124870196e-12 1.8587176801488603e-12 2.043633233815921e-14
6.280915325867298 1.090608241913504e-20 1.8182816132333434e-12 1.797886960104454e-12 2.0394653128889636e-14
6.304513850009849 9.960977521497734e-21 1.666951622949022e-12 1.646714095752219e-12 2.0237527196803294e-14
6.32820103803542 8.8011663392255e-21 1.478393109702891e-12 1.458391197570378e-12 2.0001912132513015e-14
6.3519772230701035 7.740682359422239e-21 1.3051415370921583e-12 1.2853502972760738e-12 1.979123981608437e-14
6.375842739491607 6.846504243559771e-21 1.1587130849938556e-12 1.139106970022077e-12 1.960611497177889e-14
6.399797922933955 6.134161244598505e-21 1.0420555763455227e-12 1.0225413718250379e-12 1.9514204520484648e-14
6.42384311029221 5.539856896181604e-21 9.446325470209935e-13 9.251916995628906e-13 1.9440847458102868e-14
6.447978639727206 5.107605144593938e-21 8.741990674940605e-13 8.547588008386403e-13 1.9440266655420318e-14
6.472204850670314 4.74618949819743e-21 8.153925923869437e-13 7.959384354380959e-13 1.945415694884794e-14
6.496522083828205 4.5106026535800334e-21 7.778304188237399e-13 7.583033253197942e-13 1.9527093503945667e-14
