Dust emission spectrum from A.P. Jones, M. Kohler, N. Ysard, M. Bocchio, and L. Verstraete (2017), A&A, 602A, 46J 
inside the DustPedia framework.

lambda    nu*dP/dnu     j_nu    j_nu(carb.) j_nu(sil)
 (um)   (erg s-1 H-1) (Jy cm2 sr-1 H-1)
0.9927057738263894 2.3724120699786282e-20 6.251440554709141e-13 6.251440554709141e-13 8.498824134521536e-29
1.0001793341362166 2.4116229388530256e-20 6.402605097013019e-13 6.402605097013019e-13 1.0242816134878157e-28
1.0077091589558085 2.45077835841105e-20 6.55554307708267e-13 6.55554307708267e-13 1.2329231355982187e-28
1.0114953028030835 2.4703304531644605e-20 6.632669473253914e-13 6.632669473253914e-13 1.3520398801098394e-28
1.0152956718711033 2.4898629149567503e-20 6.710229972944518e-13 6.710229972944516e-13 1.4821974843803039e-28
1.0229392996569957 2.5288421529088054e-20 6.86658845440142e-13 6.866588454401417e-13 1.7796430708049499e-28
1.0267826658714554 2.5482416741895024e-20 6.94526106876332e-13 6.94526106876332e-13 1.9491940035525084e-28
1.0306404723013447 2.5676129863237644e-20 7.024350752651409e-13 7.024350752651406e-13 2.1342220453244494e-28
1.03451277320114 2.5869542201175712e-20 7.103854106685249e-13 7.103854106685248e-13 2.3360727707919035e-28
1.0383996230291617 2.606263516719582e-20 7.183767688901151e-13 7.18376768890115e-13 2.556202428281932e-28
1.0403485208654093 2.6159056105985897e-20 7.223877228520217e-13 7.223877228520214e-13 2.673609286558587e-28
1.0423010764483396 2.6255390279776477e-20 7.26408801556642e-13 7.264088015566418e-13 2.7961864832099177e-28
1.0462171883269815 2.6447789167874914e-20 7.344811561994669e-13 7.344811561994667e-13 3.0577287742501374e-28
1.0471985131304309 2.6495831087763382e-20 7.365055034807141e-13 7.365055034807138e-13 3.1266954999941614e-28
1.048180758391296 2.654384931784172e-20 7.385323430157944e-13 7.385323430157942e-13 3.1971542098677095e-28
1.0501480137395462 2.6639813574334747e-20 7.42593476336178e-13 7.425934763361777e-13 3.3426713225172244e-28
1.0521189612883777 2.6735679673550433e-20 7.466645109865607e-13 7.466645109865601e-13 3.494533679159821e-28
1.0531058218030118 2.678350164030033e-20 7.487016706058891e-13 7.487016706058889e-13 3.5729312420058695e-28
1.0540936079674168 2.6831057188220922e-20 7.507345405052436e-13 7.507345405052433e-13 3.653031559551683e-28
1.058054026499678 2.7021009953651258e-20 7.588900430878063e-13 7.588900430878057e-13 3.991004237418363e-28
1.0590464539527713 2.7068429399270866e-20 7.60934895468075e-13 7.609348954680746e-13 4.080071805235663e-28
1.06003981227728 2.711582079269271e-20 7.629821268881559e-13 7.629821268881554e-13 4.171044226062563e-28
1.0620293250338977 2.7210518319221497e-20 7.670837034280179e-13 7.670837034280173e-13 4.358859657862413e-28
1.0660195594769086 2.7399564633930575e-20 7.753151465971886e-13 7.753151465971883e-13 4.759107810593402e-28
1.070024785945596 2.758813137992259e-20 7.835839941623451e-13 7.835839941623445e-13 5.194457586674698e-28
1.0740450607676866 2.777620117536838e-20 7.918898642681529e-13 7.918898642681521e-13 5.66783152379486e-28
1.07808044048254 2.796375677726839e-20 8.002323717186975e-13 8.002323717186968e-13 6.182381563021843e-28
1.0861967418109137 2.8336925845906495e-20 8.17016189749342e-13 8.17016189749341e-13 7.3488679208692935e-28
1.0902777775684922 2.852175217474657e-20 8.254348392539848e-13 8.25434839253984e-13 8.008415153738743e-28
1.0943741465085532 2.87059836002868e-20 8.338879346761219e-13 8.338879346761208e-13 8.724395075868935e-28
1.1026131145906286 2.907259624201093e-20 8.508958463437373e-13 8.508958463437363e-13 1.0344303605910988e-27
1.1109141095355224 2.943663435231991e-20 8.680366636476861e-13 8.68036663647685e-13 1.2249535159699307e-27
1.1192775983109025 2.9797633265159045e-20 8.852970468425204e-13 8.852970468425193e-13 1.4487449831556922e-27
1.1277040513999907 3.0153916969068555e-20 9.026269752260913e-13 9.026269752260896e-13 1.7112760444897404e-27
1.1361939428280308 3.0507205388413736e-20 9.200773268393689e-13 9.200773268393669e-13 2.0188578689967034e-27
1.1447477501889525 3.085738067159326e-20 9.376446714876583e-13 9.376446714876561e-13 2.3787620014024447e-27
1.1533659546722406 3.1204518418064644e-20 9.553313839978741e-13 9.553313839978715e-13 2.7993593054367368e-27
1.1707974979042381 3.189080125837649e-20 9.910981140958124e-13 9.910981140958087e-13 3.862564227719061e-27
1.1884924949847024 3.256345527927573e-20 1.0272977997061677e-12 1.0272977997061627e-12 5.303577806797721e-27
1.2064549276569216 3.32277361323983e-20 1.0640971687000663e-12 1.0640971687000594e-12 7.247148361632735e-27
1.2246888378427687 3.387639261064541e-20 1.101266301493064e-12 1.101266301493054e-12 9.855612301294136e-27
1.2431983285522175 3.450790685235558e-20 1.1387502037326084e-12 1.1387502037325948e-12 1.3339518520736673e-26
1.2619875648066055 3.512204167715309e-20 1.1765334050211584e-12 1.1765334050211402e-12 1.7970553579782628e-26
1.3004222497298317 3.628796633774131e-20 1.252611673040603e-12 1.252611673040571e-12 3.2165102629083493e-26
1.3400274889804893 3.7369595958834125e-20 1.3292343102624662e-12 1.3292343102624094e-12 5.653960106166496e-26
1.3808389325824078 3.8362910923162727e-20 1.4061252592902782e-12 1.4061252592901808e-12 9.764865957576515e-26
1.4228933163050095 3.92727275951778e-20 1.4833131184681372e-12 1.4833131184679712e-12 1.6578388042034784e-25
1.466228494730424 4.0120905147585984e-20 1.561499360675594e-12 1.5614993606753175e-12 2.768241425322516e-25
1.5108834753276823 4.0890962784685156e-20 1.6399391754252715e-12 1.6399391754248167e-12 4.548341413939557e-25
1.5568984535646726 4.1569561108671004e-20 1.7179287966169883e-12 1.7179287966162522e-12 7.36123788302416e-25
1.6043148490894465 4.215792459941338e-20 1.7953050769962919e-12 1.7953050769951157e-12 1.1757082710747075e-24
1.6531753430134553 4.2657826146417943e-20 1.871919085135395e-12 1.871919085133544e-12 1.851166837714511e-24
1.7035239163302658 4.3075181364008457e-20 1.9478018898869013e-12 1.9478018898840267e-12 2.874314245398743e-24
1.755405889504358 4.3444232070890247e-20 2.024319735289199e-12 2.0243197352847952e-12 4.4038706296104855e-24
1.8088679632656115 4.3756511059839287e-20 2.1009658159205325e-12 2.100965815913871e-12 6.661430715992812e-24
1.8639582606462262 4.4006279106295173e-20 2.1773099888550916e-12 2.1773099888451376e-12 9.953841445522054e-24
1.9207263702978936 4.4197681106811713e-20 2.2533799000086238e-12 2.2533798999939223e-12 1.4702003287483906e-23
1.979223391128241 4.434037821909277e-20 2.32950496965005e-12 2.32950496962857e-12 2.147965843746518e-23
2.039501978296691 4.4445935575050653e-20 2.4061661696295035e-12 2.4061661695984394e-12 3.106454597921909e-23
2.1016163906111602 4.4546764140217015e-20 2.4850723799073784e-12 2.4850723798628674e-12 4.4511352130356704e-23
2.1656225393682647 4.466165558642549e-20 2.567361439399552e-12 2.5673614393363067e-12 6.324628566934116e-23
2.231578038680979 4.479195006223188e-20 2.6532702173624005e-12 2.6532702172732003e-12 8.920114735379326e-23
2.299542257339062 4.494889767762415e-20 2.7436573574532694e-12 2.7436573573282654e-12 1.2500420745302384e-22
2.369576372248914 4.5157381619032066e-20 2.840330620964065e-12 2.8403306207898096e-12 1.7425500719824685e-22
2.4417434235010123 4.544678522607086e-20 2.9455922440996325e-12 2.945592243857725e-12 2.419088779328788e-22
2.5161083711144245 4.5867433923442994e-20 3.0633965553723297e-12 3.0633965550374848e-12 3.348439977224523e-22
2.5927381535095444 4.6501684264832615e-20 3.200344827258523e-12 3.2003448267958596e-12 4.626632456260657e-22
2.6717017477616296 4.744785839268688e-20 3.3649144139857405e-12 3.364914413346948e-12 6.387924232047527e-22
2.753070231689431 4.885399207507126e-20 3.5701526124926107e-12 3.5701526116105704e-12 8.820399848389859e-22
2.836916847834745 5.1055482994934627e-20 3.844664331673652e-12 3.844664330454756e-12 1.2188957551973139e-21
2.9233170693905177 5.479102900294491e-20 4.251623631291179e-12 4.2516236296047255e-12 1.6864533492952802e-21
2.967498994190263 5.79633891141012e-20 4.56576741370744e-12 4.5657674117241635e-12 1.983277385344201e-21
3.0123486681368425 6.166830547233994e-20 4.931019119455863e-12 4.931019117121668e-12 2.334196007754414e-21
3.0578761833420214 6.995837965676998e-20 5.678440394453264e-12 5.678440391702052e-12 2.7512139813503514e-21
3.1040917844459814 8.064090154287585e-20 6.644454959554496e-12 6.64445495631005e-12 3.2444468620409113e-21
3.127460860933648 9.194182700660237e-20 7.632634146258059e-12 7.632634142730592e-12 3.527463567718959e-21
3.1510058709225794 1.0699867367476006e-19 8.94946429534695e-12 8.949464291509802e-12 3.8371502550997956e-21
3.162844764501044 1.2101453236134423e-19 1.0159792467734613e-11 1.0159792463727353e-11 4.007257735410248e-21
3.1747281389236908 1.3731369528072262e-19 1.1571504513706738e-11 1.1571504509521593e-11 4.185143790485513e-21
3.1986289994194426 1.8277647040541915e-19 1.5518637544138852e-11 1.5518637539567487e-11 4.571359889100203e-21
3.2227097969389145 2.8994397773448e-19 2.4803029228577528e-11 2.480302922353828e-11 5.039238904774822e-21
3.2348180950136065 3.9157238826519027e-19 3.362260486629165e-11 3.362260486096443e-11 5.327232235801387e-21
3.240889293275058 4.675529710694949e-19 4.022207302762844e-11 4.022207302213008e-11 5.49836110575657e-21
3.2469718861334385 5.554509074103139e-19 4.7873330497775665e-11 4.787333049208671e-11 5.688945811755977e-21
3.2714166318528037 1.0243135835062512e-18 8.894841677387716e-11 8.894841676732747e-11 6.549661151538912e-21
3.2744851364798273 1.053623970407969e-18 9.157946433450088e-11 9.157946432785825e-11 6.642615580813567e-21
3.2775565192852394 1.083776235966456e-18 9.428861285405256e-11 9.428861284731556e-11 6.737025213799656e-21
3.283707930232385 1.0547802723853518e-18 9.193819083093052e-11 9.193819082407302e-11 6.857488624070404e-21
3.2898708863219004 9.62823348778043e-19 8.40804254563198e-11 8.408042544939611e-11 6.923683821227658e-21
3.29141343181113 9.41137589285095e-19 8.222520970215607e-11 8.222520969521578e-11 6.940310297270638e-21
3.292184975758714 9.304819719605207e-19 8.131330712822031e-11 8.131330712127169e-11 6.948635225478072e-21
3.295272960557952 8.632226215288716e-19 7.550637848936193e-11 7.550637848239164e-11 6.970292628898133e-21
3.3076538914384823 6.302148145447431e-19 5.5332220670440737e-11 5.5332220663389455e-11 7.051289580596566e-21
3.310756385682612 5.827915989509754e-19 5.1216505250643135e-11 5.121650524357142e-11 7.071719934708762e-21
3.313861789986515 5.390362347787378e-19 4.7415658311040755e-11 4.7415658303948534e-11 7.092223774949062e-21
3.3200813396944477 4.776742423173195e-19 4.2096886863110095e-11 4.209688685594336e-11 7.166736691831754e-21
3.345076488085796 3.682103328369715e-19 3.269425589157393e-11 3.269425588390198e-11 7.671950438319575e-21
3.3482140837626964 3.7231513718015963e-19 3.3089739300502306e-11 3.3089739292742815e-11 7.759496875183829e-21
3.3513546224236106 3.764653248460126e-19 3.348997310599803e-11 3.348997309814996e-11 7.848068291557411e-21
3.3576445397418455 4.0679577593902565e-19 3.625605816852647e-11 3.625605816046731e-11 8.0591506383656e-21
3.3702598118196083 5.186672397740931e-19 4.640039018509766e-11 4.6400390176541677e-11 8.55596477321367e-21
3.382922481734668 5.441475936527967e-19 4.8862782265506885e-11 4.886278225652918e-11 8.977711226049697e-21
3.389271646505754 5.573481967064131e-19 5.014208766398746e-11 5.014208765479085e-11 9.196599230176078e-21
3.395632727569191 5.715725752866432e-19 5.151830031912952e-11 5.15183003096987e-11 9.43083442388955e-21
3.421196662673239 6.398730498450763e-19 5.810871768052369e-11 5.810871767007426e-11 1.0449424789547572e-20
3.4276182099114902 6.261095746866661e-19 5.696554014663145e-11 5.696554013599123e-11 1.0640238895611572e-20
3.4340518103208963 5.65797149186893e-19 5.157473808214849e-11 5.1574738071355635e-11 1.0792819479470034e-20
3.4469541582030403 4.799008912820322e-19 4.3909298339428913e-11 4.390929832838595e-11 1.1042972662998502e-20
3.472904465399547 4.558276007525883e-19 4.202066182462028e-11 4.202066181269958e-11 1.1920695942793592e-20
3.4990501388274233 4.190084596579631e-19 3.8917272025810544e-11 3.8917272012971506e-11 1.2839039356165226e-20
3.5253949054701885 2.8797698430851745e-19 2.6948524105877088e-11 2.6948524092292495e-11 1.358458494944384e-20
3.5519380250092896 1.6482101740299879e-19 1.5539870780635687e-11 1.553987076633262e-11 1.4303063713404283e-20
3.578680990867387 1.1598709463966946e-19 1.101798278345984e-11 1.1017982768137699e-11 1.53221401941448e-20
3.605625307711299 9.623298109045121e-20 9.210304020078388e-12 9.21030400354409e-12 1.6534298273796792e-20
3.660119384959845 8.181796389402463e-20 7.949015648215226e-12 7.94901562885369e-12 1.9361537664749252e-20
3.715437065384467 7.160685017214354e-20 7.062100812124113e-12 7.0621007894665484e-12 2.265756375046242e-20
3.8285932144167436 6.641121904370428e-20 6.749166008316766e-12 6.749165977238953e-12 3.107781420610255e-20
3.94519561050918 6.539747973439048e-20 6.8485556050870315e-12 6.848555562587131e-12 4.2499900510322455e-20
4.06534921144712 6.610025610065011e-20 7.132970573723142e-12 7.132970515829528e-12 5.789361559170965e-20
4.189162171576248 6.779636915834032e-20 7.538814236597354e-12 7.538814158079885e-12 7.851746515499196e-20
4.316745939156006 7.021603477435394e-20 8.045670129133035e-12 8.045670023151595e-12 1.0598144007050341e-19
4.448215356677963 7.326828308536635e-20 8.651098420590128e-12 8.651098278273673e-12 1.4231645579331916e-19
4.58368876423945 7.696335362642992e-20 9.364153790386526e-12 9.364153600258811e-12 1.901277137248448e-19
4.723288106065518 8.138630076201437e-20 1.0203876158877305e-11 1.0203875906156095e-11 2.527212065921244e-19
4.867139040275056 8.670806378144927e-20 1.1202183292855102e-11 1.1202182958648399e-11 3.342067069053627e-19
4.940699165968905 8.992143661278948e-20 1.1792912622111526e-11 1.1792912238417673e-11 3.836938544239645e-19
5.015371051989984 9.324828175136411e-20 1.2414045704104336e-11 1.2414045264211252e-11 4.398930828228875e-19
5.091171501069577 9.731252758945805e-20 1.3150913251656104e-11 1.315091274764724e-11 5.040088619143412e-19
5.129500256944802 9.939807151843979e-20 1.3533883926369885e-11 1.3533883387173156e-11 5.391967305100038e-19
5.168117569889187 1.0157249467067526e-19 1.3934068365811546e-11 1.3934067789131856e-11 5.766796929753437e-19
5.20702561229733 1.0424477534117262e-19 1.4408323295299381e-11 1.4408322678328782e-11 6.169705999310105e-19
5.246226572918644 1.0698509474452747e-19 1.48984041607237e-11 1.4898403500890128e-11 6.598335672380276e-19
5.265937586045735 1.0838144809260045e-19 1.514956245215466e-11 1.5149561769879426e-11 6.822752287194043e-19
5.285722656980489 1.0979563795827027e-19 1.540490028160551e-11 1.5404899576189907e-11 7.054155996266234e-19
5.305582063971359 1.1122795258252383e-19 1.5664495506385092e-11 1.5664494777110886e-11 7.292742076313324e-19
5.3255160863122235 1.127673900167637e-19 1.5940967001761088e-11 1.5940966247792412e-11 7.539686767273057e-19
5.365609099470188 1.1660660047618934e-19 1.660778053202285e-11 1.6607779725566297e-11 8.064565530548138e-19
5.406003951863644 1.2059208741583716e-19 1.730472111848404e-11 1.73047202562051e-11 8.622789450483441e-19
5.446702915881641 1.24730938208052e-19 1.803338729489816e-11 1.803338637327285e-11 9.216253118591351e-19
5.487708281020852 1.2920433220117464e-19 1.8820775988235044e-11 1.8820775003282215e-11 9.849528279356746e-19
5.529022354014368 1.3543145081923435e-19 1.987638085545591e-11 1.9876379800853907e-11 1.0546019976092928e-18
5.570647458961463 1.4202647906919153e-19 2.1001215364431284e-11 2.1001214235683407e-11 1.1287478770651107e-18
5.612585937458331 1.4901595675777334e-19 2.2200625579349582e-11 2.2200624371699508e-11 1.2076500800911571e-18
5.654840148729818 1.5670111870924615e-19 2.3521329337301737e-11 2.352132804520837e-11 1.2920933682133258e-18
5.67608639626678 1.6194035141808885e-19 2.4399083186178263e-11 2.439908184759036e-11 1.3385879075788504e-18
5.686739436050992 1.6464110667958844e-19 2.485255475054581e-11 2.48525533881375e-11 1.3624083099976312e-18
5.6974124697621304 1.6739768286627237e-19 2.531608452231356e-11 2.5316083135695228e-11 1.386618330412666e-18
5.718818669136295 1.730836824742827e-19 2.6274344253352242e-11 2.6274342817121982e-11 1.4362302540280875e-18
5.740305295436557 1.793529156314239e-19 2.732831562957099e-11 2.7328314141328102e-11 1.488242896367706e-18
5.7835210386641895 1.9562623319737109e-19 3.003231741600837e-11 3.003231581219433e-11 1.6038140305737756e-18
5.827062130521658 2.1437786623665276e-19 3.3158816833474727e-11 3.315881510413049e-11 1.7293442389892132e-18
5.8489554468988025 2.2753926970649045e-19 3.532678426388974e-11 3.5326782460797174e-11 1.803092565039272e-18
5.870931020387893 2.416645377743464e-19 3.766078227976434e-11 3.7660780399983825e-11 1.8797805202496104e-18
5.892989160043636 2.56831295209726e-19 4.017473467221978e-11 4.017473271270402e-11 1.9595157575503432e-18
5.915130176081913 2.7408301834273134e-19 4.303441147735568e-11 4.3034409432134705e-11 2.0452209716898527e-18
5.95966208400165 3.2233386551668806e-19 5.0991408125813837e-11 5.099140587188217e-11 2.2539316679128085e-18
6.004529249263818 3.9189869506207695e-19 6.246291028787504e-11 6.24629077697131e-11 2.5181619643460546e-18
6.027089341400364 4.402630473367348e-19 7.043512627461945e-11 7.04351235880396e-11 2.6865798239276405e-18
6.049734195844842 4.974222492942876e-19 7.987868997526475e-11 7.987868710001373e-11 2.875251017605598e-18
6.095279466722835 6.6255090157368e-19 1.0719691943320511e-10 1.0719691604610009e-10 3.3871050549640212e-18
6.141167624020661 9.16707675898703e-19 1.4943462999272605e-10 1.4943462586145652e-10 4.131269528588803e-18
6.164241091010745 1.0790156215969918e-18 1.765536829614756e-10 1.765536783405321e-10 4.6209434906815846e-18
6.187401249150058 1.2639197467359688e-18 2.0758559479639919e-10 2.0758558963450655e-10 5.161892631906044e-18
6.1990139391386085 1.3542040321192948e-18 2.2283127668719142e-10 2.2283127124667698e-10 5.440514383239901e-18
6.204828454712694 1.401763519200772e-18 2.3087343545020486e-10 2.308734298647538e-10 5.585451066476908e-18
6.210648424152782 1.4364796549162925e-18 2.368131734118796e-10 2.3681316770591956e-10 5.7059600555755495e-18
6.233982942956859 1.5544237266709494e-18 2.572198374256249e-10 2.572198312913947e-10 6.1342301414460106e-18
6.239830258556775 1.5694988350608606e-18 2.5995801165536333e-10 2.5995800546184286e-10 6.193520506940648e-18
6.245683058788269 1.5708020670809392e-18 2.604179039622883e-10 2.604178977089482e-10 6.253340094245518e-18
6.257405133728602 1.5675525753727515e-18 2.6036693045467686e-10 2.603669240966722e-10 6.358004633221227e-18
6.269149208991335 1.5443429840868023e-18 2.5699329868451273e-10 2.5699329229266205e-10 6.391850637321443e-18
6.280915325867298 1.486153379721229e-18 2.477741558279931e-10 2.477741494903696e-10 6.3376235335142804e-18
6.304513850009849 1.3426604269320867e-18 2.2469180087130042e-10 2.2469179472418012e-10 6.147120413036418e-18
6.32820103803542 1.1648012372762284e-18 1.9565976337564787e-10 1.9565975752168517e-10 5.853962694231385e-18
6.3519772230701035 1.001690161682631e-18 1.6889304800334703e-10 1.688930424268136e-10 5.576533443367022e-18
6.375842739491607 8.644699028981039e-19 1.4630423825613387e-10 1.463042329233134e-10 5.332820505664062e-18
6.399797922933955 7.544838235423313e-19 1.2816977647548568e-10 1.281697713071235e-10 5.16836215825497e-18
6.42384311029221 6.630417691923418e-19 1.1305902786860283e-10 1.1305902283933199e-10 5.02927084686001e-18
6.447978639727206 5.963986015550518e-19 1.0207740938745525e-10 1.0207740442316407e-10 4.964291200314336e-18
6.472204850670314 5.408812910750092e-19 9.292309088601482e-11 9.292308596817406e-11 4.917840762053241e-18
6.496522083828205 5.047914404592704e-19 8.704870894345705e-11 8.704870400741455e-11 4.936042494490016e-18
