Dust emission spectrum from A.P. Jones, M. Kohler, N. Ysard, M. Bocchio, and L. Verstraete (2017), A&A, 602A, 46J 
inside the DustPedia framework.

lambda    nu*dP/dnu     j_nu    j_nu(carb.) j_nu(sil)
 (um)   (erg s-1 H-1) (Jy cm2 sr-1 H-1)
0.9927057738263894 2.022871315958423e-24 5.3303808143474226e-17 5.330380812662916e-17 1.6845064980968357e-26
1.0001793341362166 2.05627136688774e-24 5.4591840715940925e-17 5.459184069565471e-17 2.0286208421495943e-26
1.0077091589558085 2.0896286262333893e-24 5.589510135571592e-17 5.589510133131739e-17 2.439854544510878e-26
1.0114953028030835 2.1062871842206988e-24 5.655238023233205e-17 5.655238020558765e-17 2.6744409170899647e-26
1.0152956718711033 2.122930227956208e-24 5.721339098843171e-17 5.721339095912545e-17 2.9306247908504584e-26
1.0229392996569957 2.1561470635659963e-24 5.854606036064325e-17 5.854606032548769e-17 3.515557295321413e-26
1.0267826658714554 2.172680612004581e-24 5.921665210271619e-17 5.921665206422924e-17 3.848694366221602e-26
1.0306404723013447 2.18919147640634e-24 5.989083587324507e-17 5.989083583112485e-17 4.2120213250123966e-26
1.03451277320114 2.2056780991218388e-24 6.056858409253288e-17 6.056858404645149e-17 4.6081387877826275e-26
1.0383996230291617 2.2221389315741185e-24 6.124986884282522e-17 6.124986879242664e-17 5.039858840390389e-26
1.0403485208654093 2.230359195077582e-24 6.159182860215969e-17 6.159182854945959e-17 5.270010376476574e-26
1.0423010764483396 2.23857243456527e-24 6.193466187561604e-17 6.193466182051385e-17 5.510221133712965e-26
1.0462171883269815 2.2549770785765662e-24 6.262293461897298e-17 6.262293455874789e-17 6.022510112971104e-26
1.0471985131304309 2.2590735520687392e-24 6.279554313111381e-17 6.279554306953838e-17 6.157543085749086e-26
1.048180758391296 2.263168103209208e-24 6.296836686675446e-17 6.296836680379972e-17 6.295474945976388e-26
1.0501480137395462 2.2713513440620702e-24 6.331465818487898e-17 6.331465811907623e-17 6.580273453974277e-26
1.0521189612883777 2.279526612797269e-24 6.366180491416311e-17 6.366180484538916e-17 6.877393461318809e-26
1.0531058218030118 2.2836049415003605e-24 6.383552298974197e-17 6.383552291943454e-17 7.030741680920325e-26
1.0540936079674168 2.2876607055695523e-24 6.400887958233808e-17 6.400887951046412e-17 7.187395871935497e-26
1.058054026499678 2.303861815844887e-24 6.470438357758812e-17 6.470438349910712e-17 7.8481011407148e-26
1.0590464539527713 2.3079064914214256e-24 6.487877663294197e-17 6.487877655272048e-17 8.022148312956483e-26
1.06003981227728 2.3119488801586804e-24 6.50533755672085e-17 6.505337548520962e-17 8.199888015993682e-26
1.0620293250338977 2.320026705387325e-24 6.54031891764173e-17 6.540318909074987e-17 8.566744477070347e-26
1.0660195594769086 2.3361539072948193e-24 6.610526602546406e-17 6.610526593198265e-17 9.348142824185657e-26
1.070024785945596 2.3522419662946633e-24 6.681058350065868e-17 6.681058339868378e-17 1.0197490075042204e-25
1.0740450607676866 2.3682894389936347e-24 6.751911071466007e-17 6.751911060345621e-17 1.1120384587171726e-25
1.07808044048254 2.3842948941215885e-24 6.823081652429107e-17 6.823081640306247e-17 1.2122858548295533e-25
1.0861967418109137 2.4161458910290107e-24 6.966282512442033e-17 6.966282498049001e-17 1.4393034611190793e-25
1.0902777775684922 2.4319245122433987e-24 7.038120261835883e-17 7.038120246160617e-17 1.56752674682361e-25
1.0943741465085532 2.4476543970550543e-24 7.110257911318443e-17 7.110257894252237e-17 1.706620641055695e-25
1.1026131145906286 2.4789625344417e-24 7.255419867696978e-17 7.255419847487259e-17 2.0209718011071187e-25
1.1109141095355224 2.510059595049737e-24 7.401742095804924e-17 7.401742071903492e-17 2.3901434869884622e-25
1.1192775983109025 2.540906338494396e-24 7.54911256795255e-17 7.549112539721298e-17 2.8231252330550817e-25
1.1277040513999907 2.5713604159841864e-24 7.697107068633034e-17 7.69710703533022e-17 3.3302812829887235e-25
1.1361939428280308 2.6015685618927582e-24 7.846160333403423e-17 7.846160294167986e-17 3.9235435504223467e-25
1.1447477501889525 2.631521075395954e-24 7.996244854716268e-17 7.996244808549955e-17 4.616631334747922e-25
1.1533659546722406 2.6612246419604024e-24 8.147382331853207e-17 8.14738227760015e-17 5.425305483329508e-25
1.1707974979042381 2.7199809123789464e-24 8.453120794283296e-17 8.453120719639351e-17 7.4643945100925805e-25
1.1884924949847024 2.777619945121801e-24 8.762715238820499e-17 8.762715136631548e-17 1.021889505973935e-24
1.2064549276569216 2.8345910758804426e-24 9.077598083264742e-17 9.077597944050844e-17 1.3921389684588912e-24
1.2246888378427687 2.8902811400783384e-24 9.395832838497105e-17 9.39583264976512e-17 1.8873198252026674e-24
1.2431983285522175 2.944563324269658e-24 9.71696747577939e-17 9.71696722114597e-17 2.5463342147010775e-24
1.2619875648066055 2.997421668709946e-24 1.0040893278893719e-16 1.0040892936978683e-16 3.419150371112543e-24
1.3004222497298317 3.09801178451645e-24 1.0693918993378889e-16 1.0693918385508327e-16 6.078705643361859e-24
1.3400274889804893 3.191691800979718e-24 1.135282879247379e-16 1.1352827731447405e-16 1.0610263878668222e-23
1.3808389325824078 3.2781518727340193e-24 1.2015491111384667e-16 1.20154892922511e-16 1.819133565687977e-23
1.4228933163050095 3.357835584516475e-24 1.2682392787976315e-16 1.268238972291201e-16 3.065064302503554e-23
1.466228494730424 3.432639277292068e-24 1.3359778442695492e-16 1.3359773364992267e-16 5.0777032250652154e-23
1.5108834753276823 3.501201848882531e-24 1.404163091802844e-16 1.4041622643590344e-16 8.274438096107576e-23
1.5568984535646726 3.562429432302892e-24 1.4722311096020873e-16 1.472229781883068e-16 1.3277190191394894e-22
1.6043148490894465 3.616468584941261e-24 1.540081603408197e-16 1.5400795017128373e-16 2.1016953593325416e-22
1.6531753430134553 3.663515137768425e-24 1.607630890878625e-16 1.6076276127394653e-16 3.278139159527222e-22
1.7035239163302658 3.704114849926144e-24 1.6749510220455357e-16 1.6749459825991935e-16 5.039446342363442e-22
1.755405889504358 3.7412280990552575e-24 1.7432560121624582e-16 1.7432483728633148e-16 7.6392991438354075e-22
1.8088679632656115 3.774177460353326e-24 1.8121686659560722e-16 1.8121572426042303e-16 1.14233518423682e-21
1.8639582606462262 3.80250902745775e-24 1.8813771707890341e-16 1.8813603139708239e-16 1.6856818210982572e-21
1.9207263702978936 3.8266095569674945e-24 1.950963228141514e-16 1.9509386717972622e-16 2.4556344251848582e-21
1.979223391128241 3.8473320324547576e-24 2.021268074262394e-16 2.0212327457195847e-16 3.532854280938156e-21
2.039501978296691 3.86568157450004e-24 2.0927610380516803e-16 2.0927108249584638e-16 5.0213093216496035e-21
2.1016163906111602 3.884443594756471e-24 2.1669640152207054e-16 2.1668934781805873e-16 7.053704011809238e-21
2.1656225393682647 3.905231441335749e-24 2.2449101993127847e-16 2.244812233055254e-16 9.796625753102947e-21
2.231578038680979 3.928147128555683e-24 2.326854662753905e-16 2.3267200982291273e-16 1.345645247771872e-20
2.299542257339062 3.954139145797833e-24 2.4135859877077282e-16 2.4134031301407224e-16 1.8285756700623913e-20
2.369576372248914 3.9852998674471345e-24 2.5066930015409423e-16 2.506447097986212e-16 2.4590355472894345e-20
2.4417434235010123 4.0240953789348014e-24 2.608180992064488e-16 2.6078536379662517e-16 3.273540982362217e-20
2.5161083711144245 4.0747636600854485e-24 2.721455266299998e-16 2.7210237343336853e-16 4.3153196631235546e-20
2.5927381535095444 4.1442444913329364e-24 2.8521572133167403e-16 2.8515937212891845e-16 5.634920275552943e-20
2.6717017477616296 4.240765094912357e-24 3.0074722184716343e-16 3.006743172846577e-16 7.290456250570612e-20
2.753070231689431 4.3767098910462885e-24 3.1984125734556693e-16 3.1974777687022184e-16 9.348047534510679e-20
2.836916847834745 4.580253826933766e-24 3.449098409307201e-16 3.44791016003456e-16 1.188249272640751e-19
2.9233170693905177 4.913481354132256e-24 3.812717851313665e-16 3.8112203767726843e-16 1.4974745409821157e-19
2.967498994190263 5.190054442611968e-24 4.088198052532508e-16 4.0865251427822805e-16 1.6729097502266735e-19
3.0123486681368425 5.51149205424858e-24 4.4070081848476657e-16 4.40514177672309e-16 1.866408124575014e-19
3.0578761833420214 6.219095607641638e-24 5.047967647143995e-16 5.045887547365434e-16 2.08009977856091e-19
3.1040917844459814 7.127550683559707e-24 5.87278770236395e-16 5.870473868876995e-16 2.31383348695501e-19
3.127460860933648 8.083414925745011e-24 6.710520204931633e-16 6.708080751891415e-16 2.4394530402165496e-19
3.1510058709225794 9.354928982970705e-24 7.824545860548532e-16 7.821975119519037e-16 2.570741029493507e-19
3.162844764501044 1.0537038365936659e-23 8.846385713644281e-16 8.843746896811911e-16 2.638816832370367e-19
3.1747281389236908 1.1910640041119896e-23 1.0037165245257521e-15 1.0034456874396125e-15 2.708370861394579e-19
3.1986289994194426 1.5738608593764203e-23 1.336286676692789e-15 1.3360014409783078e-15 2.852357144813258e-19
3.2227097969389145 2.475618680623599e-23 2.1177485034902193e-15 2.1174479739415002e-15 3.0052954871944544e-19
3.2348180950136065 3.330482794241508e-23 2.8597396129199906e-15 2.8594309122378625e-15 3.087006821275517e-19
3.240889293275058 3.969580378397807e-23 3.4149018774008745e-15 3.4145888664162403e-15 3.130109846347579e-19
3.2469718861334385 4.7089605915319487e-23 4.05856977982901e-15 4.058252308695843e-15 3.174711331667476e-19
3.2714166318528037 8.651265888198385e-23 7.512508046715758e-15 7.51217211393273e-15 3.3593278302773003e-19
3.2744851364798273 8.897745904874457e-23 7.73379143450378e-15 7.733453317676605e-15 3.3811682717564533e-19
3.2775565192852394 9.151292915563153e-23 7.961631619096274e-15 7.961291306514708e-15 3.4031258156560974e-19
3.283707930232385 8.907628067977264e-23 7.764187770715647e-15 7.76384351454109e-15 3.442561745578232e-19
3.2898708863219004 8.13459564757393e-23 7.1036941909560514e-15 7.10334633030364e-15 3.478606524101989e-19
3.29141343181113 7.952284101702252e-23 6.9477431920479024e-15 6.947394425872968e-15 3.487661749347884e-19
3.292184975758714 7.862700986126692e-23 6.871086591771249e-15 6.870737372173348e-15 3.4921959790076427e-19
3.295272960557952 7.297398924012917e-23 6.383059843456069e-15 6.382708857193702e-15 3.5098626236855646e-19
3.3076538914384823 5.338600332294604e-23 4.687236872893934e-15 4.686878782712038e-15 3.5809018189873125e-19
3.310756385682612 4.9398191659207916e-23 4.341179157421112e-15 4.340819274944289e-15 3.598824768235305e-19
3.313861789986515 4.571836136182146e-23 4.021559333135802e-15 4.0211976518159045e-15 3.6168131989828437e-19
3.3200813396944477 4.055853110530931e-23 3.5743771466327425e-15 3.574011603309075e-15 3.65543323668067e-19
3.345076488085796 3.136026774868332e-23 2.7845514565113703e-15 2.784168720175595e-15 3.8273633577472994e-19
3.3482140837626964 3.170635082747455e-23 2.817921642932619e-15 2.8175365781654967e-15 3.850647671217226e-19
3.3513546224236106 3.205624143336437e-23 2.851690694015117e-15 2.851303289427896e-15 3.8740458721995086e-19
3.3576445397418455 3.4608881418525754e-23 3.0845492801915983e-15 3.084156986286842e-15 3.922939047554933e-19
3.3702598118196083 4.4018597889886454e-23 3.9379393199795215e-15 3.9375367685182316e-15 4.0255146129051797e-19
3.382922481734668 4.6165801096508187e-23 4.145547115165094e-15 4.14513456250843e-15 4.1255265666460127e-19
3.389271646505754 4.727805528895885e-23 4.253392057049322e-15 4.252974428933101e-15 4.1762811622038213e-19
3.395632727569191 4.8477255963177993e-23 4.36946407043032e-15 4.369041211457054e-15 4.2285897326705296e-19
3.421196662673239 5.423690172608696e-23 4.925409518388934e-15 4.924964970737432e-15 4.445476515027936e-19
3.4276182099114902 5.308139649762619e-23 4.829522731285558e-15 4.829073309553427e-15 4.494217321314915e-19
3.4340518103208963 4.8009776501691175e-23 4.3762886610786216e-15 4.375834612865991e-15 4.540482126297541e-19
3.4469541582030403 4.078559497035194e-23 3.731743137046652e-15 3.731280175269779e-15 4.629617768734613e-19
3.472904465399547 3.8764261839792187e-23 3.573500013956079e-15 3.573016565893208e-15 4.834480628700604e-19
3.4990501388274233 3.567178712278897e-23 3.3131756915781895e-15 3.312671200905761e-15 5.044906724294423e-19
3.5253949054701885 2.4658486011594294e-23 2.3075101168014687e-15 2.306985058992077e-15 5.250578093918401e-19
3.5519380250092896 1.430269709312341e-23 1.3485055980346563e-15 1.3479597666758535e-15 5.458313588026698e-19
3.578680990867387 1.019957080898416e-23 9.688896503631505e-16 9.683210320950224e-16 5.686182681278319e-19
3.605625307711299 8.54347328355546e-24 8.176821027190543e-16 8.170894213086294e-16 5.926814104249973e-19
3.660119384959845 7.342527568206843e-24 7.13362491062803e-16 7.127189711794069e-16 6.435198833960461e-19
3.715437065384467 6.49429249028039e-24 6.404882795364514e-16 6.397907487255244e-16 6.975308109267813e-19
3.8285932144167436 6.0794820494056336e-24 6.178388860625829e-16 6.17023798509906e-16 8.1508755267705e-19
3.94519561050918 6.0162646742601326e-24 6.300353365899531e-16 6.290897995458789e-16 9.455370440739663e-19
4.06534921144712 6.0971843506432674e-24 6.579556437645319e-16 6.568663191384997e-16 1.0893246260322274e-18
4.189162171576248 6.261372637419292e-24 6.962515215139763e-16 6.950041892790854e-16 1.2473322348907835e-18
4.316745939156006 6.486038152748418e-24 7.431995211590231e-16 7.417798184932226e-16 1.419702665800304e-18
4.448215356677963 6.763438093563622e-24 7.985879584596629e-16 7.969830442304688e-16 1.6049142291945282e-18
4.58368876423945 7.094352648944838e-24 8.631719658476774e-16 8.613680494658249e-16 1.803916381852316e-18
4.723288106065518 7.48587730822526e-24 9.38548186592745e-16 9.365295131774339e-16 2.0186734153114994e-18
4.867139040275056 7.952274165756808e-24 1.0273880988091325e-15 1.025143100035237e-15 2.2449987738953963e-18
4.940699165968905 8.231731680261785e-24 1.079565630740684e-15 1.0772022604092516e-15 2.363370331432352e-18
5.015371051989984 8.520396814160628e-24 1.1343114691391907e-15 1.1318264441052092e-15 2.485025033981144e-18
5.091171501069577 8.871081612584283e-24 1.1988469277833824e-15 1.1962345443653165e-15 2.6123834180660083e-18
5.129500256944802 9.050747697492373e-24 1.2323354660054678e-15 1.229658184990719e-15 2.6772810147485843e-18
5.168117569889187 9.237810802610508e-24 1.267275040269044e-15 1.26453153317812e-15 2.7435070909240306e-18
5.20702561229733 9.466944613627812e-24 1.308485707465176e-15 1.3056705311855087e-15 2.8151762796675043e-18
5.246226572918644 9.701653233542182e-24 1.3510213852280287e-15 1.3481334936379585e-15 2.8878915900697506e-18
5.265937586045735 9.821153610424413e-24 1.3728011813074024e-15 1.369876541873836e-15 2.924639433566262e-18
5.285722656980489 9.942115293082108e-24 1.3949305958435712e-15 1.3919689496231314e-15 2.9616462204400694e-18
5.305582063971359 1.0064561864826539e-23 1.4174160401661574e-15 1.4144171291378193e-15 2.998911028337955e-18
5.3255160863122235 1.0196042093860461e-23 1.441327768095321e-15 1.4382910958843836e-15 3.036672210937069e-18
5.365609099470188 1.0523284705138684e-23 1.4987865364844693e-15 1.4956717056129248e-15 3.1148308715446174e-18
5.406003951863644 1.0862610441939698e-23 1.5587626712879409e-15 1.5555685397810676e-15 3.1941315068725915e-18
5.446702915881641 1.121460489871368e-23 1.6213885376251464e-15 1.6181139691680622e-15 3.2745684570840935e-18
5.487708281020852 1.1594622821209579e-23 1.6889510983756263e-15 1.68559467983973e-15 3.3564185358967337e-18
5.529022354014368 1.2122915625598327e-23 1.779200374767957e-15 1.7757584834627524e-15 3.4418913052040877e-18
5.570647458961463 1.2681765448885379e-23 1.875231218422977e-15 1.8717025929461036e-15 3.528625476873643e-18
5.612585937458331 1.3273375503808002e-23 1.9774878217448374e-15 1.9738712046607705e-15 3.6166170840665615e-18
5.654840148729818 1.392322935327617e-23 2.0899203895592336e-15 2.086214169383055e-15 3.70622017617901e-18
5.67608639626678 1.436618228158433e-23 2.1645110282070367e-15 2.1607579732095453e-15 3.753054997491148e-18
5.686739436050992 1.459441621320693e-23 2.2030253276713783e-15 2.199248722152351e-15 3.776605519026611e-18
5.6974124697621304 1.4827298885168167e-23 2.242379615937641e-15 2.238579371184473e-15 3.800244753167948e-18
5.718818669136295 1.5307458331626485e-23 2.3236935111359126e-15 2.319845721869085e-15 3.847789266827462e-18
5.740305295436557 1.583670592671294e-23 2.413066420326879e-15 2.4091704268663388e-15 3.8959934605407646e-18
5.7835210386641895 1.7210299350495622e-23 2.6421056341514877e-15 2.6381097705463712e-15 3.9958636051170366e-18
5.827062130521658 1.8791482005084056e-23 2.9065654993891572e-15 2.9024674620580735e-15 4.09803733108387e-18
5.8489554468988025 1.9901729457336234e-23 3.0898583085219515e-15 3.085705344015966e-15 4.152964505984072e-18
5.870931020387893 2.1092479900636864e-23 3.2870329283476468e-15 3.282824554042416e-15 4.2083743052310814e-18
5.892989160043636 2.237020316133263e-23 3.499250260122337e-15 3.4949859922387635e-15 4.264267883573661e-18
5.915130176081913 2.3823200482754735e-23 3.740536055394744e-15 3.736213905223746e-15 4.322150170998663e-18
5.95966208400165 2.7887752114524314e-23 4.4116858385443675e-15 4.407233339558742e-15 4.452498985626077e-18
6.004529249263818 3.3745726076858255e-23 5.378574328256229e-15 5.373975913783456e-15 4.598414472771986e-18
6.027089341400364 3.7818388704236526e-23 6.050344220345569e-15 6.045662275360006e-15 4.681944985562057e-18
6.049734195844842 4.262961246264072e-23 6.845688150258754e-15 6.840917857061408e-15 4.770293197346016e-18
6.095279466722835 5.652858160938192e-23 9.145998887121576e-15 9.141014170155028e-15 4.984716966545852e-18
6.141167624020661 7.791442085111675e-23 1.2701009228017792e-14 1.2695749587123478e-14 5.259640894315695e-18
6.164241091010745 9.157298293785677e-23 1.4983608275771097e-14 1.4978177735256822e-14 5.430540514272888e-18
6.187401249150058 1.0712535866452007e-22 1.759421937475071e-14 1.7588612866246003e-14 5.606508504711277e-18
6.1990139391386085 1.1471905193819924e-22 1.887676612786902e-14 1.8871069978555115e-14 5.696149313905151e-18
6.204828454712694 1.1871853768184265e-22 1.9553195864206157e-14 1.9547454387615162e-14 5.741476590997317e-18
6.210648424152782 1.2163802026730136e-22 2.0052832275384178e-14 2.0047051782391818e-14 5.7804929923547335e-18
6.233982942956859 1.315542788762826e-22 2.1769077275778004e-14 2.176315904717728e-14 5.918228600721373e-18
6.239830258556775 1.3282051347301724e-22 2.1999224095092164e-14 2.1993285480368286e-14 5.938614723880271e-18
6.245683058788269 1.3292821614085452e-22 2.2037714458306497e-14 2.2031755405742325e-14 5.9590525641627785e-18
6.257405133728602 1.3265098087850051e-22 2.203302731643586e-14 2.202703173858036e-14 5.995577855498458e-18
6.269149208991335 1.306947519894594e-22 2.1748844512274226e-14 2.1742831898438395e-14 6.012613835826797e-18
6.280915325867298 1.2579607241144533e-22 2.097294671837278e-14 2.096694122881741e-14 6.005489555370011e-18
6.304513850009849 1.137182806297734e-22 1.9030549165045243e-14 1.902457984889648e-14 5.9693161487604885e-18
6.32820103803542 9.875264409743479e-23 1.658816831445513e-14 1.658225850031608e-14 5.909814139048335e-18
6.3519772230701035 8.502898083894195e-23 1.433657261680991e-14 1.433071491332896e-14 5.85770348094814e-18
6.375842739491607 7.348114410073448e-23 1.2436063740109587e-14 1.2430250623541283e-14 5.813116568306113e-18
6.399797922933955 6.422869111526998e-23 1.0911005281606665e-14 1.0905208800602286e-14 5.796481004377037e-18
6.42384311029221 5.653398773620274e-23 9.639932191265066e-15 9.634146784981018e-15 5.785406284045473e-18
6.447978639727206 5.09273081856283e-23 8.716532321019569e-15 8.710736031691105e-15 5.796289328464865e-18
6.472204850670314 4.6255378409245946e-23 7.946647079152342e-15 7.940835463952278e-15 5.811615200063072e-18
6.496522083828205 4.3218765718096183e-23 7.45285568722627e-15 7.447010806082986e-15 5.844881143283543e-18
