Dust emission spectrum from A.P. Jones, M. Kohler, N. Ysard, M. Bocchio, and L. Verstraete (2017), A&A, 602A, 46J 
inside the DustPedia framework.

lambda    nu*dP/dnu     j_nu    j_nu(carb.) j_nu(sil)
 (um)   (erg s-1 H-1) (Jy cm2 sr-1 H-1)
0.9927057738263894 7.46931572574671e-22 1.968207118600622e-14 1.968207080569488e-14 3.8031134491163776e-22
1.0001793341362166 7.594992370876399e-22 2.016390542738647e-14 2.016390496967778e-14 4.577086859351499e-22
1.0077091589558085 7.721143391335786e-22 2.0653147981546057e-14 2.0653147431420905e-14 5.501251487171712e-22
1.0114953028030835 7.784390572554798e-22 2.0900559944249866e-14 2.0900559341439423e-14 6.028104499239995e-22
1.0152956718711033 7.847748978635075e-22 2.114983925430149e-14 2.114983859398016e-14 6.603213263553974e-22
1.0229392996569957 7.974728385950422e-22 2.1653853641662684e-14 2.1653852850117364e-14 7.915453190414258e-22
1.0267826658714554 8.038204888355833e-22 2.190821696360387e-14 2.1908216097371172e-14 8.662326963276768e-22
1.0306404723013447 8.101780282511625e-22 2.216445653157357e-14 2.2164455583922036e-14 9.476515398443893e-22
1.03451277320114 8.165452424128639e-22 2.2422577981860466e-14 2.2422576945482644e-14 1.0363778189804973e-21
1.0383996230291617 8.229219226808604e-22 2.2682587085760287e-14 2.2682585952726326e-14 1.1330339568776474e-21
1.0403485208654093 8.261137490243952e-22 2.2813301349887824e-14 2.2813300165344036e-14 1.184543788849103e-21
1.0423010764483396 8.293078663533289e-22 2.2944489756194403e-14 2.294448851790207e-14 1.2382923310782022e-21
1.0462171883269815 8.357028768142867e-22 2.3208292054420423e-14 2.3208290701541407e-14 1.3528790178077436e-21
1.0471985131304309 8.373030236656374e-22 2.327454017079639e-14 2.3274538787722625e-14 1.3830737595489585e-21
1.048180758391296 8.389037223481732e-22 2.3340907500331005e-14 2.334090608641796e-14 1.4139130400457197e-21
1.0501480137395462 8.42106763680265e-22 2.3474000196833303e-14 2.3473998719255514e-14 1.4775777952964192e-21
1.0521189612883777 8.453119780103208e-22 2.360757094634734e-14 2.3607569402366376e-14 1.5439809736876564e-21
1.0531058218030118 8.469132585473997e-22 2.3674476177477343e-14 2.367447459923079e-14 1.5782465506517236e-21
1.0540936079674168 8.485080810627021e-22 2.3741305453712962e-14 2.374130384046618e-14 1.6132467824396203e-21
1.058054026499678 8.548923819870538e-22 2.4009810059446967e-14 2.400980829862834e-14 1.760818625995877e-21
1.0590464539527713 8.564896967493627e-22 2.4077233601260034e-14 2.4077231801578817e-14 1.7996812165231174e-21
1.06003981227728 8.58087502143832e-22 2.4144776307795883e-14 2.414477446843244e-14 1.8393634461103913e-21
1.0620293250338977 8.612845746843083e-22 2.4280219637990598e-14 2.4280217716737773e-14 1.9212528196939617e-21
1.0660195594769086 8.6768449728472e-22 2.4552540969184922e-14 2.4552538873574028e-14 2.095610893941454e-21
1.070024785945596 8.740919949382554e-22 2.4826781025028318e-14 2.4826778739991603e-14 2.2850367155554062e-21
1.0740450607676866 8.805069199518226e-22 2.5102946977002172e-14 2.5102944486239737e-14 2.490762433206364e-21
1.07808044048254 8.869291319248035e-22 2.5381046203475178e-14 2.5381043489360355e-14 2.714114817458735e-21
1.0861967418109137 8.997850100681416e-22 2.594279014304734e-14 2.5942786923526203e-14 3.219521137487498e-21
1.0902777775684922 9.06195963425434e-22 2.622579828966379e-14 2.622579478489805e-14 3.5047657325894485e-21
1.0943741465085532 9.12613328551331e-22 2.6510753099432808e-14 2.651074928540035e-14 3.8140324583006434e-21
1.1026131145906286 9.254669019211139e-22 2.708653662087984e-14 2.708653210846304e-14 4.5124168066376645e-21
1.1109141095355224 9.383450278292165e-22 2.767021112395194e-14 2.7670205792225474e-14 5.331726465851946e-21
1.1192775983109025 9.512369891273485e-22 2.8261549829411183e-14 2.826154353778965e-14 6.291621535200919e-21
1.1277040513999907 9.640957053778932e-22 2.885922884467615e-14 2.885922142993901e-14 7.414737146589255e-21
1.1361939428280308 9.769761745520225e-22 2.9464961330380215e-14 2.946495260328269e-14 8.727097526575545e-21
1.1447477501889525 9.898782659831537e-22 3.007883564060862e-14 3.0078825382025495e-14 1.0258583125488379e-20
1.1533659546722406 1.0028066756694098e-21 3.0701088749857474e-14 3.070107670638478e-14 1.2043472694599076e-20
1.1707974979042381 1.0287815658397493e-21 3.1972337774125284e-14 3.197232123787731e-14 1.6536247979349328e-20
1.1884924949847024 1.0548632701083092e-21 3.327837009553433e-14 3.3278347504227464e-14 2.2591306866894353e-20
1.2064549276569216 1.0812286236070528e-21 3.462566069844048e-14 3.4625629987281313e-14 3.071115917566343e-20
1.2246888378427687 1.1077027227335054e-21 3.600960983771298e-14 3.6009568292819196e-14 4.1544893783841043e-20
1.2431983285522175 1.1342624294410149e-21 3.7430307730300036e-14 3.7430251802325395e-14 5.592797463362486e-20
1.2619875648066055 1.160944581882517e-21 3.8889825782867713e-14 3.8889750852587197e-14 7.493028051430337e-20
1.3004222497298317 1.2145020538121771e-21 4.192297345565746e-14 4.192284085213391e-14 1.3260352354860998e-19
1.3400274889804893 1.2685212120919764e-21 4.512122422372028e-14 4.512099385855467e-14 2.303651655898283e-19
1.3808389325824078 1.323183990182704e-21 4.849898994919676e-14 4.849859690038562e-14 3.930488111505999e-19
1.4228933163050095 1.3789372987150148e-21 5.208183668353474e-14 5.208117772331796e-14 6.589602167780446e-19
1.466228494730424 1.436750205061362e-21 5.591809353256411e-14 5.591700742671796e-14 1.0861058461302188e-18
1.5108834753276823 1.496471287536316e-21 6.001624129645193e-14 6.001448063158804e-14 1.7606648638696593e-18
1.5568984535646726 1.5580111392020011e-21 6.438730961070585e-14 6.438449945199056e-14 2.8101587153080825e-18
1.6043148490894465 1.6216992281029185e-21 6.906044083618502e-14 6.905601652459042e-14 4.424311594610848e-18
1.6531753430134553 1.6878762464553424e-21 7.406771616166296e-14 7.406085327656751e-14 6.862885095449812e-18
1.7035239163302658 1.7569402981576232e-21 7.94464822852557e-14 7.943599132318847e-14 1.0490962067251818e-17
1.755405889504358 1.8301487397902158e-21 8.527728620974729e-14 8.526147417038771e-14 1.58120393595971e-17
1.8088679632656115 1.9073950647218244e-21 9.158344052970302e-14 9.155993461496277e-14 2.3505914740240505e-17
1.8639582606462262 1.988519243282676e-21 9.838647800628479e-14 9.835199901386333e-14 3.4478992421464877e-17
1.9207263702978936 2.073620463553447e-21 1.0572171561502483e-13 1.0567179473526746e-13 4.99208797573697e-17
1.979223391128241 2.1628955422306622e-21 1.136317757499579e-13 1.135604040175594e-13 7.137173239852215e-17
2.039501978296691 2.2564612636222142e-21 1.2215786855108913e-13 1.2205707341107408e-13 1.0079514001505644e-16
2.1016163906111602 2.3550974749006442e-21 1.313807590702522e-13 1.3124008965987132e-13 1.4066941038090998e-16
2.1656225393682647 2.4590107093905233e-21 1.4135546905875561e-13 1.4116140112058192e-13 1.9406793817374546e-16
2.231578038680979 2.567601990790687e-21 1.5209299623571437e-13 1.5182824683740036e-13 2.6474939831406853e-16
2.299542257339062 2.6806077485138676e-21 1.6362290404548715e-13 1.6326565276400966e-13 3.5725128147750216e-16
2.369576372248914 2.798000366341302e-21 1.7598996737752437e-13 1.7551297860527733e-13 4.769887722469586e-16
2.4417434235010123 2.919806455894586e-21 1.892446123080529e-13 1.886142849545844e-13 6.303273534685161e-16
2.5161083711144245 3.046569079238862e-21 2.0347441364654439e-13 2.0264973421539842e-13 8.246794311460233e-16
2.5927381535095444 3.179528674957876e-21 2.1882192675152147e-13 2.1775336803000638e-13 1.0685587215150916e-15
2.6717017477616296 3.3197121368204382e-21 2.3542784854526134e-13 2.340562896250773e-13 1.3715589201840445e-15
2.753070231689431 3.4689031583399444e-21 2.5350054616213585e-13 2.5175618643826335e-13 1.7443597238724313e-15
2.836916847834745 3.632782520825015e-21 2.735617912757602e-13 2.71363020691269e-13 2.1987705844911795e-15
2.9233170693905177 3.824519690760543e-21 2.967715443836982e-13 2.9402443618933836e-13 2.7471081943598387e-15
2.967498994190263 3.944104866912477e-21 3.1067654519209253e-13 3.0762189430684143e-13 3.0546508852510754e-15
3.0123486681368425 4.072427240350689e-21 3.256326962603042e-13 3.2224051292883245e-13 3.3921833314716847e-15
3.0578761833420214 4.2899931964671924e-21 3.4821376335853405e-13 3.4445054326662493e-13 3.7632200919092765e-15
3.1040917844459814 4.546862806679635e-21 3.746414604528363e-13 3.704748909560026e-13 4.166569496833726e-15
3.127460860933648 4.789798240168443e-21 3.976294445287791e-13 3.932470780941217e-13 4.382366434657491e-15
3.1510058709225794 5.100200885432863e-21 4.2658534125405055e-13 4.2197815827579645e-13 4.607182978254188e-15
3.162844764501044 5.382805475444008e-21 4.5191420780274614e-13 4.4719072833910856e-13 4.723479463637747e-15
3.1747281389236908 5.7033205292264764e-21 4.80622119389759e-13 4.757800115608058e-13 4.842107828953119e-15
3.1986289994194426 6.573947818023849e-21 5.581610871230054e-13 5.530739947603031e-13 5.087092362702223e-15
3.2227097969389145 8.596485340807113e-21 7.353795682776177e-13 7.300330048112352e-13 5.346563466382469e-15
3.2348180950136065 1.0496762679613822e-20 9.013110079479694e-13 8.958260070108053e-13 5.485000937164046e-15
3.240889293275058 1.1916840311969253e-20 1.0251673092573929e-12 1.019609286007357e-12 5.558023250036021e-15
3.2469718861334385 1.3562680907092864e-20 1.1689434598789745e-12 1.163309880104432e-12 5.633579774542779e-15
3.2714166318528037 2.2208709305113195e-20 1.9285398173859483e-12 1.922594099970188e-12 5.9457174157600466e-15
3.2744851364798273 2.2749051497047427e-20 1.977314496186809e-12 1.971332021361993e-12 5.9824748248160245e-15
3.2775565192852394 2.3303918582540784e-20 2.027442643870222e-12 2.0214232304377762e-12 6.01941343244627e-15
3.283707930232385 2.2770565614831585e-20 1.984758969837635e-12 1.9786735530119643e-12 6.0854168256707605e-15
3.2898708863219004 2.1075887565485722e-20 1.8404929581574893e-12 1.8343475249182848e-12 6.145433239203856e-15
3.29141343181113 2.067540564509918e-20 1.8063666611561043e-12 1.800206158781047e-12 6.1605023750568826e-15
3.292184975758714 2.0478498015784678e-20 1.7895826559365101e-12 1.7834146092280873e-12 6.1680467084225696e-15
3.295272960557952 1.92498785744226e-20 1.6837934748979434e-12 1.677596091670377e-12 6.197383227567144e-15
3.3076538914384823 1.4962655201607004e-20 1.3137059306184516e-12 1.3073907432321926e-12 6.315187386259316e-15
3.310756385682612 1.4081381732041273e-20 1.237490661693752e-12 1.2311457860589333e-12 6.344875634818659e-15
3.313861789986515 1.3264861721750144e-20 1.166827219323917e-12 1.1604525604154906e-12 6.374658908426674e-15
3.3200813396944477 1.212401860403601e-20 1.0684759492669017e-12 1.062037206214163e-12 6.43874305273855e-15
3.345076488085796 1.0127484594612608e-20 8.992430232011976e-13 8.925186346370012e-13 6.724388564196255e-15
3.3482140837626964 1.0207782724461129e-20 9.072230362343418e-13 9.004599500723576e-13 6.76308616198416e-15
3.3513546224236106 1.028882164567253e-20 9.152831282586925e-13 9.084811729155623e-13 6.801955343130519e-15
3.3576445397418455 1.0860617044686835e-20 9.679627631563133e-13 9.610795327330586e-13 6.883230423254815e-15
3.3702598118196083 1.29352729419501e-20 1.1571999648920185e-12 1.1501462616790987e-12 7.053703212919884e-15
3.382922481734668 1.342857635298493e-20 1.2058449033412628e-12 1.1986255721567789e-12 7.219331184484279e-15
3.389271646505754 1.3682969739794e-20 1.2309946856396529e-12 1.2236914171795092e-12 7.303268460143593e-15
3.395632727569191 1.396257647899029e-20 1.258507212164078e-12 1.2511174412486456e-12 7.3897709154327e-15
3.421196662673239 1.5318859962236693e-20 1.3911498678505242e-12 1.3834020923966046e-12 7.747775453919182e-15
3.4276182099114902 1.5071779356775607e-20 1.3712808216664644e-12 1.3634532265523293e-12 7.827595114135009e-15
3.4340518103208963 1.3953327265831277e-20 1.2719031902934514e-12 1.26400013618801e-12 7.903054105441165e-15
3.4469541582030403 1.2348789693433253e-20 1.1298722311835951e-12 1.1218244173267674e-12 8.047813856827752e-15
3.472904465399547 1.1902078187177675e-20 1.0971981549336727e-12 1.0888167683424744e-12 8.381386591198124e-15
3.4990501388274233 1.1226744565019791e-20 1.0427337733415187e-12 1.0340112073809979e-12 8.722565960520869e-15
3.5253949054701885 8.83495174348838e-21 8.267636755949438e-13 8.177099269644538e-13 9.053748630490255e-15
3.5519380250092896 6.5590288392521376e-21 6.184069375037517e-13 6.090205410902805e-13 9.386396413471313e-15
3.578680990867387 5.670204719660518e-21 5.386307690006154e-13 5.288798136218766e-13 9.750955378738769e-15
3.605625307711299 5.327224721558698e-21 5.098601198139708e-13 4.99725355513485e-13 1.0134764300485956e-14
3.660119384959845 5.1087437466907074e-21 4.963394596052998e-13 4.853989927784659e-13 1.0940466826833727e-14
3.715437065384467 4.960696518864661e-21 4.892400493857202e-13 4.774511762407321e-13 1.1788873144988244e-14
3.8285932144167436 4.946920400721808e-21 5.027401619059045e-13 4.891312782204788e-13 1.360888368542552e-14
3.94519561050918 5.002199883491954e-21 5.238404322153014e-13 5.082521142960792e-13 1.5588317919222047e-14
4.06534921144712 5.080316581127113e-21 5.482240284091888e-13 5.305005201332533e-13 1.772350827593552e-14
4.189162171576248 5.167673321349038e-21 5.746344485511111e-13 5.546174854171685e-13 2.0016963133942558e-14
4.316745939156006 5.2586276254825695e-21 6.02557283995651e-13 5.800988899367699e-13 2.2458394058881148e-14
4.448215356677963 5.350760822799723e-21 6.317871329009425e-13 6.067752421064644e-13 2.501189079447808e-14
4.58368876423945 5.443747756987524e-21 6.623423849217144e-13 6.346636045596467e-13 2.767878036206753e-14
4.723288106065518 5.5386918044979574e-21 6.944181603799314e-13 6.639441799999422e-13 3.047398037998922e-14
4.867139040275056 5.637307372421516e-21 7.283076995376276e-13 6.949876648231006e-13 3.332003471452695e-14
4.940699165968905 5.6918455023712445e-21 7.464675743233806e-13 7.116972084436531e-13 3.4770365879727436e-14
5.015371051989984 5.744552676933141e-21 7.647662577979856e-13 7.285322012270874e-13 3.6234056570898116e-14
5.091171501069577 5.807445043386143e-21 7.848239879405306e-13 7.470807976260477e-13 3.7743190314482895e-14
5.129500256944802 5.8381292444943184e-21 7.949104276884653e-13 7.564093862631432e-13 3.8501041425321926e-14
5.168117569889187 5.869376436378192e-21 8.051814892835237e-13 7.659128161588561e-13 3.9268673124667354e-14
5.20702561229733 5.9093589721782585e-21 8.167695144477314e-13 7.766611328316095e-13 4.010838161612182e-14
5.246226572918644 5.949150356825782e-21 8.284597647976369e-13 7.875073634056743e-13 4.095240139196242e-14
5.265937586045735 5.9689796338840916e-21 8.343441735702371e-13 7.929682645307091e-13 4.137590903952804e-14
5.285722656980489 5.988767612345347e-21 8.402553106249304e-13 7.984549596985321e-13 4.180035092639843e-14
5.305582063971359 6.008516634195446e-21 8.461936017977449e-13 8.039679234330919e-13 4.2225678364653026e-14
5.3255160863122235 6.029938919219982e-21 8.52401189028417e-13 8.097458132307303e-13 4.265537579768662e-14
5.365609099470188 6.0859448805238045e-21 8.667951599049178e-13 8.23250647795654e-13 4.354451210926392e-14
5.406003951863644 6.142582928885138e-21 8.814482509534748e-13 8.37010319147718e-13 4.443793180575676e-14
5.446702915881641 6.199922621722984e-21 8.963742872633451e-13 8.510390420478691e-13 4.533524521547626e-14
5.487708281020852 6.261300093122225e-21 9.120632755895876e-13 8.658232064491002e-13 4.6240069140487646e-14
5.529022354014368 6.352598874140546e-21 9.323290408583967e-13 8.85145809746464e-13 4.7183231111932736e-14
5.570647458961463 6.447065121203832e-21 9.533166207193905e-13 9.051858761977995e-13 4.8130744521590796e-14
5.612585937458331 6.544986838509667e-21 9.750821682788976e-13 9.259999559017548e-13 4.9082212377143314e-14
5.654840148729818 6.651593991269481e-21 9.984251176723424e-13 9.483829559830244e-13 5.004216168931789e-14
5.67608639626678 6.728250610178528e-21 1.0137260102108401e-12 9.631812175214276e-13 5.0544792689412575e-14
5.686739436050992 6.76743859319532e-21 1.0215440211153216e-12 9.7074745639672e-13 5.0796564718601553e-14
5.6974124697621304 6.807219397222197e-21 1.029477461523043e-12 9.784288287897046e-13 5.104863273333857e-14
5.718818669136295 6.888620850925879e-21 1.0457022469171204e-12 9.941486154460247e-13 5.155363147109579e-14
5.740305295436557 6.978724490398462e-21 1.0633603858292182e-12 1.0112967025380048e-12 5.206368329121363e-14
5.7835210386641895 7.218431216873109e-21 1.108165372340615e-12 1.0550476860065073e-12 5.311768633410766e-14
5.827062130521658 7.490738180011002e-21 1.1586271456975334e-12 1.1044405338034993e-12 5.418661189403376e-14
5.8489554468988025 7.688147593260793e-21 1.1936292656929448e-12 1.1388640857033885e-12 5.476517998955611e-14
5.870931020387893 7.897382895795315e-21 1.2307209843762794e-12 1.1753751481408223e-12 5.534583623545742e-14
5.892989160043636 8.119379791097572e-21 1.2700708009277506e-12 1.2141422694008213e-12 5.5928531526929576e-14
5.915130176081913 8.371779230023863e-21 1.3144725067640493e-12 1.2579395341160826e-12 5.653297264796646e-14
5.95966208400165 9.089007274933006e-21 1.4378299303788337e-12 1.3799114890268809e-12 5.791844135195281e-14
6.004529249263818 1.0123308936015468e-20 1.6135071278729738e-12 1.554025050366417e-12 5.948207750655695e-14
6.027089341400364 1.0845444814658701e-20 1.7350996856218868e-12 1.6747100509105163e-12 6.038963471137091e-14
6.049734195844842 1.169248167792927e-20 1.877640415799353e-12 1.8162885631237516e-12 6.135185267560197e-14
6.095279466722835 1.4142934331656067e-20 2.2882453083962e-12 2.224514320307885e-12 6.373098808831571e-14
6.141167624020661 1.788929530372049e-20 2.916175237565571e-12 2.849339115393768e-12 6.683612217180306e-14
6.164241091010745 2.0278289303427544e-20 3.3180304242301513e-12 3.249237075470197e-12 6.879334875995541e-14
6.187401249150058 2.2967821009331668e-20 3.7722243027787225e-12 3.701422723993924e-12 7.080157878479757e-14
6.1990139391386085 2.4274252153843102e-20 3.994274473989432e-12 3.922451341214451e-12 7.182313277498008e-14
6.204828454712694 2.495975090934296e-20 4.1109241048782245e-12 4.0385851599991875e-12 7.233894487903692e-14
6.210648424152782 2.5455051572683368e-20 4.196433636675124e-12 4.123657095461317e-12 7.277654121380672e-14
6.233982942956859 2.7114065957593903e-20 4.4867274719850785e-12 4.412433210938696e-12 7.429426104638238e-14
6.239830258556775 2.731243089564896e-20 4.523791334214082e-12 4.449292452345822e-12 7.449888186825894e-14
6.245683058788269 2.7307556898894084e-20 4.527226490831e-12 4.452522720258543e-12 7.470377057245583e-14
6.257405133728602 2.721125198236433e-20 4.519727289397107e-12 4.4446683952293e-12 7.505889416780681e-14
6.269149208991335 2.6821257342858736e-20 4.463311240076219e-12 4.388138777554549e-12 7.517246252166969e-14
6.280915325867298 2.591839550476346e-20 4.321161364793608e-12 4.246173817096096e-12 7.498754769751388e-14
6.304513850009849 2.372333513299757e-20 3.9700573479225935e-12 3.895709387593992e-12 7.434796032860036e-14
6.32820103803542 2.104787247849286e-20 3.535557498490279e-12 3.4621361117379875e-12 7.342138675229239e-14
6.3519772230701035 1.860638416268986e-20 3.1371865810074125e-12 3.0646001594915366e-12 7.258642151587592e-14
6.375842739491607 1.6547625914095863e-20 2.8005460874843453e-12 2.728700512496416e-12 7.184557498792933e-14
6.399797922933955 1.4909435756536758e-20 2.5327766993319973e-12 2.461332170704223e-12 7.144452862777421e-14
6.42384311029221 1.3541613159521396e-20 2.30905757483891e-12 2.237946252027107e-12 7.111132281180219e-14
6.447978639727206 1.2544876393902039e-20 2.1471352884404076e-12 2.0760926164603374e-12 7.104267198007037e-14
6.472204850670314 1.1710101547120854e-20 2.0117886277502458e-12 1.9407622586941994e-12 7.102636905604683e-14
6.496522083828205 1.1161739849855014e-20 1.9247851005726605e-12 1.8535610608234913e-12 7.122403974916902e-14
6.520930681187647 1.0696122558526246e-20 1.8514218598635533e-12 1.7799681389704746e-12 7.14537208930784e-14
6.57002334288761 1.0193849184808683e-20 1.7777658103126112e-12 1.705557852932499e-12 7.220795738011246e-14
