Dust emission spectrum from A.P. Jones, M. Kohler, N. Ysard, M. Bocchio, and L. Verstraete (2017), A&A, 602A, 46J 
inside the DustPedia framework.

lambda    nu*dP/dnu     j_nu    j_nu(carb.) j_nu(sil)
 (um)   (erg s-1 H-1) (Jy cm2 sr-1 H-1)
0.9927057738263894 2.1516253024972125e-22 5.6696548819575726e-15 5.669654785924668e-15 9.603290396400755e-23
1.0001793341362166 2.1878466927216186e-22 5.80850271434419e-15 5.808502598757437e-15 1.1558675331112974e-22
1.0077091589558085 2.224195005577548e-22 5.9494593302795206e-15 5.949459191341832e-15 1.3893768727657822e-22
1.0114953028030835 2.2424148033583254e-22 6.0207314343532745e-15 6.020731282102431e-15 1.5225084555686212e-22
1.0152956718711033 2.2606640123770496e-22 6.092534381505496e-15 6.0925342147212635e-15 1.6678423253054598e-22
1.0229392996569957 2.2972299391221808e-22 6.2376896711158586e-15 6.23768947116747e-15 1.9994838846761156e-22
1.0267826658714554 2.3155049361042885e-22 6.310934496575727e-15 6.310934277750001e-15 2.188257253832626e-22
1.0306404723013447 2.3338055196949736e-22 6.3847116548055435e-15 6.384711415399849e-15 2.3940569358933255e-22
1.03451277320114 2.352131003134234e-22 6.459022489125235e-15 6.4590222272911276e-15 2.618341066423784e-22
1.0383996230291617 2.370480715743541e-22 6.533868376577497e-15 6.533868090308943e-15 2.8626855109815577e-22
1.0403485208654093 2.3796644529020634e-22 6.57149240522658e-15 6.571492105935862e-15 2.9929071744341456e-22
1.0423010764483396 2.3888540033517133e-22 6.609250729763966e-15 6.609250416884692e-15 3.128792748569067e-22
1.0462171883269815 2.407250228717757e-22 6.685170998707393e-15 6.685170656857256e-15 3.418501374345497e-22
1.0471985131304309 2.411852796053255e-22 6.7042352889203834e-15 6.704234939435837e-15 3.4948454837436186e-22
1.048180758391296 2.4164567486548534e-22 6.723333315416463e-15 6.723332958134415e-15 3.572820474497626e-22
1.0501480137395462 2.425668771950473e-22 6.761630672739389e-15 6.761630299359763e-15 3.733796260832582e-22
1.0521189612883777 2.434886223897398e-22 6.800063263298485e-15 6.800062873128338e-15 3.901701480027864e-22
1.0531058218030118 2.4394907784021393e-22 6.819313044822851e-15 6.8193126459882e-15 3.988346514154271e-22
1.0540936079674168 2.4440764020657974e-22 6.83853998667668e-15 6.838539578991621e-15 4.076850582852453e-22
1.058054026499678 2.4624311889076937e-22 6.915783363598533e-15 6.9157829185958986e-15 4.450026377927595e-22
1.0590464539527713 2.467022914973368e-22 6.935178233773591e-15 6.935177778943091e-15 4.548305000341758e-22
1.06003981227728 2.4716158355654974e-22 6.954606764396389e-15 6.954606299530586e-15 4.648658013996852e-22
1.0620293250338977 2.4808052265002413e-22 6.9935649086225604e-15 6.99356442304712e-15 4.8557544029052725e-22
1.0660195594769086 2.499197974837363e-22 7.071886251203041e-15 7.07188572153066e-15 5.296723803989802e-22
1.070024785945596 2.517608913523538e-22 7.150749070425194e-15 7.150748492841938e-15 5.7758325510702905e-22
1.0740450607676866 2.5360375421671445e-22 7.230155097042515e-15 7.230154467422258e-15 6.296202538022988e-22
1.07808044048254 2.5544833807691517e-22 7.310106115536665e-15 7.310105429417096e-15 6.861195686974783e-22
1.0861967418109137 2.5913962861671866e-22 7.471568127637105e-15 7.471567313656664e-15 8.139804382255817e-22
1.0902777775684922 2.6097974990656196e-22 7.552894246918133e-15 7.55289336076748e-15 8.861506557378142e-22
1.0943741465085532 2.6282130834219434e-22 7.634767756230409e-15 7.634766791826303e-15 9.644041051336915e-22
1.1026131145906286 2.665085922024208e-22 7.800165221992266e-15 7.800164080858146e-15 1.141134119985261e-21
1.1109141095355224 2.702012143149102e-22 7.967777762235361e-15 7.967776413741532e-15 1.3484938302295198e-21
1.1192775983109025 2.7389601196204863e-22 8.137536574606578e-15 8.137534983137941e-15 1.5914686366654204e-21
1.1277040513999907 2.775793068683723e-22 8.309055516766364e-15 8.309053640966979e-15 1.875799386138844e-21
1.1361939428280308 2.8126693506790265e-22 8.482826481505987e-15 8.482824273418362e-15 2.208087626661491e-21
1.1447477501889525 2.849587916500679e-22 8.658871452113181e-15 8.65886885619868e-15 2.5959145023921348e-21
1.1533659546722406 2.886561855918132e-22 8.837255861040057e-15 8.837252813061396e-15 3.0479786620221798e-21
1.1707974979042381 2.9607877963673268e-22 9.201497251332911e-15 9.20149306519588e-15 4.1861370297886335e-21
1.1884924949847024 3.035230764044568e-22 9.575414705723472e-15 9.575408985190905e-15 5.720532567160686e-21
1.2064549276569216 3.1103984958658767e-22 9.96085384749603e-15 9.960846068703282e-15 7.77879274930958e-21
1.2246888378427687 3.185777031534866e-22 1.0356441812513026e-14 1.035643128667646e-14 1.0525836567690618e-20
1.2431983285522175 3.2612951435757266e-22 1.0762172637908095e-14 1.0762158463887929e-14 1.41740201634016e-20
1.2619875648066055 3.3370512366174227e-22 1.1178599155018734e-14 1.117858015963013e-14 1.899538860389945e-20
1.3004222497298317 3.488749319119395e-22 1.2042692281976525e-14 1.204265864592457e-14 3.363605194980977e-20
1.3400274889804893 3.6412437185921037e-22 1.2951882295200802e-14 1.2951823825266465e-14 5.846993433323487e-20
1.3808389325824078 3.795010259181635e-22 1.3909944934546454e-14 1.3909845110661151e-14 9.982388530243671e-20
1.4228933163050095 3.9512959114481604e-22 1.4923865540523932e-14 1.4923698074995846e-14 1.674655280916917e-19
1.466228494730424 4.112862957037478e-22 1.6007198377843108e-14 1.6006922178593794e-14 2.7619924931157942e-19
1.5108834753276823 4.279230578219075e-22 1.7161928670771037e-14 1.716148063066384e-14 4.480401072037808e-19
1.5568984535646726 4.45010915114268e-22 1.839078993124641e-14 1.839007433850136e-14 7.155927450450448e-19
1.6043148490894465 4.626432630186748e-22 1.9701771537091155e-14 1.9700644134193354e-14 1.1274028978000155e-18
1.6531753430134553 4.8091762780315605e-22 2.1103721572046473e-14 2.110197154982456e-14 1.750022221911911e-18
1.7035239163302658 4.999502761939679e-22 2.2607080503989537e-14 2.2604403427296252e-14 2.677076693294014e-18
1.755405889504358 5.201072325462976e-22 2.4234824397220468e-14 2.4230786573429077e-14 4.037823791389306e-18
1.8088679632656115 5.413616399747027e-22 2.5993441252253863e-14 2.5987434274512112e-14 6.0069777417451994e-18
1.8639582606462262 5.636742660156669e-22 2.788905662512391e-14 2.78802388645155e-14 8.817760608415944e-18
1.9207263702978936 5.870823125499878e-22 2.993187537494668e-14 2.991909874029285e-14 1.277663465382662e-17
1.979223391128241 6.116530234416565e-22 3.2134339287058304e-14 3.211605842145646e-14 1.828086560186962e-17
2.039501978296691 6.374333535800637e-22 3.4508680061148263e-14 3.448284245114924e-14 2.5837609999032952e-17
2.1016163906111602 6.646624394897814e-22 3.7078658848010964e-14 3.704257101566563e-14 3.6087832345333694e-17
2.1656225393682647 6.934161540703283e-22 3.9860812861536444e-14 3.9810985293868297e-14 4.982756766813061e-17
2.231578038680979 7.235411869335202e-22 4.285927001745935e-14 4.2791238171715996e-14 6.803184574335096e-17
2.299542257339062 7.54980282783348e-22 4.60836041508053e-14 4.599172450748417e-14 9.18796433211217e-17
2.369576372248914 7.877473048222009e-22 4.954810733590912e-14 4.9425326938334686e-14 1.227803975744335e-16
2.4417434235010123 8.218723623930675e-22 5.3268913175317296e-14 5.3106519224497093e-14 1.6239395082020638e-16
2.5161083711144245 8.575370949615081e-22 5.727323196657886e-14 5.706057508950242e-14 2.1265687707643788e-16
2.5927381535095444 8.951300425901732e-22 6.160475360875561e-14 6.132895544878267e-14 2.7579815997293625e-16
2.6717017477616296 9.349882044572253e-22 6.630763521604339e-14 6.595329977838077e-14 3.5433543766262894e-16
2.753070231689431 9.77680279277678e-22 7.144693104878912e-14 7.099585252804703e-14 4.510785207420842e-16
2.836916847834745 1.0249393277876675e-21 7.718167461202487e-14 7.66125319007634e-14 5.691427112614784e-16
2.9233170693905177 1.080761382823937e-21 8.386392295633308e-14 8.315213098202382e-14 7.117919743092691e-16
2.967498994190263 1.115910055794722e-21 8.790006670152582e-14 8.710815900641736e-14 7.919076951084553e-16
3.0123486681368425 1.1537617181033543e-21 9.225518761522756e-14 9.137530336685414e-14 8.798842483734301e-16
3.0578761833420214 1.2185061936725512e-21 9.890473199906545e-14 9.792808952217917e-14 9.7664247688628e-16
3.1040917844459814 1.2952924498734001e-21 1.067263904292888e-13 1.0564448980273591e-13 1.0819006265528752e-15
3.127460860933648 1.3682110069637338e-21 1.1358327750314988e-13 1.1244503339704828e-13 1.1382441061015768e-15
3.1510058709225794 1.461586209165244e-21 1.2224837135136746e-13 1.2105140760013893e-13 1.1969637512285445e-15
3.162844764501044 1.5466237158961892e-21 1.2984701649106365e-13 1.2861966922361646e-13 1.227347267447174e-15
3.1747281389236908 1.6432267163973768e-21 1.384756657153716e-13 1.372173200009595e-13 1.2583457144120967e-15
3.1986289994194426 1.9060551723655377e-21 1.6183362822064256e-13 1.6051124885574224e-13 1.3223793649003323e-15
3.2227097969389145 2.51694570843432e-21 2.1531013839579848e-13 2.1391991717539636e-13 1.3902212204021732e-15
3.2348180950136065 3.091205947183135e-21 2.6542830709523974e-13 2.6400188427027816e-13 1.4264228249615013e-15
3.240889293275058 3.5203428003371326e-21 3.0284372885826454e-13 3.013982105813958e-13 1.4455182768687594e-15
3.2469718861334385 4.017648168216885e-21 3.462739839197866e-13 3.4480870743181005e-13 1.4652764879765166e-15
3.2714166318528037 6.633235564425517e-21 5.760109121312109e-13 5.744639930757849e-13 1.5469190554260597e-15
3.2744851364798273 6.796790550020541e-21 5.907671572085286e-13 5.892106188191424e-13 1.5565383893861388e-15
3.2775565192852394 6.964766013747433e-21 6.059351593954123e-13 6.043689537860997e-13 1.5662056093126226e-15
3.283707930232385 6.803680482515184e-21 5.930316397931575e-13 5.914481500760093e-13 1.5834897171481393e-15
3.2898708863219004 6.2913226196369826e-21 5.494020094271619e-13 5.478027938834296e-13 1.5992155437322672e-15
3.29141343181113 6.170260340792984e-21 5.390826550919012e-13 5.374794908078997e-13 1.6031642840014076e-15
3.292184975758714 6.110739355340168e-21 5.34007579893617e-13 5.324024386438878e-13 1.6051412497292407e-15
3.295272960557952 5.7389683877120325e-21 5.019895313373394e-13 5.003767007594198e-13 1.6128305779197897e-15
3.3076538914384823 4.442317025759952e-21 3.9003092324157733e-13 3.883872105148592e-13 1.6437127267182484e-15
3.310756385682612 4.175963815679378e-21 3.6698928583943116e-13 3.6533778941174447e-13 1.6514964276867174e-15
3.313861789986515 3.929252979484579e-21 3.4563189758357324e-13 3.439725921461149e-13 1.6593054374583958e-15
3.3200813396944477 3.584488277490199e-21 3.1589686885274635e-13 3.142207653501356e-13 1.6761035026107655e-15
3.345076488085796 2.980535120613078e-21 2.6464867831477286e-13 2.6289771180440524e-13 1.750966510367533e-15
3.3482140837626964 3.004795589419729e-21 2.6705307621453446e-13 2.6529196820303303e-13 1.761108011501379e-15
3.3513546224236106 3.02928326956385e-21 2.6948196429416157e-13 2.6771066929599127e-13 1.7712949981702655e-15
3.3576445397418455 3.2021600049319592e-21 2.8539553818067147e-13 2.836029440037635e-13 1.792594176908002e-15
3.3702598118196083 3.829977609954847e-21 3.4263289036626996e-13 3.407956207163575e-13 1.8372696499124487e-15
3.382922481734668 3.979084673148903e-21 3.573095797316887e-13 3.5542888679978676e-13 1.8806929319018435e-15
3.389271646505754 4.056006652256124e-21 3.6490050981590037e-13 3.629978073367457e-13 1.9027024791545986e-15
3.395632727569191 4.140428803995311e-21 3.731946979213112e-13 3.7126931323227093e-13 1.9253846890402435e-15
3.421196662673239 4.549601473147124e-21 4.1316243530808106e-13 4.1114315753446877e-13 2.0192777736122883e-15
3.4276182099114902 4.4748767249908434e-21 4.0713922935336526e-13 4.0509899830731683e-13 2.040231046048473e-15
3.4340518103208963 4.136656896374016e-21 3.770732960970271e-13 3.750132471754959e-13 2.0600489215311915e-15
3.4469541582030403 3.651747824215774e-21 3.341224981797701e-13 3.3202441194251107e-13 2.098086237259053e-15
3.472904465399547 3.517248297290351e-21 3.2423903469127535e-13 3.22053326699732e-13 2.185707991543262e-15
3.4990501388274233 3.313352787230109e-21 3.0774235881387923e-13 3.0546698845288216e-13 2.275370360997108e-15
3.5253949054701885 2.5891281384525006e-21 2.4228735577542543e-13 2.399248819019992e-13 2.3624738734261933e-15
3.5519380250092896 1.9003815034058302e-21 1.7917425497155964e-13 1.7672423713291424e-13 2.4500178386454646e-15
3.578680990867387 1.6312971882937855e-21 1.5496210497525564e-13 1.524161374093016e-13 2.54596756595404e-15
3.605625307711299 1.527329184574208e-21 1.4617822257262173e-13 1.435312054966443e-13 2.647017075977435e-15
3.660119384959845 1.4609137060267785e-21 1.419349169448969e-13 1.3907562304031734e-13 2.859293904579555e-15
3.715437065384467 1.415975902252156e-21 1.3964815580078712e-13 1.3656511435189013e-13 3.0830414488969873e-15
3.8285932144167436 1.4117208698269462e-21 1.4346880911186409e-13 1.3990501302419434e-13 3.5637960876697435e-15
3.94519561050918 1.4286896546295486e-21 1.4961525401104575e-13 1.4552743440037582e-13 4.0878196106699515e-15
4.06534921144712 1.4528966246679537e-21 1.5678409558107996e-13 1.5212967593811485e-13 4.654419642965146e-15
4.189162171576248 1.4802260101722277e-21 1.6459803168523052e-13 1.5933349359956805e-13 5.264538085662394e-15
4.316745939156006 1.5089818134601342e-21 1.7290594578541419e-13 1.6699018512419176e-13 5.915760661222469e-15
4.448215356677963 1.5384508429809577e-21 1.8165144722118293e-13 1.7505256421080904e-13 6.598883010373873e-15
4.58368876423945 1.5685447419610304e-21 1.90845298427604e-13 1.835307484015247e-13 7.314550026079248e-15
4.723288106065518 1.5996092612046478e-21 2.0055236140605565e-13 1.9248532684142667e-13 8.067034564628863e-15
4.867139040275056 1.6322124256219008e-21 2.1087246061425716e-13 2.0203635198726462e-13 8.836108626992496e-15
4.940699165968905 1.6502741948048676e-21 2.1642825242731116e-13 2.0719910945129646e-13 9.229142976014736e-15
5.015371051989984 1.6678924632047403e-21 2.2204476992898487e-13 2.124181809625902e-13 9.626588966394664e-15
5.091171501069577 1.6887401558834632e-21 2.282180500778349e-13 2.181810045529248e-13 1.0037045524910095e-14
5.129500256944802 1.6989800919808468e-21 2.313304373698671e-13 2.2108693876862184e-13 1.024349860124531e-14
5.168117569889187 1.709423301986822e-21 2.345046386152459e-13 2.2405185925624317e-13 1.0452779359002792e-14
5.20702561229733 1.722559964689627e-21 2.380858012841342e-13 2.274044302490564e-13 1.0681371035077763e-14
5.246226572918644 1.73567679617901e-21 2.417048324686153e-13 2.3079346254439956e-13 1.0911369924215766e-14
5.265937586045735 1.7422294514988205e-21 2.4352889120759525e-13 2.325020242900973e-13 1.1026866917497986e-14
5.285722656980489 1.74877921255936e-21 2.453628384969216e-13 2.3422015920343795e-13 1.1142679293483644e-14
5.305582063971359 1.755326822158003e-21 2.472068259777667e-13 2.359480313031845e-13 1.1258794674582171e-14
5.3255160863122235 1.7623976555669944e-21 2.491351699032684e-13 2.3775903181683075e-13 1.137613808643761e-14
5.365609099470188 1.7806134094388418e-21 2.5360516982377626e-13 2.419862414664758e-13 1.1618928357300473e-14
5.406003951863644 1.799074485126168e-21 2.5816355702621355e-13 2.463004126469806e-13 1.1863144379232874e-14
5.446702915881641 1.817803062411942e-21 2.62814880744722e-13 2.5070619338613784e-13 1.2108687358584192e-14
5.487708281020852 1.837827439060963e-21 2.6771036192301606e-13 2.553538361748519e-13 1.2356525748164148e-14
5.529022354014368 1.86713377841959e-21 2.740269107615841e-13 2.6141202805717513e-13 1.2614882704408982e-14
5.570647458961463 1.8974952378353217e-21 2.805794131061197e-13 2.677046998507625e-13 1.2874713255357077e-14
5.612585937458331 1.9290035542781624e-21 2.8738590538580084e-13 2.742499885438688e-13 1.313591684193199e-14
5.654840148729818 1.963278604721152e-21 2.946942754646695e-13 2.8129456679790204e-13 1.3399708666767343e-14
5.67608639626678 1.9876737236038294e-21 2.9947703647982413e-13 2.859392529503529e-13 1.3537783529471275e-14
5.686739436050992 2.000148957126524e-21 3.019222384296373e-13 2.8831526338499613e-13 1.3606975044641031e-14
5.6974124697621304 2.012815571074602e-21 3.0440450699583905e-13 2.907282398240993e-13 1.3676267171739702e-14
5.718818669136295 2.038742455109367e-21 3.0948394639932123e-13 2.95668799511981e-13 1.3815146887340347e-14
5.740305295436557 2.0673971471504403e-21 3.150128982854568e-13 3.010574272474614e-13 1.3955471037995401e-14
5.7835210386641895 2.143267184239935e-21 3.290319469550222e-13 3.1478644387540095e-13 1.4245503079621357e-14
5.827062130521658 2.2294455647397535e-21 3.44838664639945e-13 3.3029875533835983e-13 1.4539909301585264e-14
5.8489554468988025 2.2916302262565524e-21 3.5578881271791667e-13 3.4108970486170785e-13 1.4699107856208908e-14
5.870931020387893 2.3575700861679484e-21 3.674015829635784e-13 3.5254261466179394e-13 1.485896830178445e-14
5.892989160043636 2.427561648000568e-21 3.7973037915507943e-13 3.647109006053553e-13 1.5019478549724088e-14
5.915130176081913 2.50709112196097e-21 3.93644201695048e-13 3.784582706253512e-13 1.5185931069696763e-14
5.95966208400165 2.7325572337367277e-21 4.3227521535555356e-13 4.1670860707453373e-13 1.556660828101989e-14
6.004529249263818 3.057389093552079e-21 4.873030277261344e-13 4.713072617045447e-13 1.599576602158949e-14
6.027089341400364 3.2840016777992597e-21 5.253883428579834e-13 5.09143910687675e-13 1.6244432170308408e-14
6.049734195844842 3.549867473090429e-21 5.700564535232647e-13 5.535484674657781e-13 1.650798605748649e-14
6.095279466722835 4.318736207694589e-21 6.987466415182578e-13 6.815884310190164e-13 1.7158210499241324e-14
6.141167624020661 5.494547527794153e-21 8.956788498453639e-13 8.77673750347392e-13 1.800509949797197e-14
6.164241091010745 6.244600091015081e-21 1.0217712539309837e-12 1.003233180950136e-12 1.8538072980847403e-14
6.187401249150058 7.089642451234858e-21 1.1643995981026694e-12 1.1453144774599776e-12 1.908512064269156e-14
6.1990139391386085 7.500409058167206e-21 1.2341757124234753e-12 1.214812282536567e-12 1.9363429886908083e-14
6.204828454712694 7.715993702264071e-21 1.2708405872693436e-12 1.2513366112557797e-12 1.950397601356404e-14
6.210648424152782 7.872004574498937e-21 1.2977520273397524e-12 1.2781286311620163e-12 1.9623396177735972e-14
6.233982942956859 8.395426543431251e-21 1.3892416936050106e-12 1.369203319607243e-12 2.003837399776804e-14
6.239830258556775 8.45853488634581e-21 1.4009974785911303e-12 1.3809025561554506e-12 2.0094922435680175e-14
6.245683058788269 8.457903025521508e-21 1.4022068241326768e-12 1.3820552720242593e-12 2.0151552108417003e-14
6.257405133728602 8.429498655964736e-21 1.4001206242179567e-12 1.3798705570876286e-12 2.0250067130328274e-14
6.269149208991335 8.308969189333979e-21 1.3826911655234353e-12 1.3624078257997534e-12 2.0283339723682e-14
6.280915325867298 8.02747509752148e-21 1.3383550398356034e-12 1.318119070236581e-12 2.023596959902227e-14
6.304513850009849 7.34195882935521e-21 1.2286635683902596e-12 1.2085952581646675e-12 2.0068310225592195e-14
6.32820103803542 6.5049247144867185e-21 1.0926774368724737e-12 1.0728543660842325e-12 1.9823070788241435e-14
6.3519772230701035 5.740675432121366e-21 9.679242228956804e-13 9.483216657413348e-13 1.9602557154345754e-14
6.375842739491607 5.09620138894384e-21 8.624890926910203e-13 8.430816688045096e-13 1.9407423886510693e-14
6.399797922933955 4.5832312077126814e-21 7.78587560260722e-13 7.592833400863891e-13 1.9304220174332966e-14
6.42384311029221 4.154971198490256e-21 7.084878002415566e-13 6.892684505619487e-13 1.921934967960784e-14
6.447978639727206 3.843043317834977e-21 6.577612774837374e-13 6.385551675416884e-13 1.920610994204871e-14
6.472204850670314 3.58188696341114e-21 6.153660948097516e-13 5.961590343491349e-13 1.9207060460616716e-14
6.496522083828205 3.4106607984170655e-21 5.881510567535488e-13 5.68885058134248e-13 1.9265998619300514e-14
6.520930681187647 3.2653824408755493e-21 5.652142071831857e-13 5.458805465505237e-13 1.9333660632662033e-14
6.57002334288761 3.109703789406126e-21 5.423196848197765e-13 5.227706095992986e-13 1.954907522047768e-14
