Dust emission spectrum from A.P. Jones, M. Kohler, N. Ysard, M. Bocchio, and L. Verstraete (2017), A&A, 602A, 46J 
inside the DustPedia framework.

lambda    nu*dP/dnu     j_nu    j_nu(carb.) j_nu(sil)
 (um)   (erg s-1 H-1) (Jy cm2 sr-1 H-1)
0.9927057738263894 1.9178887919140705e-21 5.05374590060223e-14 5.053745818220614e-14 8.238161579168471e-22
1.0001793341362166 1.950158465041083e-21 5.177465484796534e-14 5.177465385649397e-14 9.914713724353203e-22
1.0077091589558085 1.9825499024801532e-21 5.303087177822574e-14 5.303087058656529e-14 1.191660444667807e-21
1.0114953028030835 1.9987896848014398e-21 5.3666145388989893e-14 5.3666144083204523e-14 1.3057853662606287e-21
1.0152956718711033 2.0150580148761936e-21 5.4306213436169e-14 5.430621200580571e-14 1.4303632677459311e-21
1.0229392996569957 2.047662065574063e-21 5.560035719039861e-14 5.560035547578288e-14 1.7146157543664124e-21
1.0267826658714554 2.063960682546849e-21 5.625347831465057e-14 5.625347643824982e-14 1.876400747173137e-21
1.0306404723013447 2.0802846786549e-21 5.691141665847673e-14 5.691141460570952e-14 2.052767189419437e-21
1.03451277320114 2.096633502795135e-21 5.7574186675666e-14 5.757418443070328e-14 2.2449627243729072e-21
1.0383996230291617 2.1130066187062683e-21 5.824180316579083e-14 5.824180071145521e-14 2.454335621676331e-21
1.0403485208654093 2.121202122646438e-21 5.857743356178651e-14 5.857743099587222e-14 2.5659142859402816e-21
1.0423010764483396 2.129403505350003e-21 5.8914281291155e-14 5.891427860881263e-14 2.6823423603199607e-21
1.0462171883269815 2.1458236572893903e-21 5.959163659397535e-14 5.959163366341963e-14 2.930555739365713e-21
1.0471985131304309 2.1499322727616785e-21 5.976173933759177e-14 5.97617363416293e-14 2.9959624553718273e-21
1.048180758391296 2.1540423041543347e-21 5.99321481520372e-14 5.993214508927184e-14 3.0627653470333025e-21
1.0501480137395462 2.1622665850641546e-21 6.027388501379347e-14 6.027388181311991e-14 3.20067354979158e-21
1.0521189612883777 2.170496441393718e-21 6.061684923666259e-14 6.061684589214895e-14 3.344513621952577e-21
1.0531058218030118 2.174607961528118e-21 6.078863905006231e-14 6.078863563132388e-14 3.418738428393471e-21
1.0540936079674168 2.178702898152042e-21 6.096023379427894e-14 6.096023029972431e-14 3.494554616533752e-21
1.058054026499678 2.1950955000367166e-21 6.164966155825033e-14 6.164965774403113e-14 3.814219203987666e-21
1.0590464539527713 2.1991968304464228e-21 6.182278201684459e-14 6.182277811844271e-14 3.898401888630652e-21
1.06003981227728 2.2032994195077003e-21 6.199620841720746e-14 6.19962044328474e-14 3.984360044635064e-21
1.0620293250338977 2.2115083474901467e-21 6.234398012758078e-14 6.234397596583503e-14 4.16174573144782e-21
1.0660195594769086 2.22794102414673e-21 6.304320688391962e-14 6.304320234448597e-14 4.539433646231752e-21
1.070024785945596 2.2443931316314078e-21 6.374735970099642e-14 6.374735475123569e-14 4.9497607496961695e-21
1.0740450607676866 2.2608642899103376e-21 6.445645696336175e-14 6.445645156796568e-14 5.395396076034578e-21
1.07808044048254 2.277354137637131e-21 6.517051758532609e-14 6.517051170611245e-14 5.879213625834749e-21
1.0861967418109137 2.3103631765151126e-21 6.66128757112954e-14 6.661286873728958e-14 6.974005822606388e-21
1.0902777775684922 2.326824045799935e-21 6.733953862475989e-14 6.733953103286792e-14 7.591891956026976e-21
1.0943741465085532 2.3433013535250046e-21 6.807119913477564e-14 6.807119087296171e-14 8.261813926948237e-21
1.1026131145906286 2.376304273001251e-21 6.954959986077183e-14 6.954959008614394e-14 9.774627883970585e-21
1.1109141095355224 2.4093701224642467e-21 7.10482583560527e-14 7.104824680666701e-14 1.1549385709706478e-20
1.1192775983109025 2.4424713734486735e-21 7.256659193936035e-14 7.256657831068597e-14 1.3628674373099168e-20
1.1277040513999907 2.475487126120487e-21 7.41012008208858e-14 7.410118475936056e-14 1.6061525247125405e-20
1.1361939428280308 2.50855858742132e-21 7.565648344214208e-14 7.565646453783102e-14 1.890431103436978e-20
1.1447477501889525 2.5416854087463696e-21 7.723266616414049e-14 7.723264394238288e-14 2.2221757644579345e-20
1.1533659546722406 2.574879634098627e-21 7.883035692187896e-14 7.883033083376053e-14 2.6088118421884768e-20
1.1707974979042381 2.6415706742630682e-21 8.209438490747447e-14 8.20943490872749e-14 3.582019957851361e-20
1.1884924949847024 2.7085350773046097e-21 8.544769286546941e-14 8.544764392902858e-14 4.8936440825160035e-20
1.2064549276569216 2.7762267344381752e-21 8.890689982651755e-14 8.890683330115748e-14 6.652536006556972e-20
1.2246888378427687 2.8441963332212377e-21 9.246018643739563e-14 9.24600964444064e-14 8.999298925994282e-20
1.2431983285522175 2.912384218627577e-21 9.610777427038859e-14 9.610765312130958e-14 1.2114907903535908e-19
1.2619875648066055 2.980884683375258e-21 9.985496967245744e-14 9.985480736129684e-14 1.6231116066039834e-19
1.3004222497298317 3.1183746810441076e-21 1.076420896678237e-13 1.0764180242704911e-13 2.8724077458544733e-19
1.3400274889804893 3.2570378059835347e-21 1.1585264144424986e-13 1.1585214243587636e-13 4.990083734635476e-19
1.3808389325824078 3.397336259810944e-21 1.245234059216978e-13 1.2452255451411872e-13 8.514075791010232e-19
1.4228933163050095 3.540410846860554e-21 1.337197127749276e-13 1.3371828536004428e-13 1.4274148832774654e-18
1.466228494730424 3.6887408067873456e-21 1.435652159468537e-13 1.435628632651438e-13 2.3526817099235147e-18
1.5108834753276823 3.841925364892028e-21 1.540810850583884e-13 1.5407727117225814e-13 3.813886130242303e-18
1.5568984535646726 3.99971934186746e-21 1.6529481795146463e-13 1.652887306911529e-13 6.087260311730993e-18
1.6043148490894465 4.162948502104316e-21 1.7728013539845802e-13 1.7727055162077668e-13 9.583777681273527e-18
1.6531753430134553 4.332462063376088e-21 1.9011794914776232e-13 1.901030830237111e-13 1.4866124051260883e-17
1.7035239163302658 4.509250058362268e-21 2.0390223575447096e-13 2.0387951062628648e-13 2.2725128184390204e-17
1.755405889504358 4.696500946681945e-21 2.188373254626583e-13 2.1880307401660407e-13 3.42514460542318e-17
1.8088679632656115 4.893892451319897e-21 2.3497990351547026e-13 2.349289858854055e-13 5.0917630064717747e-17
1.8639582606462262 5.1009548536928614e-21 2.523812551571885e-13 2.5230656805819564e-13 7.468709899278727e-17
1.9207263702978936 5.317872814829837e-21 2.7112706847176646e-13 2.7101893173613717e-13 1.0813673562933283e-16
1.979223391128241 5.54506914261323e-21 2.9132061212794403e-13 2.9116600936061903e-13 1.5460276732497184e-16
2.039501978296691 5.782748205691272e-21 3.1306019144370755e-13 3.1284185279540025e-13 2.1833864830719064e-16
2.1016163906111602 6.03280244768143e-21 3.365441020358189e-13 3.3623938923998223e-13 3.0471279583668236e-16
2.1656225393682647 6.2956377186954154e-21 3.619027844619497e-13 3.6148240177986525e-13 4.203826820845791e-16
2.231578038680979 6.569578891295021e-21 3.891518004612018e-13 3.885783102536443e-13 5.734902075576621e-16
2.299542257339062 6.853798344729406e-21 4.183522895240847e-13 4.17578425209871e-13 7.738643142135958e-16
2.369576372248914 7.148061574561057e-21 4.496022010763689e-13 4.4856896590476687e-13 1.0332351716021371e-15
2.4417434235010123 7.4522634174143e-21 4.830117072996057e-13 4.816463158499105e-13 1.3653914496951664e-15
2.5161083711144245 7.767614045278285e-21 5.187838096520456e-13 5.169974200279397e-13 1.7863896241059464e-15
2.5927381535095444 8.097109279316265e-21 5.572602843851008e-13 5.549456125977738e-13 2.3146717873270465e-15
2.6717017477616296 8.443196008757781e-21 5.987758544304467e-13 5.958048349878226e-13 2.9710194426242606e-15
2.753070231689431 8.810270184770467e-21 6.43837029092533e-13 6.400584625444324e-13 3.778566548100524e-15
2.836916847834745 9.212736053741803e-21 6.937526711177935e-13 6.889897768226516e-13 4.7628942951417745e-15
2.9233170693905177 9.68425811206277e-21 7.514701108927222e-13 7.455194282524577e-13 5.950682640264656e-15
2.967498994190263 9.980156078165037e-21 7.861353882482816e-13 7.795185181765984e-13 6.616870071683009e-15
3.0123486681368425 1.029777724520832e-20 8.234138443579487e-13 8.160658241727108e-13 7.348020185237948e-15
3.0578761833420214 1.084372427316019e-20 8.801725002941436e-13 8.720207542076933e-13 8.151746086450344e-15
3.1040917844459814 1.1489899316054153e-20 9.467170757602026e-13 9.376916093351146e-13 9.025466425087871e-15
3.127460860933648 1.210671047313113e-20 1.005049548878825e-12 9.955566312283468e-13 9.492917650478163e-15
3.1510058709225794 1.2896580530357892e-20 1.0786814735604568e-12 1.0687015667531716e-12 9.979906807285096e-15
3.162844764501044 1.3618565284420195e-20 1.1433486069661613e-12 1.1331167830781734e-12 1.0231823887987861e-14
3.1747281389236908 1.4437858093363813e-20 1.2166866513501454e-12 1.2061978591506888e-12 1.048879219945688e-14
3.1986289994194426 1.6665862119399395e-20 1.4150151440055639e-12 1.403995675506167e-12 1.1019468499397359e-14
3.2227097969389145 2.1851426947374012e-20 1.8692631090209125e-12 1.8576815839576353e-12 1.1581525063276789e-14
3.2348180950136065 2.672684239058019e-20 2.2949168224127744e-12 2.2830354192974287e-12 1.1881403115345443e-14
3.240889293275058 3.037118562451322e-20 2.6127350732699283e-12 2.6006954919618007e-12 1.2039581308127998e-14
3.2469718861334385 3.4595222413384693e-20 2.9817009822914705e-12 2.9694977332764543e-12 1.220324901501606e-14
3.2714166318528037 5.678815724263407e-20 4.9313186504350005e-12 4.918439260579665e-12 1.2879389855334297e-14
3.2744851364798273 5.817462704575174e-20 5.056454040853338e-12 5.04349502847843e-12 1.2959012374906377e-14
3.2775565192852394 5.959839343872443e-20 5.185064646353182e-12 5.172025618953156e-12 1.3039027400027601e-14
3.283707930232385 5.822683883000049e-20 5.07524681678789e-12 5.06206481531532e-12 1.3182001472569629e-14
3.2898708863219004 5.387327557444359e-20 4.704588787521184e-12 4.691276780746719e-12 1.3312006774463486e-14
3.29141343181113 5.284442898832588e-20 4.616906501903128e-12 4.603561852932295e-12 1.3344648970831522e-14
3.292184975758714 5.2338565463093056e-20 4.5737821649397e-12 4.560421173717156e-12 1.3360991222543263e-14
3.295272960557952 4.918267700345912e-20 4.302025609993835e-12 4.288601071104856e-12 1.342453888897949e-14
3.3076538914384823 3.816990414947203e-20 3.3512788189434275e-12 3.3375990971084247e-12 1.3679721835002364e-14
3.310756385682612 3.5905992093967844e-20 3.1554666126286263e-12 3.141722581224134e-12 1.374403140449242e-14
3.313861789986515 3.380836443951525e-20 2.9739111267301174e-12 2.9601025799164414e-12 1.3808546813675536e-14
3.3200813396944477 3.087687169524341e-20 2.721143531071864e-12 2.7071961675905905e-12 1.3947363481274015e-14
3.345076488085796 2.5741333086743087e-20 2.2856331174737562e-12 2.2710669994091004e-12 1.4566118064656478e-14
3.3482140837626964 2.5946346462284106e-20 2.3059976737449803e-12 2.2913477303967588e-12 1.464994334822215e-14
3.3513546224236106 2.6153258350905744e-20 2.326567311781805e-12 2.311833171472588e-12 1.4734140309217426e-14
3.3576445397418455 2.761906947114397e-20 2.4615756812982792e-12 2.446665485961678e-12 1.4910195336601583e-14
3.3702598118196083 3.294136360901098e-20 2.9469609943998495e-12 2.9316815273060636e-12 1.5279467093785657e-14
3.382922481734668 3.42032131105361e-20 3.0713434636030697e-12 3.0557052194151885e-12 1.5638244187880816e-14
3.389271646505754 3.48539963088805e-20 3.1356558587391797e-12 3.1198357927758894e-12 1.582006596329035e-14
3.395632727569191 3.55694305686007e-20 3.206026120645505e-12 3.1900186763109914e-12 1.6007444334513566e-14
3.421196662673239 3.904149325327333e-20 3.5454706364486015e-12 3.5286876961228133e-12 1.678294032578861e-14
3.4276182099114902 3.8404872534835523e-20 3.494203565413113e-12 3.477247722735908e-12 1.6955842677205393e-14
3.4340518103208963 3.5531118129439985e-20 3.2388076078595336e-12 3.2216883087481988e-12 1.7119299111335487e-14
3.4469541582030403 3.1407283450157624e-20 2.873659549495429e-12 2.856226677245126e-12 1.743287225030285e-14
3.472904465399547 3.0251163419851943e-20 2.7887164045533144e-12 2.7705609595686092e-12 1.8155444984705216e-14
3.4990501388274233 2.850792802477842e-20 2.6478004542871894e-12 2.6289059593610108e-12 1.8894494926177772e-14
3.5253949054701885 2.2357783407267227e-20 2.0922132598598066e-12 2.072601369467006e-12 1.9611890392799992e-14
3.5519380250092896 1.6505192054428024e-20 1.556164109266806e-12 1.53583164973458e-12 2.0332459532225396e-14
3.578680990867387 1.4213286472899886e-20 1.35016525882728e-12 1.3290431053505499e-12 2.1122153476730648e-14
3.605625307711299 1.3322500177421108e-20 1.2750750891346135e-12 1.2531215431803202e-12 2.1953545954292976e-14
3.660119384959845 1.2740641195579314e-20 1.2378156508897418e-12 1.2141168223700773e-12 2.3698828519664443e-14
3.715437065384467 1.233904752112367e-20 1.2169170590562368e-12 1.1913804446205468e-12 2.5536614435690028e-14
3.8285932144167436 1.2258991842978785e-20 1.2458432812145225e-12 1.2163642282718696e-12 2.947905294265302e-14
3.94519561050918 1.2354179372264443e-20 1.293754510568385e-12 1.2599876814991836e-12 3.3766829069201725e-14
4.06534921144712 1.2506205953967265e-20 1.3495620791958223e-12 1.3111700809338841e-12 3.839199826193786e-14
4.189162171576248 1.2680440072411706e-20 1.4100383741930336e-12 1.3666783801170904e-12 4.3359994075943234e-14
4.316745939156006 1.2862746196292523e-20 1.473871505030206e-12 1.4252229749392472e-12 4.864853009095877e-14
4.448215356677963 1.304737301876799e-20 1.5405589344027909e-12 1.4863791155448065e-12 5.417981885798491e-14
4.58368876423945 1.3233818571113733e-20 1.6101625838121707e-12 1.5502058488913315e-12 5.995673492083924e-14
4.723288106065518 1.342522474802906e-20 1.6831988854556794e-12 1.6171872931913111e-12 6.601159226436822e-14
4.867139040275056 1.3626593562663473e-20 1.7604775391011995e-12 1.6883009307816347e-12 7.217660831956462e-14
4.940699165968905 1.374096395039308e-20 1.8020840559782858e-12 1.7267657947357611e-12 7.531826124252412e-14
5.015371051989984 1.3850921948520327e-20 1.843958675521631e-12 1.7654698224524698e-12 7.84888530691607e-14
5.091171501069577 1.398717478253392e-20 1.8902409253706637e-12 1.8084830434406576e-12 8.175788193000568e-14
5.129500256944802 1.4053491604001837e-20 1.913501149702789e-12 1.8301016391470073e-12 8.339951055578212e-14
5.168117569889187 1.4121328814569438e-20 1.937213039379285e-12 1.852150713854062e-12 8.506232552522311e-14
5.20702561229733 1.4211431001689138e-20 1.9642508863492564e-12 1.8773696158133688e-12 8.688127053588813e-14
5.246226572918644 1.4301154829096867e-20 1.9915333544149554e-12 1.902823799925995e-12 8.870955448896024e-14
5.265937586045735 1.4345890492164486e-20 2.005269054507638e-12 1.915642113651418e-12 8.962694085622044e-14
5.285722656980489 1.439055075189079e-20 2.019069276818775e-12 1.9285229258811792e-12 9.054635093759575e-14
5.305582063971359 1.4435142452719e-20 2.0329352364629725e-12 1.9414675571958316e-12 9.146767926714069e-14
5.3255160863122235 1.448403784076764e-20 2.047485263582073e-12 1.9550867898667456e-12 9.239847371532707e-14
5.365609099470188 1.4615531979558716e-20 2.0816278536894455e-12 1.9873033662749924e-12 9.432448741445342e-14
5.406003951863644 1.474878303027677e-20 2.1164205931346323e-12 2.020160813513425e-12 9.625977962120741e-14
5.446702915881641 1.4883976131009765e-20 2.1519000010311143e-12 2.053696494787707e-12 9.820350624340695e-14
5.487708281020852 1.502964324354542e-20 2.189319381562401e-12 2.089155879700491e-12 1.0016350186190976e-13
5.529022354014368 1.5251941014158948e-20 2.2384267948735364e-12 2.1362202509561506e-12 1.0220654391738539e-13
5.570647458961463 1.5482525099255623e-20 2.2893748132436264e-12 2.1851158013486302e-12 1.0425901189499656e-13
5.612585937458331 1.572214145649661e-20 2.3423087256931883e-12 2.2359886798482987e-12 1.0632004584488872e-13
5.654840148729818 1.5984168051212994e-20 2.3992737512803297e-12 2.2908742992725734e-12 1.0839945200775626e-13
5.67608639626678 1.6174961797588336e-20 2.4370345931491553e-12 2.3275463607380916e-12 1.0948823241106338e-13
5.686739436050992 1.627258179504504e-20 2.456344215306649e-12 2.346310603777639e-12 1.1003361152900959e-13
5.6974124697621304 1.6371734614322228e-20 2.475949548263287e-12 2.3653699164635458e-12 1.1057963179974154e-13
5.718818669136295 1.657479675413186e-20 2.5160772501596886e-12 2.4044037090521778e-12 1.1167354110751126e-13
5.740305295436557 1.6800178585845292e-20 2.5598724247708777e-12 2.447094028558267e-12 1.1277839621261089e-13
5.7835210386641895 1.740332758824967e-20 2.671739110254019e-12 2.5566775722177043e-12 1.1506153803631406e-13
5.827062130521658 1.8090225632854977e-20 2.7980989304832887e-12 2.6807219260270043e-12 1.1737700445628382e-13
5.8489554468988025 1.859043460096646e-20 2.8862722173954488e-12 2.7676419404502996e-12 1.1863027694514954e-13
5.870931020387893 1.9121053278872383e-20 2.979807592489185e-12 2.8599195197821866e-12 1.1988807270699888e-13
5.892989160043636 1.968448567598052e-20 3.0791379553097408e-12 2.957987669936901e-12 1.211502853728409e-13
5.915130176081913 2.0325815965682342e-20 3.1914035870197017e-12 3.0689439839813348e-12 1.2245960303836703e-13
5.95966208400165 2.215221855629765e-20 3.504356625655021e-12 3.378895872320799e-12 1.254607533342217e-13
6.004529249263818 2.479075168462311e-20 3.95128260940067e-12 3.8224347661272555e-12 1.2884784327341449e-13
6.027089341400364 2.6634867684367507e-20 4.261157687443449e-12 4.130343927822541e-12 1.3081375962090824e-13
6.049734195844842 2.879914833478269e-20 4.624719229285563e-12 4.491821149231983e-12 1.3289808005358008e-13
6.095279466722835 3.5064733914291835e-20 5.67327196662053e-12 5.5352202927477486e-12 1.380516738727818e-13
6.141167624020661 4.465043663076546e-20 7.27857053273916e-12 7.133792633979604e-12 1.4477789875955615e-13
6.164241091010745 5.076412126238553e-20 8.30626766822159e-12 8.157250098699717e-12 1.4901756952187343e-13
6.187401249150058 5.764954430850416e-20 9.468334501401012e-12 9.31496677938657e-12 1.5336772201444214e-13
6.1990139391386085 6.099418893145291e-20 1.003645881102953e-11 9.880878237109793e-12 1.5558057391973825e-13
6.204828454712694 6.274938936399453e-20 1.033495799857022e-11 1.0178260091833774e-11 1.5669790673645016e-13
6.210648424152782 6.401737096595849e-20 1.055368707802379e-11 1.0396041266533933e-11 1.5764581148985702e-13
6.233982942956859 6.826468823202192e-20 1.1296168289039929e-11 1.113523484982249e-11 1.6093343921743624e-13
6.239830258556775 6.877255639187897e-20 1.1390882628718833e-11 1.1229505947558302e-11 1.6137668116052827e-13
6.245683058788269 6.875964705257439e-20 1.1399426788311894e-11 1.1237606284931641e-11 1.6182050338025042e-13
6.257405133728602 6.851217685184387e-20 1.1379717315982686e-11 1.1217127557201149e-11 1.625897587815366e-13
6.269149208991335 6.751254481341428e-20 1.1234726853403523e-11 1.1071891087117082e-11 1.6283576628643947e-13
6.280915325867298 6.519920445365937e-20 1.0870128254993746e-11 1.0707693044257894e-11 1.6243521073585602e-13
6.304513850009849 5.957538466823004e-20 9.969833176130507e-12 9.808783415543793e-12 1.610497605867156e-13
6.32820103803542 5.271976789116181e-20 8.855706004334884e-12 8.696663352646766e-12 1.5904265168811807e-13
6.3519772230701035 4.646296156991946e-20 7.83403042076833e-12 7.67679643943191e-12 1.572339813364184e-13
6.375842739491607 4.118761286730327e-20 6.970656012358161e-12 6.815026824960219e-12 1.556291873979415e-13
6.399797922933955 3.6987493110411604e-20 6.283340446044751e-12 6.128579990217732e-12 1.547604558270219e-13
6.42384311029221 3.3480807373965216e-20 5.709003127461154e-12 5.554964449564859e-12 1.5403867789629608e-13
6.447978639727206 3.0923808269304093e-20 5.292806234445119e-12 5.138916265403832e-12 1.5388996904128743e-13
6.472204850670314 2.8782132019571905e-20 4.944753522963054e-12 4.790898868704156e-12 1.5385465425889825e-13
6.496522083828205 2.737356510249013e-20 4.7204316681429495e-12 4.5661488270493044e-12 1.5428284109364313e-13
