Dust emission spectrum from A.P. Jones, M. Kohler, N. Ysard, M. Bocchio, and L. Verstraete (2017), A&A, 602A, 46J 
inside the DustPedia framework.

lambda    nu*dP/dnu     j_nu    j_nu(carb.) j_nu(sil)
 (um)   (erg s-1 H-1) (Jy cm2 sr-1 H-1)
0.9927057738263894 1.4388600885101099e-22 3.791478058845619e-15 3.791477339774134e-15 7.190714846962247e-22
1.0001793341362166 1.463055273556282e-22 3.884257775445763e-15 3.884256910110449e-15 8.653353149386779e-22
1.0077091589558085 1.487347115281616e-22 3.978478123629623e-15 3.9784770836668255e-15 1.0399627958146243e-21
1.0114953028030835 1.49952819317293e-22 4.0261313454647964e-15 4.026130205957608e-15 1.1395071878029083e-21
1.0152956718711033 1.511732148293201e-22 4.074148143500122e-15 4.0741468953372e-15 1.248162922224341e-21
1.0229392996569957 1.536195176022091e-22 4.171244949886298e-15 4.171243453822571e-15 1.4960637269348067e-21
1.0267826658714554 1.5484264922346282e-22 4.220253653052518e-15 4.22025201590571e-15 1.637146809279531e-21
1.0306404723013447 1.5606785023149106e-22 4.269628355509597e-15 4.2696265645731716e-15 1.790936425801274e-21
1.03451277320114 1.5729508438033563e-22 4.3193703330624335e-15 4.319368374543585e-15 1.958518848994337e-21
1.0383996230291617 1.5852431666021235e-22 4.369480893329391e-15 4.369478752261521e-15 2.1410678707884845e-21
1.0403485208654093 1.5913967150499548e-22 4.394674809677339e-15 4.3946725713301295e-15 2.238347208965177e-21
1.0423010764483396 1.5975551333103178e-22 4.419961377235673e-15 4.419959037384284e-15 2.3398513894386813e-21
1.0462171883269815 1.60988641955926e-22 4.470813160534255e-15 4.4708106042958025e-15 2.556238454124387e-21
1.0471985131304309 1.6129722230557757e-22 4.483584286551177e-15 4.483581673294732e-15 2.6132564452517982e-21
1.048180758391296 1.616059209792302e-22 4.496378729282234e-15 4.496376057791587e-15 2.6714906454687893e-21
1.0501480137395462 1.6222367143477376e-22 4.522037655354534e-15 4.5220348636477375e-15 2.791706796140187e-21
1.0521189612883777 1.6284188964940725e-22 4.547790121209794e-15 4.547787204119869e-15 2.9170899244548756e-21
1.0531058218030118 1.6315076372142872e-22 4.560690047154366e-15 4.560687065365343e-15 2.981789023720141e-21
1.0540936079674168 1.634584124109591e-22 4.57357588529648e-15 4.573572837422199e-15 3.0478742803796125e-21
1.058054026499678 1.6469010039655974e-22 4.625351813291199e-15 4.625348486792004e-15 3.326499195657851e-21
1.0590464539527713 1.649982936294919e-22 4.638354056802058e-15 4.638350656930709e-15 3.3998713501439736e-21
1.06003981227728 1.653065945490657e-22 4.651379652563318e-15 4.651376177773528e-15 3.4747897900041816e-21
1.0620293250338977 1.6592351787876085e-22 4.677500997485089e-15 4.6774973680951696e-15 3.629389917766042e-21
1.0660195594769086 1.6715863984495724e-22 4.730024987181264e-15 4.730021028634052e-15 3.958547211746342e-21
1.070024785945596 1.6839544280072683e-22 4.7829253765464875e-15 4.782921060419633e-15 4.316126853914002e-21
1.0740450607676866 1.6963390480306143e-22 4.836203806332471e-15 4.8361991018816606e-15 4.7044508097297634e-21
1.07808044048254 1.7087400549355643e-22 4.889861965626052e-15 4.8898568396068995e-15 5.126019152278062e-21
1.0861967418109137 1.733571523309075e-22 4.998269778217835e-15 4.998263698360273e-15 6.0798575625480776e-21
1.0902777775684922 1.7459585225163242e-22 5.052897814789294e-15 5.052891196650691e-15 6.618138602757045e-21
1.0943741465085532 1.7583605150755815e-22 5.107909343046404e-15 5.107902141333814e-15 7.201712589215778e-21
1.1026131145906286 1.7832090350656755e-22 5.219090680685127e-15 5.21908216128361e-15 8.519401518196472e-21
1.1109141095355224 1.8081163743736958e-22 5.331830012606043e-15 5.3318199475672326e-15 1.0065038811132854e-20
1.1192775983109025 1.8330626317516785e-22 5.446086674489711e-15 5.446074798845853e-15 1.1875643857868372e-20
1.1277040513999907 1.857958119262504e-22 5.561609521598664e-15 5.561595527768202e-15 1.3993830461906593e-20
1.1361939428280308 1.8829092309002473e-22 5.678730876168109e-15 5.6787144075834464e-15 1.6468584660743398e-20
1.1447477501889525 1.907916538259774e-22 5.797471259086254e-15 5.79745190294511e-15 1.9356141143451913e-20
1.1533659546722406 1.932989841648384e-22 5.917879699135939e-15 5.917856978135194e-15 2.2721000744005264e-20
1.1707974979042381 1.9834125734286931e-22 6.164023428175143e-15 6.1639922393117494e-15 3.118886339349524e-20
1.1884924949847024 2.0341146255479082e-22 6.4171368217960775e-15 6.417094223862736e-15 4.2597933342450825e-20
1.2064549276569216 2.0854440333420533e-22 6.678502208274142e-15 6.678444315299398e-15 5.789297474385966e-20
1.2246888378427687 2.1370769723256887e-22 6.947288869770447e-15 6.947210575891025e-15 7.829387942166161e-20
1.2431983285522175 2.188980746948601e-22 7.223568448296999e-15 7.2234630780835e-15 1.053702135017129e-19
1.2619875648066055 2.241241550934774e-22 7.507808280722741e-15 7.507667149547773e-15 1.4113117496630316e-19
1.3004222497298317 2.3465689436689505e-22 8.100039619407451e-15 8.099790005224867e-15 2.4961418258339568e-19
1.3400274889804893 2.453505984082726e-22 8.727106223116846e-15 8.726672838701767e-15 4.3338441507773476e-19
1.3808389325824078 2.5626227114375903e-22 9.392844385037786e-15 9.392105393728527e-15 7.389913092629727e-19
1.4228933163050095 2.6750669970675633e-22 1.0103606783906447e-14 1.0102368606840581e-14 1.238177065866049e-18
1.466228494730424 2.793078970634595e-22 1.0870619720364876e-14 1.0868580233196881e-14 2.039487167995436e-18
1.5108834753276823 2.9168658516788617e-22 1.1698141236772041e-14 1.1694837195357314e-14 3.3040414147300546e-18
1.5568984535646726 3.046894549567458e-22 1.2591780493601243e-14 1.2586510440588457e-14 5.270053012786974e-18
1.6043148490894465 3.1846147630066195e-22 1.3561756435189135e-14 1.355346476343255e-14 8.291671756582335e-18
1.6531753430134553 3.331707927579548e-22 1.4620266007757536e-14 1.4607412821382314e-14 1.2853186375220196e-17
1.7035239163302658 3.490219729433407e-22 1.5782305192546992e-14 1.5762670582031404e-14 1.9634610515582484e-17
1.755405889504358 3.664152900795414e-22 1.7073421894289517e-14 1.704384906069907e-14 2.957283359044413e-17
1.8088679632656115 3.8552336075183243e-22 1.8510877182843065e-14 1.84669457465961e-14 4.393143624696494e-17
1.8639582606462262 4.065469620892498e-22 2.011482859883488e-14 2.005043524139088e-14 6.439335744400045e-17
1.9207263702978936 4.29780375906664e-22 2.1911974479968126e-14 2.18188096638485e-14 9.316481611962462e-17
1.979223391128241 4.555853479792294e-22 2.3935031112575767e-14 2.3801932363187382e-14 1.3309874938838254e-16
2.039501978296691 4.843579188941332e-22 2.622164711702969e-14 2.6033819244448337e-14 1.8782787258135683e-16
2.1016163906111602 5.166777922286897e-22 2.8823231845472154e-14 2.8561300583866576e-14 2.619312616055788e-16
2.1656225393682647 5.530700785439995e-22 3.179306217593782e-14 3.1431982540328656e-14 3.610796356091661e-16
2.231578038680979 5.939526610628681e-22 3.518303855786019e-14 3.469084055651866e-14 4.921980013415279e-16
2.299542257339062 6.398606908527505e-22 3.9056764078937766e-14 3.8393130680356066e-14 6.636333985817028e-16
2.369576372248914 6.914215430250603e-22 4.348936342714364e-14 4.2604032077381704e-14 8.853313497619262e-16
2.4417434235010123 7.493090735785431e-22 4.856578929812368e-14 4.739682700596773e-14 1.1689622921559357e-15
2.5161083711144245 8.143343992485547e-22 5.438780808499088e-14 5.2859716751816365e-14 1.5280913331745207e-15
2.5927381535095444 8.874557476667388e-22 6.107659230773273e-14 5.909832411009169e-14 1.9782681976410405e-15
2.6717017477616296 9.695841090653666e-22 6.876111282334363e-14 6.622413644021129e-14 2.536976383132331e-15
2.753070231689431 1.0617419933878857e-21 7.758999398988917e-14 7.436636233169376e-14 3.2236316581954207e-15
2.836916847834745 1.1656708325463716e-21 8.777927089256995e-14 8.371962072120711e-14 4.0596501713628286e-15
2.9233170693905177 1.284373612155792e-21 9.966363655179534e-14 9.459636585086342e-14 5.067270700931888e-15
2.967498994190263 1.3510249669149489e-21 1.0642003277107884e-13 1.0078835159422665e-13 5.6316811768522066e-15
3.0123486681368425 1.4220452975478242e-21 1.1370723578720306e-13 1.0745642283506559e-13 6.2508129521374925e-15
3.0578761833420214 1.5129360669086489e-21 1.228032627214793e-13 1.1587217932574665e-13 6.931083395732655e-15
3.1040917844459814 1.6137544212961564e-21 1.3296625363722154e-13 1.2529613971943463e-13 7.670113917786947e-15
3.127460860933648 1.6865964464543947e-21 1.400143334898151e-13 1.3194901982376434e-13 8.065313666050748e-15
3.1510058709225794 1.7726578376197352e-21 1.4826667921012743e-13 1.3978978656877788e-13 8.476892641349548e-15
3.162844764501044 1.83979363359571e-21 1.5446013909286954e-13 1.4577039190744526e-13 8.689747185424261e-15
3.1747281389236908 1.914083114432495e-21 1.6130089102171968e-13 1.5239405862950998e-13 8.906832392209693e-15
3.1986289994194426 2.105789885550501e-21 1.7879210549085514e-13 1.694370749583004e-13 9.355030532554702e-15
3.2227097969389145 2.512810844637222e-21 2.149564247287068e-13 2.0512683449518438e-13 9.829590233522417e-15
3.2348180950136065 2.882118806953291e-21 2.4747491071375154e-13 2.373921605250711e-13 1.0082750188680452e-14
3.240889293275058 3.1543978916990452e-21 2.713626694915341e-13 2.6114638361252813e-13 1.021628587900589e-14
3.2469718861334385 3.468723383273714e-21 2.989631283654674e-13 2.8860867275577096e-13 1.0354455609696463e-14
3.2714166318528037 5.107134908348734e-21 4.434887632684095e-13 4.3256361970526653e-13 1.0925143563143006e-14
3.2744851364798273 5.21143517289441e-21 4.5297037173788775e-13 4.4197805715107564e-13 1.0992314586812098e-14
3.2775565192852394 5.318424047701886e-21 4.627032863294552e-13 4.5164347263172846e-13 1.1059813697726775e-14
3.283707930232385 5.227096179916138e-21 4.55611257303822e-13 4.4443090134780025e-13 1.1180355956021642e-14
3.2898708863219004 4.9199023288783e-21 4.29640059664764e-13 4.183501579374284e-13 1.1289901727335528e-14
3.29141343181113 4.8473951404979645e-21 4.2350670770617553e-13 4.121893024149947e-13 1.1317405291180834e-14
3.292184975758714 4.8117584831708216e-21 4.2049175283268067e-13 4.091605781739251e-13 1.1331174658755514e-14
3.295272960557952 4.587654068377513e-21 4.0128367332596343e-13 3.898989675991053e-13 1.1384705726858127e-14
3.3076538914384823 3.8070734276762e-21 3.3425718048364763e-13 3.2265754562531206e-13 1.159963485833554e-14
3.310756385682612 3.647136800168494e-21 3.2051526036386233e-13 3.088614667974761e-13 1.165379356638628e-14
3.313861789986515 3.499169117489749e-21 3.0780010051744395e-13 2.9609197745430024e-13 1.1708123063143657e-14
3.3200813396944477 3.2951230023611477e-21 2.9039543676772235e-13 2.7857038458349875e-13 1.1825052184223588e-14
3.345076488085796 2.9588600619831843e-21 2.6272409920844895e-13 2.503777734413999e-13 1.2346325767049003e-14
3.3482140837626964 2.978378423109369e-21 2.6470523413406367e-13 2.5228828575327546e-13 1.2416948380788191e-14
3.3513546224236106 2.998047202384179e-21 2.6670323546910384e-13 2.542153546994522e-13 1.2487880769651608e-14
3.3576445397418455 3.1138173915785857e-21 2.7752191923488476e-13 2.6488570819410283e-13 1.2636211040781966e-14
3.3702598118196083 3.518558284504092e-21 3.147730659856348e-13 3.0182574064698824e-13 1.2947325338646636e-14
3.382922481734668 3.629131894285729e-21 3.258848952595728e-13 3.126354114013704e-13 1.3249483858202238e-14
3.389271646505754 3.685923384105608e-21 3.3160579784905963e-13 3.1820320756669446e-13 1.3402590282365148e-14
3.395632727569191 3.74779823118253e-21 3.3780521172264865e-13 3.2424483603416634e-13 1.3560375688482381e-14
3.421196662673239 4.04131929162633e-21 3.670038640177547e-13 3.5279059053455513e-13 1.4213273483199662e-14
3.4276182099114902 4.003843188367601e-21 3.64283025063007e-13 3.4992430820406617e-13 1.4358716858940928e-14
3.4340518103208963 3.80307407483044e-21 3.4666584940957293e-13 3.3216969571506535e-13 1.4496153694507593e-14
3.4469541582030403 3.5193378368297365e-21 3.220074349555246e-13 3.0724774699744393e-13 1.4759687958080734e-14
3.472904465399547 3.471354985707128e-21 3.2000834018557516e-13 3.046411970398259e-13 1.5367143145749106e-14
3.4990501388274233 3.3812208394962413e-21 3.140459056541007e-13 2.9805772946704844e-13 1.5988176187052205e-14
3.5253949054701885 2.9703799483226804e-21 2.7796442077895644e-13 2.6137385018921805e-13 1.6590570589738324e-14
3.5519380250092896 2.580859887341354e-21 2.4333200816342555e-13 2.2613673384696414e-13 1.719527431646141e-14
3.578680990867387 2.4531576603834112e-21 2.330332434930458e-13 2.151753009669266e-13 1.7857942526119185e-14
3.605625307711299 2.4287094251424733e-21 2.324478773131511e-13 2.1389248773834538e-13 1.8555389574805684e-14
3.660119384959845 2.4691028616716912e-21 2.398854279715787e-13 2.198669043962688e-13 2.0018523575309875e-14
3.715437065384467 2.524698699904375e-21 2.4899400959685654e-13 2.274362060311761e-13 2.155780356568037e-14
3.8285932144167436 2.694769969343236e-21 2.7386110568690633e-13 2.490061201553447e-13 2.485498553156159e-14
3.94519561050918 2.8849361377488268e-21 3.021163145237833e-13 2.7368266643330437e-13 2.843364809047895e-14
4.06534921144712 3.0854608509893352e-21 3.32956371953682e-13 3.00670933799229e-13 3.228543815445302e-14
4.189162171576248 3.2926392226587898e-21 3.6613458443158e-13 3.297213911397056e-13 3.6413193291874344e-14
4.316745939156006 3.503966834801578e-21 4.015003323219953e-13 3.6070389623769863e-13 4.0796436084296684e-14
4.448215356677963 3.7171212710347524e-21 4.388963491818655e-13 3.9352791317227054e-13 4.536843600959499e-14
4.58368876423945 3.930689406899172e-21 4.782481320539413e-13 4.281182722807101e-13 5.012985977323128e-14
4.723288106065518 4.143631379275539e-21 5.195112819515138e-13 4.644054985969185e-13 5.5105783354595274e-14
4.867139040275056 4.3538544106187995e-21 5.624929563770522e-13 5.023383658655171e-13 6.015459051153512e-14
4.940699165968905 4.45843378087105e-21 5.847095196631288e-13 5.219888549477218e-13 6.272066471540688e-14
5.015371051989984 4.5612176776055336e-21 6.072301135493621e-13 5.419244964626906e-13 6.530561708667135e-14
5.091171501069577 4.664988605476641e-21 6.304312711864393e-13 5.624644456243465e-13 6.796682556209278e-14
5.129500256944802 4.716034904731814e-21 6.421278402922388e-13 5.728266014302465e-13 6.930123886199237e-14
5.168117569889187 4.7668118899516224e-21 6.539278470702513e-13 5.832759338158486e-13 7.065191325440273e-14
5.20702561229733 4.819773077598697e-21 6.661710237730646e-13 5.940394735640997e-13 7.21315502089651e-14
5.246226572918644 4.87217532119994e-21 6.784836453197005e-13 6.048662504201001e-13 7.361739489960032e-14
5.265937586045735 4.898159722005051e-21 6.846649303462316e-13 6.103025073356102e-13 7.436242301062161e-14
5.285722656980489 4.9239959243568425e-21 6.908622930045599e-13 6.157535578633262e-13 7.510873514123357e-14
5.305582063971359 4.9496811905054344e-21 6.970753031634366e-13 6.212190625430316e-13 7.585624062040485e-14
5.3255160863122235 4.975623236149492e-21 7.033615463554119e-13 6.267503217784359e-13 7.661122457697604e-14
5.365609099470188 5.030204884762797e-21 7.164306172728921e-13 6.382570161839353e-13 7.817360108895652e-14
5.406003951863644 5.084292261853512e-21 7.295856764868213e-13 6.498436849144627e-13 7.974199157235865e-14
5.446702915881641 5.137873201648452e-21 7.428249851120233e-13 6.615093160006433e-13 8.131566911137994e-14
5.487708281020852 5.1916888409865375e-21 7.562564738517252e-13 6.733553631770006e-13 8.290111067472447e-14
5.529022354014368 5.251631813023566e-21 7.707473662643508e-13 6.861936858363134e-13 8.45536804280371e-14
5.570647458961463 5.311461240256454e-21 7.853967945802015e-13 6.991845715824263e-13 8.621222299777509e-14
5.612585937458331 5.3712048767124086e-21 8.002103329893791e-13 7.123343351311343e-13 8.787599785824474e-14
5.654840148729818 5.432010337666284e-21 8.153617866184214e-13 7.258086935036504e-13 8.955309311477106e-14
5.67608639626678 5.467325544995303e-21 8.237460868159954e-13 7.333145555048464e-13 9.043153131114898e-14
5.686739436050992 5.485068447242206e-21 8.279704057193292e-13 7.37099024582485e-13 9.087138113684395e-14
5.6974124697621304 5.502871239502535e-21 8.322167369899909e-13 7.409051011914287e-13 9.131163579856222e-14
5.718818669136295 5.538665982125786e-21 8.407772161903637e-13 7.48583903746166e-13 9.21933124441974e-14
5.740305295436557 5.5761077017770375e-21 8.49641226752076e-13 7.565577294344743e-13 9.308349731760178e-14
5.7835210386641895 5.663198082598051e-21 8.694077457122976e-13 7.744850109105753e-13 9.492273480172247e-14
5.827062130521658 5.755916353908648e-21 8.902942241125208e-13 7.935077531979434e-13 9.678647091457728e-14
5.8489554468988025 5.8153481770299435e-21 9.028663524073941e-13 8.050701730208129e-13 9.779617938658094e-14
5.870931020387893 5.876715988117567e-21 9.158220870418498e-13 8.170130603073076e-13 9.88090267345421e-14
5.892989160043636 5.9401833651356544e-21 9.291908542679075e-13 8.293659347452596e-13 9.982491952264817e-14
5.915130176081913 6.009759334643302e-21 9.436062753932304e-13 8.427272445995332e-13 1.0087903079369731e-13
5.95966208400165 6.193812297032628e-21 9.798263368523523e-13 8.765259397359176e-13 1.0330039711643458e-13
6.004529249263818 6.442756683650418e-21 1.0268810225911006e-12 9.20844968759708e-13 1.0603605383139225e-13
6.027089341400364 6.609907138381969e-21 1.0574806283920347e-12 9.498542035187957e-13 1.0762642487323904e-13
6.049734195844842 6.801649055810343e-21 1.0922447015999732e-12 9.82931567811461e-13 1.093131337885122e-13
6.095279466722835 7.341163731237954e-21 1.1877580049688732e-12 1.0742658305205067e-12 1.134921744483661e-13
6.141167624020661 8.142524891636247e-21 1.3273317398540895e-12 1.2083747562483583e-12 1.1895698360573143e-13
6.164241091010745 8.649868939203731e-21 1.415332816118284e-12 1.292926246304998e-12 1.224065698132858e-13
6.187401249150058 9.211123899638527e-21 1.5128307302640998e-12 1.38688575221775e-12 1.2594497804634904e-13
6.1990139391386085 9.483314087583794e-21 1.5604583469263883e-12 1.432713633889663e-12 1.277447130367251e-13
6.204828454712694 9.625278613241693e-21 1.585303876271165e-12 1.4566505394271141e-12 1.286533368440509e-13
6.210648424152782 9.728464325626097e-21 1.6038016977762395e-12 1.47437861505646e-12 1.2942308271977952e-13
6.233982942956859 1.0072674383099783e-20 1.666785975282941e-12 1.5346978411721248e-12 1.3208813411081602e-13
6.239830258556775 1.0113277108343264e-20 1.6750744566832835e-12 1.542630564358401e-12 1.324438923248823e-13
6.245683058788269 1.0113105729839953e-20 1.6766172211678301e-12 1.5438171459582226e-12 1.3280007520960806e-13
6.257405133728602 1.009484226106141e-20 1.676730423100294e-12 1.543315125291756e-12 1.3341529780853818e-13
6.269149208991335 1.0016117569789803e-20 1.6667768240578262e-12 1.5331752127854993e-12 1.3360161127232705e-13
6.280915325867298 9.832721275437724e-21 1.6393289190450371e-12 1.506070843077672e-12 1.3325807596736587e-13
6.304513850009849 9.38607201569297e-21 1.570742223432228e-12 1.438649844598569e-12 1.320923788336595e-13
6.32820103803542 8.846356861547523e-21 1.4859840759736902e-12 1.3555665624071256e-12 1.3041751356656437e-13
6.3519772230701035 8.356599202601622e-21 1.4089900892097384e-12 1.2800846564276425e-12 1.2890543278209585e-13
6.375842739491607 7.94103286241214e-21 1.343952820112325e-12 1.2163920878284961e-12 1.2756073228382878e-13
6.399797922933955 7.61915281933501e-21 1.2943221356315063e-12 1.1675036116706047e-12 1.2681852396090155e-13
6.42384311029221 7.34921245134176e-21 1.2531560664129093e-12 1.1269593259508733e-12 1.2619674046203585e-13
6.447978639727206 7.158200770029035e-21 1.2251715355714217e-12 1.0991278362321617e-12 1.2604369933926005e-13
6.472204850670314 6.998560851444361e-21 1.2023486794626114e-12 1.0763653475764595e-12 1.2598333188615186e-13
6.496522083828205 6.899333450505144e-21 1.189754859730704e-12 1.0634530726615098e-12 1.2630178706919448e-13
