Dust emission spectrum from A.P. Jones, M. Kohler, N. Ysard, M. Bocchio, and L. Verstraete (2017), A&A, 602A, 46J 
inside the DustPedia framework.

lambda    nu*dP/dnu     j_nu    j_nu(carb.) j_nu(sil)
 (um)   (erg s-1 H-1) (Jy cm2 sr-1 H-1)
0.9927057738263894 5.679784223144326e-25 1.496655403328877e-17 1.4966554026935196e-17 6.3535752309312335e-27
1.0001793341362166 5.773253826811165e-25 1.53273813175252e-17 1.532738130987224e-17 7.65296385310364e-27
1.0077091589558085 5.866588485285459e-25 1.5692432324129262e-17 1.5692432314923058e-17 9.206200700113577e-27
1.0114953028030835 5.913193841987688e-25 1.587652382090992e-17 1.5876523810817508e-17 1.0092411840402032e-26
1.0152956718711033 5.959751858918375e-25 1.6061649544959205e-17 1.6061649533898864e-17 1.1060344529441218e-26
1.0229392996569957 6.052662039303206e-25 1.643484913823798e-17 1.6434849124967133e-17 1.3270843168707736e-26
1.0267826658714554 6.098901235581152e-25 1.6622623255381333e-17 1.6622623240851282e-17 1.4530048040567468e-26
1.0306404723013447 6.145072866421465e-25 1.681139153145818e-17 1.6811391515554618e-17 1.5903561989265308e-26
1.03451277320114 6.191172533047663e-25 1.7001146012583373e-17 1.7001145995182115e-17 1.7401252971108194e-26
1.0383996230291617 6.2371958623416705e-25 1.7191878648416415e-17 1.7191878629382622e-17 1.9033793471480878e-26
1.0403485208654093 6.260177541116033e-25 1.728760923274047e-17 1.728760921283627e-17 1.9904202461246096e-26
1.0423010764483396 6.283138507697102e-25 1.738358129418557e-17 1.7383581273372846e-17 2.0812721936481423e-26
1.0462171883269815 6.328996149854137e-25 1.757624571271623e-17 1.7576245689965717e-17 2.275050855046893e-26
1.0471985131304309 6.340446775150439e-25 1.7624561120415263e-17 1.762456109715392e-17 2.3261332503744516e-26
1.048180758391296 6.351891752643436e-25 1.7672935987883653e-17 1.7672935964100507e-17 2.3783142594515365e-26
1.0501480137395462 6.374764497715905e-25 1.7769863576462807e-17 1.776986355160218e-17 2.486062564012856e-26
1.0521189612883777 6.397613853215818e-25 1.7867027423723915e-17 1.7867027397739104e-17 2.598481067033706e-26
1.0531058218030118 6.409012006363646e-25 1.791564844858671e-17 1.791564842202166e-17 2.6565052877432664e-26
1.0540936079674168 6.4203464910145315e-25 1.796416681983094e-17 1.7964166792673116e-17 2.715782613412088e-26
1.058054026499678 6.465620282613843e-25 1.815881369082279e-17 1.8158813661164638e-17 2.965815266828576e-26
1.0590464539527713 6.4769223676323735e-25 1.82076180781362e-17 1.8207618047819333e-17 3.0316867779261637e-26
1.06003981227728 6.488217777481615e-25 1.8256479261400494e-17 1.825647923041091e-17 3.0989584219448777e-26
1.0620293250338977 6.510788312644216e-25 1.8354371469546748e-17 1.8354371437168587e-17 3.2378159206205e-26
1.0660195594769086 6.555846438759332e-25 1.8550831411536168e-17 1.8550831376200022e-17 3.533615302334337e-26
1.070024785945596 6.600790551384085e-25 1.8748184694548604e-17 1.874818465599673e-17 3.855187814994937e-26
1.0740450607676866 6.645616574407647e-25 1.8946422420617644e-17 1.8946422378571022e-17 4.2046620613889406e-26
1.07808044048254 6.690320465857955e-25 1.9145535618103146e-17 1.914553557225983e-17 4.584332079432259e-26
1.0861967418109137 6.7792666652781745e-25 1.954612384660075e-17 1.9546123792157383e-17 5.44433621467347e-26
1.0902777775684922 6.823320984254217e-25 1.9747057702868028e-17 1.9747057643566032e-17 5.930199394086029e-26
1.0943741465085532 6.867234224921082e-25 1.9948815705097128e-17 1.9948815640523716e-17 6.457341346920731e-26
1.1026131145906286 6.9546221541024395e-25 2.0354766580030007e-17 2.035476650354017e-17 7.64898340732634e-26
1.1109141095355224 7.041400205954199e-25 2.076390075383366e-17 2.07639006633445e-17 9.048916589048429e-26
1.1192775983109025 7.127458018040823e-25 2.1175901719159266e-17 2.1175901612245348e-17 1.069139175724523e-25
1.1277040513999907 7.212395740036454e-25 2.1589576430951314e-17 2.158957630479216e-17 1.2615915516829637e-25
1.1361939428280308 7.29662523307331e-25 2.200614364350944e-17 2.2006143494829536e-17 1.4867990084950554e-25
1.1447477501889525 7.380119080380759e-25 2.2425524072539882e-17 2.24255238975403e-17 1.7499958117903872e-25
1.1533659546722406 7.462896020476385e-25 2.2847777005738254e-17 2.2847776800018473e-17 2.0571979136264588e-25
1.1707974979042381 7.626569117708097e-25 2.3701750885285412e-17 2.370175060205983e-17 2.832255829409569e-25
1.1884924949847024 7.7870308909324495e-25 2.456618817595204e-17 2.4566187787948877e-17 3.8800315956375063e-25
1.2064549276569216 7.945542561998666e-25 2.544509595935088e-17 2.544509543040114e-17 5.289497401181645e-25
1.2246888378427687 8.100379567170969e-25 2.6333013521118255e-17 2.633301280351484e-17 7.1760340713909365e-25
1.2431983285522175 8.251185752462654e-25 2.7228656599932398e-17 2.7228655631056796e-17 9.688756038275328e-25
1.2619875648066055 8.397913195994955e-25 2.8131694331378473e-17 2.813169302943963e-17 1.3019388471720626e-24
1.3004222497298317 8.676726891741774e-25 2.995089139805886e-17 2.995088907991268e-17 2.3181461827473236e-24
1.3400274889804893 8.935798362525608e-25 3.178458173896394e-17 3.178457768634411e-17 4.052619834347087e-24
1.3808389325824078 9.174244231719447e-25 3.3626584215563306e-17 3.3626577256093955e-17 6.959469361976735e-24
1.4228933163050095 9.393296021305738e-25 3.547805326301855e-17 3.54780415174393e-17 1.1745579251474134e-23
1.466228494730424 9.598258140715557e-25 3.7356270740139196e-17 3.735625124857144e-17 1.949156774876624e-23
1.5108834753276823 9.785295418910903e-25 3.9244097491858536e-17 3.924406567304941e-17 3.1818809111180533e-23
1.5568984535646726 9.951329990796875e-25 4.112546752932214e-17 4.1125416380285113e-17 5.11490370348982e-23
1.6043148490894465 1.0096766330873198e-24 4.299731551612981e-17 4.2997234400750584e-17 8.111537921234059e-23
1.6531753430134553 1.0222149560892436e-24 4.485703699120577e-17 4.4856910230744994e-17 1.2676046077386571e-22
1.7035239163302658 1.0329015726386833e-24 4.6706422852901e-17 4.670622760597408e-17 1.9524692692752542e-22
1.755405889504358 1.0425670972016516e-24 4.8579271623093226e-17 4.857897505629552e-17 2.9656679769469624e-22
1.8088679632656115 1.0510236702793126e-24 5.0464827964925945e-17 5.046438358573053e-17 4.443791954107639e-22
1.8639582606462262 1.0581483237184702e-24 5.23542767466772e-17 5.235361961672196e-17 6.571299552303312e-22
1.9207263702978936 1.0640546691254481e-24 5.4249891484647996e-17 5.424893212752461e-17 9.593571233683508e-22
1.979223391128241 1.0689885772276828e-24 5.616132074576549e-17 5.615993746692578e-17 1.3832788397272125e-21
2.039501978296691 1.07324090268934e-24 5.810195957182922e-17 5.809998898225617e-17 1.970589573077669e-21
2.1016163906111602 1.0776017983696933e-24 6.011476966627547e-17 6.011199493616633e-17 2.77473010913948e-21
2.1656225393682647 1.0825361683528785e-24 6.222925636973598e-17 6.222539327878321e-17 3.8630909527753646e-21
2.231578038680979 1.0880899705631123e-24 6.44534723023842e-17 6.444815273864874e-17 5.319563735437421e-21
2.299542257339062 1.0945474081768964e-24 6.681060503561342e-17 6.680335768699767e-17 7.247348615747238e-21
2.369576372248914 1.1025166572232748e-24 6.934662084823802e-17 6.933684876021962e-17 9.772088018398965e-21
2.4417434235010123 1.1127133348160526e-24 7.211950752151737e-17 7.210646281900593e-17 1.3044702511444136e-20
2.5161083711144245 1.126352708468813e-24 7.522690310115889e-17 7.520965811921863e-17 1.7244981940263845e-20
2.5927381535095444 1.1454121825654839e-24 7.882970287002217e-17 7.880711825277272e-17 2.2584617249466967e-20
2.6717017477616296 1.1722400447433773e-24 8.313309718982474e-17 8.310378833300591e-17 2.930885681882162e-20
2.753070231689431 1.210359637383357e-24 8.845067594107146e-17 8.84129768559556e-17 3.769908511586582e-20
2.836916847834745 1.2677413023024457e-24 9.546555004161425e-17 9.541747361072878e-17 4.807643088546168e-20
2.9233170693905177 1.361911575556254e-24 1.0568035577599304e-16 1.0561956269817488e-16 6.079307781816777e-20
2.967498994190263 1.4400743530824663e-24 1.134344394817346e-16 1.1336640023765932e-16 6.803924407528679e-20
3.0123486681368425 1.5309687474418805e-24 1.2241679266363764e-16 1.2234074479518972e-16 7.604786844790172e-20
3.0578761833420214 1.7307016258322663e-24 1.4047904012483575e-16 1.4039413056729945e-16 8.490955753631724e-20
3.1040917844459814 1.987194257747164e-24 1.6373605067480599e-16 1.6364142428547883e-16 9.462638932712085e-20
3.127460860933648 2.2567726835517113e-24 1.873480308758959e-16 1.8724817264503725e-16 9.985823085860676e-20
3.1510058709225794 2.61536226315964e-24 2.187512273721414e-16 2.1864589416139433e-16 1.053332107471395e-19
3.162844764501044 2.948526338931957e-24 2.4754395281840556e-16 2.4743577797369165e-16 1.081748447139572e-19
3.1747281389236908 3.3357232751733714e-24 2.81103329542135e-16 2.8099224943995416e-16 1.1108010218083606e-19
3.1986289994194426 4.4148428597598205e-24 3.748422649970964e-16 3.7472516470352774e-16 1.171002935687324e-19
3.2227097969389145 6.956346219845896e-24 5.950751588741289e-16 5.949516565357102e-16 1.2350233841870305e-19
3.2348180950136065 9.36559918329035e-24 8.041829559814969e-16 8.040560311538849e-16 1.2692482761195893e-19
3.240889293275058 1.1166672236659501e-23 9.606327709801895e-16 9.605040406808933e-16 1.287302992963246e-19
3.2469718861334385 1.3250296728472407e-23 1.1420196204795622e-15 1.1418890218609385e-15 1.3059861862370384e-19
3.2714166318528037 2.436117124465329e-23 2.1154533610224145e-15 2.11531502276661e-15 1.3833825580395915e-19
3.2744851364798273 2.5055864537446003e-23 2.1778193332946276e-15 2.1776800777743476e-15 1.3925552027999979e-19
3.2775565192852394 2.5770483643058413e-23 2.242033986946763e-15 2.241893809081689e-15 1.4017786507332643e-19
3.283707930232385 2.5083894609158876e-23 2.1863964938825344e-15 2.1862546562177507e-15 1.4183766478407424e-19
3.2898708863219004 2.29054587318778e-23 2.000263826061861e-15 2.0001204683127344e-15 1.4335774912647905e-19
3.29141343181113 2.239171048148723e-23 1.9563166011983795e-15 1.9561728614855224e-15 1.437397128568554e-19
3.292184975758714 2.2139269977963756e-23 1.9347148182997095e-15 1.9345708873129516e-15 1.439309867582401e-19
3.295272960557952 2.054608471454984e-23 1.7971730701214095e-15 1.797028393315024e-15 1.4467680638501317e-19
3.3076538914384823 1.5026057169601804e-23 1.319272559017314e-15 1.3191248815542139e-15 1.4767746309989577e-19
3.310756385682612 1.3902384992938497e-23 1.2217601888375767e-15 1.2216117539711414e-15 1.4843486643496088e-19
3.313861789986515 1.286554107979734e-23 1.1317014710091461e-15 1.1315522758317858e-15 1.491951773602668e-19
3.3200813396944477 1.1411696807922231e-23 1.0056998407715874e-15 1.00554901458103e-15 1.5082619055721274e-19
3.345076488085796 8.820019020960442e-24 7.83150099613054e-16 7.829920153305362e-16 1.5808428251771719e-19
3.3482140837626964 8.91759787398431e-24 7.925570554872919e-16 7.923979883176148e-16 1.5906716967692188e-19
3.3513546224236106 9.016251159017717e-24 8.020765496953446e-16 8.019164946463613e-16 1.6005504898336157e-19
3.3576445397418455 9.735675889212996e-24 8.677013190081269e-16 8.675392001573097e-16 1.6211885081697954e-19
3.3702598118196083 1.2387703407138382e-23 1.1082139520491745e-15 1.108047502908969e-15 1.6644914020557006e-19
3.382922481734668 1.2992918717568985e-23 1.1667241860396668e-15 1.166553508927274e-15 1.7067711239301809e-19
3.389271646505754 1.3306427533592937e-23 1.1971188923310933e-15 1.1969460683600151e-15 1.7282397107766461e-19
3.395632727569191 1.3644367393218332e-23 1.2298256554311404e-15 1.2296506187666289e-15 1.7503666451137684e-19
3.421196662673239 1.526713850241562e-23 1.3864528928685418e-15 1.3862686746267753e-15 1.8421824176609275e-19
3.4276182099114902 1.4941630251192764e-23 1.3594394213766865e-15 1.3592531333588421e-15 1.862880178439651e-19
3.4340518103208963 1.351270458927524e-23 1.2317386204134318e-15 1.2315503646800938e-15 1.8825573333805621e-19
3.4469541582030403 1.1477547799219475e-23 1.0501565628991627e-15 1.0499645097449808e-15 1.9205315418174855e-19
3.472904465399547 1.0908860273816052e-23 1.0056379378985115e-15 1.0054371648406702e-15 2.007730578414125e-19
3.4990501388274233 1.0038283115376331e-23 9.323501367779061e-16 9.321403913797401e-16 2.0974539816611266e-19
3.5253949054701885 6.935418073797068e-24 6.49007703149727e-16 6.487891640294931e-16 2.1853912023402486e-19
3.5519380250092896 4.018257886363332e-24 3.788546467024802e-16 3.7862720559685015e-16 2.27441105630064e-19
3.578680990867387 2.8629753004236368e-24 2.719631237210916e-16 2.717259131229273e-16 2.3721059816429316e-19
3.605625307711299 2.3971808316515914e-24 2.2943032628141545e-16 2.2918278561225797e-16 2.4754066915745713e-19
3.660119384959845 2.0605583205597306e-24 2.0019332619184884e-16 1.9992390309592842e-16 2.694230959204035e-19
3.715437065384467 1.823562929377957e-24 1.798457160671112e-16 1.7955295878445844e-16 2.927572826527557e-19
3.8285932144167436 1.7111177574092128e-24 1.7389558527654028e-16 1.7355173250545642e-16 3.4385277108390555e-19
3.94519561050918 1.698466355750967e-24 1.7786681272693e-16 1.7746578199522237e-16 4.0103073170760967e-19
4.06534921144712 1.727222776407068e-24 1.8638701217157367e-16 1.8592238420594759e-16 4.646279656260769e-19
4.189162171576248 1.780309027247775e-24 1.9796663459679094e-16 1.9743144734702259e-16 5.351872497684407e-19
4.316745939156006 1.8513857825033185e-24 2.1214013772861318e-16 2.115271810317456e-16 6.12956696867557e-19
4.448215356677963 1.938360248751358e-24 2.288704549957821e-16 2.2817298278633183e-16 6.974722094503023e-19
4.58368876423945 2.0415571810499728e-24 2.483968605112189e-16 2.476074915938324e-16 7.893689173864698e-19
4.723288106065518 2.1630963215820803e-24 2.7120002725874335e-16 2.703102609936118e-16 8.897662651314884e-19
4.867139040275056 2.3071282287134804e-24 2.980677017919747e-16 2.9707060888250157e-16 9.97092909473114e-19
4.940699165968905 2.3927589166368385e-24 3.1380278043359353e-16 3.127489472648127e-16 1.053833168780863e-18
5.015371051989984 2.4813884024834256e-24 3.30344628978786e-16 3.2923204146343924e-16 1.1125875153467902e-18
5.091171501069577 2.587953045027875e-24 3.4973858800691324e-16 3.4856409226078887e-16 1.1744957461243046e-18
5.129500256944802 2.6426213236549147e-24 3.598151323193493e-16 3.58608900504965e-16 1.206231814384238e-18
5.168117569889187 2.6994929684737336e-24 3.70325841633584e-16 3.6908711903643793e-16 1.2387225971460729e-18
5.20702561229733 2.768373746771607e-24 3.826342741414161e-16 3.813604926104956e-16 1.2737815309205213e-18
5.246226572918644 2.838950560234005e-24 3.953432292571085e-16 3.9403373760456956e-16 1.3094916525388363e-18
5.265937586045735 2.8748914930200617e-24 4.0185242938868887e-16 4.0052483736009376e-16 1.3275920285950351e-18
5.285722656980489 2.911276534816895e-24 4.084672719701079e-16 4.071214154347443e-16 1.345856535363676e-18
5.305582063971359 2.948112688112513e-24 4.15189679239958e-16 4.138253936326455e-16 1.3642856073124299e-18
5.3255160863122235 2.9875352510955593e-24 4.2232245374511757e-16 4.20939467511645e-16 1.38298623347252e-18
5.365609099470188 3.084658687005473e-24 4.3933477419612723e-16 4.379130554830981e-16 1.4217187130290634e-18
5.406003951863644 3.185333313981682e-24 4.570889006821404e-16 4.556277239988641e-16 1.4611766832764016e-18
5.446702915881641 3.2897276317461038e-24 4.756232361457205e-16 4.741218709637728e-16 1.5013651819476327e-18
5.487708281020852 3.40219076060983e-24 4.955860928485064e-16 4.940436753058125e-16 1.5424175426938121e-18
5.529022354014368 3.5567658094449414e-24 5.220030606963797e-16 5.204177136721477e-16 1.5853470242321198e-18
5.570647458961463 3.720135330757586e-24 5.500901224764453e-16 5.484610291283572e-16 1.6290933480882148e-18
5.612585937458331 3.892925508079624e-24 5.799740074390836e-16 5.783003439254728e-16 1.6736635136106535e-18
5.654840148729818 4.082356888899502e-24 6.127745714079699e-16 6.110553419431762e-16 1.7192294647936367e-18
5.67608639626678 4.210558162996386e-24 6.343925894909188e-16 6.326495420394324e-16 1.74304745148633e-18
5.686739436050992 4.276586013675332e-24 6.455501313965676e-16 6.437950879162573e-16 1.755043480310177e-18
5.6974124697621304 4.343939386954882e-24 6.569477832486415e-16 6.551806855173313e-16 1.767097731310116e-18
5.718818669136295 4.482749533160309e-24 6.804876274417629e-16 6.786962459448179e-16 1.7913814969448535e-18
5.740305295436557 4.6355041328268644e-24 7.06319825345945e-16 7.045037811114683e-16 1.816044234476401e-18
5.7835210386641895 5.0304024223034876e-24 7.722616737421589e-16 7.703944565821068e-16 1.8672171600518513e-18
5.827062130521658 5.484240693105486e-24 8.482728921866734e-16 8.463531219218849e-16 1.9197702647886624e-18
5.8489554468988025 5.801821204751391e-24 9.007662119259532e-16 8.98818237975287e-16 1.94797395066652e-18
5.870931020387893 6.14222155527886e-24 9.571982337078677e-16 9.55221746003977e-16 1.9764877038907165e-18
5.892989160043636 6.5072707528356445e-24 1.0178972765837912e-15 1.0158919627965767e-15 2.005313787214224e-18
5.915130176081913 6.922012436741995e-24 1.0868412543590494e-15 1.084806093265143e-15 2.0351610939064574e-18
5.95966208400165 8.079949562893985e-24 1.2782026646101436e-15 1.27610066131907e-15 2.1020032910732806e-18
6.004529249263818 9.74619086848142e-24 1.5534000330621967e-15 1.5512233683652094e-15 2.1766646969875965e-18
6.027089341400364 1.0903501176114987e-23 1.7443877854861725e-15 1.7421685743742613e-15 2.219211111911229e-18
6.049734195844842 1.227001962046962e-23 1.9703845066127084e-15 1.9681203204278774e-15 2.2641861848309014e-18
6.095279466722835 1.6215176617525923e-23 2.6235221736707825e-15 2.6211495517730648e-15 2.3726218977181867e-18
6.141167624020661 2.2282043665711282e-23 3.6322472672687264e-15 3.629736509875056e-15 2.5107573936718488e-18
6.164241091010745 2.6156684521712862e-23 4.2798814900704525e-15 4.277285318316008e-15 2.5961717544441762e-18
6.187401249150058 3.056749529720555e-23 5.020391293903955e-15 5.0177070264038464e-15 2.6842675001081064e-18
6.1990139391386085 3.272150817655527e-23 5.384251759095242e-15 5.381522579773915e-15 2.729179321328027e-18
6.204828454712694 3.385588975049438e-23 5.576137108616311e-15 5.573385203941336e-15 2.751904674974475e-18
6.210648424152782 3.4684436982785326e-23 5.717958873825041e-15 5.715187289711668e-15 2.7715841133720884e-18
6.233982942956859 3.7499671735916753e-23 6.2052960862123175e-15 6.202454522827997e-15 2.841563384320488e-18
6.239830258556775 3.7859864530265117e-23 6.270775667347018e-15 6.267923376800136e-15 2.852290546883513e-18
6.245683058788269 3.7891831121132616e-23 6.281957125378483e-15 6.279094074733719e-15 2.8630506447661416e-18
6.257405133728602 3.781618823571674e-23 6.281183168665658e-15 6.278300681753603e-15 2.882486912054323e-18
6.269149208991335 3.7264828572623067e-23 6.201220401473333e-15 6.198327885107373e-15 2.8925163659616544e-18
6.280915325867298 3.587966095412218e-23 5.98192139896746e-15 5.9790305335283835e-15 2.890865439075382e-18
6.304513850009849 3.2462728785865185e-23 5.4325791136626676e-15 5.429702162237083e-15 2.876951425583395e-18
6.32820103803542 2.822728996514874e-23 4.7415341764502754e-15 4.738682428659712e-15 2.8517477905625593e-18
6.3519772230701035 2.4343348817205426e-23 4.104485136841279e-15 4.1016550073899304e-15 2.830129451350431e-18
6.375842739491607 2.107499828864709e-23 3.566765668223937e-15 3.563953523385194e-15 2.812144838742827e-18
6.399797922933955 1.8457722248918425e-23 3.1355505062829783e-15 3.1327427066071242e-15 2.8077996758544446e-18
6.42384311029221 1.628119440822185e-23 2.7761991745640926e-15 2.77339299604235e-15 2.806178521742301e-18
6.447978639727206 1.469677397915943e-23 2.515446230480601e-15 2.512630907249785e-15 2.815323230815984e-18
6.472204850670314 1.3376927632495184e-23 2.2981483787310565e-15 2.295321693920629e-15 2.8266848104273084e-18
6.496522083828205 1.252092878675035e-23 2.159170299456625e-15 2.156323409271356e-15 2.846890185268453e-18
6.520930681187647 1.1800229030635896e-23 2.042534746509674e-15 2.039666162044515e-15 2.8685844651591744e-18
