Dust emission spectrum from A.P. Jones, M. Kohler, N. Ysard, M. Bocchio, and L. Verstraete (2017), A&A, 602A, 46J 
inside the DustPedia framework.

lambda    nu*dP/dnu     j_nu    j_nu(carb.) j_nu(sil)
 (um)   (erg s-1 H-1) (Jy cm2 sr-1 H-1)
0.9927057738263894 7.795567018544124e-25 2.0541761873230897e-17 2.054176187318491e-17 4.599400934707118e-29
1.0001793341362166 7.924326396184547e-25 2.1038252604586824e-17 2.1038252604531412e-17 5.541108365607396e-29
1.0077091589558085 8.052901287676398e-25 2.1540561228508654e-17 2.1540561228441983e-17 6.667089095191853e-29
1.0114953028030835 8.11710371529232e-25 2.1793872133458684e-17 2.1793872133385588e-17 7.30965676183687e-29
1.0152956718711033 8.181241068577794e-25 2.2048607055625368e-17 2.2048607055545255e-17 8.011577221288012e-29
1.0229392996569957 8.309232550570188e-25 2.256213588936457e-17 2.2562135889268416e-17 9.614924391142259e-29
1.0267826658714554 8.372931421799981e-25 2.282051785914242e-17 2.2820517859037138e-17 1.0528461312505291e-28
1.0306404723013447 8.43653705416193e-25 2.30802678292348e-17 2.3080267829119544e-17 1.1525076110640053e-28
1.03451277320114 8.5000433093684e-25 2.3341374617566648e-17 2.334137461744053e-17 1.261195680199396e-28
1.0383996230291617 8.563444083223962e-25 2.3603826902433278e-17 2.3603826902295317e-17 1.3796879067170837e-28
1.0403485208654093 8.595103016694695e-25 2.3735554030513497e-17 2.3735554030369203e-17 1.442870739548849e-28
1.0423010764483396 8.626733306795707e-25 2.3867613225178788e-17 2.3867613225027916e-17 1.508825127704977e-28
1.0462171883269815 8.689904947557819e-25 2.4132721992877926e-17 2.413272199271297e-17 1.64951627178692e-28
1.0471985131304309 8.705678782054994e-25 2.419920444571353e-17 2.4199204445544875e-17 1.6866077709470907e-28
1.048180758391296 8.721444799451813e-25 2.4265768634742182e-17 2.426576863456973e-17 1.7244984872507538e-28
1.0501480137395462 8.752953010510109e-25 2.4399141481020046e-17 2.4399141480839772e-17 1.8027435222968107e-28
1.0521189612883777 8.784428837400348e-25 2.453283904602807e-17 2.4532839045839635e-17 1.8843865023996377e-28
1.0531058218030118 8.800130201939741e-25 2.459974155816821e-17 2.4599741557975558e-17 1.9265286044535423e-28
1.0540936079674168 8.81574399371493e-25 2.4666502962987707e-17 2.4666502962790754e-17 1.9695824769913195e-28
1.058054026499678 8.878110309385281e-25 2.4934336380410813e-17 2.4934336380195694e-17 2.1512029228715993e-28
1.0590464539527713 8.893679219326458e-25 2.500149073025663e-17 2.5001490730036718e-17 2.1990559399745275e-28
1.06003981227728 8.90923887981164e-25 2.5068723095061834e-17 2.5068723094837036e-17 2.2479280955081808e-28
1.0620293250338977 8.940330090028061e-25 2.5203421099417998e-17 2.5203421099183124e-17 2.3488128652063865e-28
1.0660195594769086 9.002397540281193e-25 2.5473744790915016e-17 2.5473744790658643e-17 2.5637481260943644e-28
1.070024785945596 9.06430690862937e-25 2.574529501097754e-17 2.5745295010697797e-17 2.797449682175822e-28
1.0740450607676866 9.12605248834974e-25 2.601805920354574e-17 2.6018059203240588e-17 3.051471396103743e-28
1.07808044048254 9.187628618431579e-25 2.6292024703113872e-17 2.6292024702781126e-17 3.32748827286067e-28
1.0861967418109137 9.310141270572171e-25 2.68431945944828e-17 2.6843194594087514e-17 3.9528672557330628e-28
1.0902777775684922 9.37081918352504e-25 2.7119654427401526e-17 2.7119654426970903e-17 4.306268785995443e-28
1.0943741465085532 9.43130115073986e-25 2.7397243541309685e-17 2.739724354084071e-17 4.689762581486188e-28
1.1026131145906286 9.551655747031174e-25 2.795575645600457e-17 2.795575645544888e-17 5.556911934093742e-28
1.1109141095355224 9.67116257766793e-25 2.851862613448408e-17 2.851862613382649e-17 6.576000186498787e-28
1.1192775983109025 9.789669017804962e-25 2.9085414247184826e-17 2.9085414246407606e-17 7.772085440141899e-28
1.1277040513999907 9.90662446814005e-25 2.965447735214832e-17 2.9654477351230916e-17 9.174084960208753e-28
1.1361939428280308 1.0022594053464277e-24 3.0227487006101844e-17 3.0227487005020316e-17 1.0815320180852366e-27
1.1447477501889525 1.0137539098207477e-24 3.0804330473138784e-17 3.080433047186537e-17 1.2734140801886406e-27
1.1533659546722406 1.0251484491900514e-24 3.138508576376702e-17 3.138508576226956e-17 1.4974645500907663e-27
1.1707974979042381 1.0476744509003272e-24 3.255948836346487e-17 3.25594883614018e-17 2.0630765362317236e-27
1.1884924949847024 1.069752063148791e-24 3.3748075297257865e-17 3.374807529442954e-17 2.828322819622276e-27
1.2064549276569216 1.0915539900056089e-24 3.495632400654897e-17 3.4956324002690385e-17 3.858576110190875e-27
1.2246888378427687 1.1128420392800362e-24 3.617668064098445e-17 3.617668063574575e-17 5.2387029314660454e-27
1.2431983285522175 1.1335663957964583e-24 3.7407338836303225e-17 3.740733882922473e-17 7.078501744899214e-27
1.2619875648066055 1.1537193045318311e-24 3.864779030435638e-17 3.864779029483708e-17 9.51930075128227e-27
1.3004222497298317 1.1919756813525949e-24 4.114539344934042e-17 4.114539343236353e-17 1.6976891121932765e-26
1.3400274889804893 1.2274614162210267e-24 4.366072972160786e-17 4.366072969187871e-17 2.972914871838204e-26
1.3808389325824078 1.2600448756083274e-24 4.618473637156615e-17 4.618473632042417e-17 5.114199157322916e-26
1.4228933163050095 1.289884682789008e-24 4.8718359748635776e-17 4.871835966216764e-17 8.64681422025483e-26
1.466228494730424 1.3176992093176974e-24 5.128464737630982e-17 5.1284647232551205e-17 1.4375861857506013e-25
1.5108834753276823 1.3429474741156858e-24 5.385914205389102e-17 5.385914181876433e-17 2.3512668887296076e-25
1.5568984535646726 1.3651917585979469e-24 5.641873939608166e-17 5.641873901736845e-17 3.7871320451842657e-25
1.6043148490894465 1.3844726956029653e-24 5.89580934781911e-17 5.895809287639204e-17 6.017990399729435e-25
1.6531753430134553 1.4008489143186154e-24 6.14723265340236e-17 6.147232559162881e-17 9.423947766514829e-25
1.7035239163302658 1.4145150856002773e-24 6.396247374382178e-17 6.39624722891635e-17 1.4546582858269597e-24
1.755405889504358 1.4265961047850655e-24 6.647341917543365e-17 6.647341696103922e-17 2.2143944463844796e-24
1.8088679632656115 1.436814193034196e-24 6.898853291264623e-17 6.898852958703842e-17 3.325607802696174e-24
1.8639582606462262 1.4449812162075897e-24 7.149370725385184e-17 7.149370232456814e-17 4.929283709969948e-24
1.9207263702978936 1.4512335993323047e-24 7.398986872296762e-17 7.398986150923548e-17 7.213732124084104e-24
1.979223391128241 1.4558889115738192e-24 7.648785578714907e-17 7.648784535989276e-17 1.0427256303497236e-23
2.039501978296691 1.4593272194043628e-24 7.900348457781942e-17 7.900346968515524e-17 1.489266417849562e-23
2.1016163906111602 1.4626130292262881e-24 8.159289033839138e-17 8.159286931270946e-17 2.1025681921380924e-23
2.1656225393682647 1.4663636346546423e-24 8.429345939639426e-17 8.429343004310482e-17 2.935328942004949e-23
2.231578038680979 1.4706233380774914e-24 8.711299906473998e-17 8.711295852957011e-17 4.05351698895593e-23
2.299542257339062 1.4757618747801216e-24 9.00797379866586e-17 9.007968259895335e-17 5.538770525867399e-23
2.369576372248914 1.482596689416481e-24 9.325307678412386e-17 9.325300187294121e-17 7.491118264891443e-23
2.4417434235010123 1.4920931271024162e-24 9.67086653281246e-17 9.67085650125677e-17 1.0031555693374556e-22
2.5161083711144245 1.5059043411782658e-24 1.0057641722851922e-16 1.0057628417552946e-16 1.3305298977463212e-22
2.5927381535095444 1.5267355733676218e-24 1.0507318975785553e-16 1.0507301491055552e-16 1.7484730003581138e-22
2.6717017477616296 1.5578169381674232e-24 1.1047749776623491e-16 1.1047727005235322e-16 2.27713881700713e-22
2.753070231689431 1.6040116381502274e-24 1.1721798152361601e-16 1.1721768753530562e-16 2.939883103876715e-22
2.836916847834745 1.6763361617606194e-24 1.2623423520751315e-16 1.2623385884309185e-16 3.76364421298647e-22
2.9233170693905177 1.799051309620344e-24 1.396011208600606e-16 1.396006430178243e-16 4.77842236292174e-22
2.967498994190263 1.9032550181041206e-24 1.4991911057044996e-16 1.4991857460565663e-16 5.359647933114517e-22
3.0123486681368425 2.024953745486474e-24 1.619160046401173e-16 1.619154042734772e-16 6.003666401213936e-22
3.0578761833420214 2.29721803637206e-24 1.8646251895200042e-16 1.8646184714775506e-16 6.718042453293662e-22
3.1040917844459814 2.6480582318285623e-24 2.1818833017767532e-16 2.1818757980345774e-16 7.5037421754614705e-22
3.127460860933648 3.0191731349484786e-24 2.5063939573027982e-16 2.506386029555648e-16 7.927747150586033e-22
3.1510058709225794 3.513626727976557e-24 2.9388286666791196e-16 2.938820294509214e-16 8.372169905522232e-22
3.162844764501044 3.973872177342751e-24 3.3362701013918593e-16 3.3362614982698753e-16 8.603121984213164e-22
3.1747281389236908 4.509099586124279e-24 3.7998442986273185e-16 3.799835459187106e-16 8.839440212775018e-22
3.1986289994194426 6.0019957201637295e-24 5.095994901099259e-16 5.095985571350827e-16 9.329748430089365e-22
3.2227097969389145 9.521063544292534e-24 8.144718825389444e-16 8.144708973354548e-16 9.852034893870401e-22
3.2348180950136065 1.2858225196089676e-23 1.1040794448385045e-15 1.1040784316844443e-15 1.013154060137604e-21
3.240889293275058 1.535318021744314e-23 1.3207845401982278e-15 1.3207835122934223e-15 1.0279048057103123e-21
3.2469718861334385 1.823945548737488e-23 1.5720263825251815e-15 1.5720253393518763e-15 1.0431733051313226e-21
3.2714166318528037 3.363533645626522e-23 2.9207949339111785e-15 2.920793827409052e-15 1.1065021270282113e-21
3.2744851364798273 3.4597779345352883e-23 3.0071887016615948e-15 3.0071875876404775e-15 1.1140211176483391e-21
3.2775565192852394 3.558786605491017e-23 3.096146984401272e-15 3.0961458628177054e-15 1.1215835663164275e-21
3.283707930232385 3.463571091026414e-23 3.018964880743848e-15 3.0189637455326142e-15 1.1352112342252688e-21
3.2898708863219004 3.1616138819884136e-23 2.760940941695772e-15 2.7609397939862864e-15 1.1477094853353434e-21
3.29141343181113 3.090404900921851e-23 2.700021696465189e-15 2.700020545614328e-15 1.1508508605299587e-21
3.292184975758714 3.0554153394478505e-23 2.6700778025534913e-15 2.6700766501294146e-15 1.1524240764299817e-21
3.295272960557952 2.8345575162330127e-23 2.47939717209319e-15 2.4793960135321424e-15 1.1585610478959112e-21
3.3076538914384823 2.069440018700979e-23 1.8169473191727706e-15 1.8169461359062773e-15 1.1832664936801497e-21
3.310756385682612 1.913719511448191e-23 1.6818023043360562e-15 1.6818011148301821e-15 1.1895058741201856e-21
3.313861789986515 1.7700432627429315e-23 1.5569967495121921e-15 1.556995553741605e-15 1.1957705872049422e-21
3.3200813396944477 1.5685536008774344e-23 1.3823484212698386e-15 1.382347212065034e-15 1.209204804634265e-21
3.345076488085796 1.209117201406351e-23 1.0736034179460617e-15 1.073602148940424e-15 1.2690056375673897e-21
3.3482140837626964 1.2225960707880115e-23 1.086589859294864e-15 1.0865885821866747e-15 1.2771081891167685e-21
3.3513546224236106 1.23622396160954e-23 1.0997322859476718e-15 1.0997310006938182e-15 1.2852538535253814e-21
3.3576445397418455 1.335817584780936e-23 1.1905600530035372e-15 1.1905587507303736e-15 1.3022731640569494e-21
3.3702598118196083 1.7031599709610123e-23 1.5236606660303264e-15 1.5236593280279906e-15 1.338002335397947e-21
3.382922481734668 1.7868263315601476e-23 1.6045151536773532e-15 1.6045137807484085e-15 1.3729289449299526e-21
3.389271646505754 1.8301712848842202e-23 1.6465220404241632e-15 1.6465206497471108e-15 1.390677052966218e-21
3.395632727569191 1.876877340753738e-23 1.69171046134655e-15 1.691709052373721e-15 1.4089728292519058e-21
3.421196662673239 2.1011406131815764e-23 1.9081064084197905e-15 1.9081049234463644e-15 1.4849734262156625e-21
3.4276182099114902 2.0559473144871484e-23 1.870569529964273e-15 1.870568027805955e-15 1.5021583181466198e-21
3.4340518103208963 1.8579094127053497e-23 1.6935608720959686e-15 1.6935593535775808e-15 1.5185183876061289e-21
3.4469541582030403 1.5758684300352838e-23 1.441865983062771e-15 1.4418644329213376e-15 1.5501414333818113e-21
3.472904465399547 1.496829576400082e-23 1.3798587302557131e-15 1.3798571074946772e-15 1.6227610360783637e-21
3.4990501388274233 1.37594067051377e-23 1.2779660202916116e-15 1.2779643226494057e-15 1.6976422063178963e-21
3.5253949054701885 9.457062949141805e-24 8.849800600131058e-16 8.849782887813436e-16 1.771231762128441e-21
3.5519380250092896 5.413393239304845e-24 5.103926231560414e-16 5.103907772393016e-16 1.8459167397898693e-21
3.578680990867387 3.810104695098036e-24 3.619339553610298e-16 3.619320273716518e-16 1.9279893778994288e-21
3.605625307711299 3.161655230321101e-24 3.025969428356172e-16 3.025949278941756e-16 2.0149414416522976e-21
3.660119384959845 2.688721491411641e-24 2.6122245276852474e-16 2.612202529861707e-16 2.1997823540472704e-21
3.715437065384467 2.353900061963263e-24 2.3214929157317715e-16 2.321468937423285e-16 2.3978308485887103e-21
3.8285932144167436 2.18443161103657e-24 2.219970027503701e-16 2.2199416780716136e-16 2.83494320880941e-21
3.94519561050918 2.152660548020922e-24 2.254309420160381e-16 2.254276124922047e-16 3.329523833316534e-21
4.06534921144712 2.1777517691771718e-24 2.350042224157359e-16 2.3500033614945535e-16 3.8862662804743974e-21
4.189162171576248 2.236100914516071e-24 2.486497377086792e-16 2.48645225789666e-16 4.5119190132321906e-21
4.316745939156006 2.3190211774352295e-24 2.657239115834026e-16 2.657187004252086e-16 5.211158193974443e-21
4.448215356677963 2.4237318719896434e-24 2.8618035098861787e-16 2.861743680755124e-16 5.9829131054840344e-21
4.58368876423945 2.5508151039966464e-24 3.103584212378012e-16 3.10351585257756e-16 6.835980045257795e-21
4.723288106065518 2.703352767607597e-24 3.3893513522733796e-16 3.3892735118334983e-16 7.784043988007228e-21
4.867139040275056 2.887296062185218e-24 3.7302205006978147e-16 3.73013232018525e-16 8.818051256557688e-21
4.940699165968905 2.998240764738964e-24 3.9320981392762235e-16 3.9320044083525587e-16 9.373092366515686e-21
5.015371051989984 3.1135352041709345e-24 4.145016680197475e-16 4.1449171397986233e-16 9.954039885340907e-21
5.091171501069577 3.2537303804391414e-24 4.39712409464417e-16 4.397018374777953e-16 1.0571986621870474e-20
5.129500256944802 3.325856841630609e-24 4.528433978922969e-16 4.528325063902792e-16 1.089150201782032e-20
5.168117569889187 3.40109623077642e-24 4.665742192509599e-16 4.66562999038807e-16 1.1220212152944279e-20
5.20702561229733 3.492893334215564e-24 4.827746640602807e-16 4.827630900627026e-16 1.1573997578042257e-20
5.246226572918644 3.587136017260027e-24 4.995331573266876e-16 4.995212209105552e-16 1.1936416132390323e-20
5.265937586045735 3.635199446860418e-24 5.081283006958631e-16 5.081161797824128e-16 1.2120913450273366e-20
5.285722656980489 3.683904684790268e-24 5.168710284984395e-16 5.168587208681729e-16 1.2307630266736529e-20
5.305582063971359 3.733262312922954e-24 5.257641570049609e-16 5.257516604174683e-16 1.2496587492792457e-20
5.3255160863122235 3.786198134476009e-24 5.352226340863181e-16 5.352099453194817e-16 1.2688766836230941e-20
5.365609099470188 3.917235072185058e-24 5.579150760378823e-16 5.579019884846946e-16 1.3087553187647631e-20
5.406003951863644 4.0533257115829885e-24 5.816440576192639e-16 5.816305613608322e-16 1.349625843166757e-20
5.446702915881641 4.194712566186414e-24 6.064644216067676e-16 6.064505065218435e-16 1.3915084923839535e-20
5.487708281020852 4.347361433726401e-24 6.332660390725896e-16 6.332516936145898e-16 1.4345457999881092e-20
5.529022354014368 4.557936416261031e-24 6.689382678583065e-16 6.689234706414369e-16 1.4797216869666214e-20
5.570647458961463 4.7808907815401894e-24 7.06942237778318e-16 7.069269772486085e-16 1.5260529709439416e-20
5.612585937458331 5.017107206169868e-24 7.474563194375738e-16 7.474405837831572e-16 1.5735654416717875e-20
5.654840148729818 5.276501725130414e-24 7.920194561974756e-16 7.920032317055125e-16 1.622449196299828e-20
5.67608639626678 5.452242342480184e-24 8.214735444282726e-16 8.214570637234267e-16 1.6480704846113453e-20
5.686739436050992 5.542809836942178e-24 8.366864613741534e-16 8.366698512952723e-16 1.6610078881026764e-20
5.6974124697621304 5.635232469174661e-24 8.522341471505237e-16 8.522174068457149e-16 1.6740304808784528e-20
5.718818669136295 5.825820744724158e-24 8.843677094052297e-16 8.843507060721585e-16 1.7003333071076757e-20
5.740305295436557 6.0356716543290964e-24 9.196657853331322e-16 9.196485139476634e-16 1.727138546903314e-20
5.7835210386641895 6.5784563772322726e-24 1.0099171609007858e-15 1.009899330427274e-15 1.7830473511725054e-20
5.827062130521658 7.203068587952101e-24 1.1141319583953534e-15 1.1141135496135227e-15 1.8408781830925764e-20
5.8489554468988025 7.640038424792476e-24 1.1861600397532306e-15 1.1861413194582876e-15 1.8720294943342396e-20
5.870931020387893 8.108773941226886e-24 1.2636639730795863e-15 1.2636449365664246e-15 1.9036513161954795e-20
5.892989160043636 8.61182580574815e-24 1.347101475724697e-15 1.347082118215033e-15 1.935750966399217e-20
5.915130176081913 9.183535084923319e-24 1.4419281794654222e-15 1.4419084887794084e-15 1.9690686014085194e-20
5.95966208400165 1.077943033709778e-23 1.7052453697400117e-15 1.7052249326239914e-15 2.043711602009147e-20
6.004529249263818 1.3076706332180005e-23 2.08423540261716e-15 2.0842141256227643e-15 2.1276994394902453e-20
6.027089341400364 1.4672264756301383e-23 2.347330367825099e-15 2.3473086099035043e-15 2.1757921593966945e-20
6.049734195844842 1.6557084960805764e-23 2.6588240842758586e-15 2.6588018155722048e-15 2.2268703653893062e-20
6.095279466722835 2.1998389147226452e-23 3.55921264837836e-15 3.559189142153455e-15 2.350622490406588e-20
6.141167624020661 3.0368250220595446e-23 4.9503984253129155e-15 4.950373330028047e-15 2.5095284866336527e-20
6.164241091010745 3.5712800545304103e-23 5.8434987769778666e-15 5.843472697015946e-15 2.607996192118856e-20
6.187401249150058 4.1799920008897363e-23 6.865199534936529e-15 6.865172428824385e-15 2.710611214267944e-20
6.1990139391386085 4.4772470298318697e-23 7.367210907945992e-15 7.367183277547315e-15 2.76303986767805e-20
6.204828454712694 4.6338186015649004e-23 7.631997873695008e-15 7.631969976856183e-15 2.7896838825245224e-20
6.210648424152782 4.7481679166864766e-23 7.827668901502966e-15 7.827640773748861e-15 2.812775410341987e-20
6.233982942956859 5.1367746689997736e-23 8.500129807474863e-15 8.500100852652158e-15 2.895482270367944e-20
6.239830258556775 5.1865327132123453e-23 8.590517567729801e-15 8.590488483352378e-15 2.9084377422983947e-20
6.245683058788269 5.190999425749335e-23 8.60598046216747e-15 8.605951247680912e-15 2.9214486556136277e-20
6.257405133728602 5.1806759296235247e-23 8.604985317036364e-15 8.604955866005704e-15 2.945103066231399e-20
6.269149208991335 5.104712021385681e-23 8.494724259625069e-15 8.494694680651548e-15 2.9578973519434214e-20
6.280915325867298 4.9136998966417007e-23 8.192208559999842e-15 8.192178988209095e-15 2.9571790748433396e-20
6.304513850009849 4.442470242736264e-23 7.434393828366432e-15 7.434364394286731e-15 2.943407970305027e-20
6.32820103803542 3.8582227078748474e-23 6.480924967409889e-15 6.480895805921232e-15 2.9161488659381975e-20
6.3519772230701035 3.322461422706564e-23 5.601938184276951e-15 5.60190925634218e-15 2.892793477187558e-20
6.375842739491607 2.871760373470824e-23 4.860212165701309e-15 4.860183427654671e-15 2.873804663751482e-20
6.399797922933955 2.5107316546083315e-23 4.265166527364536e-15 4.265137825365643e-15 2.8701998892666014e-20
6.42384311029221 2.210629274834343e-23 3.76946986454699e-15 3.7694411653177245e-15 2.869922926469871e-20
6.447978639727206 1.9921517541378898e-23 3.409694282294515e-15 3.4096654609377435e-15 2.882135677093264e-20
6.472204850670314 1.8102412936457667e-23 3.1099840026031674e-15 3.1099550320060996e-15 2.8970597068520813e-20
6.496522083828205 1.6922854928335008e-23 2.918260008150517e-15 2.9182307841637865e-15 2.922398673115986e-20
