Dust emission spectrum from A.P. Jones, M. Kohler, N. Ysard, M. Bocchio, and L. Verstraete (2017), A&A, 602A, 46J 
inside the DustPedia framework.

lambda    nu*dP/dnu     j_nu    j_nu(carb.) j_nu(sil)
 (um)   (erg s-1 H-1) (Jy cm2 sr-1 H-1)
0.9927057738263894 1.1303302707915654e-23 2.978484465013455e-16 2.9784844325410624e-16 3.2472392653381143e-24
1.0001793341362166 1.1492684798416882e-23 3.0511868618941036e-16 3.0511868227991984e-16 3.909490460135365e-24
1.0077091589558085 1.168235561633853e-23 3.1248923519285067e-16 3.1248923049223177e-16 4.700619012867091e-24
1.0114953028030835 1.1777283588794447e-23 3.1621206481581098e-16 3.1621205966402334e-16 5.151787630625698e-24
1.0152956718711033 1.1872264997880068e-23 3.1995989802072594e-16 3.199598923763278e-16 5.6443981615420174e-24
1.0229392996569957 1.206227113063191e-23 3.275279620919998e-16 3.2752795532318393e-16 6.768815878830223e-24
1.0267826658714554 1.2157073938414365e-23 3.313424044106871e-16 3.313423970016676e-16 7.40901955567388e-24
1.0306404723013447 1.2251901136824366e-23 3.351815535684898e-16 3.3518154546139116e-16 8.107098628305924e-24
1.03451277320114 1.2346746836222697e-23 3.390453821510514e-16 3.3904537328302787e-16 8.868023518187907e-24
1.0383996230291617 1.2441605214677612e-23 3.429338628496084e-16 3.42933853152441e-16 9.69716732890534e-24
1.0403485208654093 1.2489037358213942e-23 3.4488733925493345e-16 3.4488732911581537e-16 1.0139117998135177e-23
1.0423010764483396 1.2536470520005311e-23 3.4684696853284627e-16 3.468469579325098e-16 1.0600336357090019e-23
1.0462171883269815 1.2631337071789554e-23 3.5078467231968735e-16 3.5078466073588456e-16 1.1583802741159488e-23
1.0471985131304309 1.2655053245815946e-23 3.5177293859974183e-16 3.517729267567438e-16 1.1842997972622478e-23
1.048180758391296 1.2678769060088967e-23 3.5276274018816757e-16 3.527627280804241e-16 1.2107743408891182e-23
1.0501480137395462 1.2726199263379916e-23 3.5474694765299977e-16 3.547469349986603e-16 1.2654339384212665e-23
1.0521189612883777 1.2773626992681259e-23 3.5673729145740144e-16 3.567372782328798e-16 1.3224521650313736e-23
1.0531058218030118 1.2797306094877291e-23 3.577338236488377e-16 3.5773381013005984e-16 1.351877786620985e-23
1.0540936079674168 1.2820874171264848e-23 3.5872880491885933e-16 3.587287910994973e-16 1.381936215548944e-23
1.058054026499678 1.2915131499826594e-23 3.6272384774661947e-16 3.627238326596868e-16 1.50869327345696e-23
1.0590464539527713 1.2938691671082806e-23 3.6372638578336763e-16 3.637263703625687e-16 1.542079893575266e-23
1.06003981227728 1.2962250012456049e-23 3.647304339179336e-16 3.64730418156204e-16 1.5761729565227194e-23
1.0620293250338977 1.3009360877094798e-23 3.667430588333959e-16 3.6674304236804074e-16 1.646535518046641e-23
1.0660195594769086 1.3103557053168115e-23 3.707864118775328e-16 3.707863939137177e-16 1.7963815130010615e-23
1.070024785945596 1.3197714862905622e-23 3.748538813185958e-16 3.748538617263816e-16 1.9592214162563106e-23
1.0740450607676866 1.3291829227768095e-23 3.7894544241661036e-16 3.789454210553884e-16 2.1361221803585044e-23
1.07808044048254 1.3385895157634358e-23 3.8306107133213123e-16 3.830610480498002e-16 2.3282331005098457e-23
1.0861967418109137 1.3573708518711806e-23 3.91360011139957e-16 3.9135998350865177e-16 2.763130529972856e-23
1.0902777775684922 1.3667096934999226e-23 3.955331317827761e-16 3.9553310169594166e-16 3.008683434705811e-23
1.0943741465085532 1.376041174520689e-23 3.9972994795374224e-16 3.9972991520382603e-16 3.274991621776202e-23
1.1026131145906286 1.394680270131048e-23 4.081945894867163e-16 4.081945507204177e-16 3.8766298425405696e-23
1.1109141095355224 1.4132846703381785e-23 4.1675379574366645e-16 4.167537499151517e-16 4.582851478616937e-23
1.1192775983109025 1.431835340224515e-23 4.2540277846417525e-16 4.2540272435677734e-16 5.410739784295125e-23
1.1277040513999907 1.450256846361616e-23 4.341197038763193e-16 4.3411964007653934e-16 6.379978006664581e-23
1.1361939428280308 1.46863194519848e-23 4.4292977250623893e-16 4.4292969737410987e-16 7.51321290161285e-23
1.1447477501889525 1.486957887615676e-23 4.51832952021392e-16 4.518328636567224e-16 8.836466966834869e-23
1.1533659546722406 1.505240129243974e-23 4.608317028495813e-16 4.608315990534219e-16 1.0379615946530599e-22
1.1707974979042381 1.5417299630393227e-23 4.7913680388069e-16 4.791366612045519e-16 1.4267613821322576e-22
1.1884924949847024 1.5780132246144492e-23 4.978247853769266e-16 4.978245902348737e-16 1.951420528174483e-22
1.2064549276569216 1.614350137981563e-23 5.169853896371225e-16 5.169851240477751e-16 2.655893473801247e-22
1.2246888378427687 1.6504378095390863e-23 5.365304279134681e-16 5.365300682087067e-16 3.597047614918719e-22
1.2431983285522175 1.6862237934132042e-23 5.564486123437483e-16 5.564481275237628e-16 4.848199851866549e-22
1.2619875648066055 1.7217331584928133e-23 5.76753650633325e-16 5.767530002940868e-16 6.503392384033404e-22
1.3004222497298317 1.7915558512032122e-23 6.184209253378127e-16 6.184197715558029e-16 1.1537820099063328e-21
1.3400274889804893 1.8599301858741882e-23 6.615760631932582e-16 6.615740536314402e-16 2.0095618180219252e-21
1.3808389325824078 1.9269275625478562e-23 7.062815238259845e-16 7.062780860693843e-16 3.437756600392485e-21
1.4228933163050095 1.993038860789618e-23 7.527617430343771e-16 7.527559639499689e-16 5.77908440824775e-21
1.466228494730424 2.0595693963314853e-23 8.015811916028362e-16 8.015716401459557e-16 9.551456880554822e-21
1.5108834753276823 2.126071041736042e-23 8.526644895693173e-16 8.526489622042331e-16 1.5527365084208983e-20
1.5568984535646726 2.1922273171976586e-23 9.059731054410127e-16 9.059482513071478e-16 2.485413386493402e-20
1.6043148490894465 2.2584019267736028e-23 9.617457414142427e-16 9.617064970871144e-16 3.9244327128318065e-20
1.6531753430134553 2.324996382641059e-23 1.020259468121541e-15 1.020198412638301e-15 6.105548323982453e-20
1.7035239163302658 2.3925698185188045e-23 1.0818879611476621e-15 1.0817943463483053e-15 9.3614799356798e-20
1.755405889504358 2.4630361850106515e-23 1.147671974017772e-15 1.1475304424931598e-15 1.4153152461213109e-19
1.8088679632656115 2.536263299674687e-23 1.217785048150478e-15 1.2175739891095063e-15 2.1105904097163042e-19
1.8639582606462262 2.6121543427635462e-23 1.2924223220946383e-15 1.2921117454898845e-15 3.1057660475374837e-19
1.9207263702978936 2.691065145185469e-23 1.3720158967435395e-15 1.3715647576552903e-15 4.511390882498864e-19
1.979223391128241 2.773574149274102e-23 1.457149222431492e-15 1.456502085886553e-15 6.471365449389619e-19
2.039501978296691 2.86025517142696e-23 1.5484541254338402e-15 1.5475371046922163e-15 9.170207416242076e-19
2.1016163906111602 2.9527156310806326e-23 1.6471930570361556e-15 1.645908839595026e-15 1.2842174411293552e-18
2.1656225393682647 3.051803585453396e-23 1.754319839476741e-15 1.7525418767625168e-15 1.777962714223901e-18
2.231578038680979 3.1573186859253147e-23 1.8702511554974736e-15 1.867816903065314e-15 2.4342524321597455e-18
2.299542257339062 3.269566278093936e-23 1.9957262665062274e-15 1.9924294156922665e-15 3.296850813960781e-18
2.369576372248914 3.389356922866854e-23 2.131853953493598e-15 2.1274355734305795e-15 4.418380063018136e-18
2.4417434235010123 3.517645435138487e-23 2.279930045589325e-15 2.2740688452681477e-15 5.861200321177255e-18
2.5161083711144245 3.6562877649336274e-23 2.44196336844189e-15 2.4342648210313545e-15 7.69854741053588e-18
2.5927381535095444 3.8084321195084455e-23 2.6210439957873934e-15 2.611028676353421e-15 1.0015319433972082e-17
2.6717017477616296 3.977372249913172e-23 2.8206788813849874e-15 2.807770704380836e-15 1.29081770041503e-17
2.753070231689431 4.168106040069137e-23 3.0459690264886817e-15 3.029483086102603e-15 1.6485940386078845e-17
2.836916847834745 4.3930291947960184e-23 3.308111423587737e-15 3.2872410653967698e-15 2.0870358190967283e-17
2.9233170693905177 4.679699907388602e-23 3.631310284852496e-15 3.605119364215249e-15 2.6190920637246958e-17
2.967498994190263 4.8734416701514586e-23 3.838802649441406e-15 3.809609817718124e-15 2.9192831723282765e-17
3.0123486681368425 5.087458229388162e-23 4.067949266061489e-15 4.0354536090463136e-15 3.249565701517487e-17
3.0578761833420214 5.479109670717618e-23 4.447329659790315e-15 4.411194979624696e-15 3.613468016561897e-17
3.1040917844459814 5.957451756876115e-23 4.908677744783864e-15 4.868574786715149e-15 4.0102958068715734e-17
3.127460860933648 6.425109578291841e-23 5.333862982426746e-15 5.291632055569908e-15 4.223092685683988e-17
3.1510058709225794 7.032441176911859e-23 5.8819963893390304e-15 5.837544973522862e-15 4.4451415816166886e-17
3.162844764501044 7.58715767050052e-23 6.369809133509412e-15 6.3242076934813575e-15 4.560144002805566e-17
3.1747281389236908 8.223682016463176e-23 6.930144395156485e-15 6.883368905545883e-15 4.677548961060253e-17
3.1986289994194426 9.972697106322438e-23 8.467319200727476e-15 8.418116174885843e-15 4.920302584163084e-17
3.2227097969389145 1.405215360829594e-22 1.2020804135832122e-14 1.1969026323017952e-14 5.177781281416874e-17
3.2348180950136065 1.789897308652998e-22 1.5369063744944485e-14 1.531591124572201e-14 5.3152499222470704e-17
3.240889293275058 2.0773136920349414e-22 1.787045921902671e-14 1.781658159729984e-14 5.387762172687138e-17
3.2469718861334385 2.410095815500847e-22 2.077218921915399e-14 2.071756129446109e-14 5.4627924692893107e-17
3.2714166318528037 4.172303329133129e-22 3.623107038729452e-14 3.617333978467062e-14 5.77306026239034e-17
3.2744851364798273 4.282644497077717e-22 3.7224123595594774e-14 3.716602676367891e-14 5.809683191586213e-17
3.2775565192852394 4.396058321749994e-22 3.824573998097429e-14 3.818727503472097e-14 5.846494625331318e-17
3.283707930232385 4.287935925432291e-22 3.737508955222203e-14 3.731596510958704e-14 5.91244426349772e-17
3.2898708863219004 3.943320813590494e-22 3.443581755035758e-14 3.4376091832645006e-14 5.97257177125706e-17
3.29141343181113 3.861970372059878e-22 3.374122204037721e-14 3.3681345310601176e-14 5.987672977604411e-17
3.292184975758714 3.821985438994515e-22 3.3399709527497754e-14 3.333975718754047e-14 5.995233995728495e-17
3.295272960557952 3.5708201658524835e-22 3.123408634527842e-14 3.11738396892796e-14 6.024665599881795e-17
3.3076538914384823 2.69763824351778e-22 2.3684989805765435e-14 2.3623560474333465e-14 6.142933143196726e-17
3.310756385682612 2.519074013977922e-22 2.213795938306104e-14 2.207623183290998e-14 6.172755015106069e-17
3.313861789986515 2.353989296769505e-22 2.0706576842517046e-14 2.0644550051182888e-14 6.2026791334163e-17
3.3200813396944477 2.123006693672527e-22 1.870981616249425e-14 1.86471462407132e-14 6.266992178104707e-17
3.345076488085796 1.7156209494165987e-22 1.523339931853734e-14 1.5167864661299777e-14 6.553465723755786e-17
3.3482140837626964 1.7317195942343296e-22 1.5390765561878744e-14 1.5324842883896793e-14 6.592267798195175e-17
3.3513546224236106 1.74798145148605e-22 1.554986553515813e-14 1.5483553026810503e-14 6.631250834762286e-17
3.3576445397418455 1.863667730194967e-22 1.6610114860898238e-14 1.654298750432153e-14 6.712735657671207e-17
3.3702598118196083 2.2863243534362494e-22 2.045364232669472e-14 2.0384805671662643e-14 6.883665503207826e-17
3.382922481734668 2.3854517759305006e-22 2.142062412694081e-14 2.1350123773762983e-14 7.050035317782154e-17
3.389271646505754 2.436691429807041e-22 2.192180687144685e-14 2.1850462798555635e-14 7.134407289121773e-17
3.395632727569191 2.492425387779861e-22 2.246530453044751e-14 2.239309093881183e-14 7.221359163568075e-17
3.421196662673239 2.7611699665392905e-22 2.5074981059511686e-14 2.4999165516151434e-14 7.581554336025284e-17
3.4276182099114902 2.710616246627675e-22 2.4662091886496867e-14 2.4585470004670767e-14 7.662188182609845e-17
3.4340518103208963 2.483587919211223e-22 2.2638925738912908e-14 2.2561539985982858e-14 7.73857529300474e-17
3.4469541582030403 2.159309751076909e-22 1.9756949359686238e-14 1.9678094978533612e-14 7.885438115262178e-17
3.472904465399547 2.0704505018008878e-22 1.908653627317596e-14 1.900430239819836e-14 8.223387497759794e-17
3.4990501388274233 1.9341894098139487e-22 1.796464335651292e-14 1.78789455419889e-14 8.569781452402113e-17
3.5253949054701885 1.4449421294600478e-22 1.3521586768765872e-14 1.3432514736777296e-14 8.907203198857513e-17
3.5519380250092896 9.820326216212098e-23 9.258928432075583e-15 9.166457695363427e-15 9.247073671215698e-17
3.578680990867387 8.007499603525913e-23 7.60657839083721e-15 7.51038141727279e-15 9.619697356441763e-17
3.605625307711299 7.300454315870656e-23 6.987147542552227e-15 6.887021674873664e-15 1.0012586767856327e-16
3.660119384959845 6.838010949453687e-23 6.6434623220737635e-15 6.535062328625754e-15 1.0839999344800664e-16
3.715437065384467 6.52762603711958e-23 6.437757425045627e-15 6.3206059987863335e-15 1.1715142625929565e-16
3.8285932144167436 6.487197417130663e-23 6.592737330740082e-15 6.456675854915307e-15 1.360614758247737e-16
3.94519561050918 6.601901602146543e-23 6.91364413510226e-15 6.756809171102579e-15 1.5683496399968428e-16
4.06534921144712 6.777925064545498e-23 7.314153210342567e-15 7.134667775540979e-15 1.7948543480158698e-16
4.189162171576248 6.987585842763895e-23 7.770049087414007e-15 7.565956891928087e-15 2.040921954859229e-16
4.316745939156006 7.219847861003605e-23 8.272827490022018e-15 8.042220462261302e-15 2.306070277607176e-16
4.448215356677963 7.470327079153943e-23 8.820533534334722e-15 8.561820659279753e-15 2.58712875054968e-16
4.58368876423945 7.738707019636096e-23 9.415707509623192e-15 9.127224430444798e-15 2.8848307917839367e-16
4.723288106065518 8.027603041473451e-23 1.006467507687156e-14 9.74453441958635e-15 3.201406572852095e-16
4.867139040275056 8.341935767379363e-23 1.077730137290878e-14 1.042436927253561e-14 3.529321003731678e-16
4.940699165968905 8.516886360623385e-23 1.1169627671295416e-14 1.0799767316601357e-14 3.6986035469406026e-16
5.015371051989984 8.693011835388667e-23 1.1572915254200505e-14 1.1185815179129391e-14 3.8710007507111256e-16
5.091171501069577 8.895338335432452e-23 1.2021250058052744e-14 1.1616240957146239e-14 4.0500910090650123e-16
5.129500256944802 8.997038255388735e-23 1.2250224734687273e-14 1.1836156278893147e-14 4.1406845579412554e-16
5.168117569889187 9.10128155245362e-23 1.248545482510448e-14 1.2062176772376476e-14 4.2327805272800363e-16
5.20702561229733 9.224890766436852e-23 1.2750299292375947e-14 1.2317008172770576e-14 4.332911196053697e-16
5.246226572918644 9.349808378053178e-23 1.3020245892587962e-14 1.2576843436561678e-14 4.4340245602628626e-16
5.265937586045735 9.41277314842162e-23 1.3157177466215589e-14 1.2708683414241587e-14 4.484940519740016e-16
5.285722656980489 9.47608378593806e-23 1.3295439463450825e-14 1.2841830366874646e-14 4.536090965761859e-16
5.305582063971359 9.539746959520226e-23 1.34350511638326e-14 1.2976303957918755e-14 4.58747205913845e-16
5.3255160863122235 9.60737373002436e-23 1.3581127272799132e-14 1.311718176505885e-14 4.639455077402819e-16
5.365609099470188 9.771994070146376e-23 1.3917834171862252e-14 1.3443133519649592e-14 4.747006522126628e-16
5.406003951863644 9.940292945998798e-23 1.4264119723990532e-14 1.3778560073444422e-14 4.85559650546114e-16
5.446702915881641 1.011246752965341e-22 1.462043387865334e-14 1.4123914368456734e-14 4.965195101966069e-16
5.487708281020852 1.0295727503458056e-22 1.499745230498802e-14 1.44898317168464e-14 5.076205881416195e-16
5.529022354014368 1.0546358597105812e-22 1.5478194972161923e-14 1.4958996170695402e-14 5.191988014665188e-16
5.570647458961463 1.0807639215115615e-22 1.598107340442768e-14 1.5450184997384798e-14 5.308884070428828e-16
5.612585937458331 1.1080367014422806e-22 1.6507700565841876e-14 1.5965014149722173e-14 5.426864161196973e-16
5.654840148729818 1.1376199431414616e-22 1.7076032107315075e-14 1.652138820206271e-14 5.546439052523675e-16
5.67608639626678 1.1577266995845863e-22 1.744313248839145e-14 1.688223532885455e-14 5.608971595368993e-16
5.686739436050992 1.1680298999031846e-22 1.7631396935463672e-14 1.7067361499939436e-14 5.640354355242395e-16
5.6974124697621304 1.1785050033406848e-22 1.7822906365063815e-14 1.7255724948070972e-14 5.671814169928424e-16
5.718818669136295 1.19998760452618e-22 1.8215979097718256e-14 1.7642482784552888e-14 5.734963131653645e-16
5.740305295436557 1.2235674929110508e-22 1.8643710654290295e-14 1.8063824521442057e-14 5.798861328482356e-16
5.7835210386641895 1.28460341252383e-22 1.972108587281312e-14 1.912798112941417e-14 5.931047433989521e-16
5.827062130521658 1.35399736909931e-22 2.094290401482433e-14 2.0336336448414702e-14 6.065675664096268e-16
5.8489554468988025 1.4028952010572535e-22 2.1780757306870337e-14 2.1166931294813637e-14 6.13826012056697e-16
5.870931020387893 1.4549246373221003e-22 2.2673413527811882e-14 2.20522844527274e-14 6.21129075084482e-16
5.892989160043636 1.5103333592760248e-22 2.3625330365588124e-14 2.2996853892493116e-14 6.284764730950144e-16
5.915130176081913 1.573136969485182e-22 2.4700189039224003e-14 2.4064099291635384e-14 6.360897475886229e-16
5.95966208400165 1.7490510424617408e-22 2.766900567400336e-14 2.701563185336809e-14 6.533738206352663e-16
6.004529249263818 2.0013933070687468e-22 3.189927707475183e-14 3.122648598222126e-14 6.727910925305729e-16
6.027089341400364 2.176686014578727e-22 3.482353452657311e-14 3.4139556112417114e-14 6.839784141559956e-16
6.049734195844842 2.382729519631549e-22 3.826312812979067e-14 3.756730509160714e-14 6.958230381835347e-16
6.095279466722835 2.9773374830432033e-22 4.817160546264098e-14 4.74467781364958e-14 7.248273261451855e-16
6.141167624020661 3.8880724030699053e-22 6.338036390587427e-14 6.261802803573063e-14 7.623358701436329e-16
6.164241091010745 4.469523559318841e-22 7.313247646154603e-14 7.234666470172978e-14 7.85811759816266e-16
6.187401249150058 5.127541377800851e-22 8.421450250324243e-14 8.34045637734839e-14 8.09938729758559e-16
6.1990139391386085 5.448325009561876e-22 8.965098234033894e-14 8.882876280333349e-14 8.222195370054496e-16
6.204828454712694 5.616928064758848e-22 9.251200086352136e-14 9.168357621795788e-14 8.284246455634944e-16
6.210648424152782 5.739714288492583e-22 9.462298686121271e-14 9.378926011783064e-14 8.337267433820533e-16
6.233982942956859 6.154719865324976e-22 1.0184584910767244e-13 1.0099357109142373e-13 8.522780162486789e-16
6.239830258556775 6.206585175755448e-22 1.0280042937378001e-13 1.0194552782547969e-13 8.54901548300305e-16
6.245683058788269 6.209270214257208e-22 1.0294136786675181e-13 1.0208383778919053e-13 8.575300775612258e-16
6.257405133728602 6.193703077186944e-22 1.028760045238916e-13 1.0201384461367181e-13 8.621599102197575e-16
6.269149208991335 6.106924427351453e-22 1.0162500620483058e-13 1.0076100510531531e-13 8.640010995152966e-16
6.280915325867298 5.895480072784436e-22 9.829050070921514e-14 9.742810936931036e-14 8.623913399047799e-16
6.304513850009849 5.376584212137479e-22 8.997616708803755e-14 8.912012103683589e-14 8.560460512016403e-16
6.32820103803542 4.737677402429671e-22 7.958206171528261e-14 7.873568687935404e-14 8.463748359285958e-16
6.3519772230701035 4.1529471181988955e-22 7.00220411280785e-14 6.9184281886722e-14 8.377592413565031e-16
6.375842739491607 3.6601005742858067e-22 6.194411449913044e-14 6.111389104727259e-14 8.30223451857851e-16
6.399797922933955 3.2670822909937435e-22 5.550035585888102e-14 5.467371216103399e-14 8.266436978470403e-16
6.42384311029221 2.939452227420457e-22 5.012227385058605e-14 4.92984230563823e-14 8.238507942037304e-16
6.447978639727206 2.701289716948757e-22 4.623428954932728e-14 4.5410139253023664e-14 8.241502963036098e-16
6.472204850670314 2.502386779721854e-22 4.2990859177602565e-14 4.2165792736697597e-14 8.250664409049662e-16
6.496522083828205 2.373154889401122e-22 4.092384551078543e-14 4.00953504785326e-14 8.284950322528305e-16
