Dust emission spectrum from A.P. Jones, M. Kohler, N. Ysard, M. Bocchio, and L. Verstraete (2017), A&A, 602A, 46J 
inside the DustPedia framework.

lambda    nu*dP/dnu     j_nu    j_nu(carb.) j_nu(sil)
 (um)   (erg s-1 H-1) (Jy cm2 sr-1 H-1)
0.9927057738263894 8.843443503777096e-23 2.3302975930015937e-15 2.3302975449754152e-15 4.80261780929956e-23
1.0001793341362166 8.992308459309904e-23 2.387363258489875e-15 2.3873632006796364e-15 5.781023803902744e-23
1.0077091589558085 9.141635010922933e-23 2.4452795538771885e-15 2.445279484381625e-15 6.949556384999374e-23
1.0114953028030835 9.216462417330734e-23 2.4745575576140075e-15 2.4745574814556686e-15 7.6158339416307e-23
1.0152956718711033 9.291394562849865e-23 2.504049275627365e-15 2.504049192195135e-15 8.343222915074407e-23
1.0229392996569957 9.441486476863957e-23 2.5636555433026706e-15 2.5636554432704236e-15 1.0003224705721617e-22
1.0267826658714554 9.516474256904417e-23 2.5937256594545213e-15 2.593725549972552e-15 1.0948196882796654e-22
1.0306404723013447 9.59154950933619e-23 2.6240094739302485e-15 2.6240093541456076e-15 1.1978464055078546e-22
1.03451277320114 9.666709018296476e-23 2.6545073748787035e-15 2.654507243865327e-15 1.3101337581936944e-22
1.0383996230291617 9.741949631009852e-23 2.685219761439837e-15 2.6852196181926395e-15 1.432471979575478e-22
1.0403485208654093 9.779599383709327e-23 2.700656514738018e-15 2.700656364970582e-15 1.4976743658927666e-22
1.0423010764483396 9.817268259523434e-23 2.716147044461755e-15 2.716146887890268e-15 1.5657148654369366e-22
1.0462171883269815 9.892661882429986e-23 2.7472896472281556e-15 2.7472894761497003e-15 1.7107845511369858e-22
1.0471985131304309 9.91152165843405e-23 2.7551089924770446e-15 2.7551088175755553e-15 1.7490148896582141e-22
1.048180758391296 9.930385891208122e-23 2.7629418293733904e-15 2.762941650567136e-15 1.7880625478926266e-22
1.0501480137395462 9.968127546578231e-23 2.7786480061960404e-15 2.7786478193283783e-15 1.8686766202211263e-22
1.0521189612883777 1.0005886490339783e-22 2.794408234434255e-15 2.794408039157897e-15 1.9527635882410591e-22
1.0531058218030118 1.0024746716294153e-22 2.802301474500618e-15 2.8023012748849683e-15 1.996156493722816e-22
1.0540936079674168 1.0043527200672934e-22 2.810184751631498e-15 2.8101845475833856e-15 2.0404811262318477e-22
1.058054026499678 1.0118686737359013e-22 2.8418518135621206e-15 2.8418515908238287e-15 2.2273829182534562e-22
1.0590464539527713 1.0137485809455339e-22 2.8498021037507184e-15 2.849801876090027e-15 2.2766069119041233e-22
1.06003981227728 1.0156288473005328e-22 2.857765818584963e-15 2.8577655858978912e-15 2.32687072401652e-22
1.0620293250338977 1.0193904409413548e-22 2.8737335522346154e-15 2.8737333091744453e-15 2.430601690402772e-22
1.0660195594769086 1.0269177580961991e-22 2.905830449494245e-15 2.9058301843455717e-15 2.651486735230921e-22
1.070024785945596 1.0344503693651163e-22 2.9381430044215822e-15 2.938142715272358e-15 2.891492249115787e-22
1.0740450607676866 1.0419880268256801e-22 2.9706717341309895e-15 2.970671418912497e-15 3.152184929021565e-22
1.07808044048254 1.049530490627344e-22 3.0034171745783912e-15 3.003416831053185e-15 3.4352520752515264e-22
1.0861967418109137 1.0646171051079203e-22 3.069526368128951e-15 3.0695259605374643e-15 4.075914867838752e-22
1.0902777775684922 1.07213395363734e-22 3.102813292315694e-15 3.1028128485586946e-15 4.437569992895151e-22
1.0943741465085532 1.0796542641300148e-22 3.136317072481889e-15 3.1363165895082295e-15 4.829736588444931e-22
1.1026131145906286 1.0947045008524351e-22 3.2039777424594447e-15 3.2039771709081325e-15 5.715513125087133e-22
1.1109141095355224 1.109766366480193e-22 3.272513707437354e-15 3.272513031941815e-15 6.754955382391711e-22
1.1192775983109025 1.1248264416933203e-22 3.3418947007641217e-15 3.34189390345377e-15 7.973103511059744e-22
1.1277040513999907 1.1398278691586609e-22 3.411959324795023e-15 3.4119583849152813e-15 9.398797410767422e-22
1.1361939428280308 1.1548356901401165e-22 3.482908779072747e-15 3.4829076725520735e-15 1.1065206733945728e-21
1.1447477501889525 1.169849099288669e-22 3.554750113325223e-15 3.554748812282187e-15 1.3010430341196972e-21
1.1533659546722406 1.1848732386161211e-22 3.627508605464926e-15 3.627507077645796e-15 1.5278191304136459e-21
1.1707974979042381 1.2149993512446325e-22 3.7759589540883625e-15 3.775956855182525e-15 2.0989058373971205e-21
1.1884924949847024 1.2451616022911222e-22 3.9281819553294255e-15 3.928179086280367e-15 2.869049057888312e-21
1.2064549276569216 1.2755677867513083e-22 4.084924910197632e-15 4.08492100774105e-15 3.902456580947299e-21
1.2246888378427687 1.3060010611165503e-22 4.245596557025022e-15 4.24559127489501e-15 5.2821300119312995e-21
1.2431983285522175 1.3364297378482003e-22 4.410176608973514e-15 4.410169493984674e-15 7.114988839249699e-21
1.2619875648066055 1.3668899931259844e-22 4.578867460737602e-15 4.5788579226770366e-15 9.538060564626937e-21
1.3004222497298317 1.4276742056194124e-22 4.9281388728524665e-15 4.9281219729549236e-15 1.6899897541685846e-20
1.3400274889804893 1.4884812593841127e-22 5.294519005063857e-15 5.2944896092153436e-15 2.9395848511020314e-20
1.3808389325824078 1.549481941572695e-22 5.679354471362641e-15 5.679304252255455e-15 5.0219107186732306e-20
1.4228933163050095 1.6111692896646317e-22 6.085313370813552e-15 6.085229066930712e-15 8.43038828419145e-20
1.466228494730424 1.6746663375284833e-22 6.5177752241040994e-15 6.5176360883921735e-15 1.3913571192648412e-19
1.5108834753276823 1.739757257572468e-22 6.977326744412316e-15 6.977100887602716e-15 2.258568096015008e-19
1.5568984535646726 1.8063147967470854e-22 7.464885657500721e-15 7.464524673545267e-15 3.609839554551204e-19
1.6043148490894465 1.8747274477762107e-22 7.983570673741765e-15 7.98300154476529e-15 5.691289764742268e-19
1.6531753430134553 1.9454101334085555e-22 8.53688686489493e-15 8.536002787612872e-15 8.840772820616756e-19
1.7035239163302658 2.0188730474661935e-22 9.129072966787491e-15 9.127719559863726e-15 1.3534069237637496e-18
1.755405889504358 2.0966712802472325e-22 9.769612325274486e-15 9.767569450569014e-15 2.042874705468407e-18
1.8088679632656115 2.17875549287345e-22 1.0461279249427025e-14 1.0458237781985541e-14 3.0414674414861792e-18
1.8639582606462262 2.2650533129586645e-22 1.1206862529053785e-14 1.1202394414241117e-14 4.468114812670102e-18
1.9207263702978936 2.3558277411600504e-22 1.2010980546657285e-14 1.2004501253297544e-14 6.4792933597408245e-18
1.979223391128241 2.4514895133123786e-22 1.2879360153601806e-14 1.287008204385878e-14 9.278109743025109e-18
2.039501978296691 2.552396464897295e-22 1.3817888960729365e-14 1.3804764745786005e-14 1.3124214943356382e-17
2.1016163906111602 2.6597173007527384e-22 1.4837418901309756e-14 1.4819072666937145e-14 1.834623437261395e-17
2.1656225393682647 2.7739791433628565e-22 1.5946133193801733e-14 1.5920780264813037e-14 2.535292898869359e-17
2.231578038680979 2.894802662467553e-22 1.7147486722045677e-14 1.7112840933342388e-14 3.4645788703290184e-17
2.299542257339062 3.0222170332277633e-22 1.8447455727404233e-14 1.8400623483035575e-14 4.68322443686534e-17
2.369576372248914 3.156578828289371e-22 1.9854400724816307e-14 1.979176094328009e-14 6.263978153622223e-17
2.4417434235010123 3.2983301901934077e-22 2.1377828549113706e-14 2.129490173475096e-14 8.292681436274529e-17
2.5161083711144245 3.4485663736844543e-22 2.3032302979387613e-14 2.2923606048449896e-14 1.0869693093771576e-16
2.5927381535095444 3.6092760185892913e-22 2.48398053078176e-14 2.469869747110598e-14 1.411078367116204e-16
2.6717017477616296 3.78230404716e-22 2.682340117657853e-14 2.6641930749844066e-14 1.8147042673444884e-16
2.753070231689431 3.970526773046893e-22 2.901582026292277e-14 2.8784568555022656e-14 2.312517079001271e-16
2.836916847834745 4.181840768742424e-22 3.1490788258565384e-14 3.119870547313616e-14 2.920827854292121e-16
2.9233170693905177 4.434008756098634e-22 3.4406611359256855e-14 3.4040930578578383e-14 3.656807806784659e-16
2.967498994190263 4.59293712609479e-22 3.6178496433758535e-14 3.5771421459399224e-14 4.0707497435931564e-16
3.0123486681368425 4.764805480715674e-22 3.809955007833875e-14 3.764699237453751e-14 4.525577038012323e-16
3.0578761833420214 5.054701002415584e-22 4.10284207479103e-14 4.052581287700752e-14 5.02607870902776e-16
3.1040917844459814 5.3989687510852145e-22 4.4485123564193454e-14 4.3928028007862946e-14 5.570955563305096e-16
3.127460860933648 5.721904720471983e-22 4.7500910927051116e-14 4.691463261006609e-14 5.862783169850373e-16
3.1510058709225794 6.134886584090625e-22 5.1312737396364e-14 5.06960338204871e-14 6.167035758769011e-16
3.162844764501044 6.5082216402636515e-22 5.46398683768492e-14 5.4007417225492393e-14 6.324511513568039e-16
3.1747281389236908 6.932830897515221e-22 5.842336691861309e-14 5.777484630282284e-14 6.485206157902427e-16
3.1986289994194426 8.08805077174553e-22 6.867160093796732e-14 6.798987584304251e-14 6.817250949248087e-16
3.2227097969389145 1.0765029723057685e-21 9.208859896101007e-14 9.137168251856155e-14 7.169164424485112e-16
3.2348180950136065 1.3279864000417194e-21 1.1402837210823107e-13 1.1329267387629001e-13 7.356982319410418e-16
3.240889293275058 1.5158113551262258e-21 1.3040035845036541e-13 1.2965475326738717e-13 7.456051829782489e-16
3.2469718861334385 1.7333999081456115e-21 1.4939866976609057e-13 1.486428137411945e-13 7.558560248960611e-16
3.2714166318528037 2.879379824396943e-21 2.500369816380449e-13 2.492387583298316e-13 7.982233082133018e-16
3.2744851364798273 2.9511313806719717e-21 2.5650805089222473e-13 2.5570483294554145e-13 8.032179466832493e-16
3.2775565192852394 3.024833722117298e-21 2.6316075801225457e-13 2.6235252030277667e-13 8.082377094779476e-16
3.283707930232385 2.954635314765073e-21 2.5753593664618316e-13 2.567187183496624e-13 8.172182965207279e-16
3.2898708863219004 2.7306742343253416e-21 2.3846144954427483e-13 2.3763605506444473e-13 8.253944798301012e-16
3.29141343181113 2.677769282751903e-21 2.3395106445118193e-13 2.331236168032784e-13 8.27447647903517e-16
3.292184975758714 2.6517602941978383e-21 2.317330219501312e-13 2.309045463481089e-13 8.284756020223649e-16
3.295272960557952 2.4890275934306072e-21 2.177160964655642e-13 2.1688362168507264e-13 8.324747804915695e-16
3.3076538914384823 1.9219084757241718e-21 1.6874161227704723e-13 1.6789307319533102e-13 8.485390817162369e-16
3.310756385682612 1.8055469589240494e-21 1.586738818275163e-13 1.578212932655887e-13 8.525885619275466e-16
3.313861789986515 1.697819076437002e-21 1.4934656338149216e-13 1.4848991195133417e-13 8.56651430158043e-16
3.3200813396944477 1.5473068690348628e-21 1.36362391851565e-13 1.3549700317310983e-13 8.653886784551511e-16
3.345076488085796 1.2838015825208526e-21 1.1399174251725363e-13 1.1308742143471606e-13 9.043210825375812e-16
3.3482140837626964 1.2945182166182853e-21 1.1505111135710462e-13 1.1414151646414487e-13 9.09594892959772e-16
3.3513546224236106 1.3053364752723476e-21 1.1612140764632285e-13 1.152065149991435e-13 9.148926471793459e-16
3.3576445397418455 1.3811878650951716e-21 1.2309967443236024e-13 1.2217370605893225e-13 9.259683734280432e-16
3.3702598118196083 1.6566106207728105e-21 1.4820172413841874e-13 1.4725252366358478e-13 9.492004748339596e-16
3.382922481734668 1.7222619947177254e-21 1.5465383626367025e-13 1.536820451198703e-13 9.717911438000005e-16
3.389271646505754 1.7561412901669983e-21 1.5799206141199029e-13 1.570088180397756e-13 9.832433722146782e-16
3.395632727569191 1.793231612297383e-21 1.6163169602348888e-13 1.6063665037988547e-13 9.950456436033753e-16
3.421196662673239 1.9726102324570556e-21 1.7913842616017668e-13 1.780945142538088e-13 1.0439119063678916e-15
3.4276182099114902 1.9401173346209385e-21 1.7651835458646969e-13 1.7546352699655155e-13 1.0548275899181433e-15
3.4340518103208963 1.7923417281375315e-21 1.6337932298747605e-13 1.6231416603268321e-13 1.0651569547928667e-15
3.4469541582030403 1.580782351415522e-21 1.4463620538936665e-13 1.4355121232079135e-13 1.0849930685753122e-15
3.472904465399547 1.523195773642846e-21 1.4041645216582124e-13 1.3928578063066868e-13 1.1306715351525937e-15
3.4990501388274233 1.4351136101385848e-21 1.332925516570651e-13 1.3211511396576296e-13 1.1774376913021122e-15
3.5253949054701885 1.118651013167514e-21 1.0468195528470553e-13 1.0345904790658737e-13 1.2229073781181844e-15
3.5519380250092896 8.180367391056549e-22 7.712720998701452e-14 7.585857209127416e-14 1.2686378957403655e-15
3.578680990867387 7.011959428644686e-22 6.660883135588318e-14 6.529006740950974e-14 1.318763946373432e-15
3.605625307711299 6.566434916072695e-22 6.284629367164902e-14 6.14747205437499e-14 1.3715731278991107e-15
3.660119384959845 6.295919130871424e-22 6.116793587777067e-14 5.968534028346842e-14 1.482595594302256e-15
3.715437065384467 6.121241111897861e-22 6.036967374436789e-14 5.876993217240106e-14 1.5997415719668302e-15
3.8285932144167436 6.1498836473208025e-22 6.249935818869067e-14 6.064747537732331e-14 1.851882811367368e-15
3.94519561050918 6.276056453126379e-22 6.572412541656168e-14 6.359674995148529e-14 2.1273754650763963e-15
4.06534921144712 6.438312505566907e-22 6.947672574326198e-14 6.705070796129407e-14 2.4260177819679152e-15
4.189162171576248 6.618380099582107e-22 7.359500034789713e-14 7.084653155370765e-14 2.7484687941894913e-15
4.316745939156006 6.808574432053493e-22 7.801571835548832e-14 7.492207526626588e-14 3.0936430892224132e-15
4.448215356677963 7.0054266116553885e-22 8.271605740377498e-14 7.925917349067509e-14 3.456883913099881e-15
4.58368876423945 7.208288522517546e-22 8.770345769749876e-14 8.386474806052824e-14 3.838709636970554e-15
4.723288106065518 7.418438333712742e-22 9.30092968235793e-14 8.876773082299085e-14 4.24156600058844e-15
4.867139040275056 7.638004736779244e-22 9.867862955486984e-14 9.402363582916682e-14 4.654993725703065e-15
4.940699165968905 7.756525208391283e-22 1.0172438016938197e-13 9.685745023888938e-14 4.866929930492595e-15
5.015371051989984 7.873654325743823e-22 1.0482113216705221e-13 9.97394231472945e-14 5.0817090197577515e-15
5.091171501069577 8.005778122357147e-22 1.0819089402681444e-13 1.0288697842810943e-13 5.303915598705002e-15
5.129500256944802 8.071233782214808e-22 1.0989664032951172e-13 1.0448076344524798e-13 5.415876884263724e-15
5.168117569889187 8.13774182369853e-22 1.1163637486938314e-13 1.0610690578309269e-13 5.529469086290508e-15
5.20702561229733 8.216519140216749e-22 1.1356565712459284e-13 1.0791230229427394e-13 5.653354830318921e-15
5.246226572918644 8.2953687280526005e-22 1.155186675937191e-13 1.097405263950319e-13 5.778141198687223e-15
5.265937586045735 8.334826253305522e-22 1.1650422934414639e-13 1.10663372169476e-13 5.840857174670391e-15
5.285722656980489 8.374308839957012e-22 1.1749591787602345e-13 1.1159213763095801e-13 5.90378024506544e-15
5.305582063971359 8.413819071315827e-22 1.1849380301806626e-13 1.1252689876244609e-13 5.9669042556201914e-15
5.3255160863122235 8.455713435955388e-22 1.1953123047263468e-13 1.1350051331252991e-13 6.030717160104812e-15
5.365609099470188 8.557924526578292e-22 1.2188686726704627e-13 1.157241240292472e-13 6.162743237799039e-15
5.406003951863644 8.661441485244354e-22 1.2428993692544527e-13 1.1799424033639016e-13 6.295696589055061e-15
5.446702915881641 8.76636141775842e-22 1.2674256514434267e-13 1.2031303683739936e-13 6.429528306943301e-15
5.487708281020852 8.877308614941767e-22 1.293128751751941e-13 1.22748120640869e-13 6.5647545343250774e-15
5.529022354014368 9.03028780452378e-22 1.3253157855974308e-13 1.2582584257648764e-13 6.705735983255461e-15
5.570647458961463 9.188348832130736e-22 1.3586656089185317e-13 1.290188714910221e-13 6.847689400831109e-15
5.612585937458331 9.351914207879783e-22 1.393262508905835e-13 1.3233568575856956e-13 6.990565132013901e-15
5.654840148729818 9.528313149768273e-22 1.4302296848338852e-13 1.3588795592414056e-13 7.135012559247948e-15
5.67608639626678 9.64946694777585e-22 1.4538572054423863e-13 1.3817512523944734e-13 7.210595304791344e-15
5.686739436050992 9.711350965793319e-22 1.4659272307300778e-13 1.393442348964235e-13 7.248488176584256e-15
5.6974124697621304 9.774135476462295e-22 1.4781736259296703e-13 1.4053091491383478e-13 7.28644767913224e-15
5.718818669136295 9.902496590302816e-22 1.5032127850637892e-13 1.4295871505975165e-13 7.362563446627271e-15
5.740305295436557 1.0043348801780001e-21 1.5303225211959074e-13 1.4559274794114487e-13 7.439504178445927e-15
5.7835210386641895 1.0409670043776931e-21 1.598080737133079e-13 1.5220950453083738e-13 7.598569182470557e-15
5.827062130521658 1.0823639155202384e-21 1.6741423660910516e-13 1.5965404123422906e-13 7.760195374876135e-15
5.8489554468988025 1.1117702480573746e-21 1.726087446566756e-13 1.6476123596169107e-13 7.847508694984514e-15
5.870931020387893 1.1429194507380802e-21 1.7811153011513088e-13 1.7017629253277868e-13 7.935237582352186e-15
5.892989160043636 1.175949051342587e-21 1.8394736937007008e-13 1.759239930508967e-13 8.023376319173409e-15
5.915130176081913 1.2133583462314528e-21 1.905122128942466e-13 1.823974605379252e-13 8.114752356321411e-15
5.95966208400165 1.3185679821303713e-21 2.0859005308258435e-13 2.0026681429571083e-13 8.323238786873535e-15
6.004529249263818 1.4693524011427646e-21 2.3419324527048074e-13 2.2563523590313577e-13 8.558009367344947e-15
6.027089341400364 1.5741773300799433e-21 2.5184348242158886e-13 2.431496842986718e-13 8.693798122917097e-15
6.049734195844842 1.697051233400434e-21 2.725214433758356e-13 2.6368377660790653e-13 8.837666767929078e-15
6.095279466722835 2.051634163113347e-21 3.3194258971997664e-13 3.2275080846544986e-13 9.191781254526821e-15
6.141167624020661 2.593238431353933e-21 4.2272977052622994e-13 4.130777918223006e-13 9.65197870392938e-15
6.164241091010745 2.938707269811596e-21 4.808453012598595e-13 4.709041965102135e-13 9.941104749645826e-15
6.187401249150058 3.328020114345156e-21 5.465924847798404e-13 5.363545060722594e-13 1.0237978707580876e-14
6.1990139391386085 3.5174163832396346e-21 5.787830819637416e-13 5.683940473236188e-13 1.0389034640122888e-14
6.204828454712694 3.616823898085631e-21 5.956985948996093e-13 5.852332650301204e-13 1.0465329869488865e-14
6.210648424152782 3.688929545075953e-21 6.081444377387885e-13 5.976141701987755e-13 1.0530267540012776e-14
6.233982942956859 3.931340265421918e-21 6.505425043288084e-13 6.397861110641552e-13 1.0756393264653111e-14
6.239830258556775 3.960880238434008e-21 6.56045438318786e-13 6.452578751206503e-13 1.0787563198135493e-14
6.245683058788269 3.961185071598483e-21 6.567113293079402e-13 6.458925470131037e-13 1.0818782294836402e-14
6.257405133728602 3.949333453386015e-21 6.559753368116343e-13 6.45102032190956e-13 1.0873304620678165e-14
6.269149208991335 3.895173423638323e-21 6.481937480235251e-13 6.373009956037243e-13 1.0892752419800801e-14
6.280915325867298 3.767065906998213e-21 6.280519815727085e-13 6.171831499934981e-13 1.0868831579210545e-14
6.304513850009849 3.454355082514138e-21 5.780800929037067e-13 5.67298339246048e-13 1.0781753657658546e-14
6.32820103803542 3.0717508436371896e-21 5.159833489020154e-13 5.053304192330616e-13 1.0652929668953685e-14
6.3519772230701035 2.72227542760473e-21 4.589976142926811e-13 4.484602235967734e-13 1.0537390695907856e-14
6.375842739491607 2.427517647855934e-21 4.108368829640413e-13 4.004014084440474e-13 1.0435474519993675e-14
6.399797922933955 2.1931135224274455e-21 3.725604992233737e-13 3.621774243279198e-13 1.0383074895453889e-14
6.42384311029221 1.9974559373059635e-21 3.4059758672107127e-13 3.3025704673265754e-13 1.0340539988413786e-14
6.447978639727206 1.8552559407949346e-21 3.175388401200869e-13 3.0720221642784736e-13 1.0336623692239502e-14
6.472204850670314 1.7363019893312528e-21 2.982956708292234e-13 2.879553007610211e-13 1.0340370068202315e-14
6.496522083828205 1.6587426753418943e-21 2.860417130420383e-13 2.7566630109772624e-13 1.0375411944311997e-14
