Dust emission spectrum from A.P. Jones, M. Kohler, N. Ysard, M. Bocchio, and L. Verstraete (2017), A&A, 602A, 46J 
inside the DustPedia framework.

lambda    nu*dP/dnu     j_nu    j_nu(carb.) j_nu(sil)
 (um)   (erg s-1 H-1) (Jy cm2 sr-1 H-1)
0.9927057738263894 1.495792952691137e-23 3.941499389684754e-16 3.941499239285039e-16 1.5039971535283935e-23
1.0001793341362166 1.5208550245145977e-23 4.037710031239865e-16 4.0377098501672047e-16 1.810726602918731e-23
1.0077091589558085 1.545955417172299e-23 4.135248419238132e-16 4.13524820152342e-16 2.1771471202130306e-23
1.0114953028030835 1.5585179097167636e-23 4.1845147275969277e-16 4.184514488985809e-16 2.3861111851999784e-23
1.0152956718711033 1.5710875078041105e-23 4.234112015427553e-16 4.234111754000597e-16 2.614269560902273e-23
1.0229392996569957 1.5962325474808323e-23 4.334264979118652e-16 4.3342646656129637e-16 3.1350568845312476e-23
1.0267826658714554 1.6087786274613474e-23 4.384744069896592e-16 4.384743726739116e-16 3.4315747660218855e-23
1.0306404723013447 1.621327979050663e-23 4.4355502447607735e-16 4.4355498692709403e-16 3.75489831947338e-23
1.03451277320114 1.633879825679876e-23 4.486683150101769e-16 4.486682739368803e-16 4.1073296541912546e-23
1.0383996230291617 1.6464333999069983e-23 4.538142434294814e-16 4.538141985159074e-16 4.4913573864547287e-23
1.0403485208654093 1.652710597608507e-23 4.563994359363055e-16 4.563993889757849e-16 4.696052049892915e-23
1.0423010764483396 1.6589879436959842e-23 4.58992774868543e-16 4.589927257718353e-16 4.909670771010125e-23
1.0462171883269815 1.671542708693439e-23 4.642038748589257e-16 4.642038212071774e-16 5.36517482271952e-23
1.0471985131304309 1.67468134775312e-23 4.655117346993888e-16 4.655116798471473e-16 5.485224150309759e-23
1.048180758391296 1.6778199430000677e-23 4.668216274229589e-16 4.668215713445178e-16 5.607844120697531e-23
1.0501480137395462 1.6840969565029454e-23 4.694475094306021e-16 4.694474508205372e-16 5.861006491511613e-23
1.0521189612883777 1.6903736585029057e-23 4.720815167303455e-16 4.72081455479414e-16 6.125093131003237e-23
1.0531058218030118 1.693507415434993e-23 4.734003223879516e-16 4.734002597741379e-16 6.261381366933307e-23
1.0540936079674168 1.6966264842827483e-23 4.747170769872642e-16 4.74717012981259e-16 6.400600524664448e-23
1.058054026499678 1.7091008205832356e-23 4.80004114427468e-16 4.800040445505602e-16 6.987690784129632e-23
1.0590464539527713 1.7122188650789412e-23 4.813308758698816e-16 4.81330804446633e-16 7.142324851781675e-23
1.06003981227728 1.715336671972345e-23 4.826596370866281e-16 4.826595640843193e-16 7.300230892692692e-23
1.0620293250338977 1.7215715297627652e-23 4.853231567565535e-16 4.853230804953195e-16 7.626123392751282e-23
1.0660195594769086 1.7340379215261657e-23 4.906741706648353e-16 4.906740874633073e-16 8.320152786534226e-23
1.070024785945596 1.7464993170472143e-23 4.960571239158366e-16 4.960570331721866e-16 9.074364998707729e-23
1.0740450607676866 1.7589550492253135e-23 5.01471985456392e-16 5.014718865193746e-16 9.893701745792165e-23
1.07808044048254 1.7714044629394492e-23 5.069187255281198e-16 5.069186176932586e-16 1.0783486124028464e-22
1.0861967418109137 1.7962614383775013e-23 5.179018656283994e-16 5.179017376507509e-16 1.2797764846791685e-22
1.0902777775684922 1.8086215030733876e-23 5.234247848848883e-16 5.234246455341675e-16 1.3935072077894463e-22
1.0943741465085532 1.8209719424011563e-23 5.289790983287872e-16 5.289789466436886e-16 1.5168509846372148e-22
1.1026131145906286 1.845641611143129e-23 5.401818150975789e-16 5.40181635546897e-16 1.7955068204243192e-22
1.1109141095355224 1.8702659142996522e-23 5.515098516195394e-16 5.515096393593696e-16 2.122601698142986e-22
1.1192775983109025 1.8948197287573842e-23 5.629568950126162e-16 5.629566444078232e-16 2.5060479284440327e-22
1.1277040513999907 1.9192033059173662e-23 5.744940787099404e-16 5.744937832137365e-16 2.9549620392996103e-22
1.1361939428280308 1.9435262397770237e-23 5.86154780344236e-16 5.861544323609217e-16 3.4798331427240686e-22
1.1447477501889525 1.967784982436249e-23 5.9793899004309655e-16 5.979385807717101e-16 4.0927138653527956e-22
1.1533659546722406 1.9919868533320225e-23 6.098500005683725e-16 6.098495198242216e-16 4.807441510373113e-22
1.1707974979042381 2.040295140058551e-23 6.340802318285259e-16 6.340795710071692e-16 6.608213568973702e-22
1.1884924949847024 2.088335378321502e-23 6.588190106974247e-16 6.588181068739981e-16 9.03823426576391e-22
1.2064549276569216 2.1364531837094147e-23 6.841855776111048e-16 6.841843475027273e-16 1.230108377694735e-21
1.2246888378427687 2.1842492322288078e-23 7.100638197113679e-16 7.100621536963527e-16 1.6660150151826112e-21
1.2431983285522175 2.2316559423186796e-23 7.364395267002431e-16 7.364372811993171e-16 2.2455009259026166e-21
1.2619875648066055 2.27870866441257e-23 7.633317244585227e-16 7.633287123356592e-16 3.0121228633412806e-21
1.3004222497298317 2.371278504524749e-23 8.1853336920364e-16 8.185280253262197e-16 5.3438774198571704e-21
1.3400274889804893 2.4620182221337797e-23 8.757384203341858e-16 8.757291128116809e-16 9.307522505058212e-21
1.3808389325824078 2.5510604038157506e-23 9.350464773033586e-16 9.350305549283224e-16 1.592237503624602e-20
1.4228933163050095 2.639107094519117e-23 9.967787862086777e-16 9.967520196978364e-16 2.6766510841325168e-20
1.466228494730424 2.727956819988775e-23 1.0617165327386437e-15 1.061672294039901e-15 4.4238698742477394e-20
1.5108834753276823 2.817111572227192e-23 1.129807496381458e-15 1.1297355795592586e-15 7.191682219947189e-20
1.5568984535646726 2.9062776953885394e-23 1.2010658786657684e-15 1.2009507638142535e-15 1.1511485151489824e-19
1.6043148490894465 2.996099959394591e-23 1.2758961735901819e-15 1.2757144088618382e-15 1.817647283437297e-19
1.6531753430134553 3.087318409168568e-23 1.3547831134610638e-15 1.354500327791464e-15 2.8278566959997396e-19
1.7035239163302658 3.1809379442812064e-23 1.4383774468935446e-15 1.4379438589123217e-15 4.335879812234768e-19
1.755405889504358 3.279823944065412e-23 1.5282609501329869e-15 1.5276054301889427e-15 6.555199440439597e-19
1.8088679632656115 3.384210555282477e-23 1.6249263294330035e-15 1.6239487845990393e-15 9.775448339644066e-19
1.8639582606462262 3.49446766873894e-23 1.7289667555164978e-15 1.7275282833518862e-15 1.4384721646112327e-18
1.9207263702978936 3.6116650510308904e-23 1.8413756621956207e-15 1.8392861583151527e-15 2.089503880468059e-18
1.979223391128241 3.7372816942041027e-23 1.9634510640871895e-15 1.960453774876254e-15 2.9972892109354786e-18
2.039501978296691 3.8729121764999524e-23 2.0966754634525957e-15 2.092428173763009e-15 4.2472896895871265e-18
2.1016163906111602 4.0216565442497535e-23 2.243509218342101e-15 2.237561213843058e-15 5.94800449904315e-18
2.1656225393682647 4.185753316750049e-23 2.4061673306014014e-15 2.3979324866531403e-15 8.234843948260561e-18
2.231578038680979 4.366187049334454e-23 2.5863294733400344e-15 2.575054946180864e-15 1.1274527159170141e-17
2.299542257339062 4.564758349363798e-23 2.7863047766047484e-15 2.771035023332383e-15 1.5269753272364703e-17
2.369576372248914 4.784081847596601e-23 3.0091147178471474e-15 2.98865046961968e-15 2.0464248227467633e-17
2.4417434235010123 5.027090784739811e-23 3.2582633848036726e-15 3.2311165444294313e-15 2.714684037424148e-17
2.5161083711144245 5.298052894354686e-23 3.538466314430405e-15 3.502809584372531e-15 3.565673005787501e-17
2.5927381535095444 5.60304674618239e-23 3.856135956046119e-15 3.809748823194043e-15 4.638713285207579e-17
2.6717017477616296 5.948414729650205e-23 4.21850577501515e-15 4.15872003123362e-15 5.978574378152968e-17
2.753070231689431 6.34277591617814e-23 4.635174536566379e-15 4.558817959831897e-15 7.635657673448232e-17
2.836916847834745 6.804606571644305e-23 5.124117262717608e-15 5.027453737958632e-15 9.666352475897539e-17
2.9233170693905177 7.372286440239132e-23 5.7206786980188925e-15 5.599372360949191e-15 1.2130633706970143e-16
2.967498994190263 7.730832192206685e-23 6.089564851795511e-15 5.9543548095793e-15 1.3521004221621168e-16
3.0123486681368425 8.123262488014578e-23 6.4953888928770335e-15 6.344881425889475e-15 1.5050746698755841e-16
3.0578761833420214 8.758999214809608e-23 7.109577894797074e-15 6.942215863015621e-15 1.6736203178145259e-16
3.1040917844459814 9.516675046142437e-23 7.841320905271538e-15 7.655579326487272e-15 1.8574157878426863e-16
3.127460860933648 1.0200993330567865e-22 8.468447120922648e-15 8.272849603790076e-15 1.9559751713257124e-16
3.1510058709225794 1.1072166163410523e-22 9.260858321738758e-15 9.054976348176018e-15 2.0588197356273603e-16
3.162844764501044 1.1841093395122421e-22 9.941206988784378e-15 9.729998542486381e-15 2.1120844629799777e-16
3.1747281389236908 1.2718776112543137e-22 1.071818618632574e-14 1.0501539990955474e-14 2.1664619537026343e-16
3.1986289994194426 1.5105882097346e-22 1.282565028929775e-14 1.2597760673645759e-14 2.2788961565199444e-16
3.2227097969389145 2.0581733529583253e-22 1.760648185548916e-14 1.736666681038398e-14 2.3981504510517574e-16
3.2348180950136065 2.5713954309935894e-22 2.20794456203415e-14 2.183326355304874e-14 2.461820672927603e-16
3.240889293275058 2.953960164083275e-22 2.541196587173493e-14 2.516242531406476e-14 2.4954055767016835e-16
3.2469718861334385 3.3966135921128586e-22 2.927481131079281e-14 2.902179563646824e-14 2.530156743245708e-16
3.2714166318528037 5.737833436364303e-22 4.9825679176273957e-14 4.955829308327909e-14 2.6738609299487153e-16
3.2744851364798273 5.884906060252074e-22 5.115074825490764e-14 5.0881665927765436e-14 2.690823271422106e-16
3.2775565192852394 6.036048515189131e-22 5.251366681881756e-14 5.224287952671755e-14 2.7078729210001055e-16
3.283707930232385 5.894803072370315e-22 5.138108324236268e-14 5.110724141501062e-14 2.7384182735207088e-16
3.2898708863219004 5.440384864092393e-22 4.7509221146283305e-14 4.7232594442513776e-14 2.7662670376952773e-16
3.29141343181113 5.333137980436255e-22 4.659450369472658e-14 4.6317177560779434e-14 2.7732613394714647e-16
3.292184975758714 5.280428207941653e-22 4.6144803830664146e-14 4.5867127499247484e-14 2.7767633141666425e-16
3.295272960557952 4.94885142134821e-22 4.328777295550019e-14 4.3008733464634724e-14 2.7903949086545613e-16
3.3076538914384823 3.7965444134414194e-22 3.333327437271078e-14 3.304875718112893e-14 2.8451719158185017e-16
3.310756385682612 3.561050123635637e-22 3.1294984808168153e-14 3.1009086381426225e-14 2.8589842674192297e-16
3.313861789986515 3.34339567194204e-22 2.940976812894387e-14 2.912248373137926e-14 2.8728439756461023e-16
3.3200813396944477 3.0395085793880706e-22 2.67868428838062e-14 2.649657975174615e-14 2.902631320600505e-16
3.345076488085796 2.5085455617668145e-22 2.227396224331086e-14 2.1970430751206654e-14 3.0353149210421103e-16
3.3482140837626964 2.530983484700002e-22 2.2494273081911884e-14 2.2188944425978978e-14 3.0532865593290594e-16
3.3513546224236106 2.5536415110000852e-22 2.2716935632978737e-14 2.2409801431742823e-14 3.0713420123591667e-16
3.3576445397418455 2.7091494158487386e-22 2.414555032719021e-14 2.383464206030354e-14 3.109082668866662e-16
3.3702598118196083 3.273563164395688e-22 2.928556046641408e-14 2.896673538219016e-14 3.1882508422391163e-16
3.382922481734668 3.409473653243679e-22 3.0616026001344063e-14 3.028949530299361e-14 3.265306983504634e-16
3.389271646505754 3.479671210610538e-22 3.1305022590069385e-14 3.0974584104384405e-14 3.304384856849812e-16
3.395632727569191 3.5559029146537863e-22 3.205088595633373e-14 3.1716420192059917e-14 3.344657642738159e-16
3.421196662673239 3.9219055922182285e-22 3.561595614677843e-14 3.52648075183907e-14 3.511486283877389e-16
3.4276182099114902 3.857086947284927e-22 3.5093065212198064e-14 3.473818193213141e-14 3.5488328006665057e-16
3.4340518103208963 3.558267561804511e-22 3.24350728507566e-14 3.207665161160494e-14 3.5842123915166474e-16
3.4469541582030403 3.1325849433353225e-22 2.8662086140964765e-14 2.8296862777036145e-14 3.6522336392861234e-16
3.472904465399547 3.0238106857588255e-22 2.7875127797913025e-14 2.7494251909862193e-14 3.808758880508276e-16
3.4990501388274233 2.852368392918873e-22 2.6492638539007652e-14 2.6095719006518835e-14 3.969195324888127e-16
3.5253949054701885 2.213021363489414e-22 2.0709175666942892e-14 2.0296628048417292e-14 4.125476185256037e-16
3.5519380250092896 1.6085765647483341e-22 1.5166192000761886e-14 1.4737902880572045e-14 4.2828912018984393e-16
3.578680990867387 1.378080290005428e-22 1.3090822695986463e-14 1.2645275070459507e-14 4.455476255269588e-16
3.605625307711299 1.2945038545318219e-22 1.2389488427252358e-14 1.1925743665384806e-14 4.637447618675548e-16
3.660119384959845 1.2541424376426126e-22 1.2184607618474345e-14 1.1682540267513921e-14 5.020673509604255e-16
3.715437065384467 1.2346932217048577e-22 1.2176946734515179e-14 1.1634346090618909e-14 5.426006438962731e-16
3.8285932144167436 1.275053458467991e-22 1.295797243989108e-14 1.2327787671772293e-14 6.301847681187869e-16
3.94519561050918 1.3389809335721384e-22 1.4022077631988432e-14 1.3295678004011857e-14 7.263996279765747e-16
4.06534921144712 1.4139278795392194e-22 1.525789240931673e-14 1.442658445513281e-14 8.31307954183922e-16
4.189162171576248 1.496091247626508e-22 1.6636221285705674e-14 1.5690944218060252e-14 9.452770676454218e-16
4.316745939156006 1.5838071136629402e-22 1.81479766347623e-14 1.7079892995105865e-14 1.0680836396564362e-15
4.448215356677963 1.6761923401278878e-22 1.9791517278206656e-14 1.859325809288203e-14 1.1982591853246271e-15
4.58368876423945 1.7730031702745642e-22 2.1572181531850986e-14 2.023603813596164e-14 1.336143395889349e-15
4.723288106065518 1.8743952056678628e-22 2.35003881148939e-14 2.201761891329788e-14 1.4827692015960192e-15
4.867139040275056 1.9805660931530677e-22 2.5587775152074518e-14 2.3953128515419078e-14 1.6346466366554357e-15
4.940699165968905 2.0365118834988692e-22 2.6708210634368462e-14 2.4995158791836774e-14 1.7130518425316832e-15
5.015371051989984 2.0928435063440717e-22 2.7861805548940543e-14 2.6068905908768935e-14 1.792899640171604e-15
5.091171501069577 2.1530336245223847e-22 2.9096313830676735e-14 2.7220466425717965e-14 1.8758474049587678e-15
5.129500256944802 2.183255035348945e-22 2.972685463479404e-14 2.7809047759496172e-14 1.9178068752978653e-15
5.168117569889187 2.213872528329114e-22 3.037067393387163e-14 2.8410211724482603e-14 1.960462209389035e-15
5.20702561229733 2.2473395490218883e-22 3.10618874381426e-14 2.9055048528883e-14 2.0068389092595948e-15
5.246226572918644 2.281006347836248e-22 3.176456920881407e-14 2.9710898452706116e-14 2.053670756107945e-15
5.265937586045735 2.2979148363355346e-22 3.212026129513829e-14 3.004300821205486e-14 2.0772530830834204e-15
5.285722656980489 2.3148735266141915e-22 3.247888213516593e-14 3.037793811989905e-14 2.1009440152668695e-15
5.305582063971359 2.331882558329935e-22 3.284045332874021e-14 3.0715711554248e-14 2.1247417744922047e-15
5.3255160863122235 2.3494458538631776e-22 3.321211816934818e-14 3.106329984702165e-14 2.148818322326534e-15
5.365609099470188 2.388670440235652e-22 3.4020813807074935e-14 3.1822181764999096e-14 2.198632042075834e-15
5.406003951863644 2.4283923766119413e-22 3.4846940412114934e-14 3.2598013638886973e-14 2.248926773227958e-15
5.446702915881641 2.4686318060641873e-22 3.5691059561344316e-14 3.339137090588192e-14 2.299688655462391e-15
5.487708281020852 2.510383253454057e-22 3.6567938592267984e-14 3.421683398538922e-14 2.351104606878763e-15
5.529022354014368 2.5614465013639863e-22 3.7592661006002425e-14 3.5187930538936915e-14 2.4047304670655075e-15
5.570647458961463 2.613918112914613e-22 3.865156525323985e-14 3.619269299964082e-14 2.4588722535990312e-15
5.612585937458331 2.667897714278344e-22 3.9746748957209546e-14 3.723323283348294e-14 2.5135161237266095e-15
5.654840148729818 2.724990075990505e-22 4.0902955605044834e-14 3.8334056960507844e-14 2.5688986445369764e-15
5.67608639626678 2.7608579277106996e-22 4.1597045858891896e-14 3.8999184529822814e-14 2.5978613290690815e-15
5.686739436050992 2.7791220861794174e-22 4.1950813620100554e-14 3.9338416995765957e-14 2.6123966243345957e-15
5.6974124697621304 2.7976133628120548e-22 4.2309197559372986e-14 3.9682229950927844e-14 2.626967608445121e-15
5.718818669136295 2.835298980664005e-22 4.304023372637312e-14 4.0384017931723555e-14 2.6562157946495694e-15
5.740305295436557 2.87584213210052e-22 4.381970664383866e-14 4.1133895645912326e-14 2.6858109979263363e-15
5.7835210386641895 2.9759364002774805e-22 4.568623804805115e-14 4.2939203496769526e-14 2.7470345512816134e-15
5.827062130521658 3.0872640043978563e-22 4.775214131733238e-14 4.494275211389242e-14 2.8093892034399694e-15
5.8489554468988025 3.1624607656204556e-22 4.909902776527311e-14 4.6256020214984596e-14 2.843007550288512e-15
5.870931020387893 3.2418118651606146e-22 5.052010194386531e-14 4.7643269396068675e-14 2.8768325477966127e-15
5.892989160043636 3.325644335552081e-22 5.2021261149609265e-14 4.9110398261604467e-14 2.9108628880047905e-15
5.915130176081913 3.4195343367016545e-22 5.369090306884681e-14 5.0744778402353315e-14 2.946124666493495e-15
5.95966208400165 3.6762301241704004e-22 5.815589693794649e-14 5.51297190491943e-14 3.0261778887521926e-15
6.004529249263818 4.0369855685924175e-22 6.434363537865108e-14 6.122752410564983e-14 3.1161112730012523e-15
6.027089341400364 4.284429878959372e-22 6.85441036591118e-14 6.53761769869195e-14 3.167926672192325e-15
6.049734195844842 4.57340185225346e-22 7.344210059094576e-14 7.021931414598527e-14 3.222786444960494e-15
6.095279466722835 5.399985137630602e-22 8.736864901461756e-14 8.401152579010382e-14 3.3571232245137523e-15
6.141167624020661 6.655415946300866e-22 1.0849146849437502e-13 1.0496062002574748e-13 3.530848468627494e-15
6.164241091010745 7.455064900236929e-22 1.2198332799905083e-13 1.1834374817939208e-13 3.639579819658723e-15
6.187401249150058 8.356364299374487e-22 1.3724454087379784e-13 1.3349321414807092e-13 3.751326725726931e-15
6.1990139391386085 8.795721501215498e-22 1.4473165084537066e-13 1.4092344411286535e-13 3.808206732505339e-15
6.204828454712694 9.026324593793431e-22 1.4866548743157055e-13 1.4482854100714209e-13 3.836946424428417e-15
6.210648424152782 9.194744133433115e-22 1.5158143935393523e-13 1.4771993563829653e-13 3.861503715638714e-15
6.233982942956859 9.764235505260446e-22 1.6157467401938774e-13 1.576272478961102e-13 3.947426123277587e-15
6.239830258556775 9.835779268877577e-22 1.6291121501337784e-13 1.589516376920657e-13 3.959577321312035e-15
6.245683058788269 9.840675387261085e-22 1.631451926139949e-13 1.5917344094948435e-13 3.971751664510548e-15
6.257405133728602 9.821960476303205e-22 1.6314053770439644e-13 1.5914734242403028e-13 3.9931952803662456e-15
6.269149208991335 9.706425038748962e-22 1.615241053862837e-13 1.575223824206029e-13 4.001722965680833e-15
6.280915325867298 9.421555482635963e-22 1.5707786209352184e-13 1.5308359491928186e-13 3.9942671742400065e-15
6.304513850009849 8.72121743561595e-22 1.4594800085650032e-13 1.4198312263505383e-13 3.964878221446458e-15
6.32820103803542 7.859431402439742e-22 1.3202033439322478e-13 1.2810024954563618e-13 3.920084847588603e-15
6.3519772230701035 7.071877188750707e-22 1.1923755859867089e-13 1.1535737789319672e-13 3.880180705474109e-15
6.375842739491607 6.407724128307589e-22 1.0844532521081803e-13 1.0460004740294233e-13 3.845277807875704e-15
6.399797922933955 5.881826440013538e-22 9.991895870539364e-14 9.609026095030327e-14 3.82869775509037e-15
6.42384311029221 5.443620938587714e-22 9.28222805859705e-14 8.900651849341186e-14 3.815762092558648e-15
6.447978639727206 5.1280835028766535e-22 8.777040686066675e-14 8.395325758881861e-14 3.817149271848154e-15
6.472204850670314 4.865312880226413e-22 8.358579200615768e-14 7.976439950256691e-14 3.821392503590785e-15
6.496522083828205 4.697928352685846e-22 8.101337800777572e-14 7.717610557909642e-14 3.8372724286792825e-15
