Dust emission spectrum from A.P. Jones, M. Kohler, N. Ysard, M. Bocchio, and L. Verstraete (2017), A&A, 602A, 46J 
inside the DustPedia framework.

lambda    nu*dP/dnu     j_nu    j_nu(carb.) j_nu(sil)
 (um)   (erg s-1 H-1) (Jy cm2 sr-1 H-1)
0.9927057738263894 8.747934756907304e-23 2.305130495722551e-15 2.305130329447325e-15 1.6627522572180518e-22
1.0001793341362166 8.895199366359864e-23 2.3615818163136807e-15 2.3615816161642882e-15 2.0014939269907262e-22
1.0077091589558085 9.04292179260347e-23 2.418874932147533e-15 2.418874691541451e-15 2.4060608244625513e-22
1.0114953028030835 9.116945866557352e-23 2.4478380396826072e-15 2.4478377760088028e-15 2.636738041599685e-22
1.0152956718711033 9.191073913146611e-23 2.4770126614226135e-15 2.477012372565301e-15 2.888573125192449e-22
1.0229392996569957 9.339556362420995e-23 2.5359783651844244e-15 2.535978018854879e-15 3.463295460798666e-22
1.0267826658714554 9.413740687875863e-23 2.5657255107772544e-15 2.56572513173108e-15 3.790461744444488e-22
1.0306404723013447 9.488012009950898e-23 2.595684188320285e-15 2.5956837736044164e-15 4.1471586822962245e-22
1.03451277320114 9.562367177521095e-23 2.6258547915307998e-15 2.6258543379390396e-15 4.535917597848263e-22
1.0383996230291617 9.636803103635783e-23 2.65623772562096e-15 2.656237229673518e-15 4.959474420031184e-22
1.0403485208654093 9.674050404468774e-23 2.671508946701153e-15 2.6715084281794776e-15 5.18521675333771e-22
1.0423010764483396 9.711316767329883e-23 2.6868334080437363e-15 2.6868328659652224e-15 5.420785142686208e-22
1.0462171883269815 9.785905215427739e-23 2.717642269251075e-15 2.7176416769468375e-15 5.9230423634973115e-22
1.0471985131304309 9.804563673039996e-23 2.7253778454815042e-15 2.72537723994124e-15 6.055402639068885e-22
1.048180758391296 9.82322657973898e-23 2.7331267801589307e-15 2.7331261610996684e-15 6.190592621795858e-22
1.0501480137395462 9.860565564338963e-23 2.7486647534642644e-15 2.7486641064949676e-15 6.469692970918375e-22
1.0521189612883777 9.897921819944844e-23 2.7642562469745874e-15 2.764255570892876e-15 6.7608171066075255e-22
1.0531058218030118 9.916580975013052e-23 2.7720649982223885e-15 2.7720643071172774e-15 6.911051113147314e-22
1.0540936079674168 9.935161294733144e-23 2.7798639081285966e-15 2.7798632016775044e-15 7.064510925443939e-22
1.058054026499678 1.0009520223327901e-22 2.811192196960477e-15 2.8111914258006374e-15 7.711598386703639e-22
1.0590464539527713 1.0028119161805637e-22 2.8190574686004935e-15 2.8190566803984267e-15 7.882020664307007e-22
1.06003981227728 1.004672170142907e-22 2.8269360350970706e-15 2.8269352294927725e-15 8.056042979562739e-22
1.0620293250338977 1.008393742377508e-22 2.84273308336858e-15 2.8427322418507635e-15 8.415178154067299e-22
1.0660195594769086 1.0158410335759597e-22 2.8744870598821655e-15 2.8744861418899938e-15 9.17992171988371e-22
1.070024785945596 1.0232936478315913e-22 2.9064546370559018e-15 2.906453635969524e-15 1.0010863772328736e-21
1.0740450607676866 1.0307513451554706e-22 2.938636344314841e-15 2.9386352529719917e-15 1.0913428496746758e-21
1.07808044048254 1.0382138938378207e-22 2.9710327308114306e-15 2.971031541465667e-15 1.189345762883126e-21
1.0861967418109137 1.0531409745262179e-22 3.0364381477203036e-15 3.0364367365656143e-15 1.4111546901784239e-21
1.0902777775684922 1.0605785122510476e-22 3.069371223803337e-15 3.0693696874371685e-15 1.5363661684596216e-21
1.0943741465085532 1.0680195969583587e-22 3.1025192109854465e-15 3.1025175388441833e-15 1.6721412640113157e-21
1.1026131145906286 1.082911674928802e-22 3.169462536072153e-15 3.1694605572591954e-15 1.9788129572784117e-21
1.1109141095355224 1.097815838237597e-22 3.2372736166702753e-15 3.237271277983802e-15 2.3386864738081576e-21
1.1192775983109025 1.112718882580227e-22 3.305922762214808e-15 3.3059200017836467e-15 2.7604311620168835e-21
1.1277040513999907 1.127564643198578e-22 3.3752505994701565e-15 3.3752473454382456e-15 3.2540319114353943e-21
1.1361939428280308 1.1424175438857302e-22 3.4454564635801735e-15 3.445452632607524e-15 3.830972649505085e-21
1.1447477501889525 1.1572768831180432e-22 3.5165476760327072e-15 3.516543171588824e-15 4.504443883773998e-21
1.1533659546722406 1.1721478527889007e-22 3.58854963070572e-15 3.588544341122396e-15 5.289583324321852e-21
1.1707974979042381 1.2019703135930375e-22 3.7354674827692224e-15 3.735460215981489e-15 7.266787734102877e-21
1.1884924949847024 1.2318341464202557e-22 3.886137074113961e-15 3.886127140952533e-15 9.933161426744627e-21
1.2064549276569216 1.2619462230365413e-22 4.041302716604918e-15 4.041289205601656e-15 1.3511003261806344e-20
1.2246888378427687 1.2920936208611744e-22 4.2003857358218775e-15 4.200367448142223e-15 1.828767965514816e-20
1.2431983285522175 1.3222469066407906e-22 4.3633737066820335e-15 4.3633490733170185e-15 2.46333650152959e-20
1.2619875648066055 1.3524441472105236e-22 4.530476138730874e-15 4.530443116257794e-15 3.302247308250611e-20
1.3004222497298317 1.4127533994734324e-22 4.876634261721386e-15 4.8765757512508455e-15 5.85104705391709e-20
1.3400274889804893 1.473176093797328e-22 5.240078621912233e-15 5.239976848222539e-15 1.0177368969459504e-19
1.3808389325824078 1.533920858021801e-22 5.622318047076009e-15 5.622144179537208e-15 1.738675388004543e-19
1.4228933163050095 1.595529874387721e-22 6.026244008266244e-15 6.02595213313261e-15 2.9187513363276274e-19
1.466228494730424 1.6591877244294512e-22 6.457532703728813e-15 6.457050990987447e-15 4.817127413666574e-19
1.5108834753276823 1.7247789402966714e-22 6.917255942431279e-15 6.9164739857258225e-15 7.819567054571319e-19
1.5568984535646726 1.7923063282904683e-22 7.406993414435631e-15 7.405743623362125e-15 1.2497910735063101e-18
1.6043148490894465 1.8623216983153676e-22 7.930740499574922e-15 7.928770073178617e-15 1.9704263963047614e-18
1.6531753430134553 1.9354485021407885e-22 8.493173039382095e-15 8.490112205572965e-15 3.0608338091297016e-18
1.7035239163302658 2.0124607915252523e-22 9.100077606014295e-15 9.095391868970915e-15 4.685737043379104e-18
1.755405889504358 2.0952335567763737e-22 9.762913134479261e-15 9.755840336554024e-15 7.072797925235411e-18
1.8088679632656115 2.1841301650492837e-22 1.048708570026074e-14 1.0476555595525374e-14 1.0530104735367081e-17
1.8639582606462262 2.2795783754115647e-22 1.1278728554106834e-14 1.126325914078835e-14 1.5469413318483824e-17
1.9207263702978936 2.3824357031278758e-22 1.214663890061842e-14 1.2124206427148998e-14 2.2432473469418643e-17
1.979223391128241 2.493816231200292e-22 1.3101731508175439e-14 1.3069609031371103e-14 3.2122476804336394e-17
2.039501978296691 2.6148973377248075e-22 1.4156249451568702e-14 1.411081107006971e-14 4.54383814989921e-17
2.1016163906111602 2.747788150357062e-22 1.5328728292801772e-14 1.5265210345245242e-14 6.351794755653126e-17
2.1656225393682647 2.8940957413615874e-22 1.663661973731341e-14 1.6548843358727946e-14 8.777637858546868e-17
2.231578038680979 3.0546502319812145e-22 1.8094350600307537e-14 1.7974400677875763e-14 1.1994992243177728e-16
2.299542257339062 3.2308157925276263e-22 1.972073171475642e-14 1.95585901013143e-14 1.6214161344211332e-16
2.369576372248914 3.4244054606006383e-22 2.1538989506515654e-14 2.1322119369692937e-14 2.1687013682271246e-16
2.4417434235010123 3.6374202190051667e-22 2.3575609875011446e-14 2.3288502398962534e-14 2.8710747604891596e-16
2.5161083711144245 3.872620610759845e-22 2.586447861693477e-14 2.5488150384195963e-14 3.763282327388051e-16
2.5927381535095444 4.1337188640740563e-22 2.844913252741083e-14 2.796059193700806e-14 4.885405904027629e-16
2.6717017477616296 4.424319478873838e-22 3.1376455947345884e-14 3.0748172844978775e-14 6.282831023671135e-16
2.753070231689431 4.749028722259918e-22 3.470495773103913e-14 3.3904322921931665e-14 8.006348091074638e-16
2.836916847834745 5.117441532830394e-22 3.853620370734785e-14 3.75249608184664e-14 1.0112428888814494e-15
2.9233170693905177 5.548697672983553e-22 4.3056271398150396e-14 4.1790219074942394e-14 1.266052323207992e-15
2.967498994190263 5.803983214360128e-22 4.5717888196057293e-14 4.4308521764353557e-14 1.4093664317037342e-15
3.0123486681368425 6.078566415873453e-22 4.860442813528954e-14 4.703759235239666e-14 1.5668357828928827e-15
3.0578761833420214 6.477540395112468e-22 5.257744278351066e-14 5.0837324362634205e-14 1.740118420876457e-15
3.1040917844459814 6.936823391604938e-22 5.71563681779981e-14 5.522760363633284e-14 1.9287645416652457e-15
3.127460860933648 7.318464773834716e-22 6.075489899384567e-14 5.872509851078988e-14 2.029800483055816e-15
3.1510058709225794 7.790995580048192e-22 6.51645804328271e-14 6.302944225706349e-14 2.135138175763595e-15
3.162844764501044 8.193326555046717e-22 6.878719092273569e-14 6.659753182168793e-14 2.1896591010477547e-15
3.1747281389236908 8.646820944037693e-22 7.28672601655583e-14 7.062196570204792e-14 2.2452944635103835e-15
3.1986289994194426 9.858204052905284e-22 8.37010886542767e-14 8.134083434007021e-14 2.3602543142064797e-15
3.2227097969389145 1.2579363066647837e-21 1.0760917066009173e-13 1.0512707760115675e-13 2.4820930589349833e-15
3.2348180950136065 1.5106319787578784e-21 1.29711347485927e-13 1.2716422850964166e-13 2.5471189762853672e-15
3.240889293275058 1.698522662920072e-21 1.4611842254104416e-13 1.4353700392682513e-13 2.581418614219011e-15
3.2469718861334385 1.9159049421755545e-21 1.6512845559425392e-13 1.625115467303127e-13 2.616908863941202e-15
3.2714166318528037 3.058207703501449e-21 2.655658753064545e-13 2.6280228332350365e-13 2.763591982950859e-15
3.2744851364798273 3.1301758456313924e-21 2.720703355910932e-13 2.6928945127566936e-13 2.7808843154238123e-15
3.2775565192852394 3.2040769613479775e-21 2.787549331100845e-13 2.7595666947727797e-13 2.798263632806557e-15
3.283707930232385 3.1363591018994578e-21 2.7337559221946886e-13 2.705462361867057e-13 2.829356032763121e-15
3.2898708863219004 2.916334899383736e-21 2.5467462896958156e-13 2.518169655265832e-13 2.8576634429983563e-15
3.29141343181113 2.8643819774639475e-21 2.502550226932899e-13 2.4739025081488384e-13 2.864771878406041e-15
3.292184975758714 2.8388443840499665e-21 2.480819964766308e-13 2.452136656370513e-13 2.8683308395795116e-15
3.295272960557952 2.6786156803640884e-21 2.3429943139221347e-13 2.3141725468088076e-13 2.882176711332644e-15
3.3076538914384823 2.1206162628035397e-21 1.861879541748541e-13 1.832501599770118e-13 2.9377941978422398e-15
3.310756385682612 2.0062646679193467e-21 1.76313222571547e-13 1.7336140834831587e-13 2.951814223231055e-15
3.313861789986515 1.9004552840494215e-21 1.6717120774058527e-13 1.6420532714024642e-13 2.9658806003388815e-15
3.3200813396944477 1.753234025073279e-21 1.5451051754437235e-13 1.5151438702637444e-13 2.996130517997871e-15
3.345076488085796 1.5001981548462917e-21 1.3320609985252122e-13 1.3007517838230217e-13 3.130921470219046e-15
3.3482140837626964 1.5118619788652245e-21 1.3436767335834692e-13 1.3121849301238172e-13 3.149180345965222e-15
3.3513546224236106 1.5236299724836567e-21 1.3554057554395405e-13 1.3237305342452997e-13 3.1675221194241188e-15
3.3576445397418455 1.600928239421095e-21 1.426842430654638e-13 1.394783747991014e-13 3.205868266362337e-15
3.3702598118196083 1.8781573018604954e-21 1.6802146916638584e-13 1.6473516720617886e-13 3.2863019602069863e-15
3.382922481734668 1.9475200666134237e-21 1.7488131911754182e-13 1.7151680421741981e-13 3.364514900121996e-15
3.389271646505754 1.983265008445055e-21 1.7842535151639523e-13 1.7502118695143875e-13 3.404164564956474e-15
3.395632727569191 2.0222679784136744e-21 1.8227573110103574e-13 1.788307049598075e-13 3.4450261412281833e-15
3.421196662673239 2.2093819955805223e-21 2.006403530523821e-13 1.9702614316191577e-13 3.6142098904663115e-15
3.4276182099114902 2.179163534645873e-21 1.982675762163017e-13 1.9461557427536843e-13 3.652001940933273e-15
3.4340518103208963 2.0344609324291867e-21 1.854494846416055e-13 1.8176172059041684e-13 3.68776405118868e-15
3.4469541582030403 1.8283425578949046e-21 1.6728712177802892e-13 1.6353068155006366e-13 3.75644022796529e-15
3.472904465399547 1.7795227483991126e-21 1.6404606367898475e-13 1.6013147642282875e-13 3.914587256155968e-15
3.4990501388274233 1.7005706353537345e-21 1.5794805209706462e-13 1.5387155203671167e-13 4.076500060352986e-15
3.5253949054701885 1.3949253221049568e-21 1.3053535774362907e-13 1.263014334879924e-13 4.233924255636702e-15
3.5519380250092896 1.1049851986500693e-21 1.0418166003399945e-13 9.978940854013699e-14 4.392251493862475e-15
3.578680990867387 9.980163671003257e-22 9.480474689432965e-14 9.023895004011357e-14 4.5657968542160876e-15
3.605625307711299 9.63089002564181e-22 9.217570121487511e-14 8.742706952084807e-14 4.748631694027059e-15
3.660119384959845 9.553467573874937e-22 9.281661340022022e-14 8.768360205337907e-14 5.133011346841175e-15
3.715437065384467 9.577149515028762e-22 9.445296812431212e-14 8.891437643250028e-14 5.538591691811817e-15
3.8285932144167436 1.0017776431930023e-21 1.0180755171623136e-13 9.53960019178236e-14 6.411549798407741e-15
3.94519561050918 1.0577760179669422e-21 1.1077243199885309e-13 1.0340707731737788e-13 7.365354681475225e-15
4.06534921144712 1.1194282964588945e-21 1.2079906446770616e-13 1.1239975662520558e-13 8.399307842500594e-15
4.189162171576248 1.1847178952383155e-21 1.3173814830872137e-13 1.2222245733996933e-13 9.515690968752042e-15
4.316745939156006 1.2526135339412171e-21 1.4353011140212664e-13 1.3281936523433649e-13 1.0710746167790136e-14
4.448215356677963 1.3224054490538892e-21 1.561420468712308e-13 1.4417369594745426e-13 1.1968350923776527e-14
4.58368876423945 1.393766456925126e-21 1.6957997326726453e-13 1.562896733368431e-13 1.3290299930421448e-14
4.723288106065518 1.466575408973802e-21 1.8387312988438526e-13 1.691880691078202e-13 1.4685060776565048e-14
4.867139040275056 1.5405396973902216e-21 1.9902887121989832e-13 1.8291244965130912e-13 1.6116421568589268e-14
4.940699165968905 1.5784278871753063e-21 2.0700583592672498e-13 1.9015565327846443e-13 1.6850182648260558e-14
5.015371051989984 1.6160991993542564e-21 2.151495871703467e-13 1.975558008674556e-13 1.7593786302891075e-14
5.091171501069577 1.6553130127164885e-21 2.2370067219310722e-13 2.053375669367116e-13 1.836310525639557e-14
5.129500256944802 1.674796497433407e-21 2.280376374540587e-13 2.0928690218487444e-13 1.8750735269184265e-14
5.168117569889187 1.6943623507955154e-21 2.324385249076498e-13 2.132945131009141e-13 1.9144011806735678e-14
5.20702561229733 1.7153339456564283e-21 2.3708704793627986e-13 2.1751412150693672e-13 1.9572926429343176e-14
5.246226572918644 1.7362579482284915e-21 2.417857618553928e-13 2.2178080268075673e-13 2.0004959174636103e-14
5.265937586045735 1.746700738703372e-21 2.441538878831241e-13 2.239317947728505e-13 2.0222093110273708e-14
5.285722656980489 1.7571300223523996e-21 2.465345006369177e-13 2.2609455659308048e-13 2.0439944043837202e-14
5.305582063971359 1.7675452925078407e-21 2.48927582041742e-13 2.2826909137353805e-13 2.0658490668203877e-14
5.3255160863122235 1.7782025713112633e-21 2.5136937644389643e-13 2.304899540772217e-13 2.0879422366674626e-14
5.365609099470188 1.801465337902659e-21 2.5657502101729636e-13 2.3523850073566236e-13 2.1336520281633938e-14
5.406003951863644 1.824784041178238e-21 2.618528264226953e-13 2.4005599783904e-13 2.179682858365536e-14
5.446702915881641 1.8481622476285425e-21 2.672041602036427e-13 2.4494398225544883e-13 2.2260177948193893e-14
5.487708281020852 1.872091008517421e-21 2.727014249493956e-13 2.4997306959516543e-13 2.2728355354230127e-14
5.529022354014368 1.9004299883096156e-21 2.7891357589596773e-13 2.5569711752845817e-13 2.3216458367509582e-14
5.570647458961463 1.9291831641715438e-21 2.852650532050694e-13 2.615571266948383e-13 2.3707926510230994e-14
5.612585937458331 1.9583863932970246e-21 2.917634057670279e-13 2.675608178992643e-13 2.4202587867763664e-14
5.654840148729818 1.988815701059831e-21 2.9852747371014577e-13 2.738247829917708e-13 2.4702690718374997e-14
5.67608639626678 2.00749675670633e-21 3.0246371539854273e-13 2.7749934368503285e-13 2.4964371713509925e-14
5.686739436050992 2.0169574850230957e-21 3.0445948364287907e-13 2.7936392002402094e-13 2.509556361885816e-14
5.6974124697621304 2.0265011000138705e-21 3.064742131078159e-13 2.8124722689600783e-13 2.5226986211808036e-14
5.718818669136295 2.045845584550637e-21 3.105622113492467e-13 2.8507169872489103e-13 2.5490512624355736e-14
5.740305295436557 2.0664691964536915e-21 3.1487150482419e-13 2.891146096131213e-13 2.5756895211068665e-14
5.7835210386641895 2.1165412116596624e-21 3.2492900596053656e-13 2.986213992313159e-13 2.630760672922073e-14
5.827062130521658 2.1713671707055293e-21 3.3585541061484283e-13 3.089882250748171e-13 2.6867185540025842e-14
5.8489554468988025 2.2079595850665103e-21 3.427984629890337e-13 3.1562898310483944e-13 2.716947988419433e-14
5.870931020387893 2.2462567312548604e-21 3.500546107399319e-13 3.225813977433267e-13 2.747321299660517e-14
5.892989160043636 2.286393863932697e-21 3.576482638717347e-13 3.298698987905433e-13 2.7778365081191332e-14
5.915130176081913 2.3310577025300432e-21 3.6600478553799326e-13 3.379100602589756e-13 2.8094725279017765e-14
5.95966208400165 2.452271284015427e-21 3.8793555147549424e-13 3.5911900885275906e-13 2.881654262273523e-14
6.004529249263818 2.62078977473865e-21 4.177154929208174e-13 3.8808613252221974e-13 2.962936039859769e-14
6.027089341400364 2.7357662194872093e-21 4.3767933805273005e-13 4.0757985267480284e-13 3.009948537792716e-14
6.049734195844842 2.869222745396139e-21 4.607549309960234e-13 4.3015734661514537e-13 3.059758438087793e-14
6.095279466722835 3.2493280666423692e-21 5.257225643261447e-13 4.938989722026479e-13 3.1823592123496705e-14
6.141167624020661 3.822552033639557e-21 6.231230127039868e-13 5.897061346307349e-13 3.341687807325188e-14
6.164241091010745 4.18694537940335e-21 6.850879749063449e-13 6.50670090706383e-13 3.441788419996189e-14
6.187401249150058 4.594873494248477e-21 7.546598981312007e-13 7.192141831454745e-13 3.5445714985726097e-14
6.1990139391386085 4.793274765907031e-21 7.887227554093352e-13 7.527540577446333e-13 3.5968697664701833e-14
6.204828454712694 4.897171308492478e-21 8.065745387813132e-13 7.703416933749411e-13 3.6232845406372235e-14
6.210648424152782 4.972824086247687e-21 8.198029458008361e-13 7.833452745546207e-13 3.645767124621532e-14
6.233982942956859 5.227143881861603e-21 8.649669175935123e-13 8.277263586098369e-13 3.7240558983675364e-14
6.239830258556775 5.258256169926901e-21 8.709314006312966e-13 8.33582925758177e-13 3.734847487311969e-14
6.245683058788269 5.25924743953885e-21 8.719126510757047e-13 8.344560901012774e-13 3.745656097442726e-14
6.257405133728602 5.2482652326372605e-21 8.717249617664833e-13 8.340796347399529e-13 3.764532702653038e-14
6.269149208991335 5.193366672704312e-21 8.642253995706153e-13 8.265127407821731e-13 3.7712658788442555e-14
6.280915325867298 5.061888652144752e-21 8.439271509887672e-13 8.062973104325165e-13 3.7629840556250535e-14
6.304513850009849 4.740275921996481e-21 7.93276626148845e-13 7.55948264944822e-13 3.7328361204022934e-14
6.32820103803542 4.347518044587313e-21 7.302828368077945e-13 6.934004873134439e-13 3.688234949435062e-14
6.3519772230701035 3.989576668819722e-21 6.726748346096752e-13 6.361925017226353e-13 3.648233288703989e-14
6.375842739491607 3.687203758312228e-21 6.240281302408866e-13 5.878986493988712e-13 3.612948084201521e-14
6.399797922933955 3.449394517626906e-21 5.859742919659847e-13 5.500262280041805e-13 3.594806396180418e-14
6.42384311029221 3.2508273077446436e-21 5.543170766300524e-13 5.185162761305928e-13 3.5800800499459643e-14
6.447978639727206 3.1084853465511182e-21 5.320370142845056e-13 4.962497727034571e-13 3.5787241581048276e-14
6.472204850670314 2.9897672197701018e-21 5.136402676057753e-13 4.778400554005051e-13 3.580021220527012e-14
