Dust emission spectrum from A.P. Jones, M. Kohler, N. Ysard, M. Bocchio, and L. Verstraete (2017), A&A, 602A, 46J 
inside the DustPedia framework.

lambda    nu*dP/dnu     j_nu    j_nu(carb.) j_nu(sil)
 (um)   (erg s-1 H-1) (Jy cm2 sr-1 H-1)
0.9927057738263894 1.786750326565706e-21 4.7081885958931587e-14 4.708188082928689e-14 5.129644689475924e-21
1.0001793341362166 1.8167931984738026e-21 4.8233947377774017e-14 4.823394120472614e-14 6.173047878218096e-21
1.0077091589558085 1.846955728190639e-21 4.940388752848446e-14 4.940388010969544e-14 7.41878901658389e-21
1.0114953028030835 1.8620804967448214e-21 4.999559654733621e-14 4.999558841842675e-14 8.128909460235649e-21
1.0152956718711033 1.877233562417566e-21 5.059181708793223e-14 5.059180818390469e-14 8.904027543650497e-21
1.0229392996569957 1.9076077738392832e-21 5.1797450071386815e-14 5.1797439398907766e-14 1.0672479044598365e-20
1.0267826658714554 1.922794435855175e-21 5.240597653606448e-14 5.240596485714019e-14 1.1678924300079803e-20
1.0306404723013447 1.9380066520605815e-21 5.301904359245447e-14 5.301903081644022e-14 1.2776014236862051e-20
1.03451277320114 1.953243963249536e-21 5.3636666786696283e-14 5.3636652815198285e-14 1.3971498003743673e-20
1.0383996230291617 1.968505925033172e-21 5.425886204117589e-14 5.425884676742681e-14 1.527374908746029e-20
1.0403485208654093 1.9761460151735016e-21 5.457167927391775e-14 5.4571663306206444e-14 1.596771130275326e-20
1.0423010764483396 1.9837921082275972e-21 5.488564567197137e-14 5.4885628980159074e-14 1.6691812301620547e-20
1.0462171883269815 1.9991020992405216e-21 5.5517034406582795e-14 5.551701617112875e-14 1.8235454040807618e-20
1.0471985131304309 2.002933270013288e-21 5.567560313858926e-14 5.5675584496385615e-14 1.8642203636106724e-20
1.048180758391296 2.0067658977894884e-21 5.583446103208861e-14 5.5834441974459305e-14 1.9057629309696277e-20
1.0501480137395462 2.014435500456462e-21 5.6153045401945116e-14 5.61530254867291e-14 1.9915216005880282e-20
1.0521189612883777 2.022110860098831e-21 5.647278973086994e-14 5.647276892120755e-14 2.080966240237595e-20
1.0531058218030118 2.0259456013974756e-21 5.663295549229515e-14 5.663293422108838e-14 2.1271206766216422e-20
1.0540936079674168 2.0297651124095973e-21 5.679294588762466e-14 5.679292414498508e-14 2.1742639569617215e-20
1.058054026499678 2.045056592942216e-21 5.74357912082856e-14 5.743576747801777e-14 2.373026784779388e-20
1.0590464539527713 2.048882795433328e-21 5.759722489888506e-14 5.759720064520183e-14 2.4253683239205415e-20
1.06003981227728 2.0527103204025195e-21 5.775894811076653e-14 5.775892332263716e-14 2.4788129376135858e-20
1.0620293250338977 2.060369317399162e-21 5.80832642685663e-14 5.808323837756504e-14 2.5891001261955334e-20
1.0660195594769086 2.0757029609216365e-21 5.873538382599889e-14 5.87353555868862e-14 2.823911268203424e-20
1.070024785945596 2.0910572167019154e-21 5.939216916582195e-14 5.939213837584117e-14 3.0789980782839163e-20
1.0740450607676866 2.1064317963553376e-21 6.005364012070764e-14 6.005360656053787e-14 3.3560169783711757e-20
1.07808044048254 2.1218264302899517e-21 6.07198170907639e-14 6.071978052324941e-14 3.656751447144836e-20
1.0861967418109137 2.152651318139224e-21 6.206569433003874e-14 6.206565095812132e-14 4.337191742719447e-20
1.0902777775684922 2.1680275621004617e-21 6.27438830285154e-14 6.274383581665919e-14 4.72118562067443e-20
1.0943741465085532 2.1834220528933946e-21 6.342682179318808e-14 6.342677041828652e-14 5.1374901556566455e-20
1.1026131145906286 2.2142651332864834e-21 6.480704333844894e-14 6.480698256354174e-14 6.077490720382492e-20
1.1109141095355224 2.2451794891149595e-21 6.620655370093193e-14 6.620648189990244e-14 7.180102950224495e-20
1.1192775983109025 2.2761401960888218e-21 6.762484039808302e-14 6.762475568072912e-14 8.471735390168741e-20
1.1277040513999907 2.3070356448077503e-21 6.905877627598706e-14 6.905867644811231e-14 9.982787475527672e-20
1.1361939428280308 2.3379976976990535e-21 7.051247875600301e-14 7.051236127395896e-14 1.1748204406110636e-19
1.1447477501889525 2.369026778467369e-21 7.198619218793236e-14 7.198605410690879e-14 1.3808102356777526e-19
1.1533659546722406 2.4001347401589113e-21 7.348051369925939e-14 7.348035161431614e-14 1.620849432727854e-19
1.1707974979042381 2.462682895180924e-21 7.6534934110153e-14 7.653471161796567e-14 2.2249218733074993e-19
1.1884924949847024 2.5255609403394e-21 7.967530394987654e-14 7.967500006873648e-14 3.0388114005809026e-19
1.2064549276569216 2.589197104171501e-21 8.291739457594051e-14 8.291698158446917e-14 4.12991471325358e-19
1.2246888378427687 2.6531845477677367e-21 8.625070466270807e-14 8.625014613717708e-14 5.585255309678444e-19
1.2431983285522175 2.7174769642266334e-21 8.967589543729482e-14 8.967514375715228e-14 7.516801425470901e-19
1.2619875648066055 2.782174591501334e-21 9.31984927183693e-14 9.319748593003518e-14 1.00678833411289e-18
1.3004222497298317 2.9124220094110806e-21 1.0053288111696816e-13 1.005311004427329e-13 1.780674235257312e-18
1.3400274889804893 3.0443970646703912e-21 1.0828902289658243e-13 1.0828593125950519e-13 3.0916370772848753e-18
1.3808389325824078 3.1786903785608762e-21 1.1650932437607988e-13 1.165040526292149e-13 5.271746864960298e-18
1.4228933163050095 3.31656704602722e-21 1.252652338885509e-13 1.2525640109717242e-13 8.832791378500907e-18
1.466228494730424 3.4605928357773986e-21 1.3468573255631255e-13 1.3467118345411172e-13 1.4549102200849667e-17
1.5108834753276823 3.6107388941239435e-21 1.448093114335598e-13 1.4478574137292245e-13 2.3570060637348938e-17
1.5568984535646726 3.767210953881951e-21 1.5568603583969044e-13 1.5564844082997911e-13 3.759500971133592e-17
1.6043148490894465 3.9313243609378074e-21 1.6741636718542496e-13 1.6735721683542738e-13 5.915034999753679e-17
1.6531753430134553 4.1045536431820755e-21 1.8011682719748088e-13 1.8002513634248845e-13 9.16908549924574e-17
1.7035239163302658 4.288667128104036e-21 1.9392777169353096e-13 1.9378770415128417e-13 1.400675422468392e-16
1.755405889504358 4.487675359801048e-21 2.091069254393236e-13 2.0889596153377523e-13 2.1096390554836497e-16
1.8088679632656115 4.7025533893718844e-21 2.2579277184829217e-13 2.25479377890332e-13 3.13393957960237e-16
1.8639582606462262 4.9343872515495855e-21 2.4413994706817265e-13 2.4368058377664995e-13 4.593632915226573e-16
1.9207263702978936 5.185158634795222e-21 2.6436075272290614e-13 2.6369614229901214e-13 6.646104238939826e-16
1.979223391128241 5.457391007014742e-21 2.8671427675576667e-13 2.8576478938558615e-13 9.494873701804964e-16
2.039501978296691 5.753729219612746e-21 3.1148919284336997e-13 3.1014928398920444e-13 1.339908854165659e-15
2.1016163906111602 6.078761095858736e-21 3.3910793735377404e-13 3.3723939669585824e-13 1.8685406579158157e-15
2.1656225393682647 6.436059051318154e-21 3.699748612784279e-13 3.673990252528025e-13 2.575836025625375e-15
2.231578038680979 6.827571657696996e-21 4.044341117345055e-13 4.0092291581381234e-13 3.511195920693264e-15
2.299542257339062 7.256392047006866e-21 4.429263999113961e-13 4.381922342390754e-13 4.734165672320623e-15
2.369576372248914 7.72647102354733e-21 4.859832756761027e-13 4.79667581960823e-13 6.315693715279741e-15
2.4417434235010123 8.24212108876046e-21 5.342056172557532e-13 5.258665837357569e-13 8.339033519996268e-15
2.5161083711144245 8.809125911277508e-21 5.883443581668539e-13 5.774434035899049e-13 1.0900954576949063e-14
2.5927381535095444 9.435001578060815e-21 6.49336878285039e-13 6.352244942309343e-13 1.411238405410481e-14
2.6717017477616296 1.0126686616565206e-20 7.181658965507447e-13 7.000678524646852e-13 1.8098044086059602e-14
2.753070231689431 1.0892668154961781e-20 7.960145326648853e-13 7.730180916041273e-13 2.299644106075818e-14
2.836916847834745 1.1750419254428539e-20 8.848494841228865e-13 8.558891326336895e-13 2.8960351489196935e-14
2.9233170693905177 1.2733828247122538e-20 9.881078358531911e-13 9.519594155717873e-13 3.614842028140387e-14
2.967498994190263 1.329861358597881e-20 1.0475297853758117e-12 1.007355026598017e-12 4.017475877779461e-14
3.0123486681368425 1.39010582227937e-20 1.1115334425397818e-12 1.0669419795945014e-12 4.459146294528033e-14
3.0578761833420214 1.4730556202652714e-20 1.1956621320318513e-12 1.1462178196235309e-12 4.944431240832022e-14
3.1040917844459814 1.5667067673017114e-20 1.2908973425390855e-12 1.2361810035332736e-12 5.4716339005812e-14
3.127460860933648 1.6406811577376558e-20 1.362026341587858e-12 1.3044907636981399e-12 5.753557788971804e-14
3.1510058709225794 1.7306211717945754e-20 1.4475069506773293e-12 1.3870352893106903e-12 6.047166136663875e-14
3.162844764501044 1.805265244645624e-20 1.5156130323296954e-12 1.4536229291879598e-12 6.199010314173561e-14
3.1747281389236908 1.888684043032536e-20 1.5916049658584254e-12 1.5280662406368965e-12 6.353872522152939e-14
3.1986289994194426 2.1086541039285935e-20 1.7903529197300065e-12 1.7236168806678027e-12 6.673603906220412e-14
3.2227097969389145 2.5948537257638873e-20 2.2197471838143753e-12 2.1496257752837427e-12 7.012140853063287e-14
3.2348180950136065 3.043124889458738e-20 2.612997973895811e-12 2.5410705966302158e-12 7.192737726559528e-14
3.240889293275058 3.3757297479974903e-20 2.9040313471842155e-12 2.831151365540181e-12 7.287998164403581e-14
3.2469718861334385 3.760424920670427e-20 3.2410436752845673e-12 3.167178031379731e-12 7.386564390483684e-14
3.2714166318528037 5.772180628271343e-20 5.012394021566211e-12 4.9344572574848e-12 7.793676408140962e-14
3.2744851364798273 5.899104993175288e-20 5.127416331642394e-12 5.0490003892147654e-12 7.841594242762979e-14
3.2775565192852394 6.029360178146399e-20 5.2455478236974635e-12 5.166650362445605e-12 7.88974612518592e-14
3.283707930232385 5.91145096578324e-20 5.152619187224529e-12 5.072861812920519e-12 7.975737430400994e-14
3.2898708863219004 5.526021684874234e-20 4.825706137421318e-12 4.745167295772219e-12 8.053884164909902e-14
3.29141343181113 5.434990501672618e-20 4.7484367728710694e-12 4.667701728878777e-12 8.07350439922921e-14
3.292184975758714 5.3902406072369556e-20 4.710443653924547e-12 4.6296103833097845e-12 8.083327061476308e-14
3.295272960557952 5.1100039080034086e-20 4.469737927818183e-12 4.38852278229243e-12 8.121514552575406e-14
3.3076538914384823 4.132881700653085e-20 3.62862815959918e-12 3.5458797728013657e-12 8.274838679781279e-14
3.310756385682612 3.9323116765408286e-20 3.45576809945849e-12 3.372633360350713e-12 8.313473910777642e-14
3.313861789986515 3.746600122401971e-20 3.295650640347686e-12 3.212128330573496e-12 8.352230977419091e-14
3.3200813396944477 3.488876980899902e-20 3.0747075419378766e-12 2.9903510941707903e-12 8.435644776708621e-14
3.345076488085796 3.0514379617963977e-20 2.7094430727017606e-12 2.6213680123588557e-12 8.807506034290559e-14
3.3482140837626964 3.072901733194942e-20 2.731060520869439e-12 2.6424816595509226e-12 8.85788613185168e-14
3.3513546224236106 3.094543420050397e-20 2.7528744102852428e-12 2.663789538146399e-12 8.908487213884399e-14
3.3576445397418455 3.232389048494278e-20 2.8808973027065673e-12 2.790754285996863e-12 9.014301670970513e-14
3.3702598118196083 3.722512321401774e-20 3.3301895885521367e-12 3.2378271738551293e-12 9.236241469700779e-14
3.382922481734668 3.84833023785435e-20 3.455682331254155e-12 3.361164406460856e-12 9.451792479329962e-14
3.389271646505754 3.9130567386979246e-20 3.5203995488892293e-12 3.424789407852695e-12 9.561014103653408e-14
3.395632727569191 3.983880640113606e-20 3.59084337015312e-12 3.4941076343908993e-12 9.673573576222123e-14
3.421196662673239 4.323248822860696e-20 3.926066981115904e-12 3.824673664324924e-12 1.0139331679097929e-13
3.4276182099114902 4.271771552702023e-20 3.886600424605639e-12 3.784169557507257e-12 1.0243086709838137e-13
3.4340518103208963 4.0187124258739814e-20 3.66322172336473e-12 3.5598104222640175e-12 1.034113011007125e-13
3.4469541582030403 3.6583548504026926e-20 3.3472701859064667e-12 3.241978908802806e-12 1.0529127710366026e-13
3.472904465399547 3.577867013078831e-20 3.298271968652748e-12 3.188647284726769e-12 1.0962468392597928e-13
3.4990501388274233 3.44501295569763e-20 3.1997088182603307e-12 3.085653867093738e-12 1.1405495116659347e-13
3.5253949054701885 2.916066328828796e-20 2.7288182055754322e-12 2.61046594973959e-12 1.1835225583584248e-13
3.5519380250092896 2.4135741463072364e-20 2.275597550850644e-12 2.152931516306414e-12 1.2266603454423026e-13
3.578680990867387 2.233114670003057e-20 2.1213066043271826e-12 1.993913289484816e-12 1.273933148423658e-13
3.605625307711299 2.179528770673465e-20 2.085991971873163e-12 1.95362327471398e-12 1.3236869715918334e-13
3.660119384959845 2.1815385112552374e-20 2.1194714385233546e-12 1.9766651733122986e-12 1.428062652110561e-13
3.715437065384467 2.201087934845243e-20 2.17078461835125e-12 2.0169975819703346e-12 1.5378703638091579e-13
3.8285932144167436 2.309272428626361e-20 2.3468418745590913e-12 2.1695337108334254e-12 1.773081637256659e-13
3.94519561050918 2.4379491442056258e-20 2.553069375804469e-12 2.3502320848898257e-12 2.0283729091464332e-13
4.06534921144712 2.5757353929920244e-20 2.7795118881133395e-12 2.549197058640777e-12 2.3031482947256256e-13
4.189162171576248 2.718740283787388e-20 3.023182245815837e-12 2.763421224037269e-12 2.597610217785685e-13
4.316745939156006 2.864721548689001e-20 3.2825272270984463e-12 2.991497439152171e-12 2.9102978794627656e-13
4.448215356677963 3.0119074593662175e-20 3.556287491318444e-12 3.2326423992803945e-12 3.236450920380504e-13
4.58368876423945 3.159347146668257e-20 3.843986932043042e-12 3.4863752419082826e-12 3.5761169013476063e-13
4.723288106065518 3.3064876606019365e-20 4.1455368156240325e-12 3.75242834871865e-12 3.9310846690538305e-13
4.867139040275056 3.4521518714222446e-20 4.459981728564251e-12 4.030856554875222e-12 4.2912517368902854e-13
4.940699165968905 3.525164450178463e-20 4.623141923159141e-12 4.1757111300806124e-12 4.474307930785287e-13
5.015371051989984 3.59678441634211e-20 4.788361275260497e-12 4.322490191493198e-12 4.658710837673004e-13
5.091171501069577 3.670120098342728e-20 4.9598373644231e-12 4.474982001326045e-12 4.848553630970539e-13
5.129500256944802 3.706148973902096e-20 5.046233720673412e-12 4.5518590451810285e-12 4.943746754923826e-13
5.168117569889187 3.742056592340776e-20 5.133483484428582e-12 4.629473494684841e-12 5.040099897437407e-13
5.20702561229733 3.7803217603667355e-20 5.225019470314541e-12 4.710454185293682e-12 5.145652850208574e-13
5.246226572918644 3.8181943135470314e-20 5.317096010732885e-12 4.791931146269766e-12 5.251648644631195e-13
5.265937586045735 3.836979329206573e-20 5.363330994228529e-12 4.832851318130481e-12 5.304796760980502e-13
5.285722656980489 3.8556614235648275e-20 5.409693941777888e-12 4.8738902942264265e-12 5.358036475514623e-13
5.305582063971359 3.874239080601791e-20 5.456182484679087e-12 4.915046352676228e-12 5.411361320028585e-13
5.3255160863122235 3.893161790841924e-20 5.503431766142892e-12 4.956909800428241e-12 5.465219657146501e-13
5.365609099470188 3.9341706127229256e-20 5.603271328107879e-12 5.045603827424575e-12 5.576675006833023e-13
5.406003951863644 3.9749148725742935e-20 5.703922605006611e-12 5.135066667449598e-12 5.688559375570119e-13
5.446702915881641 4.0153940972751305e-20 5.8053886179408126e-12 5.2253065272087815e-12 5.800820907320311e-13
5.487708281020852 4.0564483378642904e-20 5.908896719958288e-12 5.317504554958299e-12 5.913921649999884e-13
5.529022354014368 4.104684786947544e-20 6.0241751545482335e-12 5.4209940424971045e-12 6.031811120511289e-13
5.570647458961463 4.153169989073961e-20 6.141222253573076e-12 5.5262095861534e-12 6.15012667419675e-13
5.612585937458331 4.201952368564196e-20 6.260133026451118e-12 5.633251478038203e-12 6.268815484129149e-13
5.654840148729818 4.252337482280621e-20 6.382891915383195e-12 5.74404646218546e-12 6.388454531977357e-13
5.67608639626678 4.283216031536755e-20 6.453397398652562e-12 5.808285425470396e-12 6.451119731821662e-13
5.686739436050992 4.2988001978977594e-20 6.4890335976559805e-12 5.840783865056899e-12 6.482497325990845e-13
5.6974124697621304 4.314484999985528e-20 6.5249330253360816e-12 5.873542645338841e-12 6.513903799972414e-13
5.718818669136295 4.346169142950454e-20 6.59754533834489e-12 5.939865336217761e-12 6.576800021271304e-13
5.740305295436557 4.379847385208539e-20 6.6736496215263606e-12 6.0096193020723794e-12 6.640303194539809e-13
5.7835210386641895 4.4614724731017705e-20 6.8492019329428466e-12 6.1720510336940894e-12 6.771508992487569e-13
5.827062130521658 4.55019561703528e-20 7.037998169792219e-12 6.347551924729647e-12 6.904462450625724e-13
5.8489554468988025 4.6095763216730397e-20 7.15663315935451e-12 6.458983950731897e-12 6.976492086226147e-13
5.870931020387893 4.6714600622796513e-20 7.279960972114297e-12 6.575086408112845e-12 7.048745640014526e-13
5.892989160043636 4.736051827518207e-20 7.40835050530167e-12 6.696228860646216e-12 7.121216446554527e-13
5.915130176081913 4.8078378672381914e-20 7.54889793414403e-12 6.829256569406869e-12 7.19641364737161e-13
5.95966208400165 5.0031687062631694e-20 7.91473204388315e-12 7.177817363261475e-12 7.369146806216761e-13
6.004529249263818 5.2743188470948894e-20 8.406491502186598e-12 7.650061450369191e-12 7.564300518174063e-13
6.027089341400364 5.459388851859513e-20 8.734158941776117e-12 7.966383650239531e-12 7.67775291536587e-13
6.049734195844842 5.67367170718232e-20 9.111081459714114e-12 8.331273682375958e-12 7.798077773381588e-13
6.095279466722835 6.283867064416274e-20 1.0166934945424603e-11 9.357315119932453e-12 8.096198254921469e-13
6.141167624020661 7.201542237856179e-20 1.1739399897966414e-11 1.0890795729652053e-11 8.486041683143641e-13
6.164241091010745 7.784283627397228e-20 1.273701618517445e-11 1.1863803682435663e-11 8.732125027387865e-13
6.187401249150058 8.433777633364524e-20 1.3851597389183509e-11 1.2953142921788594e-11 8.984544673949137e-13
6.1990139391386085 8.7489017631033e-20 1.4396124241575067e-11 1.3484830993568866e-11 9.112932480061994e-13
6.204828454712694 8.913685427864084e-20 1.4681029639198766e-11 1.376325453592897e-11 9.177751032697956e-13
6.210648424152782 9.033072082994334e-20 1.48916168656548e-11 1.396835062147939e-11 9.232662441754118e-13
6.233982942956859 9.431805529554186e-20 1.5607375539344166e-11 1.4665097601608152e-11 9.422779377360124e-13
6.239830258556775 9.478975519142483e-20 1.5700143086698076e-11 1.4755327274394152e-11 9.44815812303926e-13
6.245683058788269 9.478089925993947e-20 1.571340122234663e-11 1.476604450599908e-11 9.473567163475452e-13
6.257405133728602 9.455492019564712e-20 1.570535796853473e-11 1.4753612434935196e-11 9.51745533599533e-13
6.269149208991335 9.362460056054784e-20 1.5580020231258866e-11 1.4626945592152515e-11 9.53074639106347e-13
6.280915325867298 9.147044066048386e-20 1.5250115854204242e-11 1.4299491895023666e-11 9.506239591805726e-13
6.304513850009849 8.623144714245261e-20 1.4430677155241775e-11 1.3488368936900212e-11 9.42308218341565e-13
6.32820103803542 7.988027683324857e-20 1.3418045554383472e-11 1.2487685332737361e-11 9.303602216461162e-13
6.3519772230701035 7.41034922100834e-20 1.2494447031435077e-11 1.1574873549815766e-11 9.195734816193104e-13
6.375842739491607 6.921574597473657e-20 1.1714181090880071e-11 1.080420030750659e-11 9.099807833734808e-13
6.399797922933955 6.538356552181897e-20 1.1107192383206383e-11 1.0202506295928095e-11 9.04686087278284e-13
6.42384311029221 6.217611740271546e-20 1.0602003850764825e-11 9.701753384270898e-12 9.002504664939224e-13
6.447978639727206 5.987512550120734e-20 1.0248008097228635e-11 9.348849381137038e-12 8.991587160915968e-13
6.472204850670314 5.79499583218766e-20 9.955769099134426e-12 9.057041026715738e-12 8.987280724186875e-13
6.496522083828205 5.672075286447088e-20 9.781204496377487e-12 8.880204658253583e-12 9.009998381239021e-13
6.520930681187647 5.568364454705883e-20 9.63843824593399e-12 8.734764246762868e-12 9.036739991711205e-13
