Dust emission spectrum from A.P. Jones, M. Kohler, N. Ysard, M. Bocchio, and L. Verstraete (2017), A&A, 602A, 46J 
inside the DustPedia framework.

lambda    nu*dP/dnu     j_nu    j_nu(carb.) j_nu(sil)
 (um)   (erg s-1 H-1) (Jy cm2 sr-1 H-1)
0.9927057738263894 4.977834609827385e-20 1.3116876932256547e-12 1.311687499251425e-12 1.939742293643668e-19
1.0001793341362166 5.0612352603330466e-20 1.3437046958262194e-12 1.3437044624735365e-12 2.3335268287230907e-19
1.0077091589558085 5.1450034559805156e-20 1.3762277470610216e-12 1.3762274667130999e-12 2.803479219464113e-19
1.0114953028030835 5.1870222748165e-20 1.392680248717035e-12 1.3926799415883947e-12 3.07128640200533e-19
1.0152956718711033 5.2291293235039725e-20 1.4092607311109315e-12 1.409260394756596e-12 3.3635433562561605e-19
1.0229392996569957 5.313562387977263e-20 1.4427965028603377e-12 1.4427960998488554e-12 4.0301148224866534e-19
1.0267826658714554 5.355792824707098e-20 1.4597273003798269e-12 1.4597268594452106e-12 4.409346163411217e-19
1.0306404723013447 5.398105042194147e-20 1.476787328074626e-12 1.476786845810564e-12 4.822640619988484e-19
1.03451277320114 5.44049806314302e-20 1.4939771337165452e-12 1.4939766064264741e-12 5.272900707194259e-19
1.0383996230291617 5.48297095467846e-20 1.511297277912231e-12 1.511296701586044e-12 5.76326187353336e-19
1.0403485208654093 5.50423707280746e-20 1.5200064057942819e-12 1.5200058033414673e-12 6.024528151233415e-19
1.0423010764483396 5.525522829436908e-20 1.5287483346217093e-12 1.5287477049107142e-12 6.297109948978814e-19
1.0462171883269815 5.568152846653844e-20 1.546330891684992e-12 1.5463302038750122e-12 6.878099798256883e-19
1.0471985131304309 5.578822466714716e-20 1.5507471481333648e-12 1.5507464450164967e-12 7.031168683065639e-19
1.048180758391296 5.589496908953799e-20 1.5551716704760283e-12 1.5551709517266812e-12 7.187493475625704e-19
1.0501480137395462 5.610860213246424e-20 1.5640455513567013e-12 1.5640448003391762e-12 7.510175254969466e-19
1.0521189612883777 5.632242668023414e-20 1.572952611950141e-12 1.5729518272814652e-12 7.846686760272881e-19
1.0531058218030118 5.642927048115914e-20 1.5774146953490616e-12 1.5774138933175256e-12 8.020315360431247e-19
1.0540936079674168 5.653570315426169e-20 1.581872262129444e-12 1.5818714423640563e-12 8.197653876376491e-19
1.058054026499678 5.696188892431748e-20 1.5997851454955296e-12 1.5997842509728208e-12 8.945227091166898e-19
1.0590464539527713 5.706854864360204e-20 1.604284070423524e-12 1.604283156217355e-12 9.142061698576771e-19
1.06003981227728 5.71752534836628e-20 1.6087912972227041e-12 1.6087903629194469e-12 9.343032568964946e-19
1.0620293250338977 5.738879816268298e-20 1.6178306974335275e-12 1.6178297216620577e-12 9.757714693776926e-19
1.0660195594769086 5.781642508870502e-20 1.6360095750522965e-12 1.6360085110072912e-12 1.064045005190085e-18
1.070024785945596 5.824476445646648e-20 1.6543224527724814e-12 1.6543212928546821e-12 1.1599177992462085e-18
1.0740450607676866 5.867381156518917e-20 1.6727700229092466e-12 1.6727687589008142e-12 1.264008432017956e-18
1.07808044048254 5.910356226955923e-20 1.6913529962626586e-12 1.691351619279931e-12 1.3769827279529709e-18
1.0861967418109137 5.99645100858252e-20 1.7289093325408896e-12 1.7289077000385599e-12 1.6325023300253602e-18
1.0902777775684922 6.039422268277566e-20 1.7478412681870671e-12 1.7478394915398488e-12 1.776647218049608e-18
1.0943741465085532 6.082460284581401e-20 1.7669104515228826e-12 1.7669085186409002e-12 1.9328819826457895e-18
1.1026131145906286 6.168736211820028e-20 1.8054638038287551e-12 1.8054615183091716e-12 2.2855195834716527e-18
1.1109141095355224 6.255278665426357e-20 1.8445761013080355e-12 1.844573402357622e-12 2.698950413908804e-18
1.1192775983109025 6.342021659451767e-20 1.884234561906903e-12 1.8842313788998185e-12 3.1830070848652016e-18
1.1277040513999907 6.428659758722537e-20 1.9243542120002936e-12 1.9243504629995693e-12 3.749000724525952e-18
1.1361939428280308 6.51556039206561e-20 1.9650503256745228e-12 1.965045915748754e-12 4.409925769154372e-18
1.1447477501889525 6.602727790961179e-20 2.0063311907019898e-12 2.0063260100123728e-12 5.180689616963762e-18
1.1533659546722406 6.690197030560881e-20 2.0482146536586732e-12 2.0482085752789487e-12 6.078379724160471e-18
1.1707974979042381 6.866311247667142e-20 2.1339031506993907e-12 2.1338948151023803e-12 8.335597010340694e-18
1.1884924949847024 7.043713198865106e-20 2.222120167806823e-12 2.2221087942952805e-12 1.1373511543165226e-17
1.2064549276569216 7.223603219827077e-20 2.3133131018624942e-12 2.3132976602256177e-12 1.5441636876313058e-17
1.2246888378427687 7.404894500471344e-20 2.4072104941061027e-12 2.4071896324021652e-12 2.086170393751811e-17
1.2431983285522175 7.587480518888957e-20 2.50384499519773e-12 2.503816948114649e-12 2.80470830803726e-17
1.2619875648066055 7.771675210834826e-20 2.6033895132212567e-12 2.6033519870297116e-12 3.752619154517548e-17
1.3004222497298317 8.144005267899526e-20 2.8112008176289754e-12 2.8111345888690895e-12 6.622875988682488e-17
1.3400274889804893 8.523427848259311e-20 3.0317782267256624e-12 3.0316634920242753e-12 1.1473470138675265e-16
1.3808389325824078 8.91182815647769e-20 3.2664744086746427e-12 3.2662792064568285e-12 1.9520221781375463e-16
1.4228933163050095 9.312943821434846e-20 3.5174566646568447e-12 3.5171303527009844e-12 3.2631195586082264e-16
1.466228494730424 9.734091816907722e-20 3.788493328589195e-12 3.787957090384329e-12 5.362382048661072e-16
1.5108834753276823 1.0175468586492824e-19 4.0808893767472284e-12 4.0800227119141834e-12 8.666648330434501e-16
1.5568984535646726 1.063790388449379e-19 4.3962844281758804e-12 4.394905395155724e-12 1.3790330201551817e-15
1.6043148490894465 1.1125279405892545e-19 4.737726249616923e-12 4.7355618044872285e-12 2.1644451296944604e-15
1.6531753430134553 1.164192868178046e-19 5.108733954798577e-12 5.105387033378959e-12 3.3469214196176917e-15
1.7035239163302658 1.2192970802496403e-19 5.513497754482407e-12 5.508397732514266e-12 5.100021968141339e-15
1.755405889504358 1.2789719964900142e-19 5.9594752397793035e-12 5.95181323216624e-12 7.662007613060694e-15
1.8088679632656115 1.3435157804756407e-19 6.450881616381512e-12 6.439528641687285e-12 1.1352974694226473e-14
1.8639582606462262 1.4132548113403043e-19 6.992397176085219e-12 6.975799599135619e-12 1.6597576949599892e-14
1.9207263702978936 1.4887667948316326e-19 7.590346568559751e-12 7.566396358331192e-12 2.395021022856108e-14
1.979223391128241 1.5707828552801347e-19 8.252402470578287e-12 8.218277728549116e-12 3.412474202917446e-14
2.039501978296691 1.660066741263156e-19 8.987090451520882e-12 8.939064359047611e-12 4.8026092473271914e-14
2.1016163906111602 1.7579246220391435e-19 9.806705399381927e-12 9.739915660659104e-12 6.678973872282119e-14
2.1656225393682647 1.8653829874802772e-19 1.0723096331485772e-11 1.0631281367579082e-11 9.181496390669249e-14
2.231578038680979 1.983013945867974e-19 1.174646746988185e-11 1.1621665698760948e-11 1.2480177112090393e-13
2.299542257339062 2.1117120449262532e-19 1.2889780591368764e-11 1.2721992405019244e-11 1.6778818634952233e-13
2.369576372248914 2.2525956354945985e-19 1.4168483934969246e-11 1.3945295146563846e-11 2.231887884054035e-13
2.4417434235010123 2.406873788415652e-19 1.5599934579348002e-11 1.530611491889535e-11 2.9381966045265196e-13
2.5161083711144245 2.5761403564243584e-19 1.720553957127419e-11 1.6822606250726087e-11 3.829333205481043e-13
2.5927381535095444 2.7624218860144283e-19 1.901157502868747e-11 1.8517342537937813e-11 4.942324907496577e-13
2.6717017477616296 2.9675219377044586e-19 2.1045117061678974e-11 2.0413268666148096e-11 6.318483955308851e-13
2.753070231689431 3.1935810739186866e-19 2.333805556102269e-11 2.2537725046992976e-11 8.003305140297176e-13
2.836916847834745 3.4450120286685138e-19 2.5942198745084028e-11 2.493754493035237e-11 1.0046538147316468e-12
2.9233170693905177 3.730238493737656e-19 2.8945559919078385e-11 2.7695656163713488e-11 1.2499037553648918e-12
2.967498994190263 3.8913835483068774e-19 3.0652369488129906e-11 2.926571266563273e-11 1.3866568224971747e-12
3.0123486681368425 4.062533351277767e-19 3.248415774544496e-11 3.0947747432213533e-11 1.5364103132314269e-12
3.0578761833420214 4.291940435158978e-19 3.483718184607153e-11 3.3136485628452734e-11 1.7006962176187912e-12
3.1040917844459814 4.548217345390859e-19 3.747530684741443e-11 3.5596533027918794e-11 1.878773819495635e-12
3.127460860933648 4.744972847210589e-19 3.939082238825441e-11 3.7416978089968686e-11 1.9738442982857236e-12
3.1510058709225794 4.981675612475112e-19 4.16671781935961e-11 3.9594437212901147e-11 2.0727409806949552e-12
3.162844764501044 5.175029821527685e-19 4.3447037289757586e-11 4.132319394950453e-11 2.1238433402530492e-12
3.1747281389236908 5.390048060877785e-19 4.54222467307671e-11 4.3246315893938506e-11 2.175930836828581e-12
3.1986289994194426 5.952618474408844e-19 5.0540711470132836e-11 4.825733285647553e-11 2.283378613657296e-12
3.2227097969389145 7.183132003302881e-19 6.144753701137656e-11 5.90505058610282e-11 2.3970311503483527e-12
3.2348180950136065 8.3124096938732415e-19 7.13750190257421e-11 6.891738665051833e-11 2.457632375223776e-12
3.240889293275058 9.149067365652431e-19 7.87064735946822e-11 7.62168751175657e-11 2.4895984771165098e-12
3.2469718861334385 1.01164046986203e-18 8.719150137755403e-11 8.466882749318168e-11 2.5226738843723574e-12
3.2714166318528037 1.516025330969279e-18 1.3164723689128697e-10 1.2898804470423662e-10 2.6591921870503338e-12
3.2744851364798273 1.547856964698543e-18 1.345374779568007e-10 1.3186224480493775e-10 2.6752331518629985e-12
3.2775565192852394 1.5805117710704415e-18 1.3750464122406374e-10 1.348132912234728e-10 2.6913500005909247e-12
3.283707930232385 1.551115466555185e-18 1.3520043320724782e-10 1.324803574344108e-10 2.720075772837038e-12
3.2898708863219004 1.4547676687909673e-18 1.2704042199151174e-10 1.2429429264894722e-10 2.7461293425645552e-12
3.29141343181113 1.432010806509466e-18 1.2511176920522056e-10 1.2235909989176923e-10 2.7526693134513726e-12
3.292184975758714 1.420823600582232e-18 1.2416346505428987e-10 1.214075217658598e-10 2.7559432884300474e-12
3.295272960557952 1.3508438751810364e-18 1.1815877663030434e-10 1.1539011492739572e-10 2.768661702908647e-12
3.3076538914384823 1.1067238380294067e-18 9.716922898951086e-11 9.434952756934223e-11 2.81970142016861e-12
3.310756385682612 1.0565808680400997e-18 9.285373995285917e-11 9.002118246103386e-11 2.8325574918253254e-12
3.313861789986515 1.0101399794226357e-18 8.885571881876521e-11 8.601026677705735e-11 2.845452041707836e-12
3.3200813396944477 9.457943184412277e-19 8.335177594261726e-11 8.047854745631055e-11 2.873228486306734e-12
3.345076488085796 8.374201707171353e-19 7.435649385296792e-11 7.135936843309542e-11 2.9971254198725057e-12
3.3482140837626964 8.429389856215137e-19 7.491672643690762e-11 7.190281214678882e-11 3.0139142901188034e-12
3.3513546224236106 8.485013162514439e-19 7.54818156845867e-11 7.245104159226225e-11 3.0307740923244525e-12
3.3576445397418455 8.83294624682459e-19 7.872446860715227e-11 7.56584285734279e-11 3.0660400337243783e-12
3.3702598118196083 1.0063680281943467e-18 9.003049662123169e-11 8.689049188453392e-11 3.1400047366977647e-12
3.382922481734668 1.0384062968002604e-18 9.324569542442499e-11 9.003394806331044e-11 3.2117473611145387e-12
3.389271646505754 1.0548698042965696e-18 9.490184863555561e-11 9.165376639550112e-11 3.248082240054473e-12
3.395632727569191 1.072907470260552e-18 9.670577570976109e-11 9.342024790340849e-11 3.2855278063526118e-12
3.421196662673239 1.1592397191647964e-18 1.0527390328645055e-10 1.018335279554078e-10 3.440375331042759e-12
3.4276182099114902 1.1465761069202158e-18 1.043193234708457e-10 1.0084455540798768e-10 3.474768062858039e-12
3.4340518103208963 1.0834585193335399e-18 9.876170185340022e-11 9.525448406727935e-11 3.507217786120862e-12
3.4469541582030403 9.936069404305542e-19 9.091165357693067e-11 8.734231412637573e-11 3.5693394505549577e-12
3.472904465399547 9.742337470469769e-19 8.981015356508381e-11 8.609746250888328e-11 3.712691056200548e-12
3.4990501388274233 9.41856554602535e-19 8.747911145918302e-11 8.362008356541231e-11 3.859027893770686e-12
3.5253949054701885 8.108290095399471e-19 7.587635922293889e-11 7.187574265007602e-11 4.0006165728628565e-12
3.5519380250092896 6.8634291039298e-19 6.471068014726544e-11 6.056821668466521e-11 4.1424634626002315e-12
3.578680990867387 6.42409115264185e-19 6.102448374888123e-11 5.67266061205908e-11 4.29787762829042e-12
3.605625307711299 6.301997016380967e-19 6.031540101614395e-11 5.5854118050588594e-11 4.46128296555536e-12
3.660119384959845 6.330212221118154e-19 6.150111003418209e-11 5.6697791156050686e-11 4.803318878131402e-12
3.715437065384467 6.40163522657442e-19 6.313501183731822e-11 5.797295665003449e-11 5.162055187283724e-12
3.8285932144167436 6.715275500714653e-19 6.824526006077315e-11 6.231860392704741e-11 5.9266561337257355e-12
3.94519561050918 7.07710870029901e-19 7.411290565644719e-11 6.736204755357707e-11 6.750858102870104e-12
4.06534921144712 7.457932442183518e-19 8.047958629677232e-11 7.284811234650199e-11 7.631473950270317e-12
4.189162171576248 7.847294698051007e-19 8.726027326076066e-11 7.869232724625921e-11 8.567946014501437e-12
4.316745939156006 8.238744300853053e-19 9.44032501065542e-11 8.484901004673183e-11 9.554240059822366e-12
4.448215356677963 8.626852295040522e-19 1.0186092142671673e-10 9.128716218761558e-11 1.0573759239101095e-11
4.58368876423945 9.008610751216058e-19 1.0960803101379841e-10 9.798251591113905e-11 1.162551510265938e-11
4.723288106065518 9.382128298904756e-19 1.1762922552367005e-10 1.0491516716565674e-10 1.2714058358013324e-11
4.867139040275056 9.743330301408862e-19 1.258782253451294e-10 1.1207241228952155e-10 1.380581305560784e-11
4.940699165968905 9.921012863769932e-19 1.3011095266314143e-10 1.1575508108644808e-10 1.4355871576693345e-11
5.015371051989984 1.009294425974958e-18 1.3436630571230433e-10 1.194596971840207e-10 1.4906608528283648e-11
5.091171501069577 1.026685681472719e-18 1.387473398155555e-10 1.2327652491696745e-10 1.5470814898588033e-11
5.129500256944802 1.0351318303319238e-18 1.4094190990017472e-10 1.251895748475055e-10 1.575233505266915e-11
5.168117569889187 1.0434910825540378e-18 1.431497388201935e-10 1.271131029032677e-10 1.603663591692582e-11
5.20702561229733 1.0524094623401778e-18 1.4546010313516888e-10 1.2911033878640504e-10 1.6349764348763877e-11
5.246226572918644 1.0611669815785137e-18 1.477747401292145e-10 1.311114979723864e-10 1.6663242156828046e-11
5.265937586045735 1.0654843120570853e-18 1.4893343290180573e-10 1.3211337538731896e-10 1.6820057514486838e-11
5.285722656980489 1.0697601230684588e-18 1.5009292106277463e-10 1.3311602652477392e-10 1.6976894538000693e-11
5.305582063971359 1.0739940045695165e-18 1.5125311459798502e-10 1.3411938346389978e-10 1.7133731134085223e-11
5.3255160863122235 1.0782965797576729e-18 1.5242961811454198e-10 1.3513761158523065e-10 1.729200652931136e-11
5.365609099470188 1.0876290761439655e-18 1.5490636827658977e-10 1.3728665099871374e-10 1.7619717277876002e-11
5.406003951863644 1.0968263018267743e-18 1.5739236027220382e-10 1.3944470872205225e-10 1.794765155015158e-11
5.446702915881641 1.1058877090710519e-18 1.598873675517541e-10 1.4161173567749819e-10 1.8275631874255948e-11
5.487708281020852 1.115016210518419e-18 1.6242079475123905e-10 1.4381568180299823e-10 1.860511294824074e-11
5.529022354014368 1.1258050180586191e-18 1.6522697772605193e-10 1.462783814630968e-10 1.8948596262955134e-11
5.570647458961463 1.1365708234181266e-18 1.6806280628772438e-10 1.4877060498854288e-10 1.9292201299181466e-11
5.612585937458331 1.1473242403746058e-18 1.7093012341001934e-10 1.5129437539257475e-10 1.963574801744461e-11
5.654840148729818 1.1583768636315124e-18 1.7387599993298438e-10 1.5389496125565323e-10 1.9981038677331158e-11
5.67608639626678 1.165230076094698e-18 1.7556183686591447e-10 1.5539967961053284e-10 2.0162157255381603e-11
5.686739436050992 1.1686816987181792e-18 1.7641235830538352e-10 1.5615962389142941e-10 2.025273441395413e-11
5.6974124697621304 1.1721509050919885e-18 1.7726811314300427e-10 1.5692479347575793e-10 2.0343319667246353e-11
5.718818669136295 1.1791449027117364e-18 1.7899583979002178e-10 1.584713368188771e-10 2.0524502971144698e-11
5.740305295436557 1.1865869358278549e-18 1.808023147550527e-10 1.600950828351057e-10 2.070723191994707e-11
5.7835210386641895 1.2047699714471627e-18 1.8495491941140515e-10 1.6387028695111576e-10 2.1084632460289406e-11
5.827062130521658 1.2245053879393382e-18 1.8939991605971762e-10 1.6793386190121652e-10 2.1466054158501122e-11
5.8489554468988025 1.2378783453827789e-18 1.9218775426627308e-10 1.7051434576364452e-10 2.1673408502628568e-11
5.870931020387893 1.251795876591282e-18 1.9507873352536006e-10 1.7319766065278977e-10 2.1881072872570266e-11
5.892989160043636 1.2663042716382591e-18 1.9808114928448578e-10 1.7599212564641048e-10 2.2089023638075372e-11
5.915130176081913 1.2824655115195625e-18 2.013628894703608e-10 1.790578454769543e-10 2.2305043993406515e-11
5.95966208400165 1.326837714310029e-18 2.098982782918349e-10 1.8709323880877095e-10 2.2805039483063958e-11
6.004529249263818 1.388723800330193e-18 2.2134222759001918e-10 1.9797011730279652e-10 2.3372110287222657e-11
6.027089341400364 1.4311357464121103e-18 2.289590907627554e-10 2.0525546703961755e-10 2.3703623723137916e-11
6.049734195844842 1.4802475618173946e-18 2.3770596559523675e-10 2.13650327527731e-10 2.405563806750579e-11
6.095279466722835 1.6204611898722979e-18 2.6218128630236103e-10 2.372473857901087e-10 2.4933900512252352e-11
6.141167624020661 1.831441959959965e-18 2.985475728360895e-10 2.724577055617212e-10 2.60898672743684e-11
6.164241091010745 1.965421474891401e-18 3.215916368755375e-10 2.94768545749635e-10 2.6823091125902552e-11
6.187401249150058 2.1144210771335808e-18 3.472715400485851e-10 3.196970452068045e-10 2.757449484178059e-11
6.1990139391386085 2.1865805640175707e-18 3.597969929958918e-10 3.318404314904905e-10 2.795656150540133e-11
6.204828454712694 2.2242882329141677e-18 3.663450066507312e-10 3.3819562807135324e-10 2.8149378579377823e-11
6.210648424152782 2.251473772741239e-18 3.711703449134749e-10 3.428583727427678e-10 2.831197217070716e-11
6.233982942956859 2.3417753290047635e-18 3.875076396987178e-10 3.586359202227787e-10 2.8871719475939003e-11
6.239830258556775 2.35213184946678e-18 3.895864750450268e-10 3.6064247583046945e-10 2.8943999214557303e-11
6.245683058788269 2.351427000978552e-18 3.89835042713635e-10 3.608187039523901e-10 2.9016338761244905e-11
6.257405133728602 2.345194605039333e-18 3.8953150932609766e-10 3.6039169766215795e-10 2.9139811663939805e-11
6.269149208991335 2.322659187157671e-18 3.865124861369454e-10 3.573425537589402e-10 2.916993237800505e-11
6.280915325867298 2.271884357688044e-18 3.787726331252353e-10 3.4968780752350006e-10 2.9084825601735197e-11
6.304513850009849 2.14897384132815e-18 3.5962689653156937e-10 3.3081620137328585e-10 2.8810695158283517e-11
6.32820103803542 2.000768509745066e-18 3.360829991059939e-10 3.076569590510596e-10 2.8426040054934254e-11
6.3519772230701035 1.866097335208012e-18 3.14639075904253e-10 2.8656214512459675e-10 2.8076930779656304e-11
6.375842739491607 1.751994450323647e-18 2.965102806057882e-10 2.6874581920645e-10 2.7764461399338223e-11
6.399797922933955 1.6625693392516085e-18 2.824330143837986e-10 2.548504282830543e-10 2.7582586100744246e-11
6.42384311029221 1.5875537483881403e-18 2.707028302312764e-10 2.432758976039289e-10 2.742693262734752e-11
6.447978639727206 1.5335521552519159e-18 2.6247719354220235e-10 2.351045273798203e-10 2.737266616238205e-11
6.472204850670314 1.4882115086338256e-18 2.556738706926661e-10 2.2833545010120522e-10 2.733842059146086e-11
6.496522083828205 1.458943269582899e-18 2.515873247046161e-10 2.24201402241007e-10 2.7385922463609094e-11
