Dust emission spectrum from A.P. Jones, M. Kohler, N. Ysard, M. Bocchio, and L. Verstraete (2017), A&A, 602A, 46J 
inside the DustPedia framework.

lambda    nu*dP/dnu     j_nu    j_nu(carb.) j_nu(sil)
 (um)   (erg s-1 H-1) (Jy cm2 sr-1 H-1)
0.9927057738263894 1.0223597946993686e-20 2.693976127909904e-13 2.693975938951253e-13 1.8895865098462778e-20
1.0001793341362166 1.0395186981065223e-20 2.759812741747511e-13 2.759812514391714e-13 2.2735579674570732e-20
1.0077091589558085 1.0567502830145844e-20 2.826682379598321e-13 2.8266821064090943e-13 2.7318922626826577e-20
1.0114953028030835 1.0653926277214147e-20 2.860506840234931e-13 2.860506540923063e-13 2.9931186804615177e-20
1.0152956718711033 1.0740523131283687e-20 2.894592300953871e-13 2.894591973131475e-13 3.278223963557321e-20
1.0229392996569957 1.09141420965899e-20 2.9635270838845155e-13 2.963526691025617e-13 3.9285889740549644e-20
1.0267826658714554 1.1000967408721602e-20 2.9983259216114026e-13 2.9983254917455993e-13 4.298658037532939e-20
1.0306404723013447 1.1087951754662423e-20 3.033387923650442e-13 3.033387453449334e-13 4.7020110872132494e-20
1.03451277320114 1.1175092837636532e-20 3.0687141090430765e-13 3.068713594894198e-13 5.141488778291686e-20
1.0383996230291617 1.1262388447262928e-20 3.1043055204615396e-13 3.104304958445523e-13 5.620160172173538e-20
1.0403485208654093 1.1306093532973217e-20 3.1222010184716006e-13 3.1222004309496765e-13 5.875219240256186e-20
1.0423010764483396 1.1349836461679456e-20 3.1401632252036896e-13 3.1401626110697016e-13 6.14133988489652e-20
1.0462171883269815 1.1437434849653572e-20 3.176288316202053e-13 3.176287645341411e-13 6.708606423584858e-20
1.0471985131304309 1.1459357713279525e-20 3.1853614986556677e-13 3.18536081284865e-13 6.858070180312592e-20
1.048180758391296 1.1481289824262366e-20 3.1944514803496995e-13 3.194450779277951e-13 7.010717489940411e-20
1.0501480137395462 1.1525181672678907e-20 3.2126819130468944e-13 3.2126811804647146e-13 7.325821785612487e-20
1.0521189612883777 1.156911016741981e-20 3.230979758577809e-13 3.2309789931328293e-13 7.654449790958693e-20
1.0531058218030118 1.1591059195941045e-20 3.240145930371897e-13 3.2401451479701006e-13 7.824017963625403e-20
1.0540936079674168 1.1612922652086059e-20 3.2493025116297465e-13 3.2493017119083405e-13 7.99721406471205e-20
1.058054026499678 1.1700462937953224e-20 3.286096573873902e-13 3.286095701136113e-13 8.727377894840221e-20
1.0590464539527713 1.172236949810651e-20 3.2953371165746685e-13 3.2953362246104316e-13 8.919642367348511e-20
1.06003981227728 1.1744284604465533e-20 3.304594507686708e-13 3.3045935960914333e-13 9.115952750018483e-20
1.0620293250338977 1.1788140360458114e-20 3.323159911232521e-13 3.323158959128906e-13 9.521036144643218e-20
1.0660195594769086 1.1875953400766364e-20 3.3604937432086807e-13 3.3604927048672264e-13 1.0383414540078704e-19
1.070024785945596 1.1963900643969164e-20 3.398099321502184e-13 3.3980981894879046e-13 1.1320142794872154e-19
1.0740450607676866 1.2051980781060762e-20 3.4359779311146267e-13 3.4359766973862597e-13 1.233728366544083e-19
1.07808044048254 1.2140192610894248e-20 3.474130891466977e-13 3.4741295473305837e-13 1.344136392461004e-19
1.0861967418109137 1.2316872964269762e-20 3.551226648090361e-13 3.5512250541931895e-13 1.5938971712660547e-19
1.0902777775684922 1.2405034702347542e-20 3.590083723726672e-13 3.590081988908145e-13 1.7348185272036684e-19
1.0943741465085532 1.2493319218294384e-20 3.6292183209109473e-13 3.6292164333329905e-13 1.8875779565875105e-19
1.1026131145906286 1.267025427153112e-20 3.7083260958255255e-13 3.708323863389978e-13 2.2324355482683906e-19
1.1109141095355224 1.2847674709422147e-20 3.788562427660362e-13 3.788559790815337e-13 2.6368450255919824e-19
1.1192775983109025 1.3025441246733563e-20 3.8698995208579485e-13 3.8698964104005054e-13 3.110457442916524e-19
1.1277040513999907 1.320292091196561e-20 3.952160702419336e-13 3.952157038040739e-13 3.6643785975158085e-19
1.1361939428280308 1.3380867363042906e-20 4.03558192808326e-13 4.035577616712367e-13 4.311370894653921e-19
1.1447477501889525 1.3559285589840645e-20 4.120178578280156e-13 4.1201735121999056e-13 5.066080250773163e-19
1.1533659546722406 1.373824464390243e-20 4.2059858426665326e-13 4.205979897366776e-13 5.945299757290426e-19
1.1707974979042381 1.4098331186549543e-20 4.3814607659684644e-13 4.3814526090045645e-13 8.156963899853865e-19
1.1884924949847024 1.446069373285739e-20 4.561997099688489e-13 4.56198596453879e-13 1.11351496987369e-18
1.2064549276569216 1.482777615308257e-20 4.748501239971383e-13 4.748486114531416e-13 1.5125439968443115e-18
1.2246888378427687 1.5197288257083724e-20 4.940390679715797e-13 4.940370235006694e-13 2.0444709101301115e-18
1.2431983285522175 1.556896968405877e-20 5.13771161939325e-13 5.137684119027615e-13 2.7500365634599694e-18
1.2619875648066055 1.5943409573724815e-20 5.340792578588463e-13 5.340755765030945e-13 3.681355751678026e-18
1.3004222497298317 1.6698504975391905e-20 5.764098781349461e-13 5.764033742439168e-13 6.503891029326571e-18
1.3400274889804893 1.746521615572537e-20 6.21236702048217e-13 6.212254226752164e-13 1.1279373000535383e-17
1.3808389325824078 1.8246754421207186e-20 6.688028013076214e-13 6.687835903982912e-13 1.9210909330420276e-17
1.4228933163050095 1.9049990914704462e-20 7.195095212574331e-13 7.194773714719436e-13 3.2149785489566046e-17
1.466228494730424 1.9888971190938487e-20 7.740756517058388e-13 7.740227593081702e-13 5.28923976685226e-17
1.5108834753276823 2.076274678465408e-20 8.326935714593125e-13 8.326079889053344e-13 8.558255397821171e-17
1.5568984535646726 2.167134306263771e-20 8.956030161431112e-13 8.954666790197009e-13 1.3633712341023548e-16
1.6043148490894465 2.262065634778345e-20 9.63305940035035e-13 9.630917025499602e-13 2.1423748507492893e-16
1.6531753430134553 2.3617004950891175e-20 1.036366038662348e-12 1.0360343654312351e-12 3.3167323111283157e-16
1.7035239163302658 2.4667733076451373e-20 1.1154417830422435e-12 1.1149357721609175e-12 5.060108813260657e-16
1.755405889504358 2.5792232691930783e-20 1.20181030177378e-12 1.2010491695104394e-12 7.611322633406716e-16
1.8088679632656115 2.6991864364991615e-20 1.2960124782631436e-12 1.2948832965904376e-12 1.129181672705871e-15
1.8639582606462262 2.826767322045587e-20 1.3986069377946042e-12 1.3969540541739295e-12 1.6528836206747227e-15
1.9207263702978936 2.9624841811015116e-20 1.5103965051141147e-12 1.5080083787688768e-12 2.3881263452386974e-15
1.979223391128241 3.1070562470453366e-20 1.632350299925438e-12 1.6289432794314917e-12 3.4070204939458008e-15
2.039501978296691 3.261156536444539e-20 1.7654897867115113e-12 1.760688615380715e-12 4.801171330795879e-15
2.1016163906111602 3.42644666494103e-20 1.911467226097205e-12 1.9047814530287843e-12 6.6857730684208614e-15
2.1656225393682647 3.6038867323598415e-20 2.0716831266408582e-12 2.0624800114293887e-12 9.20311521147032e-15
2.231578038680979 3.793399560791153e-20 2.2470363677444386e-12 2.2345098771775084e-12 1.252649056693018e-14
2.299542257339062 3.995458185700456e-20 2.4388069149582257e-12 2.4219427312523695e-12 1.6864183705855656e-14
2.369576372248914 4.2109101934647954e-20 2.648598465148153e-12 2.6261348380767644e-12 2.2463627071388037e-14
2.4417434235010123 4.440730441082527e-20 2.878219236040939e-12 2.8486050019690266e-12 2.961423407191251e-14
2.5161083711144245 4.6866338159956527e-20 3.130111423319595e-12 3.0914601450639765e-12 3.865127825561832e-14
2.5927381535095444 4.9512510455192245e-20 3.4075562901641573e-12 3.3575986016852498e-12 4.995768847890771e-14
2.6717017477616296 5.23683080879801e-20 3.713863611354273e-12 3.649901343024019e-12 6.396226833025453e-14
2.753070231689431 5.546479860256301e-20 4.053257210342886e-12 3.972118100048912e-12 8.113911029397329e-14
2.836916847834745 5.888217378617228e-20 4.434042732483129e-12 4.33203396546207e-12 1.0200876702105943e-13
2.9233170693905177 6.279101987085562e-20 4.8723995291538505e-12 4.745292148694375e-12 1.271073804594751e-13
2.967498994190263 6.507940580155099e-20 5.12629497435438e-12 4.985162245428559e-12 1.4113272892582073e-13
3.0123486681368425 6.751643863466795e-20 5.398637877838929e-12 5.2421341458212746e-12 1.5650373201765617e-13
3.0578761833420214 7.111983369917596e-20 5.772714269620997e-12 5.599335742592399e-12 1.7337852702859827e-13
3.1040917844459814 7.524108197637763e-20 6.199533620471473e-12 6.007844444378673e-12 1.9168917609280042e-13
3.127460860933648 7.874525315009233e-20 6.537108600267092e-12 6.335636308593203e-12 2.0147229167388835e-13
3.1510058709225794 8.309205745602432e-20 6.949893637840691e-12 6.73823899765962e-12 2.1165464018107355e-13
3.162844764501044 8.686211065720085e-20 7.292520992036307e-12 7.075602776278485e-12 2.169182157578225e-13
3.1747281389236908 9.109653867808959e-20 7.676757998111801e-12 7.45447326148036e-12 2.222847366314411e-13
3.1986289994194426 1.02403118886984e-19 8.69453755109469e-12 8.46117809186875e-12 2.3335945922593767e-13
3.2227097969389145 1.2801336606305897e-19 1.0950802582346796e-11 1.0705723333585345e-11 2.4507924876145513e-13
3.2348180950136065 1.5183829069637638e-19 1.3037688572157244e-11 1.2786358808199759e-11 2.513297639574856e-13
3.240889293275058 1.6958147019614492e-19 1.4588546539998576e-11 1.4333919764802062e-11 2.54626775196515e-13
3.2469718861334385 1.901274208116136e-19 1.6386745852375283e-11 1.612870765542712e-11 2.580381969481585e-13
3.2714166318528037 2.9763345381290233e-19 2.584562474020632e-11 2.5573501392980352e-11 2.72123347225963e-13
3.2744851364798273 3.0437453700915213e-19 2.6455792426179064e-11 2.6182012732001265e-11 2.7377969417779697e-13
3.2775565192852394 3.1129324817492884e-19 2.7082535662975023e-11 2.6807091667118737e-11 2.75443995856278e-13
3.283707930232385 3.0479586146646375e-19 2.65670308874946e-11 2.6288617790773764e-11 2.784130967208351e-13
3.2898708863219004 2.839241556915881e-19 2.479423025851273e-11 2.4513121737440683e-11 2.811085210720506e-13
3.29141343181113 2.7899228352344954e-19 2.4374968420318662e-11 2.4093183231635442e-11 2.81785188683216e-13
3.292184975758714 2.7656747193819086e-19 2.4168781841094863e-11 2.3886657896524824e-11 2.8212394457003903e-13
3.295272960557952 2.614361715970222e-19 2.2867911510998662e-11 2.2584471121725524e-11 2.8344038927313634e-13
3.3076538914384823 2.0862208058506832e-19 1.8316806798644244e-11 1.8028082220798535e-11 2.88724577845712e-13
3.310756385682612 1.97762990967566e-19 1.7379676171559343e-11 1.7089620344851267e-11 2.900558267080722e-13
3.313861789986515 1.87700990737863e-19 1.6510886406594863e-11 1.6219495246674108e-11 2.913911599207548e-13
3.3200813396944477 1.7369019448271308e-19 1.5307118991593264e-11 1.5012852565822936e-11 2.9426642577032217e-13
3.345076488085796 1.4954907373480643e-19 1.3278811725249553e-11 1.2971723585879146e-11 3.070881393704095e-13
3.3482140837626964 1.506189732601026e-19 1.3386354894494776e-11 1.3077529489312759e-11 3.0882540518201696e-13
3.3513546224236106 1.516980034038419e-19 1.3494900377096635e-11 1.3184330235185852e-11 3.1057014191078046e-13
3.3576445397418455 1.5893181844025182e-19 1.4164948593426782e-11 1.3850729426824311e-11 3.1421916660246825e-13
3.3702598118196083 1.8489142113089193e-19 1.6540535866670926e-11 1.621866329163584e-11 3.218725750350857e-13
3.382922481734668 1.9130384167137893e-19 1.7178497288564736e-11 1.6849196715434163e-11 3.29300573130573e-13
3.389271646505754 1.9460476529755842e-19 1.7507707496037544e-11 1.717464406898808e-11 3.3306342704946735e-13
3.395632727569191 1.9823204840925226e-19 1.7867509122008664e-11 1.753056783812107e-11 3.369412838875981e-13
3.421196662673239 2.1573908724776463e-19 1.9591888916980437e-11 1.9238906928350028e-11 3.5298198863040927e-13
3.4276182099114902 2.128145766795634e-19 1.9362580931133342e-11 1.900603121461966e-11 3.5654971651368144e-13
3.4340518103208963 1.990862982154481e-19 1.8147535209327455e-11 1.778761689119022e-11 3.599183181372321e-13
3.4469541582030403 1.794414220915988e-19 1.641827944103759e-11 1.605190736618514e-11 3.6637207485244486e-13
3.472904465399547 1.744343738138339e-19 1.6080307161125526e-11 1.569905034247151e-11 3.8125681865401657e-13
3.4990501388274233 1.6662258634710765e-19 1.5475812884083043e-11 1.5079350735161727e-11 3.964621489213143e-13
3.5253949054701885 1.3763829532005378e-19 1.2880018617566285e-11 1.2468827135967626e-11 4.1119148159866297e-13
3.5519380250092896 1.1006523053998306e-19 1.0377314052431602e-11 9.951352513138852e-12 4.259615392927495e-13
3.578680990867387 9.970231944614839e-20 9.471040226857832e-12 9.028894604033257e-12 4.421456228245762e-13
3.605625307711299 9.611507014564986e-20 9.199018952977595e-12 8.739849100724679e-12 4.591698522529183e-13
3.660119384959845 9.474742418349413e-20 9.205175998246576e-12 8.710334416846595e-12 4.948415813999805e-13
3.715437065384467 9.427136145085703e-20 9.297348740541786e-12 8.7650403111746e-12 5.32308429367186e-13
3.8285932144167436 9.688325661089466e-20 9.845944581486616e-12 9.233594680645264e-12 6.123499008413521e-13
3.94519561050918 1.0042508712371218e-19 1.0516717098362091e-11 9.81781079516823e-12 6.989063031938596e-13
4.06534921144712 1.0430481571634866e-19 1.1255677740029403e-11 1.046397444619116e-11 7.91703293838245e-13
4.189162171576248 1.0833317351203711e-19 1.2046421967832557e-11 1.1155682498245468e-11 8.907394695870912e-13
4.316745939156006 1.1241370771964446e-19 1.2880869921116347e-11 1.1885427032109636e-11 9.954428890067082e-13
4.448215356677963 1.1648224817624227e-19 1.3753555437489725e-11 1.2649428199054982e-11 1.104127238434745e-12
4.58368876423945 1.2051067408481627e-19 1.466256903241073e-11 1.344582838910292e-11 1.2167406433078133e-12
4.723288106065518 1.2449058914732916e-19 1.5608112700926514e-11 1.4274296526963044e-11 1.3338161739634672e-12
4.867139040275056 1.2839825247648106e-19 1.6588315965043526e-11 1.5136446364933658e-11 1.4518696001098718e-12
4.940699165968905 1.3036732335755825e-19 1.7097263022548046e-11 1.5585673322846022e-11 1.5115896997020254e-12
5.015371051989984 1.3227468573512142e-19 1.7609589832338264e-11 1.6038037428263206e-11 1.5715524040750593e-12
5.091171501069577 1.3427416271675748e-19 1.8145945949287288e-11 1.6512825407773577e-11 1.6331205415137129e-12
5.129500256944802 1.352470584332972e-19 1.841502518365903e-11 1.675111403383574e-11 1.6639111498232915e-12
5.168117569889187 1.3621666788382315e-19 1.868667663436073e-11 1.699163833161117e-11 1.695038302749565e-12
5.20702561229733 1.3729796551027726e-19 1.8976811723988758e-11 1.7247579417594962e-11 1.7292323063937957e-12
5.246226572918644 1.3836390179547984e-19 1.9268117069262945e-11 1.7504604100844842e-11 1.7635129684180937e-12
5.265937586045735 1.3889104417364535e-19 1.9414194816402968e-11 1.763351462201036e-11 1.780680194392607e-12
5.285722656980489 1.394142709730198e-19 1.956054887160777e-11 1.7762686535802136e-11 1.797862335805636e-12
5.305582063971359 1.3993356035904648e-19 1.970717410994722e-11 1.789211699385885e-11 1.8150571160883692e-12
5.3255160863122235 1.404708104131856e-19 1.9857163965348035e-11 1.8024747936316354e-11 1.8324160290316857e-12
5.365609099470188 1.4170271965636394e-19 2.018211369882276e-11 1.83137661139259e-11 1.8683475848968566e-12
5.406003951863644 1.429269504206142e-19 2.050972887479273e-11 1.8605372875524264e-11 1.9043559992684705e-12
5.446702915881641 1.4414390838908832e-19 2.084008156697201e-11 1.8899658575702552e-11 1.9404229912694536e-12
5.487708281020852 1.453950198954376e-19 2.1179220949002587e-11 1.9202518014802948e-11 1.9767029341996385e-12
5.529022354014368 1.4700324314838382e-19 2.1574696498706422e-11 1.9560176306754188e-11 2.0145201919522377e-12
5.570647458961463 1.4863070102341167e-19 2.197777050037543e-11 1.9925363013484357e-11 2.0524074868910766e-12
5.612585937458331 1.50280257578884e-19 2.238898305300435e-11 2.0298636826526072e-11 2.090346226478281e-12
5.654840148729818 1.520160646550141e-19 2.281808803130236e-11 2.06895596572926e-11 2.12852837400976e-12
5.67608639626678 1.5316454746248495e-19 2.3076858250494606e-11 2.0928316244423418e-11 2.1485420060711894e-12
5.686739436050992 1.537468021962477e-19 2.320806083221801e-11 2.1049504346678528e-11 2.158556485539476e-12
5.6974124697621304 1.543346122358254e-19 2.33405147620945e-11 2.1171939082090678e-11 2.1685756800038186e-12
5.718818669136295 1.5552756294533958e-19 2.360930083815342e-11 2.142067381063754e-11 2.188627027515886e-12
5.740305295436557 1.5682043193165555e-19 2.389500190674939e-11 2.1686142338316988e-11 2.2088595684324094e-12
5.7835210386641895 1.6011168184956103e-19 2.4580163778267653e-11 2.2329510877548955e-11 2.2506529007187016e-12
5.827062130521658 1.6376355717269738e-19 2.533006737875312e-11 2.3037125249475944e-11 2.2929421292771843e-12
5.8489554468988025 1.6632528914496586e-19 2.5822960646892188e-11 2.3507066814309576e-11 2.315893832582617e-12
5.870931020387893 1.6901561905099144e-19 2.6339240707722388e-11 2.400034393155701e-11 2.338896776165378e-12
5.892989160043636 1.718449991831729e-19 2.6880786631918024e-11 2.451883807727851e-11 2.3619485546395163e-12
5.915130176081913 1.750301812001542e-19 2.7481895391653393e-11 2.509601400281643e-11 2.385881388836961e-12
5.95966208400165 1.8393652079102206e-19 2.9097725074164335e-11 2.6656648722667204e-11 2.4410763514971313e-12
6.004529249263818 1.9657958978003893e-19 3.133190652475345e-11 2.882834579543097e-11 2.503560729322482e-12
6.027089341400364 2.0533069167926718e-19 3.2849664045101e-11 3.0309670607555216e-11 2.5399934375457865e-12
6.049734195844842 2.155327216791559e-19 3.461138193749878e-11 3.203272488112547e-11 2.5786570563733096e-12
6.095279466722835 2.448639800505903e-19 3.961758150088043e-11 3.694277380079964e-11 2.6748077000807837e-12
6.141167624020661 2.8936586853477473e-19 4.717019681833237e-11 4.436921825659725e-11 2.800978561735115e-12
6.164241091010745 3.1767735045479735e-19 5.1979883417467504e-11 4.909905421416392e-11 2.8808292033035815e-12
6.187401249150058 3.4936465089355724e-19 5.737948872455223e-11 5.4416794925670845e-11 2.962693798881391e-12
6.1990139391386085 3.647284029291479e-19 6.00152515729793e-11 5.701092645800224e-11 3.004325114977035e-12
6.204828454712694 3.7277425672424073e-19 6.139671358146918e-11 5.83713747693749e-11 3.0253388120942665e-12
6.210648424152782 3.785766528014846e-19 6.24108654951964e-11 5.936776930708272e-11 3.0430961881136776e-12
6.233982942956859 3.9792257846925256e-19 6.584664090341275e-11 6.274225326024645e-11 3.104387643166274e-12
6.239830258556775 4.001842650952479e-19 6.628300928040474e-11 6.317058413991778e-11 3.1124251404869774e-12
6.245683058788269 4.0006701217849573e-19 6.632574207747766e-11 6.320527145362194e-11 3.120470623855712e-12
6.257405133728602 3.9880956654328495e-19 6.624136523914915e-11 6.31070853336826e-11 3.1342799054665505e-12
6.269149208991335 3.9408822138839533e-19 6.558001236182891e-11 6.244198048979433e-11 3.138031872034595e-12
6.280915325867298 3.8334031504650793e-19 6.391118457322491e-11 6.078181931318317e-11 3.1293652600417175e-12
6.304513850009849 3.572869678321383e-19 5.979132967632341e-11 5.6690505847138246e-11 3.100823829185184e-12
6.32820103803542 3.257157054119353e-19 5.471273193154951e-11 5.1652371674708494e-11 3.060360256841018e-12
6.3519772230701035 2.9697291301322663e-19 5.0072030625701604e-11 4.704831068813819e-11 3.0237199375634053e-12
6.375842739491607 2.726936221443265e-19 4.6151095059967986e-11 4.316007887143183e-11 2.9910161885361687e-12
6.399797922933955 2.5350806305169804e-19 4.306529943016924e-11 4.009289223183924e-11 2.9724071983300127e-12
6.42384311029221 2.374618934479358e-19 4.049097971876529e-11 3.7534357757713746e-11 2.9566219610515578e-12
6.447978639727206 2.2583270820059624e-19 3.865270265215752e-11 3.570091313551832e-11 2.951789516639196e-12
6.472204850670314 2.1608594925881933e-19 3.7123440269601515e-11 3.417431976221299e-11 2.949120507388533e-12
