Dust emission spectrum from A.P. Jones, M. Kohler, N. Ysard, M. Bocchio, and L. Verstraete (2017), A&A, 602A, 46J 
inside the DustPedia framework.

lambda    nu*dP/dnu     j_nu    j_nu(carb.) j_nu(sil)
 (um)   (erg s-1 H-1) (Jy cm2 sr-1 H-1)
0.9927057738263894 7.01002144477129e-22 1.847180466824163e-14 1.8471793707938813e-14 1.096030281868184e-20
1.0001793341362166 7.127944134188794e-22 1.8923941512385224e-14 1.8923928322685323e-14 1.3189699902276107e-20
1.0077091589558085 7.246345190091927e-22 1.938311878837434e-14 1.9383102936950104e-14 1.5851424239283448e-20
1.0114953028030835 7.3057201041257415e-22 1.9615362249491834e-14 1.961534488078217e-14 1.7368709659875633e-20
1.0152956718711033 7.365208721012271e-22 1.9849383682871308e-14 1.9849364657998416e-14 1.9024872889249522e-20
1.0229392996569957 7.484461808383414e-22 2.0322628275449834e-14 2.0322605471998672e-14 2.2803451161991698e-20
1.0267826658714554 7.544091373902406e-22 2.056150507585691e-14 2.0561480121975173e-14 2.4953881735308684e-20
1.0306404723013447 7.603824631584125e-22 2.0802173675858752e-14 2.080214637786965e-14 2.729798910616257e-20
1.03451277320114 7.663659995603363e-22 2.1044640878697946e-14 2.1044611026367386e-14 2.9852330565079403e-20
1.0383996230291617 7.723595950838499e-22 2.1288913679610546e-14 2.1288881044813137e-14 3.2634797400018995e-20
1.0403485208654093 7.753601196557957e-22 2.14117294201702e-14 2.141169530261201e-14 3.4117558192387125e-20
1.0423010764483396 7.783631055061608e-22 2.1534999275259296e-14 2.153496361054399e-14 3.566471529571982e-20
1.0462171883269815 7.843763941155045e-22 2.178290507341544e-14 2.178286611046373e-14 3.8962951709590324e-20
1.0471985131304309 7.85881228821947e-22 2.1845166818596653e-14 2.1845126986559662e-14 3.983203699828502e-20
1.048180758391296 7.873866646268465e-22 2.190754292352723e-14 2.190750220386712e-14 4.071966010998665e-20
1.0501480137395462 7.903993319355232e-22 2.2032638702894914e-14 2.203259615086425e-14 4.255203066437098e-20
1.0521189612883777 7.934143811654191e-22 2.2158193401331664e-14 2.2158148938173824e-14 4.446315783869245e-20
1.0531058218030118 7.94920800504055e-22 2.2221087419026623e-14 2.222104196970575e-14 4.5449320876909496e-20
1.0540936079674168 7.964212774383492e-22 2.2283913659159222e-14 2.2283867202547082e-14 4.645661214106539e-20
1.058054026499678 8.024287887892145e-22 2.2536360378226988e-14 2.253630967473048e-14 5.0703496504125835e-20
1.0590464539527713 8.039320595225956e-22 2.2599758140852414e-14 2.2599706318995568e-14 5.182185684623668e-20
1.06003981227728 8.054358843295404e-22 2.266327059748833e-14 2.2663217633702195e-14 5.296378613288886e-20
1.0620293250338977 8.084451902687006e-22 2.2790640122860626e-14 2.2790584802613066e-14 5.53202475586854e-20
1.0660195594769086 8.144703881291157e-22 2.3046761392310758e-14 2.3046701054949196e-14 6.033736156443132e-20
1.070024785945596 8.205042975930276e-22 2.3304732962204632e-14 2.3304667174507122e-14 6.578769750927709e-20
1.0740450607676866 8.26546843095006e-22 2.3564563896167617e-14 2.3564492189520136e-14 7.170664748583917e-20
1.07808044048254 8.325979585267129e-22 2.3826263557748678e-14 2.3826185425430335e-14 7.813231835644961e-20
1.0861967418109137 8.447164409655134e-22 2.435504160787314e-14 2.435494893686421e-14 9.267100893053902e-20
1.0902777775684922 8.507627113138063e-22 2.4621530176479625e-14 2.4621429300829943e-14 1.0087564967601055e-19
1.0943741465085532 8.568170243281234e-22 2.488991106387941e-14 2.4889801293220343e-14 1.0977065906634272e-19
1.1026131145906286 8.689497364270165e-22 2.5432393971708485e-14 2.5432264116440326e-14 1.2985526816268896e-19
1.1109141095355224 8.811146056999231e-22 2.598258256935309e-14 2.5982429155018632e-14 1.534143344571715e-19
1.1192775983109025 8.933023523636502e-22 2.6540293567868882e-14 2.654011255575031e-14 1.8101211857127584e-19
1.1277040513999907 9.054697472498395e-22 2.7104320143788685e-14 2.7104106845635838e-14 2.132981528541427e-19
1.1361939428280308 9.176691268416843e-22 2.767629962815865e-14 2.76760486090615e-14 2.5101909715290653e-19
1.1447477501889525 9.299013322787592e-22 2.8256352621112907e-14 2.825605758901547e-14 2.9503209743187486e-19
1.1533659546722406 9.421717606910575e-22 2.8844741009802996e-14 2.884439468950828e-14 3.463202947103327e-19
1.1707974979042381 9.668681817054235e-22 3.004820179034524e-14 3.004772640035324e-14 4.753899920084029e-19
1.1884924949847024 9.917341627600836e-22 3.1286800327521404e-14 3.1286151037070016e-14 6.492904513944441e-19
1.2064549276569216 1.01694703048482e-21 3.256708346138933e-14 3.256620103933843e-14 8.82422050896733e-19
1.2246888378427687 1.0423583001214325e-21 3.388536917725424e-14 3.388417579850737e-14 1.1933787468617156e-18
1.2431983285522175 1.0679632492612757e-21 3.524245538503878e-14 3.524084930070277e-14 1.6060843360181631e-18
1.2619875648066055 1.0938172227494945e-21 3.6641164354331574e-14 3.663901319071613e-14 2.1511636154512817e-18
1.3004222497298317 1.1462098033247639e-21 3.9565617043270765e-14 3.9561812349179605e-14 3.8046940911688714e-18
1.3400274889804893 1.1999198746944296e-21 4.268107872417669e-14 4.2674472949191544e-14 6.605774985161518e-18
1.3808389325824078 1.2554553503067884e-21 4.6016515365929443e-14 4.600525143918184e-14 1.1263926747586211e-17
1.4228933163050095 1.3136901756091817e-21 4.9617482421136335e-14 4.95986097556589e-14 1.8872665477441235e-17
1.466228494730424 1.376139690330268e-21 5.355914176777531e-14 5.3528055293854704e-14 3.1086473920585344e-17
1.5108834753276823 1.4434665955801628e-21 5.789047890543287e-14 5.784011771714822e-14 5.036118828464701e-17
1.5568984535646726 1.5166325872401439e-21 6.267727457348821e-14 6.259694684791438e-14 8.032772557383934e-17
1.6043148490894465 1.5972955962896902e-21 6.802120646903483e-14 6.789482232606795e-14 1.2638414296687876e-16
1.6531753430134553 1.6874788014667475e-21 7.405027540279988e-14 7.385436328855873e-14 1.9591211424116043e-16
1.7035239163302658 1.7896939152959717e-21 8.092755689347578e-14 8.062828028251607e-14 2.992766109597141e-16
1.755405889504358 1.9077750666998238e-21 8.889434877595209e-14 8.844359079394884e-14 4.507579820032456e-16
1.8088679632656115 2.0448564241063624e-21 9.81836380793187e-14 9.751402197747902e-14 6.696161018396552e-16
1.8639582606462262 2.2046777752771077e-21 1.0908140928531678e-13 1.0809990645546116e-13 9.815028298556398e-16
1.9207263702978936 2.3919554295941263e-21 1.2195174388760407e-13 1.2053169787208276e-13 1.4200460155212838e-15
1.979223391128241 2.612315208536564e-21 1.3724288120659256e-13 1.352141502262496e-13 2.0287309803429324e-15
2.039501978296691 2.8721475226070775e-21 1.5548922783755495e-13 1.526262991787305e-13 2.8629286588244545e-15
2.1016163906111602 3.179400363728802e-21 1.7736507198817671e-13 1.7337263729152207e-13 3.992434696654624e-15
2.1656225393682647 3.542418016050483e-21 2.0363480254427734e-13 1.9813111865169882e-13 5.503683892578468e-15
2.231578038680979 3.969595946462581e-21 2.351407046372937e-13 2.2763847536487183e-13 7.502229272421928e-15
2.299542257339062 4.470512571824029e-21 2.728777643723664e-13 2.6276246545724247e-13 1.011529891512394e-14
2.369576372248914 5.055759874684623e-21 3.1799960647532294e-13 3.045051210246052e-13 1.3494485450717756e-14
2.4417434235010123 5.736579172219878e-21 3.718111860563665e-13 3.5399351287877506e-13 1.7817673177591538e-14
2.5161083711144245 6.525338337556413e-21 4.3581463526549117e-13 4.1252300974197306e-13 2.3291625523518085e-14
2.5927381535095444 7.43530707160924e-21 5.117136486967842e-13 4.815602926478312e-13 3.015335604895313e-14
2.6717017477616296 8.479506983884999e-21 6.013509616688018e-13 5.626816082112809e-13 3.866935345752114e-14
2.753070231689431 9.671181327320397e-21 7.067507037821188e-13 6.57615145076734e-13 4.9135558705384595e-14
2.836916847834745 1.102696042349904e-20 8.303703919755273e-13 7.684919888362851e-13 6.187840313924246e-14
2.9233170693905177 1.2568148066388172e-20 9.752515383084059e-13 8.980146814334913e-13 7.723685687491469e-14
2.967498994190263 1.3408779973629303e-20 1.0562075751066768e-12 9.703678048055643e-13 8.583977030111248e-14
3.0123486681368425 1.43032602343986e-20 1.1436936550495437e-12 1.0484168928968916e-12 9.527676215265235e-14
3.0578761833420214 1.533317931503678e-20 1.2445763498965536e-12 1.1389307020085703e-12 1.056456478879835e-13
3.1040917844459814 1.644337392886846e-20 1.3548615573870822e-12 1.2379513850584983e-12 1.1691017232858424e-13
3.127460860933648 1.7121630062701986e-20 1.4213676463791965e-12 1.29843372118739e-12 1.2293392519180637e-13
3.1510058709225794 1.787310303921229e-20 1.4949222453233007e-12 1.365714910186806e-12 1.292073351364952e-13
3.162844764501044 1.8371338816760103e-20 1.5423683923794697e-12 1.409916664565725e-12 1.3245172781374491e-13
3.1747281389236908 1.8906546442343514e-20 1.5932656028877404e-12 1.4575049973692915e-12 1.3576060551844848e-13
3.1986289994194426 2.0195316680754663e-20 1.7146835091112514e-12 1.5720913333728114e-12 1.4259217573844007e-13
3.2227097969389145 2.25552591762807e-20 1.9294718827364128e-12 1.7796463259798456e-12 1.4982555675656781e-13
3.2348180950136065 2.455676424978415e-20 2.108581723096354e-12 1.9548974265216955e-12 1.5368429657465782e-13
3.240889293275058 2.5991022223660995e-20 2.2359237533054208e-12 2.080204065765901e-12 1.557196875395197e-13
3.2469718861334385 2.7632473780909486e-20 2.3815940025234296e-12 2.223768290588641e-12 1.578257119347888e-13
3.2714166318528037 3.6059960110232037e-20 3.1313422104147374e-12 2.9648179018623332e-12 1.665243085524038e-13
3.2744851364798273 3.661887783714756e-20 3.1828596454178918e-12 3.0153114960155757e-12 1.6754814940231558e-13
3.2775565192852394 3.7191044230875405e-20 3.235623604531122e-12 3.067046613474887e-12 1.6857699105623472e-13
3.283707930232385 3.683454181075221e-20 3.2106223664084676e-12 3.0402080341678577e-12 1.7041433224060917e-13
3.2898708863219004 3.5416068076455394e-20 3.0927771700152433e-12 2.9206931083365285e-12 1.7208406167871417e-13
3.29141343181113 3.5082403165804356e-20 3.0650757020077003e-12 2.892572422775862e-12 1.725032792318383e-13
3.292184975758714 3.4918583440596827e-20 3.0514782503578792e-12 2.878765094303706e-12 1.7271315605417267e-13
3.295272960557952 3.3865292023697496e-20 2.962208697294373e-12 2.7886796046760366e-12 1.7352909261833602e-13
3.3076538914384823 3.0216691400142946e-20 2.6529948168405284e-12 2.47618971006271e-12 1.7680510677781856e-13
3.310756385682612 2.947623552856569e-20 2.5904110052982633e-12 2.4127803952803134e-12 1.7763061001795122e-13
3.313861789986515 2.879415966958321e-20 2.5328427815375532e-12 2.354384065066878e-12 1.784587164706748e-13
3.3200813396944477 2.788554986275225e-20 2.4575217453489512e-12 2.277280760212886e-12 1.8024098513606542e-13
3.345076488085796 2.663781921800693e-20 2.365234215989818e-12 2.1770478228648843e-12 1.8818639312493352e-13
3.3482140837626964 2.6787330479084695e-20 2.3807406511124442e-12 2.1914778069685405e-12 1.8926284414390485e-13
3.3513546224236106 2.6937748429971854e-20 2.3963547527913928e-12 2.2060107359433445e-12 1.903440168480482e-13
3.3576445397418455 2.7617738982841184e-20 2.461457100270276e-12 2.268852189028094e-12 1.9260491124218215e-13
3.3702598118196083 2.9833972615877884e-20 2.6689712863900775e-12 2.471624277890103e-12 1.9734700849997426e-13
3.382922481734668 3.059807521925357e-20 2.747613156102588e-12 2.5456605569986356e-12 2.0195259910395203e-13
3.389271646505754 3.098845481027251e-20 2.7878906343473575e-12 2.5836043412950438e-12 2.0428629305231406e-13
3.395632727569191 3.1407817531436275e-20 2.8309219964612387e-12 2.6242306910169987e-12 2.066913054442399e-13
3.421196662673239 3.333056394436906e-20 3.026844669962133e-12 2.81020170089073e-12 2.166429690714025e-13
3.4276182099114902 3.3244996945531e-20 3.0247408516680816e-12 2.8058809911262305e-12 2.1885986054185055e-13
3.4340518103208963 3.2340677864674634e-20 2.9479858508774014e-12 2.7270311369471358e-12 2.2095471393026687e-13
3.4469541582030403 3.1116083896155296e-20 2.8470157813231323e-12 2.6220441992604214e-12 2.2497158206271084e-13
3.472904465399547 3.1292657260962085e-20 2.884726958581763e-12 2.6504963627114105e-12 2.3423059587035143e-13
3.4990501388274233 3.1264392390286515e-20 2.9038193271030256e-12 2.6601227597155087e-12 2.4369656738751726e-13
3.5253949054701885 2.963179394196776e-20 2.7729060197741733e-12 2.520027576578585e-12 2.528784431955878e-13
3.5519380250092896 2.810344411498844e-20 2.6496856828029196e-12 2.387590164391002e-12 2.620955184119182e-13
3.578680990867387 2.791092980696517e-20 2.6513479369309143e-12 2.3791518313025975e-12 2.7219610562831583e-13
3.605625307711299 2.824773889216143e-20 2.7035457088465344e-12 2.4207189065265968e-12 2.828268023199369e-13
3.660119384959845 2.9389566436312265e-20 2.8553402257614585e-12 2.550211897027727e-12 3.051283287337311e-13
3.715437065384467 3.0631704011098245e-20 3.0209984275732975e-12 2.692407932454588e-12 3.2859049511870876e-13
3.8285932144167436 3.348185795056694e-20 3.4026572743160485e-12 3.0238101446874126e-12 3.78847129628635e-13
3.94519561050918 3.6517444208647524e-20 3.824180201352172e-12 3.390786025756123e-12 4.333941755960493e-13
4.06534921144712 3.9677148970245743e-20 4.2816163317589465e-12 3.789512019005676e-12 4.921043127532698e-13
4.189162171576248 4.292899587860134e-20 4.773614417854341e-12 4.2185936256875714e-12 5.550207921667713e-13
4.316745939156006 4.6243756111832765e-20 5.298818260010602e-12 4.676986769116213e-12 6.218314908943892e-13
4.448215356677963 4.95882876699294e-20 5.855100448324504e-12 5.1635811659824776e-12 6.915192823420263e-13
4.58368876423945 5.293992826328996e-20 6.4412165862174225e-12 5.677122257584225e-12 7.640943286331991e-13
4.723288106065518 5.627912095584454e-20 7.05604229688668e-12 6.2161034515354986e-12 8.399388453511826e-13
4.867139040275056 5.95677682107546e-20 7.695813154415556e-12 6.778918879075418e-12 9.168942753401386e-13
4.940699165968905 6.119298385318714e-20 8.025266708920424e-12 7.069259562442007e-12 9.56007146478417e-13
5.015371051989984 6.279302377062087e-20 8.359569231161667e-12 7.364161466868356e-12 9.954077642933086e-13
5.091171501069577 6.438825009711772e-20 8.701493142028543e-12 7.665522441556214e-12 1.0359707004723287e-12
5.129500256944802 6.517386297669541e-20 8.873969917978714e-12 7.817659690551634e-12 1.0563102274270813e-12
5.168117569889187 6.595397925405487e-20 9.047796442363457e-12 7.970898831542563e-12 1.076897610820898e-12
5.20702561229733 6.675169629367159e-20 9.22617001726121e-12 8.126719337070905e-12 1.0994506801903078e-12
5.246226572918644 6.75407727314359e-20 9.40551328092356e-12 8.283414911193085e-12 1.122098369730477e-12
5.265937586045735 6.793194169720522e-20 9.495529090538166e-12 8.362074779326677e-12 1.1334543112114855e-12
5.285722656980489 6.83207966072892e-20 9.585763865183362e-12 8.440934041080096e-12 1.1448298241032667e-12
5.305582063971359 6.870728715270652e-20 9.676209674550676e-12 8.519986148179864e-12 1.1562235263708117e-12
5.3255160863122235 6.909451409152266e-20 9.7673039073791e-12 8.599572689549812e-12 1.1677312178292866e-12
5.365609099470188 6.98857640089722e-20 9.953531157189955e-12 8.76198572889293e-12 1.191545428297026e-12
5.406003951863644 7.066775082961846e-20 1.014067959500689e-11 8.92522828949039e-12 1.2154513055164986e-12
5.446702915881641 7.144012802285789e-20 1.0328692428212143e-11 9.08925465859275e-12 1.2394377696193924e-12
5.487708281020852 7.22080810107971e-20 1.051831694875774e-11 9.254713404256331e-12 1.2636035445014051e-12
5.529022354014368 7.301424897020725e-20 1.0715819786527803e-11 9.427027279180263e-12 1.2887925073475376e-12
5.570647458961463 7.381221163596066e-20 1.091448695518672e-11 9.600414445538409e-12 1.3140725096483097e-12
5.612585937458331 7.460183006198781e-20 1.1114294957234923e-11 9.774862693145571e-12 1.3394322640893536e-12
5.654840148729818 7.539103967052839e-20 1.131643148293264e-11 9.951436430939701e-12 1.3649950519929365e-12
5.67608639626678 7.581769979288529e-20 1.1423232986912401e-11 1.0044848516988668e-11 1.3783844699237325e-12
5.686739436050992 7.603068002976729e-20 1.1476821774760832e-11 1.0091732982134404e-11 1.385088792626423e-12
5.6974124697621304 7.624343616516195e-20 1.1530537586776571e-11 1.0138738300815713e-11 1.3917992859608588e-12
5.718818669136295 7.666830564768258e-20 1.1638355661907933e-11 1.023311759660415e-11 1.405238065303783e-12
5.740305295436557 7.710219824634937e-20 1.1748196018960155e-11 1.0329389489359567e-11 1.418806529600589e-12
5.7835210386641895 7.80468959671936e-20 1.1981670938049016e-11 1.0534830200184199e-11 1.4468407378648145e-12
5.827062130521658 7.901684859059317e-20 1.2221901706408147e-11 1.074665334484917e-11 1.4752483615589749e-12
5.8489554468988025 7.958932452683811e-20 1.2356701772380337e-11 1.0866063132062056e-11 1.4906386403182795e-12
5.870931020387893 8.016928393385933e-20 1.249350846244926e-11 1.0987431699685532e-11 1.506076762763727e-12
5.892989160043636 8.075748672866908e-20 1.2632458203624426e-11 1.1110896898905763e-11 1.521561304718663e-12
5.915130176081913 8.138311655921309e-20 1.2778152205472656e-11 1.124052382124322e-11 1.5376283842294354e-12
5.95966208400165 8.293152578630341e-20 1.3119301848992085e-11 1.1544766274509274e-11 1.5745355744828115e-12
6.004529249263818 8.488940790751932e-20 1.3530127906341464e-11 1.19138946333814e-11 1.6162332729600685e-12
6.027089341400364 8.614492771034904e-20 1.3781826337461337e-11 1.214135215306068e-11 1.640474184400652e-12
6.049734195844842 8.754619432530206e-20 1.405862991642701e-11 1.2392446409886392e-11 1.6661835065406202e-12
6.095279466722835 9.134659409612861e-20 1.477935274793592e-11 1.3049471052829658e-11 1.7298816951062582e-12
6.141167624020661 9.676907381010348e-20 1.5774549640783772e-11 1.3961371688849376e-11 1.8131779519343956e-12
6.164241091010745 1.0016753937356078e-19 1.6389890596223484e-11 1.4524133018836041e-11 1.865757577387444e-12
6.187401249150058 1.0383230206362177e-19 1.7053369281253058e-11 1.5133678226525172e-11 1.9196910547278793e-12
6.1990139391386085 1.0560681971654204e-19 1.737736848079189e-11 1.5430245326677636e-11 1.947123154114255e-12
6.204828454712694 1.0652397301956474e-19 1.7544725106595776e-11 1.558375243645909e-11 1.960972670136688e-12
6.210648424152782 1.0719814964519569e-19 1.767232408372651e-11 1.5699618716566377e-11 1.972705367160127e-12
6.233982942956859 1.0943765071588196e-19 1.8109305874832645e-11 1.609597899672125e-11 2.013326878111398e-12
6.239830258556775 1.0969914398034898e-19 1.8169603387008008e-11 1.6150853935720114e-11 2.0187494512878998e-12
6.245683058788269 1.0971149483722503e-19 1.8188693613813137e-11 1.6164515116391567e-11 2.0241784974215733e-12
6.257405133728602 1.0962091875321012e-19 1.8207786187080753e-11 1.6174230282672036e-11 2.033555904408717e-12
6.269149208991335 1.09144724649614e-19 1.8162715867358502e-11 1.6126320117372436e-11 2.0363957499860717e-12
6.280915325867298 1.0800972230401056e-19 1.800757454127122e-11 1.5976415059224e-11 2.031159482047221e-12
6.304513850009849 1.052311634594591e-19 1.7610245413663354e-11 1.5596853836220878e-11 2.013391577442474e-12
6.32820103803542 1.0191403440521791e-19 1.7119209027465825e-11 1.5131346247705715e-11 1.9878627797601118e-12
6.3519772230701035 9.893044685351645e-20 1.6680472014775952e-11 1.4715656822889906e-11 1.964815191886048e-12
6.375842739491607 9.637146912815208e-20 1.6310058144477412e-11 1.4365739280048055e-11 1.9443188644293544e-12
6.399797922933955 9.448035837019582e-20 1.6050080910651046e-11 1.4117075007611438e-11 1.9330059030396094e-12
6.42384311029221 9.2881918277087e-20 1.5837824817235906e-11 1.3914296324376173e-11 1.9235284928597365e-12
6.447978639727206 9.181244158520996e-20 1.5714282632653352e-11 1.3793086838382334e-11 1.921195794271018e-12
6.472204850670314 9.092271445909731e-20 1.5620469405576454e-11 1.3700193750084856e-11 1.9202756554915987e-12
6.496522083828205 9.043362717037257e-20 1.5594817699548612e-11 1.3669688054835723e-11 1.9251296447128906e-12
6.520930681187647 9.003673966946044e-20 1.5584711852614663e-11 1.3653868436950634e-11 1.930843415664027e-12
