Dust emission spectrum from A.P. Jones, M. Kohler, N. Ysard, M. Bocchio, and L. Verstraete (2017), A&A, 602A, 46J 
inside the DustPedia framework.

lambda    nu*dP/dnu     j_nu    j_nu(carb.) j_nu(sil)
 (um)   (erg s-1 H-1) (Jy cm2 sr-1 H-1)
0.9927057738263894 3.3040915547319917e-21 8.706468915372542e-14 8.706462786729058e-14 6.128643483026921e-20
1.0001793341362166 3.359578381803693e-21 8.919327032683357e-14 8.919319658675262e-14 7.374008095386577e-20
1.0077091589558085 3.415305322352025e-21 9.135538954483152e-14 9.135530093923645e-14 8.860559505890953e-20
1.0114953028030835 3.4432567793108835e-21 9.244910574394908e-14 9.244900866579362e-14 9.707815545544364e-20
1.0152956718711033 3.471265854360758e-21 9.35513037286835e-14 9.355119740348574e-14 1.0632519773753419e-19
1.0229392996569957 3.5274265849326465e-21 9.578053985689242e-14 9.57804124378984e-14 1.2741899398557882e-19
1.0267826658714554 3.555514868557679e-21 9.690595380383998e-14 9.690581438210709e-14 1.394217329040456e-19
1.0306404723013447 3.583656571113435e-21 9.803993384761082e-14 9.803978134361348e-14 1.5250399733809562e-19
1.03451277320114 3.611851078545062e-21 9.918251709878267e-14 9.918235034086217e-14 1.6675792047592907e-19
1.0383996230291617 3.640097812196436e-21 1.0033374169550665e-13 1.0033355941246304e-13 1.8228304358269857e-19
1.0403485208654093 3.6542405929698536e-21 1.0091260670926355e-13 1.0091241615369001e-13 1.9055557351052271e-19
1.0423010764483396 3.668396229892353e-21 1.0149364685100746e-13 1.0149344766413529e-13 1.9918687218870085e-19
1.0462171883269815 3.6967458270350065e-21 1.0266227290235135e-13 1.0266205531688053e-13 2.1758547080991103e-19
1.0471985131304309 3.703841167644364e-21 1.0295579689320784e-13 1.0295557446006228e-13 2.2243314554639426e-19
1.048180758391296 3.7109396707602435e-21 1.0324986918889223e-13 1.0324964180481727e-13 2.27384074940086e-19
1.0501480137395462 3.725146137715071e-21 1.0383966136051313e-13 1.0383942375641452e-13 2.3760409862294747e-19
1.0521189612883777 3.7393651758906514e-21 1.0443165479794179e-13 1.0443140653519444e-13 2.4826274734217974e-19
1.0531058218030118 3.7464700572842375e-21 1.0472821770783952e-13 1.0472796394535521e-13 2.537624843001196e-19
1.0540936079674168 3.7535474766736394e-21 1.050244766874968e-13 1.0502421730760811e-13 2.5937988869351097e-19
1.058054026499678 3.781887058195772e-21 1.0621499483070165e-13 1.0621471176883926e-13 2.830618623726151e-19
1.0590464539527713 3.788979403451979e-21 1.065139984211305e-13 1.0651370912340433e-13 2.8929772614659705e-19
1.06003981227728 3.796074718803624e-21 1.0681355305164376e-13 1.0681325738682966e-13 2.956648140842577e-19
1.0620293250338977 3.8102742414519755e-21 1.0741431831324943e-13 1.0741400951004931e-13 3.088032001470968e-19
1.0660195594769086 3.8387087358732544e-21 1.0862249331552724e-13 1.0862215654213518e-13 3.367733920676502e-19
1.070024785945596 3.867190295688509e-21 1.0983956747018958e-13 1.0983920031515857e-13 3.671550310357126e-19
1.0740450607676866 3.895718721129658e-21 1.1106558992084167e-13 1.110651897760865e-13 4.0014475516450196e-19
1.07808044048254 3.924293859654728e-21 1.1230061138228032e-13 1.1230017542802797e-13 4.359542523737432e-19
1.0861967418109137 3.9815405660552354e-21 1.1479661274127965e-13 1.1479609578016355e-13 5.169611161168501e-19
1.0902777775684922 4.010113537938127e-21 1.160548413469832e-13 1.1605427867974326e-13 5.62667239926796e-19
1.0943741465085532 4.0387314220224135e-21 1.1732220888568262e-13 1.1732159667278406e-13 6.122128985397141e-19
1.1026131145906286 4.0961024256134345e-21 1.1988459892400374e-13 1.1988387486074955e-13 7.240632542029396e-19
1.1109141095355224 4.153655135309074e-21 1.2248427936574257e-13 1.224834241372046e-13 8.552285379705076e-19
1.1192775983109025 4.211347497060768e-21 1.2512045735977478e-13 1.2511944852082313e-13 1.0088389516664018e-18
1.1277040513999907 4.268978258937905e-21 1.2778754206704626e-13 1.27786353570521e-13 1.1884965252443284e-18
1.1361939428280308 4.32679456893078e-21 1.30493289374741e-13 1.3049189103415175e-13 1.3983405892637468e-18
1.1447477501889525 4.3848020426985555e-21 1.3323834302790863e-13 1.3323669990654044e-13 1.643121368172669e-18
1.1533659546722406 4.443027427008199e-21 1.3602400409188924e-13 1.3602207580639277e-13 1.928285496445659e-18
1.1707974979042381 4.560328498405279e-21 1.4172528742092052e-13 1.4172264180912206e-13 2.645611798434788e-18
1.1884924949847024 4.6786029877989865e-21 1.4759854302450125e-13 1.4759493147444635e-13 3.611550054897716e-18
1.2064549276569216 4.798695910761024e-21 1.536751920668642e-13 1.5367028631480642e-13 4.9057520577904115e-18
1.2246888378427687 4.919932915512252e-21 1.599389990467152e-13 1.5993236805456195e-13 6.630992153212588e-18
1.2431983285522175 5.042309334356171e-21 1.6639464127303233e-13 1.6638572186469885e-13 8.919408333469631e-18
1.2619875648066055 5.166110123710106e-21 1.7305660047994124e-13 1.73044660451359e-13 1.1940028582264093e-17
1.3004222497298317 5.417791885147879e-21 1.8701487138403517e-13 1.8699377680637836e-13 2.1094577656802945e-17
1.3400274889804893 5.677006013537109e-21 2.0193076695484017e-13 2.018941836835943e-13 3.658327124593235e-17
1.3808389325824078 5.9464138626532684e-21 2.1795537755770752e-13 2.1789306931531825e-13 6.230824238921956e-17
1.4228933163050095 6.2304511369164174e-21 2.3532131510258557e-13 2.352170411927674e-13 1.0427390981817052e-16
1.466228494730424 6.5366347289922446e-21 2.544048025024534e-13 2.5423325245878844e-13 1.7155004366496584e-16
1.5108834753276823 6.868594085228066e-21 2.7546616057371314e-13 2.751885839933522e-13 2.7757658036097875e-16
1.5568984535646726 7.231469833125737e-21 2.988520912144632e-13 2.984098983756972e-13 4.4219283876595375e-16
1.6043148490894465 7.633804383819017e-21 3.250873447232631e-13 3.2439249155836015e-13 6.948531649029152e-16
1.6531753430134553 8.086012754271011e-21 3.5483199601907406e-13 3.5375625432862373e-13 1.0757416904503093e-15
1.7035239163302658 8.600976544759478e-21 3.889246159449353e-13 3.872834313397212e-13 1.6411846052139654e-15
1.755405889504358 9.19799301546779e-21 4.285880518242546e-13 4.2611941211861665e-13 2.4686397056379363e-15
1.8088679632656115 9.893311745581888e-21 4.750266710087415e-13 4.713643079131534e-13 3.662363095588171e-15
1.8639582606462262 1.0706247567492972e-20 5.297157643242626e-13 5.243548378055428e-13 5.3609265187197726e-15
1.9207263702978936 1.16609534953825e-20 5.945234583219007e-13 5.867778616603419e-13 7.745596661558856e-15
1.979223391128241 1.2786112575434863e-20 6.717424159037754e-13 6.606921602854398e-13 1.1050255618335596e-14
2.039501978296691 1.4114210432866305e-20 7.64099916341023e-13 7.485279024458922e-13 1.557201389513063e-14
2.1016163906111602 1.5685285242874283e-20 8.750146027519251e-13 8.533301128747684e-13 2.1684489877156988e-14
2.1656225393682647 1.7541403416360684e-20 1.0083621427102673e-12 9.785129604841987e-13 2.9849182226068725e-14
2.231578038680979 1.972490656502429e-20 1.1684132317642457e-12 1.127785086729246e-12 4.0628145034999706e-14
2.299542257339062 2.2283741160447312e-20 1.3601879811366517e-12 1.3054910572186955e-12 5.469692391795638e-14
2.369576372248914 2.5270502044411195e-20 1.589476143001726e-12 1.5166181071622314e-12 7.285803583949433e-14
2.4417434235010123 2.874059495010833e-20 1.862795644504322e-12 1.7667454865973318e-12 9.605015790698988e-14
2.5161083711144245 3.275439354155434e-20 2.187602134359283e-12 2.062241425358871e-12 1.2536070900041152e-13
2.5927381535095444 3.737587604238613e-20 2.5722872934081397e-12 2.410255621225937e-12 1.6203167218220303e-13
2.6717017477616296 4.26669920479539e-20 3.0258642098313027e-12 2.8184103902156615e-12 2.074538196156407e-13
2.753070231689431 4.868956743128643e-20 3.5581367864232784e-12 3.2949719739468395e-12 2.6316481247643854e-13
2.836916847834745 5.551977930430862e-20 4.180842148038161e-12 3.849989148211234e-12 3.308529998269266e-13
2.9233170693905177 6.325203064109726e-20 4.90817261684187e-12 4.495915324128234e-12 4.1225729271363665e-13
2.967498994190263 6.744520269925051e-20 5.312648438981913e-12 4.854901638364028e-12 4.577468006178845e-13
3.0123486681368425 7.189892419664646e-20 5.749062945162177e-12 5.241462169912574e-12 5.076007752496047e-13
3.0578761833420214 7.698328491966533e-20 6.24864379264149e-12 5.686311676999546e-12 5.623321156419432e-13
3.1040917844459814 8.244046584679267e-20 6.792731128786554e-12 6.171010655177147e-12 6.217204736094083e-13
3.127460860933648 8.572525688585891e-20 7.116559940197448e-12 6.463109123871648e-12 6.534508163257994e-13
3.1510058709225794 8.9339022804548e-20 7.472395379411999e-12 6.7859193570449614e-12 6.8647602236704e-13
3.162844764501044 9.169496115186553e-20 7.698263650337617e-12 6.994715862275944e-12 7.035477880616733e-13
3.1747281389236908 9.421456534041412e-20 7.939515908189047e-12 7.21856246391252e-12 7.209534442765231e-13
3.1986289994194426 1.0022428159262566e-19 8.509543354829717e-12 7.752670397950113e-12 7.568729568796018e-13
3.2227097969389145 1.1100362554156188e-19 9.495717725535024e-12 8.700833060070002e-12 7.948846654650212e-13
3.2348180950136065 1.2004698707840768e-19 1.0307908659771393e-11 9.492751210275552e-12 8.1515744949584e-13
3.240889293275058 1.2649753015188577e-19 1.0882174235670772e-11 1.0056323332163578e-11 8.258509035071926e-13
3.2469718861334385 1.338692130326076e-19 1.1537950507393768e-11 1.0701035073325483e-11 8.36915434068289e-13
3.2714166318528037 1.7157257916711939e-19 1.4898864492733566e-11 1.4016265590876138e-11 8.825989018574305e-13
3.2744851364798273 1.740876877507014e-19 1.513144882729644e-11 1.4243477766027904e-11 8.879710612685374e-13
3.2775565192852394 1.7666117441419944e-19 1.5369535267424207e-11 1.4476166246558452e-11 8.933690208657542e-13
3.283707930232385 1.751448250333359e-19 1.5266211142297428e-11 1.4363212204743985e-11 9.029989375534418e-13
3.2898708863219004 1.6891289632752335e-19 1.475064787980273e-11 1.3838906661968403e-11 9.117412178343292e-13
3.29141343181113 1.6744768981153128e-19 1.462955211400437e-11 1.3715616207266552e-11 9.139359067378184e-13
3.292184975758714 1.6672842651492162e-19 1.457012619346907e-11 1.3655091573310462e-11 9.150346201586094e-13
3.295272960557952 1.6209075001788672e-19 1.4178133444647862e-11 1.325882909658404e-11 9.193043480638208e-13
3.3076538914384823 1.4603437942525397e-19 1.2821670200923756e-11 1.1885227231426283e-11 9.36442969497476e-13
3.310756385682612 1.4277927431381415e-19 1.2547633606488594e-11 1.1606872893600131e-11 9.407607128884646e-13
3.313861789986515 1.397823030475035e-19 1.2295778078724834e-11 1.1350686375353036e-11 9.450917033717955e-13
3.3200813396944477 1.3581676551511453e-19 1.1969376837793177e-11 1.1014959560165274e-11 9.54417277627904e-13
3.345076488085796 1.3058890306746033e-19 1.159529386530783e-11 1.0599290922727902e-11 9.96002942579927e-13
3.3482140837626964 1.3129414260750093e-19 1.1668848555203715e-11 1.0667211002755917e-11 1.0016375524478e-12
3.3513546224236106 1.3200344076766786e-19 1.1742892079148743e-11 1.0735595685824063e-11 1.0072963933246796e-12
3.3576445397418455 1.3510808504009813e-19 1.2041635828062896e-11 1.1022504268007539e-11 1.0191315600553612e-12
3.3702598118196083 1.4511471307822254e-19 1.2982079437600031e-11 1.1938124980329325e-11 1.043954457270703e-12
3.382922481734668 1.4867312376633388e-19 1.3350389784067354e-11 1.2282343520529754e-11 1.068046263537605e-12
3.389271646505754 1.504892303394677e-19 1.3538833039666969e-11 1.2458582418177291e-11 1.0802506214896793e-12
3.395632727569191 1.524388402928238e-19 1.3739969855214016e-11 1.2647141877823857e-11 1.092827977390157e-12
3.421196662673239 1.6134452364924526e-19 1.4652161669103796e-11 1.3507307621421153e-11 1.144854047682644e-12
3.4276182099114902 1.6103417070135625e-19 1.4651426662271377e-11 1.3495001124145158e-11 1.1564255381262204e-12
3.4340518103208963 1.5707576627709614e-19 1.4318102373679604e-11 1.3150751186857503e-11 1.1673511868221048e-12
3.4469541582030403 1.5175114029276743e-19 1.3884712892828785e-11 1.2696429732885796e-11 1.1882831599429907e-12
3.472904465399547 1.5281816474966677e-19 1.4087607707393513e-11 1.2851047695546403e-11 1.2365600118471099e-12
3.4990501388274233 1.529775009027777e-19 1.4208464958731138e-11 1.2922588311861392e-11 1.285876646869743e-12
3.5253949054701885 1.4600663508599076e-19 1.366311733099306e-11 1.2329467889254244e-11 1.3336494417388093e-12
3.5519380250092896 1.3949116964303792e-19 1.315168893777925e-11 1.177013461454441e-11 1.3815543232348361e-12
3.578680990867387 1.3893850252012637e-19 1.31982099688087e-11 1.1764164543658675e-11 1.4340454251500266e-12
3.605625307711299 1.4074706507360987e-19 1.3470675485395849e-11 1.1981414047538457e-11 1.4892614378573924e-12
3.660119384959845 1.4644767463993355e-19 1.4228108375629985e-11 1.2623150033065807e-11 1.604958342564179e-12
3.715437065384467 1.5259038107205983e-19 1.5048960420696346e-11 1.3322482924377291e-11 1.7264774963190534e-12
3.8285932144167436 1.664856755876125e-19 1.6919422331460526e-11 1.4933340080363504e-11 1.9860822510970205e-12
3.94519561050918 1.8116578163302901e-19 1.8972045012927257e-11 1.6705227622991396e-11 2.2668173899358574e-12
4.06534921144712 1.9633838891317653e-19 2.1187148631881388e-11 1.8619355515779703e-11 2.567793116101678e-12
4.189162171576248 2.1184239987679944e-19 2.3556431117664008e-11 2.0667426239136993e-11 2.8890048785270156e-12
4.316745939156006 2.2752686767353414e-19 2.6071055261080876e-11 2.2842457606183326e-11 3.2285976548975482e-12
4.448215356677963 2.43220292117065e-19 2.8718056386524783e-11 2.513695429409515e-11 3.5811020924296367e-12
4.58368876423945 2.588056856648579e-19 3.1488963619692264e-11 2.754261367739154e-11 3.9463499423007204e-12
4.723288106065518 2.741828924507213e-19 3.437591158776105e-11 3.004984143459799e-11 4.326070153163055e-12
4.867139040275056 2.8915737650925763e-19 3.7357470468978767e-11 3.2648508420147654e-11 4.7089620488311075e-12
4.940699165968905 2.964909056946896e-19 3.8883846564467355e-11 3.398118965316056e-11 4.9026569113068e-12
5.015371051989984 3.0366392921584562e-19 4.0426459610536104e-11 3.5329320977723824e-11 5.097138632812275e-12
5.091171501069577 3.107709300790401e-19 4.199789732980567e-11 3.6701069949060684e-11 5.296827380744988e-12
5.129500256944802 3.1425182020960264e-19 4.2788029922474095e-11 3.739133695739937e-11 5.396692965074716e-12
5.168117569889187 3.176964811574439e-19 4.3582709102286466e-11 3.808505901144658e-11 5.497650090839887e-12
5.20702561229733 3.212166565522303e-19 4.4397365913951226e-11 3.8788811740926084e-11 5.608554173025143e-12
5.246226572918644 3.2468523663871365e-19 4.521463379562236e-11 3.949489447452112e-11 5.719739321101228e-12
5.265937586045735 3.263995708065404e-19 4.562414296278218e-11 3.9848723837111403e-11 5.7754191256707865e-12
5.285722656980489 3.281002826455712e-19 4.603417977718386e-11 4.0203032470537135e-11 5.831147306646728e-12
5.305582063971359 3.2978713700928475e-19 4.644470212568869e-11 4.055778564543303e-11 5.886916480255656e-12
5.3255160863122235 3.3147442838889347e-19 4.68577212267612e-11 4.091450322862172e-11 5.943217998139486e-12
5.365609099470188 3.3491737037434064e-19 4.770085193140546e-11 4.1641094312280504e-11 6.0597576191249645e-12
5.406003951863644 3.3830537174107817e-19 4.8546137945826775e-11 4.236959142452098e-11 6.176546521305798e-12
5.446702915881641 3.416368131905172e-19 4.939327046657021e-11 4.309974505368439e-11 6.293525412885811e-12
5.487708281020852 3.4493516856671793e-19 5.024558718317705e-11 4.3834392198333924e-11 6.4111949848431394e-12
5.529022354014368 3.4839326926046293e-19 5.1131382447797584e-11 4.4597531797787166e-11 6.533850650010423e-12
5.570647458961463 3.5180019237715555e-19 5.2020099729161413e-11 4.536336625690898e-11 6.656733472252439e-12
5.612585937458331 3.551552264150717e-19 5.29115698462194e-11 4.6131786697280185e-11 6.779783148939198e-12
5.654840148729818 3.5849394762665856e-19 5.3811065785700026e-11 4.69074434960816e-11 6.903622289618427e-12
5.67608639626678 3.6030165625411175e-19 5.4285605817698095e-11 4.731707175237862e-11 6.968534065319485e-12
5.686739436050992 3.612024182030954e-19 5.4523460486037185e-11 4.752244567744173e-11 7.001014808595452e-12
5.6974124697621304 3.621011543406605e-19 5.476171038901786e-11 4.7728199544631594e-11 7.033510844386267e-12
5.718818669136295 3.638926658765265e-19 5.523941389408878e-11 4.814086894853562e-11 7.098544945553171e-12
5.740305295436557 3.6572024191818897e-19 5.57254292079778e-11 4.8561262482540137e-11 7.1641667254376536e-12
5.7835210386641895 3.697043262209872e-19 5.6756588795215834e-11 4.9456870491593986e-11 7.299718303621863e-12
5.827062130521658 3.7378148129739096e-19 5.781451178548012e-11 5.037763352457164e-11 7.436878260908485e-12
5.8489554468988025 3.7620205300631725e-19 5.840753898581882e-11 5.089621967331611e-11 7.511319312502708e-12
5.870931020387893 3.7864939088556127e-19 5.900837748822693e-11 5.1422450932537574e-11 7.58592655568934e-12
5.892989160043636 3.811266562226268e-19 5.961758779338394e-11 5.195689560449166e-11 7.660692188892289e-12
5.915130176081913 3.8376409570503617e-19 6.025569225217127e-11 5.25173768332487e-11 7.738315418922583e-12
5.95966208400165 3.9033843375614137e-19 6.174934908234107e-11 5.383201553093534e-11 7.91733355140571e-12
6.004529249263818 3.9868536117373483e-19 6.354460543467595e-11 5.5424611421366114e-11 8.119994013309837e-12
6.027089341400364 4.0406314495001657e-19 6.464371427408599e-11 5.640555521322633e-11 8.238159060859654e-12
6.049734195844842 4.100660821656349e-19 6.58505756289586e-11 5.748701583397951e-11 8.36355979497909e-12
6.095279466722835 4.264101592115366e-19 6.899070754251478e-11 6.031529485656401e-11 8.675412685950792e-12
6.141167624020661 4.497697541635266e-19 7.331800372398412e-11 6.423337122997645e-11 9.084632494007701e-12
6.164241091010745 4.644313804892686e-19 7.59924778354028e-11 6.664885952020659e-11 9.343618315196219e-12
6.187401249150058 4.801989348617269e-19 7.886765102871081e-11 6.925851487802597e-11 9.609136150684848e-12
6.1990139391386085 4.878225198460952e-19 8.027011610942563e-11 7.052595386033762e-11 9.744162249088035e-12
6.204828454712694 4.917592134458965e-19 8.099378922864048e-11 7.118147161477302e-11 9.812317613867458e-12
6.210648424152782 4.946383732245483e-19 8.154440785408881e-11 7.167449635593816e-11 9.86991149815069e-12
6.233982942956859 5.041424415623311e-19 8.342348011873273e-11 7.335477725827906e-11 1.0068702860453664e-11
6.239830258556775 5.052100849303555e-19 8.367856427344194e-11 7.358379277029583e-11 1.0094771503146101e-11
6.245683058788269 5.052041192397046e-19 8.37560635822226e-11 7.363519753461094e-11 1.0120866047611678e-11
6.257405133728602 5.046892260058312e-19 8.382773673631841e-11 7.366208196731926e-11 1.0165654768999148e-11
6.269149208991335 5.024914290702902e-19 8.361933278301499e-11 7.34415089678629e-11 1.0177823815152099e-11
6.280915325867298 4.974319017324484e-19 8.293273844775693e-11 7.278302373204114e-11 1.0149714715715773e-11
6.304513850009849 4.851079909219109e-19 8.118194735683228e-11 7.112480329255995e-11 1.0057144064272337e-11
6.32820103803542 4.704807526043036e-19 7.902992354525158e-11 6.910401814488435e-11 9.925905400367232e-12
6.3519772230701035 4.573236511754961e-19 7.71084596072142e-11 6.730139261552964e-11 9.807066991684513e-12
6.375842739491607 4.459990221543955e-19 7.548157197899659e-11 6.578057561030328e-11 9.7009963686933e-12
6.399797922933955 4.376180248217104e-19 7.434142744068417e-11 6.470078706306315e-11 9.640640377621048e-12
6.42384311029221 4.3049554651118425e-19 7.340624716540039e-11 6.381680428048041e-11 9.58944288491998e-12
6.447978639727206 4.256849871932393e-19 7.285868979994067e-11 6.328492035933656e-11 9.573769440604151e-12
6.472204850670314 4.216476008841657e-19 7.24388123333995e-11 6.287369949891317e-11 9.565112834486331e-12
6.496522083828205 4.193561488468555e-19 7.231582871414471e-11 6.273070048424731e-11 9.585128229897403e-12
6.520930681187647 4.1746033582567785e-19 7.225938064420729e-11 6.26499980445063e-11 9.609382599700989e-12
6.57002334288761 4.160988763852536e-19 7.25659505782732e-11 6.286874267944249e-11 9.697207898830735e-12
