Dust emission spectrum from A.P. Jones, M. Kohler, N. Ysard, M. Bocchio, and L. Verstraete (2017), A&A, 602A, 46J 
inside the DustPedia framework.

lambda    nu*dP/dnu     j_nu    j_nu(carb.) j_nu(sil)
 (um)   (erg s-1 H-1) (Jy cm2 sr-1 H-1)
0.9927057738263894 6.442085628880804e-21 1.6975261535259846e-13 1.6975248711150085e-13 1.2824109761841271e-19
1.0001793341362166 6.5501753254343236e-21 1.7390026131075288e-13 1.7390010702319575e-13 1.5428755716360054e-19
1.0077091589558085 6.65874301690833e-21 1.7811352273759814e-13 1.781133373624184e-13 1.853751797445815e-19
1.0114953028030835 6.713202324674278e-21 1.8024492257546558e-13 1.8024471948334726e-13 2.0309211829425222e-19
1.0152956718711033 6.767776701398139e-21 1.8239292532579538e-13 1.8239270289824792e-13 2.224275474710568e-19
1.0229392996569957 6.87721199743704e-21 1.8673757255174585e-13 1.8673730602097932e-13 2.6653076650994797e-19
1.0267826658714554 6.931949526548755e-21 1.8893105652031303e-13 1.8893076489603476e-13 2.916242782811655e-19
1.0306404723013447 6.986794323245785e-21 1.9114132162643474e-13 1.911410026532401e-13 3.1897319459111617e-19
1.03451277320114 7.041745289401479e-21 1.9336844387633863e-13 1.933680951064889e-13 3.487698497550371e-19
1.0383996230291617 7.09680139754766e-21 1.9561250137292526e-13 1.956121201508973e-13 3.81222027958317e-19
1.0403485208654093 7.12436857863231e-21 1.9674090584250924e-13 1.9674050732913048e-13 3.985133788329539e-19
1.0423010764483396 7.151961693023638e-21 1.9787357441073783e-13 1.9787315785661595e-13 4.1655412185330325e-19
1.0462171883269815 7.207225296154364e-21 2.0015174557347857e-13 2.001512905651073e-13 4.550083713072101e-19
1.0471985131304309 7.221057242989324e-21 2.0072396985000004e-13 2.007235047100365e-13 4.651399635284154e-19
1.048180758391296 7.234895584238478e-21 2.0129726940963229e-13 2.0129679392242387e-13 4.754872084039648e-19
1.0501480137395462 7.26259140445854e-21 2.0244709983413585e-13 2.0244660298794853e-13 4.96846187330038e-19
1.0521189612883777 7.290312668933227e-21 2.0360124785880502e-13 2.0360072873759298e-13 5.191212119885178e-19
1.0531058218030118 7.3041646595351e-21 2.0417943689431277e-13 2.0417890627969777e-13 5.306146150276346e-19
1.0540936079674168 7.317963496981567e-21 2.0475704422680933e-13 2.0475650187305245e-13 5.4235375687284e-19
1.058054026499678 7.3732195847181e-21 2.0707823053025745e-13 2.0707763868819485e-13 5.918420626183167e-19
1.0590464539527713 7.387048748922755e-21 2.0766122351119947e-13 2.0766061863850078e-13 6.048726987067908e-19
1.06003981227728 7.400883954328048e-21 2.0824529795710068e-13 2.0824467977975124e-13 6.181773494607104e-19
1.0620293250338977 7.428572460054185e-21 2.0941669713863713e-13 2.094160515079567e-13 6.456306803974111e-19
1.0660195594769086 7.484021669773406e-21 2.1177253856257776e-13 2.1177183448935236e-13 7.040732254314321e-19
1.070024785945596 7.539566849991284e-21 2.1414585225839808e-13 2.1414508470777666e-13 7.675506214772846e-19
1.0740450607676866 7.595207728556189e-21 2.1653673874555724e-13 2.1653590227249484e-13 8.364730623847893e-19
1.07808044048254 7.650944127487097e-21 2.189453017272422e-13 2.1894439044513922e-13 9.11282102992787e-19
1.0861967418109137 7.762618921294529e-21 2.2381345697272885e-13 2.238123764760926e-13 1.080496636237379e-18
1.0902777775684922 7.818365720800348e-21 2.2626770657139843e-13 2.2626653060827263e-13 1.1759631258121972e-18
1.0943741465085532 7.87420504583673e-21 2.2873992664106045e-13 2.287386471981704e-13 1.2794428900545096e-18
1.1026131145906286 7.986162770487399e-21 2.3373876461067963e-13 2.337372515820907e-13 1.513028588890525e-18
1.1109141095355224 8.098496209594865e-21 2.3881098451005963e-13 2.388091975932054e-13 1.7869168542142552e-18
1.1192775983109025 8.211124647162947e-21 2.4395509323516716e-13 2.439529856025889e-13 2.1076325782193515e-18
1.1277040513999907 8.32365761111777e-21 2.4916026332657726e-13 2.4915778064360947e-13 2.4826829677641506e-18
1.1361939428280308 8.436577313310563e-21 2.5444164430257767e-13 2.544387236088502e-13 2.9206937274413562e-18
1.1447477501889525 8.549895957493801e-21 2.5980054728682854e-13 2.5979711572487516e-13 3.4315619534059075e-18
1.1533659546722406 8.663666701655928e-21 2.652395588902214e-13 2.6523553225634497e-13 4.026633876390101e-18
1.1707974979042381 8.892950776622781e-21 2.7637395097254536e-13 2.763684277493595e-13 5.523223185905213e-18
1.1884924949847024 9.12425935936938e-21 2.8784818697646055e-13 2.878406490160136e-13 7.537960447018852e-18
1.2064549276569216 9.359247144330077e-21 2.997239519346993e-13 2.9971371528740385e-13 1.0236647295342778e-17
1.2246888378427687 9.596618781378689e-21 3.119704330291276e-13 3.119565998849137e-13 1.3833144213809422e-17
1.2431983285522175 9.836378897604636e-21 3.245974472332793e-13 3.2457884491480425e-13 1.8602318475020084e-17
1.2619875648066055 1.0079101481528307e-20 3.376341186147557e-13 3.376092229610943e-13 2.489565366145193e-17
1.3004222497298317 1.0573136640740221e-20 3.649704216978963e-13 3.6492646156213336e-13 4.3960135762979936e-17
1.3400274889804893 1.1082847887736485e-20 3.9421624156781057e-13 3.941400449838653e-13 7.619658394539653e-17
1.3808389325824078 1.1613632624403067e-20 4.2567734805105604e-13 4.2554764256146424e-13 1.2970548959194157e-16
1.4228933163050095 1.2174386952624338e-20 4.598210764039816e-13 4.596041343217308e-13 2.1694208225087058e-16
1.466228494730424 1.2780060042932987e-20 4.973979403761357e-13 4.970412348180442e-13 3.5670555809156624e-16
1.5108834753276823 1.343812531290502e-20 5.389383532236293e-13 5.383615223016406e-13 5.76830921988829e-16
1.5568984535646726 1.4159083768900063e-20 5.851468500405168e-13 5.842284740354638e-13 9.183760050528492e-16
1.6043148490894465 1.4960163424428603e-20 6.370820576149669e-13 6.356398000260603e-13 1.4422575889063739e-15
1.6531753430134553 1.5862360107312944e-20 6.960751942269991e-13 6.938437023683897e-13 2.231491858609419e-15
1.7035239163302658 1.689160602855063e-20 7.638157543110614e-13 7.604134069228731e-13 3.402347388188512e-15
1.755405889504358 1.8086478817659732e-20 8.427543604116557e-13 8.376397888966959e-13 5.1145715149599175e-15
1.8088679632656115 1.947980674297096e-20 9.353215573278066e-13 9.277385815417294e-13 7.582975786077343e-15
1.8639582606462262 2.1110551326485715e-20 1.0444921771816014e-12 1.033399375442209e-12 1.1092801739392598e-14
1.9207263702978936 2.3027275742091666e-20 1.1740254015541197e-12 1.1580086020940168e-12 1.601679946010292e-14
1.979223391128241 2.5287545437843572e-20 1.3285286489131196e-12 1.3056932320060254e-12 2.2835416907094828e-14
2.039501978296691 2.7956469533661036e-20 1.5134772244941414e-12 1.4813189033350294e-12 3.2158321159111785e-14
2.1016163906111602 3.111400861441678e-20 1.7357167221509152e-12 1.6909653999917912e-12 4.475132215912346e-14
2.1656225393682647 3.484416298640555e-20 2.0030059178245196e-12 1.94144668952156e-12 6.155922830295978e-14
2.231578038680979 3.923145198981066e-20 2.3238917484911324e-12 2.240160479312924e-12 8.373126917820891e-14
2.299542257339062 4.437128172906062e-20 2.7083999800994397e-12 2.5957530683527696e-12 1.126469117466708e-13
2.369576372248914 5.0367953380235283e-20 3.168067659637686e-12 3.0181250181155185e-12 1.499426415221666e-13
2.4417434235010123 5.733097722775849e-20 3.715855390622053e-12 3.518325631016931e-12 1.975297596051222e-13
2.5161083711144245 6.537919829969155e-20 4.3665492863317696e-12 4.108930271601402e-12 2.5761901473036686e-13
2.5927381535095444 7.463789910521866e-20 5.1367389825808025e-12 4.804007820337761e-12 3.327311622430422e-13
2.6717017477616296 8.522766624852612e-20 6.044188554445557e-12 5.618504886353924e-12 4.2568366809163487e-13
2.753070231689431 9.726786554582086e-20 7.108142232396792e-12 6.56855699550551e-12 5.395852368912815e-13
2.836916847834745 1.1090452396686538e-19 8.351515694385977e-12 7.673673625331407e-12 6.778420690545681e-13
2.9233170693905177 1.2631619591964364e-19 9.801767430903662e-12 8.957818524326966e-12 8.439489065766965e-13
2.967498994190263 1.3465447482843713e-19 1.0606712662562368e-11 9.670044011333835e-12 9.36668651228533e-13
3.0123486681368425 1.4350443047698986e-19 1.1474664091849443e-11 1.0436421880034013e-11 1.0382422118154338e-12
3.0578761833420214 1.5357683905228548e-19 1.246565359011361e-11 1.1315942166597902e-11 1.1497114235157051e-12
3.1040917844459814 1.6437028000778605e-19 1.3543386808745077e-11 1.2272786801248895e-11 1.2706000074961828e-12
3.127460860933648 1.708324862374103e-19 1.4181813764177035e-11 1.284665053105407e-11 1.3351632331229677e-12
3.1510058709225794 1.77923636071343e-19 1.488169127365924e-11 1.3479348798609347e-11 1.4023424750498918e-12
3.162844764501044 1.8251816941273044e-19 1.5323339161342777e-11 1.3886276780872848e-11 1.4370623804699328e-12
3.1747281389236908 1.874239312336875e-19 1.5794323077632218e-11 1.4321866752320505e-11 1.4724563253117173e-12
3.1986289994194426 1.990838636595118e-19 1.690321688653814e-11 1.535773443418808e-11 1.5454824523500607e-12
3.2227097969389145 2.1983447853685486e-19 1.8805567334776525e-11 1.7182824054970356e-11 1.622743279806177e-12
3.2348180950136065 2.3717059765343734e-19 2.0364799791253954e-11 1.8700855595792805e-11 1.6639441954611486e-12
3.240889293275058 2.4951401817029806e-19 2.146488565200677e-11 1.9779208782329694e-11 1.6856768696770737e-12
3.2469718861334385 2.6361178821086194e-19 2.2720233402743922e-11 2.1012069699353438e-11 1.7081637033904845e-12
3.2714166318528037 3.356105335104333e-19 2.9143444047871604e-11 2.7342451703701804e-11 1.8009923441697933e-12
3.2744851364798273 3.4042411698994706e-19 2.958916952925183e-11 2.777726550142034e-11 1.8119040278314896e-12
3.2775565192852394 3.453485135351989e-19 3.0045346273352636e-11 2.8222478562386556e-11 1.8228677109660818e-12
3.283707930232385 3.4251106284614383e-19 2.985441449946758e-11 2.8011996943762534e-11 1.8424175557050452e-12
3.2898708863219004 3.3069528722638407e-19 2.8878610475828894e-11 2.7018453610113488e-11 1.860156865715402e-12
3.29141343181113 3.2791781621173233e-19 2.864948920334212e-11 2.678487921642758e-11 1.8646099869145424e-12
3.292184975758714 3.265544555513126e-19 2.8537063090416628e-11 2.6670223796753655e-11 1.866839293662974e-12
3.295272960557952 3.1775359951623e-19 2.7794016228323708e-11 2.591851520842513e-11 1.8755010198985785e-12
3.3076538914384823 2.872910455035491e-19 2.5223862022233398e-11 2.3313597107498648e-11 1.910264914734743e-12
3.310756385682612 2.81118207483394e-19 2.4705044093876505e-11 2.2786021931203583e-11 1.9190221626729127e-12
3.313861789986515 2.754361074327733e-19 2.422839785884955e-11 2.2300591919434827e-11 1.927805939414723e-12
3.3200813396944477 2.679379080117141e-19 2.3613062628599182e-11 2.1666339224580487e-11 1.9467234040186974e-12
3.345076488085796 2.5821823021409753e-19 2.2927800068627988e-11 2.089670628317131e-11 2.0310937854566774e-12
3.3482140837626964 2.595919015779302e-19 2.3071391651687886e-11 2.1028865641156128e-11 2.0425260105317588e-12
3.3513546224236106 2.609733169698249e-19 2.3215921334262318e-11 2.1161914380539873e-11 2.054006953722437e-12
3.3576445397418455 2.669480189505264e-19 2.3791994596556205e-11 2.17139742695309e-11 2.078020327025303e-12
3.3702598118196083 2.8612374541674975e-19 2.5596861360168502e-11 2.3468476315298234e-11 2.1283850448702677e-12
3.382922481734668 2.9302150063019726e-19 2.631243058209899e-11 2.4135179472715848e-11 2.1772511093831468e-12
3.389271646505754 2.96540511284719e-19 2.6678403914518223e-11 2.4476401288912212e-11 2.202002625606013e-12
3.395632727569191 3.003171899719412e-19 2.7068883030667513e-11 2.484137235706433e-11 2.227510673603173e-12
3.421196662673239 3.175444527602694e-19 2.883712786611413e-11 2.6504119523881857e-11 2.3330083422322638e-12
3.4276182099114902 3.170043855728253e-19 2.8842117710856337e-11 2.6485661699906684e-11 2.3564560109496535e-12
3.4340518103208963 3.095095795994743e-19 2.821307163653798e-11 2.5834484857908834e-11 2.3785867786291455e-12
3.4469541582030403 2.99454422812079e-19 2.7399060575175396e-11 2.4978091021308496e-11 2.4209695538669083e-12
3.472904465399547 3.0169343021246885e-19 2.7811737562045483e-11 2.529299117223534e-11 2.518746389810139e-12
3.4990501388274233 3.0220490395790497e-19 2.806862292103659e-11 2.5450029776420775e-11 2.6185931446158174e-12
3.5253949054701885 2.891353344517333e-19 2.7056921055836308e-11 2.434166555031966e-11 2.71525550551665e-12
3.5519380250092896 2.769277636526056e-19 2.6109665687900385e-11 2.3297527450323065e-11 2.8121382375773224e-12
3.578680990867387 2.760954476768973e-19 2.6227184141012813e-11 2.3308892632323422e-11 2.9182915086893895e-12
3.605625307711299 2.7976575982164535e-19 2.67759314235903e-11 2.374600314183426e-11 3.0299282817560473e-12
3.660119384959845 2.9107361842885184e-19 2.8279226682669252e-11 2.5015505663551596e-11 3.2637210191176516e-12
3.715437065384467 3.0321736111158116e-19 2.990428383609107e-11 2.6395185715243233e-11 3.5090981208478415e-12
3.8285932144167436 3.305469988497994e-19 3.359246526283538e-11 2.955978971779972e-11 4.032675545035657e-12
3.94519561050918 3.5932577462810287e-19 3.7629317794450766e-11 3.3031381432542924e-11 4.597936361907854e-12
4.06534921144712 3.8898127290946725e-19 4.1975510188156634e-11 3.677262692875702e-11 5.202883259399619e-12
4.189162171576248 4.1919200460601713e-19 4.661327282602499e-11 4.0765961562909435e-11 5.84731126311556e-12
4.316745939156006 4.496545039796175e-19 5.152344222690731e-11 4.499616914981121e-11 6.527273077096103e-12
4.448215356677963 4.800240307185162e-19 5.66784829549756e-11 4.9446922755349154e-11 7.2315601996264355e-12
4.58368876423945 5.100663635030412e-19 6.205992392599477e-11 5.410027072654593e-11 7.959653199448829e-12
4.723288106065518 5.395820791191111e-19 6.765055864844878e-11 5.89357179742611e-11 8.71484067418767e-12
4.867139040275056 5.681827994894851e-19 7.340595079797511e-11 6.393173031833119e-11 9.474220479643916e-12
4.940699165968905 5.821340023365025e-19 7.634503720704599e-11 6.648747127837012e-11 9.857565928675876e-12
5.015371051989984 5.957403378894001e-19 7.931028479491938e-11 6.906837842742919e-11 1.0241906367490214e-11
5.091171501069577 6.091849200602628e-19 8.232586529586194e-11 7.168979102318264e-11 1.0636074272679304e-11
5.129500256944802 6.15753656932395e-19 8.384004229513471e-11 7.30070750313412e-11 1.0832967263793553e-11
5.168117569889187 6.222441033216124e-19 8.536161196018806e-11 7.432970772694487e-11 1.1031904233243177e-11
5.20702561229733 6.288762336069158e-19 8.692092296120954e-11 7.567019114850792e-11 1.125073181270163e-11
5.246226572918644 6.353997977827576e-19 8.848375573826245e-11 7.701380293500393e-11 1.1469952803258517e-11
5.265937586045735 6.38619699066356e-19 8.926628297045706e-11 7.768660920925474e-11 1.1579673761202314e-11
5.285722656980489 6.418110686808129e-19 9.004943817910439e-11 7.835998974393167e-11 1.1689448435172731e-11
5.305582063971359 6.44973456062856e-19 9.083313654216885e-11 7.903387475193848e-11 1.1799261790230384e-11
5.3255160863122235 6.481344550262731e-19 9.16212564531494e-11 7.971115454554842e-11 1.1910101907600962e-11
5.365609099470188 6.545815681951435e-19 9.322925958305547e-11 8.108969573439715e-11 1.2139563848658316e-11
5.406003951863644 6.609134920200349e-19 9.483975199311577e-11 8.247040905373691e-11 1.2369342939378875e-11
5.446702915881641 6.671271337932646e-19 9.645210844611965e-11 8.385279003094372e-11 1.2599318415175922e-11
5.487708281020852 6.7326750236592885e-19 9.807269327825565e-11 8.52422005464578e-11 1.2830492731797863e-11
5.529022354014368 6.797038615755257e-19 9.97556530619437e-11 8.668417807699556e-11 1.3071474984948114e-11
5.570647458961463 6.860316939592117e-19 1.0144234685029444e-10 8.812963091322312e-11 1.3312715937071356e-11
5.612585937458331 6.922496304852589e-19 1.0313241070436339e-10 8.957831779102259e-11 1.3554092913340788e-11
5.654840148729818 6.98425600341048e-19 1.0483587289319804e-10 9.103902279635703e-11 1.3796850096840997e-11
5.67608639626678 7.01773539560535e-19 1.0573418434414768e-10 9.181004421194012e-11 1.3924140132207579e-11
5.686739436050992 7.034404820967701e-19 1.0618425402765894e-10 9.219643895347127e-11 1.3987815074187695e-11
5.6974124697621304 7.051028058369015e-19 1.0663494215596449e-10 9.258343479120055e-11 1.4051507364763938e-11
5.718818669136295 7.084138124352771e-19 1.0753820415462776e-10 9.335926799132429e-11 1.4178936163303458e-11
5.740305295436557 7.117903670780105e-19 1.0845673595611141e-10 9.414925322477658e-11 1.4307482731334806e-11
5.7835210386641895 7.191591911453973e-19 1.1040450326172639e-10 9.583150973408189e-11 1.45729935276445e-11
5.827062130521658 7.266909231184992e-19 1.1240064861749793e-10 9.755916179082607e-11 1.4841486826671857e-11
5.8489554468988025 7.311779278067565e-19 1.1351959135434651e-10 9.853226125869378e-11 1.498733009565273e-11
5.870931020387893 7.357111597930451e-19 1.1465255955605099e-10 9.951911662283057e-11 1.513344293322041e-11
5.892989160043636 7.402964931231791e-19 1.1580058873165009e-10 1.0052077939248608e-10 1.5279809339164008e-11
5.915130176081913 7.451819702548808e-19 1.170027524045822e-10 1.0157093926192936e-10 1.5431813142652827e-11
5.95966208400165 7.574085725044402e-19 1.1981778450941093e-10 1.040347648511836e-10 1.5783019658227328e-11
6.004529249263818 7.729715428721936e-19 1.2320033913319944e-10 1.0701935617972992e-10 1.6180982953469557e-11
6.027089341400364 7.830249201558501e-19 1.252716062839764e-10 1.0885826869305141e-10 1.641333759092499e-11
6.049734195844842 7.9425101437936585e-19 1.275450196089118e-10 1.1088502746230033e-10 1.6659992146611452e-11
6.095279466722835 8.248825654429138e-19 1.3346124758054702e-10 1.16186830304992e-10 1.7274417275555064e-11
6.141167624020661 8.687162268740892e-19 1.4161143333324874e-10 1.2352949238847625e-10 1.8081940944772498e-11
6.164241091010745 8.962511882045216e-19 1.4664889457476973e-10 1.280552974329768e-10 1.8593597141792928e-11
6.187401249150058 9.258353743301906e-19 1.5205877379493763e-10 1.3294073054077832e-10 1.911804325415929e-11
6.1990139391386085 9.401308847331475e-19 1.546964566117106e-10 1.3531173127952293e-10 1.938472533218768e-11
6.204828454712694 9.475106161944532e-19 1.5605701538807278e-10 1.3653769277577368e-10 1.9519322612299084e-11
6.210648424152782 9.528954719806957e-19 1.5709112195028542e-10 1.3745818463164824e-10 1.963293731863719e-11
6.233982942956859 9.706221341168958e-19 1.6061467877485076e-10 1.405901200018287e-10 2.002455877302203e-11
6.239830258556775 9.725784781520959e-19 1.6108936286621332e-10 1.4101385679579654e-10 2.0075506070416823e-11
6.245683058788269 9.725181229448198e-19 1.6123045446029394e-10 1.4110395489561391e-10 2.0126499564680058e-11
6.257405133728602 9.71447745555872e-19 1.6135526908713286e-10 1.4114149545937163e-10 2.0213773627761197e-11
6.269149208991335 9.671988330961915e-19 1.609510459544593e-10 1.4071480586828528e-10 2.0236240086174012e-11
6.280915325867298 9.575554939026396e-19 1.5964536863933126e-10 1.3946666993133317e-10 2.0178698707998048e-11
6.304513850009849 9.341157535782402e-19 1.563225866225393e-10 1.3633115189161874e-10 1.9991434730920588e-11
6.32820103803542 9.063589846002648e-19 1.5224742109217495e-10 1.325200252864322e-10 1.972739580574268e-11
6.3519772230701035 8.813882356301409e-19 1.486091720615608e-10 1.2912115848092506e-10 1.948801358063572e-11
6.375842739491607 8.59863972811798e-19 1.4552472344540553e-10 1.2625068982427181e-10 1.9274033621133725e-11
6.399797922933955 8.439173593061548e-19 1.4336251610831696e-10 1.2421172456310224e-10 1.9150791545214708e-11
6.42384311029221 8.303346035036226e-19 1.4158508172438925e-10 1.2253933318141784e-10 1.9045748542971428e-11
6.447978639727206 8.211193261175117e-19 1.405397889758661e-10 1.2152860760345814e-10 1.9011181372407954e-11
6.472204850670314 8.13356421717376e-19 1.3973415968548664e-10 1.2074362760995132e-10 1.8990532075535368e-11
6.496522083828205 8.088882746500257e-19 1.3948865678808302e-10 1.2046192264563143e-10 1.9026734142451603e-11
