Dust emission spectrum from A.P. Jones, M. Kohler, N. Ysard, M. Bocchio, and L. Verstraete (2017), A&A, 602A, 46J 
inside the DustPedia framework.

lambda    nu*dP/dnu     j_nu    j_nu(carb.) j_nu(sil)
 (um)   (erg s-1 H-1) (Jy cm2 sr-1 H-1)
0.9927057738263894 3.0385112887068204e-22 8.00664982973825e-15 8.006645566431092e-15 4.263307156491459e-21
1.0001793341362166 3.089661140705243e-22 8.202725164378625e-15 8.20272003344382e-15 5.130934804979342e-21
1.0077091589558085 3.141007972735983e-22 8.401825893419809e-15 8.40181972649233e-15 6.166927478949562e-21
1.0114953028030835 3.166752894753266e-22 8.502516425469545e-15 8.502509667937486e-15 6.7575320577563474e-21
1.0152956718711033 3.192544274784585e-22 8.60397018403082e-15 8.60396278179927e-15 7.402231550281457e-21
1.0229392996569957 3.2442378182913915e-22 8.80910891207193e-15 8.809100038813563e-15 8.873258367143079e-21
1.0267826658714554 3.2700813791536873e-22 8.91264322546944e-15 8.912633514962237e-15 9.71050720114258e-21
1.0306404723013447 3.295966728194154e-22 9.01694550199835e-15 9.016934878782277e-15 1.0623216072130134e-20
1.03451277320114 3.3218930930662404e-22 9.122018359519133e-15 9.122006741677506e-15 1.1617841622671399e-20
1.0383996230291617 3.347859730849922e-22 9.227864491509375e-15 9.22785179014813e-15 1.2701361243974018e-20
1.0403485208654093 3.3608579281934205e-22 9.281078398777744e-15 9.281065119988986e-15 1.3278788760170255e-20
1.0423010764483396 3.37386592897093e-22 9.33448667096875e-15 9.334472789656433e-15 1.3881312318307977e-20
1.0462171883269815 3.399911006130364e-22 9.441887754425754e-15 9.44187258859156e-15 1.5165834192579704e-20
1.0471985131304309 3.4064282734841318e-22 9.4688600720739e-15 9.4688445677553e-15 1.550431859562491e-20
1.048180758391296 3.4129479202266265e-22 9.495881301667973e-15 9.495865451639662e-15 1.5850028306896962e-20
1.0501480137395462 3.425994313244993e-22 9.550070686048743e-15 9.550054122335687e-15 1.656371305574306e-20
1.0521189612883777 3.4390501092398256e-22 9.604456289974815e-15 9.604438981879165e-15 1.7308095650258917e-20
1.0531058218030118 3.4455728277516305e-22 9.631698524625687e-15 9.631680832411391e-15 1.769221429790577e-20
1.0540936079674168 3.452069424495301e-22 9.658910325488076e-15 9.658892240919615e-15 1.8084568458928423e-20
1.058054026499678 3.478077714495701e-22 9.768245343693074e-15 9.76822560483766e-15 1.9738855413939463e-20
1.0590464539527713 3.484585220697879e-22 9.795701300396702e-15 9.795681125889914e-15 2.0174506788875642e-20
1.06003981227728 3.491094884052698e-22 9.82320623877518e-15 9.823185619428825e-15 2.0619346354269804e-20
1.0620293250338977 3.5041206507060336e-22 9.878363265514905e-15 9.878341728185017e-15 2.1537329888314924e-20
1.0660195594769086 3.5301977313123716e-22 9.989267377555692e-15 9.989243885664006e-15 2.3491891685318666e-20
1.070024785945596 3.5563084918950973e-22 1.0100961076981957e-14 1.0100935461618353e-14 2.5615363603040902e-20
1.0740450607676866 3.5824525064370347e-22 1.0213447876325378e-14 1.0213419954767296e-14 2.7921558083091055e-20
1.07808044048254 3.6086293883447626e-22 1.032673140840774e-14 1.0326700983059456e-14 3.0425348282733426e-20
1.0861967418109137 3.6610402137660107e-22 1.0555587935811024e-14 1.055555184483533e-14 3.6090975695492465e-20
1.0902777775684922 3.6871821933388436e-22 1.0670903464877494e-14 1.0670864176297152e-14 3.9288580342104325e-20
1.0943741465085532 3.713354326894193e-22 1.0787024104422264e-14 1.0786981348948118e-14 4.2755474145378996e-20
1.1026131145906286 3.765788438527328e-22 1.1021697938080443e-14 1.1021647353686573e-14 5.058439387150136e-20
1.1109141095355224 3.818341781826915e-22 1.1259645451628821e-14 1.1259585682737093e-14 5.976889173159648e-20
1.1192775983109025 3.8709730856592687e-22 1.1500782665004516e-14 1.1500712135646197e-14 7.052935831611859e-20
1.1277040513999907 3.9234934312487327e-22 1.1744580353525055e-14 1.1744497233990592e-14 8.311953446432598e-20
1.1361939428280308 3.976129368990118e-22 1.199174566929467e-14 1.1991647838141752e-14 9.783115291786266e-20
1.1447477501889525 4.028883520489741e-22 1.2242326091239783e-14 1.2242211092064928e-14 1.1499917485900587e-19
1.1533659546722406 4.081778482433672e-22 1.2496430916038966e-14 1.2496295908172346e-14 1.350078666199751e-19
1.1707974979042381 4.1881658508492995e-22 1.3015926576027774e-14 1.301574120394962e-14 1.8537207815416948e-19
1.1884924949847024 4.295174333697228e-22 1.3550230172194762e-14 1.3549976922636136e-14 2.5324955862808415e-19
1.2064549276569216 4.403566972605454e-22 1.4102143850726355e-14 1.4101799577260814e-14 3.442734655422258e-19
1.2246888378427687 4.512684382610523e-22 1.467000131023785e-14 1.4669535590123648e-14 4.657201142013765e-19
1.2431983285522175 4.622495510620354e-22 1.5254091553549768e-14 1.5253464598457076e-14 6.269550926991274e-19
1.2619875648066055 4.7332253646151135e-22 1.5855563882510965e-14 1.5854723910720934e-14 8.399717900310439e-19
1.3004222497298317 4.95710923629246e-22 1.7111272745696163e-14 1.7109786254276738e-14 1.4864914194240576e-18
1.3400274889804893 5.185867338684147e-22 1.8446099344081672e-14 1.844351694029013e-14 2.5824037915399083e-18
1.3808389325824078 5.421539929015498e-22 1.9871704349308607e-14 1.986729825458688e-14 4.406094721728971e-18
1.4228933163050095 5.66772497017438e-22 2.1406740287530646e-14 2.13993533140795e-14 7.386973451148902e-18
1.466228494730424 5.930765716451263e-22 2.308244751829232e-14 2.3070272223265056e-14 1.2175295027262493e-17
1.5108834753276823 6.2132317455154605e-22 2.4918273993986126e-14 2.4898536862252483e-14 1.9737131733639445e-17
1.5568984535646726 6.518928896813512e-22 2.69405193998994e-14 2.690901739523364e-14 3.1502004665765073e-17
1.6043148490894465 6.854609196719931e-22 2.919051354787993e-14 2.914091681736894e-14 4.9596730510984563e-17
1.6531753430134553 7.228516306020584e-22 3.172031688630382e-14 3.164338363797169e-14 7.693324833212066e-17
1.7035239163302658 7.650912659593641e-22 3.459640021427255e-14 3.44787960611012e-14 1.1760415317136278e-16
1.755405889504358 8.137678132334633e-22 3.791818075144257e-14 3.7740927084250076e-14 1.7725366719248876e-16
1.8088679632656115 8.701505597461442e-22 4.178021822239592e-14 4.151671586867249e-14 2.635023537234466e-16
1.8639582606462262 9.357580931967016e-22 4.62987438348932e-14 4.5912232790440387e-14 3.865110444528032e-16
1.9207263702978936 1.0125169195383495e-21 5.1622284648656156e-14 5.10626693577229e-14 5.596152909332631e-16
1.979223391128241 1.1027315881779703e-21 5.793407314113869e-14 5.71339928343666e-14 8.00080306772115e-16
2.039501978296691 1.209024073095731e-21 6.545284254481128e-14 6.432292452496993e-14 1.1299180198413555e-15
2.1016163906111602 1.334675545657673e-21 7.445580837727566e-14 7.287889800633805e-14 1.5769103709376065e-15
2.1656225393682647 1.483126023446578e-21 8.525704012468503e-14 8.308152987306751e-14 2.1755102516175215e-15
2.231578038680979 1.6578320022085642e-21 9.820238392699901e-14 9.523453135144277e-14 2.967852575556231e-15
2.299542257339062 1.8627554253822183e-21 1.1370162322201038e-13 1.0969682040619426e-13 4.0048028158160855e-15
2.369576372248914 2.102299377240306e-21 1.3223143330109927e-13 1.2688436786775208e-13 5.3470654333472e-15
2.4417434235010123 2.3811565141378105e-21 1.5433250394151245e-13 1.47266506166454e-13 7.065997775058459e-15
2.5161083711144245 2.7045205499149658e-21 1.8062965873285287e-13 1.7138496548965274e-13 9.244693243200134e-15
2.5927381535095444 3.0780067073509874e-21 2.1183496898815451e-13 1.9985637801126284e-13 1.1978590976891629e-14
2.6717017477616296 3.507167407531129e-21 2.4872182984936226e-13 2.3334659311712304e-13 1.5375236732239198e-14
2.753070231689431 3.997714221137224e-21 2.9214500728333985e-13 2.7259065689704616e-13 1.955435038629358e-14
2.836916847834745 4.556916853644825e-21 3.43152481611994e-13 3.185041651897518e-13 2.4648316422242174e-14
2.9233170693905177 5.194293810636221e-21 4.0306201060731105e-13 3.7226680509641047e-13 3.0795205510900544e-14
2.967498994190263 5.543276465878255e-21 4.3664305072391076e-13 4.024002779170345e-13 3.42427728068763e-14
3.0123486681368425 5.9150510768299366e-21 4.729695380634184e-13 4.349430114643485e-13 3.802652659907001e-14
3.0578761833420214 6.34589426552749e-21 5.150888644519011e-13 4.729029992023718e-13 4.2185865249529214e-14
3.1040917844459814 6.811727067621146e-21 5.612562958949881e-13 5.145488658076137e-13 4.670743008737435e-14
3.127460860933648 7.0994826674574e-21 5.893699917939561e-13 5.402434683987296e-13 4.912652339522656e-14
3.1510058709225794 7.419952239746684e-21 6.206114091155954e-13 5.689646822290963e-13 5.164672688649904e-14
3.162844764501044 7.635031600883364e-21 6.41000176061077e-13 5.880497603810511e-13 5.2950415680025905e-14
3.1747281389236908 7.86680989945101e-21 6.629406198257776e-13 6.086603748740757e-13 5.4280244951701786e-14
3.1986289994194426 8.42871688033152e-21 7.156402677975743e-13 6.586137352845343e-13 5.702653251304022e-14
3.2227097969389145 9.472500265198507e-21 8.103175750750802e-13 7.503823599049782e-13 5.993521517010222e-14
3.2348180950136065 1.0364291263569512e-20 8.899362680244805e-13 8.284491626259905e-13 6.148710539848984e-14
3.240889293275058 1.1005306160142622e-20 9.467509682424222e-13 8.844452794563522e-13 6.230568878606991e-14
3.2469718861334385 1.1739601052939959e-20 1.011815434310323e-12 9.486627535110995e-13 6.315268079922347e-14
3.2714166318528037 1.5519352144005392e-20 1.3476554687875339e-12 1.2810037110940016e-12 6.665175769353202e-14
3.2744851364798273 1.576903513414708e-20 1.3706216175946932e-12 1.3035578077045063e-12 6.706380989018704e-14
3.2775565192852394 1.602472017773748e-20 1.3941518431485326e-12 1.3266739498175827e-12 6.74778933309498e-14
3.283707930232385 1.585953545304644e-20 1.3823703714847188e-12 1.3141525771688178e-12 6.821779431590074e-14
3.2898708863219004 1.521569360318286e-20 1.3287400989935301e-12 1.259849518002326e-12 6.889058099120391e-14
3.29141343181113 1.5064198810681603e-20 1.3161273338834238e-12 1.2470678272065047e-12 6.905950667691917e-14
3.292184975758714 1.4989812355404915e-20 1.309935337362073e-12 1.2407912583712872e-12 6.914407899078595e-14
3.295272960557952 1.451239121002464e-20 1.2694038318285198e-12 1.1999308891483141e-12 6.94729426802054e-14
3.3076538914384823 1.2858143273499417e-20 1.1289319206743293e-12 1.0581383881154973e-12 7.079353255883182e-14
3.310756385682612 1.2522226567235912e-20 1.100470020304001e-12 1.0293436811533063e-12 7.112633915069468e-14
3.313861789986515 1.2212706078548535e-20 1.0742756444032457e-12 1.0028154334256498e-12 7.14602109775958e-14
3.3200813396944477 1.1798586797424646e-20 1.0397960148452432e-12 9.676174177486989e-13 7.21785970965442e-14
3.345076488085796 1.121525712932107e-20 9.95828888479809e-13 9.204481924463894e-13 7.538069603341964e-14
3.3482140837626964 1.127986852097381e-20 1.0025053279591876e-12 9.266908301268035e-13 7.581449783238425e-14
3.3513546224236106 1.1344885636497196e-20 1.0092295087530918e-12 9.329792856646338e-13 7.625022308845801e-14
3.3576445397418455 1.1645631919639009e-20 1.0379279561422176e-12 9.607666357768126e-13 7.716132036540527e-14
3.3702598118196083 1.2633364678462076e-20 1.1301910077964229e-12 1.0511186798476341e-12 7.907232794878882e-14
3.382922481734668 1.2966539533419054e-20 1.1643554163409765e-12 1.0834263914360262e-12 8.09290249049506e-14
3.389271646505754 1.3136879503452535e-20 1.1818654255740547e-12 1.0999954600613485e-12 8.186996551270657e-14
3.395632727569191 1.3319945523504942e-20 1.200584113697606e-12 1.1177444517989631e-12 8.283966189864258e-14
3.421196662673239 1.4161433236815833e-20 1.28604060775642e-12 1.1991876989972232e-12 8.685290875919643e-14
3.4276182099114902 1.411807748475212e-20 1.284509840235842e-12 1.1967621495218545e-12 8.774769071398761e-14
3.4340518103208963 1.370657839280284e-20 1.249411015285508e-12 1.160817425909902e-12 8.859358937560589e-14
3.4469541582030403 1.3146897419392326e-20 1.202896371965082e-12 1.112680019313233e-12 9.02163526518489e-14
3.472904465399547 1.3207102251256977e-20 1.2175023549845875e-12 1.1235466370871568e-12 9.395571789743098e-14
3.4990501388274233 1.3174787018925052e-20 1.22366686991514e-12 1.1258865160546905e-12 9.778035386044952e-14
3.5253949054701885 1.241974834026876e-20 1.1622244338043804e-12 1.0607315074270008e-12 1.014929263773796e-13
3.5519380250092896 1.1712277134620378e-20 1.1042722347355387e-12 9.990503118589559e-13 1.0522192287658315e-13
3.578680990867387 1.1604674798358803e-20 1.1023649444206124e-12 9.930562992666217e-13 1.0930864515399084e-13
3.605625307711299 1.1734793259254103e-20 1.1231182106777863e-12 1.0095070503747755e-12 1.1361116030301079e-13
3.660119384959845 1.2205455788384544e-20 1.1858197691296195e-12 1.063176647533372e-12 1.2264312159624754e-13
3.715437065384467 1.2721217296617404e-20 1.254607887173873e-12 1.1224540928715896e-12 1.3215379430228328e-13
3.8285932144167436 1.391741971703365e-20 1.414384157229013e-12 1.2618279635088008e-12 1.5255619372021196e-13
3.94519561050918 1.5198117990489323e-20 1.5915774823934788e-12 1.4168317425347535e-12 1.7474573985872485e-13
4.06534921144712 1.653690355953741e-20 1.7845202640526185e-12 1.585838944963162e-12 1.9868131908945664e-13
4.189162171576248 1.7920560203156368e-20 1.992728756193799e-12 1.7683377057477414e-12 2.243910504460569e-13
4.316745939156006 1.9337266733309724e-20 2.2157512858030726e-12 1.963991685683031e-12 2.517596001200418e-13
4.448215356677963 2.0773670606632822e-20 2.45283581663175e-12 2.1724514040963827e-12 2.8038441253536665e-13
4.58368876423945 2.2220679858249877e-20 2.7035966302817162e-12 2.393316266621168e-12 3.1028036366054866e-13
4.723288106065518 2.367044406122172e-20 2.9677019051720945e-12 2.626087224508738e-12 3.416146806633569e-13
4.867139040275056 2.5107541209977535e-20 3.2437499628178205e-12 2.8702308859910466e-12 3.735190768267743e-13
4.940699165968905 2.5821447382053978e-20 3.386401332357079e-12 2.9966239784123455e-12 3.8977735394473474e-13
5.015371051989984 2.6526883524232587e-20 3.531496112017724e-12 3.1253107200721395e-12 4.0618539194558393e-13
5.091171501069577 2.72327625163744e-20 3.680263028072749e-12 3.2571601794794834e-12 4.231028485932649e-13
5.129500256944802 2.7581460231705416e-20 3.755447923619308e-12 3.323849530235721e-12 4.3159839338358734e-13
5.168117569889187 2.79283956331969e-20 3.8313145242926725e-12 3.391110945284826e-12 4.402035790078471e-13
5.20702561229733 2.828339139278148e-20 3.909224666089624e-12 3.459607917399791e-12 4.496167486898326e-13
5.246226572918644 2.863530504956098e-20 3.987661542130796e-12 3.5285832940684088e-12 4.590782480623874e-13
5.265937586045735 2.8810051527104117e-20 4.027069969454079e-12 3.5632441817528744e-12 4.638257877012043e-13
5.285722656980489 2.8983962337052954e-20 4.066600985895347e-12 3.598017185690977e-12 4.685838002043694e-13
5.305582063971359 2.9157016123342755e-20 4.106251508179443e-12 3.632899768401322e-12 4.733517397781205e-13
5.3255160863122235 2.933057250888046e-20 4.146213621130348e-12 3.6680449539418575e-12 4.781686671884907e-13
5.365609099470188 2.968560188619631e-20 4.227993604767024e-12 3.739857679825604e-12 4.881359249414209e-13
5.406003951863644 3.003732340314774e-20 4.31029527538407e-12 3.8121440757534285e-12 4.981511996306424e-13
5.446702915881641 3.038559092370676e-20 4.393097151226054e-12 3.884887028206921e-12 5.082101230191332e-13
5.487708281020852 3.0732707022536704e-20 4.4767337482354365e-12 3.958380508615891e-12 5.183532396195464e-13
5.529022354014368 3.109758904393355e-20 4.563988052883582e-12 4.0350619254511195e-12 5.289261274324624e-13
5.570647458961463 3.1459720076097945e-20 4.65189562504738e-12 4.112347829985157e-12 5.395477950622232e-13
5.612585937458331 3.1819049211459e-20 4.740450708797336e-12 4.190236916590113e-12 5.502137922072246e-13
5.654840148729818 3.2179120561426443e-20 4.830186910882522e-12 4.2692120440226436e-12 5.609748668598783e-13
5.67608639626678 3.237379618689535e-20 4.877666000471635e-12 4.3110566176573666e-12 5.666093828142684e-13
5.686739436050992 3.24710771991626e-20 4.901505099038765e-12 4.332073340535216e-12 5.694317585035493e-13
5.6974124697621304 3.2568324901068137e-20 4.925411462261839e-12 4.353154010057784e-12 5.722574522040555e-13
5.718818669136295 3.27627350438439e-20 4.973428846195398e-12 4.395510335591904e-12 5.779185106034923e-13
5.740305295436557 3.2961453962761914e-20 5.022394056615536e-12 4.43875784233363e-12 5.836362142819057e-13
5.7835210386641895 3.3394222885605403e-20 5.126643217372494e-12 4.531191581915927e-12 5.954516354565671e-13
5.827062130521658 3.3839601348353846e-20 5.2341277694647755e-12 4.626693430750926e-12 6.074343387138499e-13
5.8489554468988025 3.410198358756387e-20 5.294529681503208e-12 4.680609568603616e-12 6.139201128995932e-13
5.870931020387893 3.4368170907739605e-20 5.355904568500205e-12 4.735475273155761e-12 6.204292953444443e-13
5.892989160043636 3.4638521591349874e-20 5.4183171612091716e-12 4.791355825627855e-12 6.269613355813163e-13
5.915130176081913 3.4926087510079864e-20 5.483826142499023e-12 4.850088994960254e-12 6.337371475387721e-13
5.95966208400165 3.5635979748592305e-20 5.637411956112411e-12 4.988143642534874e-12 6.492683135775369e-13
6.004529249263818 3.6532829286559944e-20 5.82279774605319e-12 5.1560010013582605e-12 6.667967446949298e-13
6.027089341400364 3.7107041701806154e-20 5.936539947549236e-12 5.259569446060645e-12 6.769705014885901e-13
6.049734195844842 3.7748248151801456e-20 6.061812907454395e-12 5.374055899617711e-12 6.877570078366825e-13
6.095279466722835 3.948505555896172e-20 6.3884545466865484e-12 5.674027324628027e-12 7.144272220585195e-13
6.141167624020661 4.1963259408376944e-20 6.840527583487273e-12 6.0912916696831716e-12 7.492359138041003e-13
6.164241091010745 4.351573060114305e-20 7.120251413061296e-12 6.349074901796882e-12 7.711765112644128e-13
6.187401249150058 4.519336089819111e-20 7.42253669754486e-12 6.628847838015399e-12 7.9368885952946e-13
6.1990139391386085 4.600644780444617e-20 7.570259175837604e-12 6.7651186504559455e-12 8.051405253816572e-13
6.204828454712694 4.642698544471874e-20 7.646623328684048e-12 6.8357005265797336e-12 8.109228021043133e-13
6.210648424152782 4.6736932615509194e-20 7.704892506020814e-12 6.88906422946078e-12 8.158282765600348e-13
6.233982942956859 4.7770245994873245e-20 7.904829743495347e-12 7.07198775983067e-12 8.328419836646766e-13
6.239830258556775 4.7893437584690215e-20 7.932648644096337e-12 7.097512851879982e-12 8.351357922163556e-13
6.245683058788269 4.7902554274155615e-20 7.941600689192734e-12 7.104168085451904e-12 8.374326037408298e-13
6.257405133728602 4.786840739941204e-20 7.950833991883921e-12 7.109420436779179e-12 8.414135551047433e-13
6.269149208991335 4.7659005009128134e-20 7.930909801464889e-12 7.088223140041308e-12 8.426866614235792e-13
6.280915325867298 4.714933819525558e-20 7.860822192773518e-12 7.020208434787148e-12 8.406137579863695e-13
6.304513850009849 4.5897944918848417e-20 7.68093830222751e-12 6.847494347211172e-12 8.334439550163374e-13
6.32820103803542 4.439836652832757e-20 7.457902353805427e-12 6.6348453299617996e-12 8.230570238436278e-13
6.3519772230701035 4.304922780656394e-20 7.2584473488565946e-12 6.444750322604703e-12 8.136970262518912e-13
6.375842739491607 4.189459707065368e-20 7.090307124540946e-12 6.284915020955178e-12 8.053921035857673e-13
6.399797922933955 4.104107114713313e-20 6.971951884330134e-12 6.171055528354774e-12 8.008963559753578e-13
6.42384311029221 4.032195433833553e-20 6.875526054425627e-12 6.078364950530347e-12 7.971611038952797e-13
6.447978639727206 3.984279076469636e-20 6.819346748000738e-12 6.022955222997183e-12 7.963915250035578e-13
6.472204850670314 3.9446149481818324e-20 6.776825513999902e-12 5.980616745504631e-12 7.962087684952729e-13
6.496522083828205 3.923162902180926e-20 6.765294302514435e-12 5.966869636722975e-12 7.9842466579146e-13
