Dust emission spectrum from A.P. Jones, M. Kohler, N. Ysard, M. Bocchio, and L. Verstraete (2017), A&A, 602A, 46J 
inside the DustPedia framework.

lambda    nu*dP/dnu     j_nu    j_nu(carb.) j_nu(sil)
 (um)   (erg s-1 H-1) (Jy cm2 sr-1 H-1)
0.9927057738263894 1.6445653956896848e-24 4.3335232270919946e-17 4.33352312336374e-17 1.0372825432705474e-24
1.0001793341362166 1.671836246199379e-24 4.438549285145777e-17 4.438549160215765e-17 1.2493001244484754e-24
1.0077091589558085 1.6990861400518143e-24 4.544855043523943e-17 4.544854893253517e-17 1.5027042450543328e-24
1.0114953028030835 1.7127001146198462e-24 4.5984834751665775e-17 4.598483310439421e-17 1.6472715517088473e-24
1.0152956718711033 1.7263051252315216e-24 4.65242657505002e-17 4.652426394534095e-17 1.8051592505030783e-24
1.0229392996569957 1.7534700214406927e-24 4.761213344420974e-17 4.761213127851554e-17 2.1656942117808094e-24
1.0267826658714554 1.766997253144794e-24 4.815970696649718e-17 4.815970459544638e-17 2.3710507901441442e-24
1.0306404723013447 1.7805099465667787e-24 4.871032530948809e-17 4.871032271445487e-17 2.5950332289445873e-24
1.03451277320114 1.7940069007954236e-24 4.926396915156097e-17 4.926396631231328e-17 2.8392476976492556e-24
1.0383996230291617 1.8074869226714073e-24 4.982061894317378e-17 4.9820615837742636e-17 3.1054311414028192e-24
1.0403485208654093 1.8142202132997264e-24 5.010006490019356e-17 5.0100061652851356e-17 3.247342222410672e-24
1.0423010764483396 1.8209488270519135e-24 5.038025491373554e-17 5.0380251518274285e-17 3.395461250374921e-24
1.0462171883269815 1.8343914370709787e-24 5.094285707853561e-17 5.094285336716845e-17 3.711367132940814e-24
1.0471985131304309 1.837748937726637e-24 5.108396872580454e-17 5.108396493116471e-17 3.794639813106591e-24
1.048180758391296 1.8411051412506734e-24 5.122526418172281e-17 5.122526030202105e-17 3.8797017839429634e-24
1.0501480137395462 1.8478135843955925e-24 5.1508405245730137e-17 5.1508401190389414e-17 4.055340738020806e-24
1.0521189612883777 1.8545166218387054e-24 5.179227771536808e-17 5.179227347678264e-17 4.238585437222391e-24
1.0531058218030118 1.8578610075229092e-24 5.19343459554583e-17 5.19343416222948e-17 4.333163509362723e-24
1.0540936079674168 1.8611874068224815e-24 5.2076131881543244e-17 5.207612745176095e-17 4.429782311370237e-24
1.058054026499678 1.8744779058395593e-24 5.264505735239935e-17 5.2645052515097565e-17 4.837301758423987e-24
1.0590464539527713 1.877796667471683e-24 5.278773252028261e-17 5.278772757562439e-17 4.94465820790586e-24
1.06003981227728 1.8811138485564773e-24 5.2930584549266693e-17 5.293057949497227e-17 5.0542944106933376e-24
1.0620293250338977 1.887743398792816e-24 5.3216817867261287e-17 5.3216812586670126e-17 5.280591173332441e-24
1.0660195594769086 1.9009827616633376e-24 5.3791392243968953e-17 5.379138648134102e-17 5.762627921894648e-24
1.070024785945596 1.914194880408734e-24 5.436875913558146e-17 5.436875284895876e-17 6.286622693568746e-24
1.0740450607676866 1.9273786511906225e-24 5.494889703773307e-17 5.4948890181696496e-17 6.856036562028769e-24
1.07808044048254 1.94053298059794e-24 5.553178429604172e-17 5.553177682144251e-17 7.474599195857885e-24
1.0861967418109137 1.9667261383312165e-24 5.670506054741749e-17 5.670505167186604e-17 8.875551438530549e-24
1.0902777775684922 1.9797108557454407e-24 5.729389632059402e-17 5.729388665366627e-17 9.666927753890406e-24
1.0943741465085532 1.9926609553490152e-24 5.78853507235034e-17 5.788534019803678e-17 1.0525466601612315e-23
1.1026131145906286 2.0184531857216275e-24 5.907602532201709e-17 5.907601285601393e-17 1.246600316892496e-23
1.1109141095355224 2.0440947184284894e-24 6.027690320597692e-17 6.027688846063838e-17 1.4745338526179786e-23
1.1192775983109025 2.0695543127599814e-24 6.148710889427865e-17 6.14870914751732e-17 1.741910543216522e-23
1.1277040513999907 2.094717093318612e-24 6.270323539844166e-17 6.270321484698309e-17 2.0551458562607203e-23
1.1361939428280308 2.1197026848350045e-24 6.392884419029483e-17 6.392881997402244e-17 2.421627239158245e-23
1.1447477501889525 2.144503851971906e-24 6.516374902933043e-17 6.516372053082337e-17 2.8498507070924e-23
1.1533659546722406 2.169126493687955e-24 6.640815882874611e-17 6.640812533295835e-17 3.3495787753872743e-23
1.1707974979042381 2.217915303492792e-24 6.89280791883074e-17 6.892803308823551e-17 4.610007191314585e-23
1.1884924949847024 2.265900345563424e-24 7.148364383899388e-17 7.148358070611959e-17 6.31328742647171e-23
1.2064549276569216 2.313450517538646e-24 7.408678508314897e-17 7.408669904674811e-17 8.603640082761595e-23
1.2246888378427687 2.360076821036704e-24 7.67222502648012e-17 7.672213358480858e-17 1.166799925921323e-22
1.2431983285522175 2.405681721101633e-24 7.938674929607602e-17 7.938659181779728e-17 1.5747827870803084e-22
1.2619875648066055 2.450261808253358e-24 8.20799341609146e-17 8.207972262662249e-17 2.1153429212423193e-22
1.3004222497298317 2.5356866770995763e-24 8.752848537574365e-17 8.752810902141235e-17 3.763543312959426e-22
1.3400274889804893 2.6161361273848995e-24 9.305580677585888e-17 9.30551493510044e-17 6.574248544910667e-22
1.3808389325824078 2.691452919526515e-24 9.865048932070958e-17 9.864936126858534e-17 1.128052124240346e-21
1.4228933163050095 2.7621112564762675e-24 1.0432369005871715e-16 1.0432178784587346e-16 1.9022128436744164e-21
1.466228494730424 2.8297940050815144e-24 1.1013514060871784e-16 1.1013198667924911e-16 3.153929468767635e-21
1.5108834753276823 2.893575153351748e-24 1.1604733485991592e-16 1.160421908887313e-16 5.143971184590986e-21
1.5568984535646726 2.9527801296199344e-24 1.2202837555805754e-16 1.2202011420770305e-16 8.261350354455311e-21
1.6043148490894465 3.0077915504965807e-24 1.2808750649998076e-16 1.2807441747891998e-16 1.3089021060785512e-20
1.6531753430134553 3.05909310600473e-24 1.3423972306233478e-16 1.3421928841128134e-16 2.0434651053409836e-20
1.7035239163302658 3.107518512263975e-24 1.4051781651008339e-16 1.4048637267272176e-16 3.1443837361605813e-20
1.755405889504358 3.1559620876093503e-24 1.4705464990950619e-16 1.4700693766335683e-16 4.7712246149330916e-20
1.8088679632656115 3.2044476450395784e-24 1.5386132939000222e-16 1.5378991188505664e-16 7.141750494555276e-20
1.8639582606462262 3.2532784870902834e-24 1.6096329638230566e-16 1.6085780110576032e-16 1.0549527654532426e-19
1.9207263702978936 3.3035759004512436e-24 1.684299118372169e-16 1.6827606823650814e-16 1.5384360070872135e-19
1.979223391128241 3.356989374832439e-24 1.7636573583324259e-16 1.7614416516794802e-16 2.2157066529455025e-19
2.039501978296691 3.4154433289797696e-24 1.84901590801276e-16 1.8458631733185398e-16 3.1527346942201745e-19
2.1016163906111602 3.482525048614608e-24 1.9427509444697465e-16 1.938317050430619e-16 4.433894039127772e-19
2.1656225393682647 3.561052554025197e-24 2.0470600318852417e-16 2.0408946977249658e-16 6.165334160275767e-19
2.231578038680979 3.652769189432284e-24 2.1637333689991974e-16 2.1552545022704832e-16 8.478866728713249e-19
2.299542257339062 3.760354716018817e-24 2.2953009787323567e-16 2.2837647689306094e-16 1.1536209801746962e-18
2.369576372248914 3.887645240533395e-24 2.445269726506542e-16 2.429736034601594e-16 1.5533691904948154e-18
2.4417434235010123 4.0390120077838885e-24 2.61784907002147e-16 2.597142655255803e-16 2.0706414765667082e-18
2.5161083711144245 4.220541198099278e-24 2.818817243982812e-16 2.7914837048864584e-16 2.7333539096352936e-18
2.5927381535095444 4.440738196376812e-24 3.0562104879998423e-16 3.0204678988917987e-16 3.574258910804476e-18
2.6717017477616296 4.7092590967501954e-24 3.3397195048724425e-16 3.2934080031325474e-16 4.63115017398965e-18
2.753070231689431 5.039218901697516e-24 3.6825609868630757e-16 3.6230889624046934e-16 5.9472024458383754e-18
2.836916847834745 5.45662784011753e-24 4.109040047706273e-16 4.033325399647734e-16 7.571464805853942e-18
2.9233170693905177 6.0144684052946626e-24 4.667051608070831e-16 4.571477954286587e-16 9.557365378424483e-18
2.967498994190263 6.3942563333546386e-24 5.036746064701832e-16 4.929881917393717e-16 1.0686414730811432e-17
3.0123486681368425 6.820679502422577e-24 5.4538390144694e-16 5.334509706058963e-16 1.1932930841043737e-17
3.0578761833420214 7.567425963978591e-24 6.142391731586095e-16 6.009283602689259e-16 1.3310812889683394e-17
3.1040917844459814 8.484438197453782e-24 6.990803225349823e-16 6.842606100725742e-16 1.481971246240815e-17
3.127460860933648 9.347253935552424e-24 7.759707620027954e-16 7.603393852669192e-16 1.5631376735876142e-17
3.1510058709225794 1.0463452325546403e-23 8.751724650174975e-16 8.586922747984211e-16 1.6480190219076215e-17
3.162844764501044 1.1458946108559917e-23 9.620374684777296e-16 9.451169466322585e-16 1.6920521845471082e-17
3.1747281389236908 1.2606029916457329e-23 1.0623174314841035e-15 1.0449468742274546e-15 1.7370557256648586e-17
3.1986289994194426 1.5758598878928096e-23 1.3379839519994756e-15 1.3196813224400307e-15 1.8302629559444913e-17
3.2227097969389145 2.3039736941383936e-23 1.970916151599468e-15 1.951622941790054e-15 1.9293209809413538e-17
3.2348180950136065 2.989072236694459e-23 2.5665853298909587e-15 2.5467627277859344e-15 1.9822602105024075e-17
3.240889293275058 3.4999367154520645e-23 3.0108825923826026e-15 2.9907807275481043e-15 2.0101864834499832e-17
3.2469718861334385 4.090668217129151e-23 3.5256745268165943e-15 3.5052836852874473e-15 2.039084152914665e-17
3.2714166318528037 7.232637272569397e-23 6.280612156803002e-15 6.259024712087959e-15 2.158744471504345e-17
3.2744851364798273 7.429910235345594e-23 6.457970001792098e-15 6.436240874089048e-15 2.1729127703047035e-17
3.2775565192852394 7.632774875792808e-23 6.640519799033885e-15 6.618648216709947e-15 2.1871582323940205e-17
3.283707930232385 7.442570659006e-23 6.4871945317383855e-15 6.465066856551642e-15 2.2127675186744048e-17
3.2898708863219004 6.832001036115036e-23 5.9661780591799245e-15 5.943816088390176e-15 2.2361970789749197e-17
3.29141343181113 6.688011977373202e-23 5.8431752550418756e-15 5.820754417826105e-15 2.2420837215768467e-17
3.292184975758714 6.617260740760768e-23 5.782716604678343e-15 5.760266290281536e-15 2.2450314396807806e-17
3.295272960557952 6.170407928068658e-23 5.39727695765592e-15 5.3747117498565044e-15 2.256520779941575e-17
3.3076538914384823 4.6216340172136985e-23 4.057747729767598e-15 4.034720403451889e-15 2.302732631570923e-17
3.310756385682612 4.306269527893406e-23 3.7844072612410825e-15 3.761263318382795e-15 2.314394285828663e-17
3.313861789986515 4.015244751046382e-23 3.5319605782895853e-15 3.5086995824961086e-15 2.3260995793475274e-17
3.3200813396944477 3.6082933409369825e-23 3.179947819782833e-15 3.1564356180600444e-15 2.351220172278732e-17
3.345076488085796 2.891652297629397e-23 2.5675656475944634e-15 2.5429353416630796e-15 2.4630305931384118e-17
3.3482140837626964 2.921023420503968e-23 2.5960777261754735e-15 2.571296002455017e-15 2.4781723720457797e-17
3.3513546224236106 2.9507026044637784e-23 2.624915081029326e-15 2.5999811853217427e-15 2.4933895707583035e-17
3.3576445397418455 3.157472046933978e-23 2.8141268167025796e-15 2.7888749770472414e-15 2.5251839655336886e-17
3.3702598118196083 3.9127950547504684e-23 3.5004180586732087e-15 3.4744991503683607e-15 2.591890830484767e-17
3.382922481734668 4.091517005367304e-23 3.674056577680023e-15 3.647486835139894e-15 2.6569742540129995e-17
3.389271646505754 4.1839837524735855e-23 3.764140286825758e-15 3.737240165458001e-15 2.690012136775863e-17
3.395632727569191 4.283693372864991e-23 3.861077511419235e-15 3.833836888873663e-15 2.7240622545571452e-17
3.421196662673239 4.760742382083144e-23 4.32336750386897e-15 4.294714543044898e-15 2.8652960824071525e-17
3.4276182099114902 4.672669888162614e-23 4.251351119159815e-15 4.222380290584438e-15 2.897082857537626e-17
3.4340518103208963 4.272454506891953e-23 3.894518070257394e-15 3.865245293190166e-15 2.927277706722962e-17
3.4469541582030403 3.7038490673652173e-23 3.388895846154557e-15 3.3590408543525887e-15 2.985499180196738e-17
3.472904465399547 3.5576628837775555e-23 3.279646705868571e-15 3.248454184274793e-15 3.119252159377807e-17
3.4990501388274233 3.326708262587347e-23 3.0898280791587563e-15 3.0572605601817656e-15 3.256751897699142e-17
3.5253949054701885 2.4657482534867634e-23 2.3074162127111014e-15 2.273502991955058e-15 3.39132207560436e-17
3.5519380250092896 1.655830681021245e-23 1.5611719441560714e-15 1.5258980498966308e-15 3.5273894259440745e-17
3.578680990867387 1.3452415381577023e-23 1.2778876954425657e-15 1.2411209192873665e-15 3.676677615519921e-17
3.605625307711299 1.2304667778043211e-23 1.1776599853569912e-15 1.1393157418828545e-15 3.834424347413669e-17
3.660119384959845 1.1706320247847276e-23 1.1373263083604147e-15 1.0956451107688553e-15 4.168119759155904e-17
3.715437065384467 1.1403444522567554e-23 1.1246448437577722e-15 1.0794121910817008e-15 4.5232652676071326e-17
3.8285932144167436 1.1876261424627296e-23 1.2069475770385937e-15 1.1539627471443997e-15 5.298482989419387e-17
3.94519561050918 1.2704710520435774e-23 1.3304628373925447e-15 1.2688410781688396e-15 6.16217592237052e-17
4.06534921144712 1.3727452215821828e-23 1.4813484619265285e-15 1.4101655042295377e-15 7.11829576969905e-17
4.189162171576248 1.4900214545420118e-23 1.6568726458052402e-15 1.5751348485843928e-15 8.173779722084725e-17
4.316745939156006 1.620857750729099e-23 1.857251955414889e-15 1.7639432535533887e-15 9.330870186150085e-17
4.448215356677963 1.7649364648038042e-23 2.083935697703782e-15 1.9781267143355463e-15 1.0580898336823619e-16
4.58368876423945 1.9227897559604736e-23 2.3394639309493997e-15 2.220147373489711e-15 1.1931655745968915e-16
4.723288106065518 2.0955194715086685e-23 2.6272752263695888e-15 2.4932960768423216e-15 1.3397914952726595e-16
4.867139040275056 2.284522797257498e-23 2.9514721002292464e-15 2.8019347224235796e-15 1.4953737780566678e-16
4.940699165968905 2.3868690908396263e-23 3.1303034836842224e-15 2.9725869661844027e-15 1.5771651749981988e-16
5.015371051989984 2.4926447109275237e-23 3.318431694865578e-15 3.1522788786644165e-15 1.6615281620116133e-16
5.091171501069577 2.606569567173994e-23 3.5225444361004797e-15 3.3475325092095915e-15 1.7501192689088877e-16
5.129500256944802 2.664918253558659e-23 3.628510469666038e-15 3.4489712541556584e-15 1.7953921551037977e-16
5.168117569889187 2.72461648770809e-23 3.737723734504538e-15 3.55355743625031e-15 1.8416629825422914e-16
5.20702561229733 2.788875157292176e-23 3.85467902491837e-15 3.6655128006446936e-15 1.891662242736789e-16
5.246226572918644 2.8543075598958295e-23 3.9748179620612404e-15 3.780569335066086e-15 1.9424862699515513e-16
5.265937586045735 2.8874701783892776e-23 4.036106784517952e-15 3.8392860331660136e-15 1.9682075135193932e-16
5.285722656980489 2.9209338327070915e-23 4.098222411998034e-15 3.898808927030554e-15 1.9941348496748092e-16
5.305582063971359 2.954701143852495e-23 4.1611754703700644e-15 3.959148648912786e-15 2.0202682145727824e-16
5.3255160863122235 2.989446446518297e-23 4.225926231900542e-15 4.021249520305619e-15 2.0467671159492278e-16
5.365609099470188 3.06517127273654e-23 4.365592649368453e-15 4.15542960847854e-15 2.1016304088991297e-16
5.406003951863644 3.1426271152494314e-23 4.5096064737026435e-15 4.293866150417365e-15 2.157403232852787e-16
5.446702915881641 3.22186615502402e-23 4.658119390472269e-15 4.4367107182438475e-15 2.2140867222842268e-16
5.487708281020852 3.304259186079413e-23 4.813207180347401e-15 4.586019968515628e-15 2.271872118317702e-16
5.529022354014368 3.400480400511537e-23 4.990660819420339e-15 4.757435519734341e-15 2.3322529968599653e-16
5.570647458961463 3.499952923176597e-23 5.175321220854437e-15 4.935956413413957e-15 2.393648074404804e-16
5.612585937458331 3.6028554237461845e-23 5.36758921792082e-15 5.121983182420528e-15 2.456060355002912e-16
5.654840148729818 3.7114406034970063e-23 5.570988737653214e-15 5.319015197251354e-15 2.519735404018599e-16
5.67608639626678 3.776395120570757e-23 5.689785027871162e-15 5.434483347034491e-15 2.5530168083667226e-16
5.686739436050992 3.8094920175188434e-23 5.750423502764986e-15 5.493447001660169e-15 2.5697650110481654e-16
5.6974124697621304 3.8430133734660266e-23 5.811911474352282e-15 5.5532529746114816e-15 2.586584997408007e-16
5.718818669136295 3.911364848987064e-23 5.937506359562051e-15 5.675462292713281e-15 2.620440668487712e-16
5.740305295436557 3.9841334057264604e-23 6.070693349962684e-15 5.805213968602832e-15 2.654793813598525e-16
5.7835210386641895 4.157663512496746e-23 6.382797862814265e-15 6.110196287199431e-15 2.726015756148334e-16
5.827062130521658 4.349221482345263e-23 6.727142173441556e-15 6.447240926369326e-15 2.7990124707222725e-16
5.8489554468988025 4.47333812980593e-23 6.945115507091671e-15 6.661293581512669e-15 2.8382192557899915e-16
5.870931020387893 4.604124232108184e-23 7.175025425382043e-15 6.887244249599152e-15 2.8778117578289273e-16
5.892989160043636 4.742086919840871e-23 7.417790874809106e-15 7.126011688397676e-15 2.9177918641142996e-16
5.915130176081913 4.895133191632927e-23 7.68596235107754e-15 7.39004336026442e-15 2.959189908131192e-16
5.95966208400165 5.302024415027136e-23 8.387504999088622e-15 8.082289325686554e-15 3.0521567340206796e-16
6.004529249263818 5.862668942080037e-23 9.34423535446196e-15 9.028624675497043e-15 3.156106789649219e-16
6.027089341400364 6.241538170082359e-23 9.985474179970468e-15 9.663926357054343e-15 3.215478229161249e-16
6.049734195844842 6.68231289338394e-23 1.0730810708319076e-14 1.0402985254833452e-14 3.278254534856189e-16
6.095279466722835 7.930030949796862e-23 1.2830333289247866e-14 1.2487321662006848e-14 3.4301162724101325e-16
6.141167624020661 9.812541504791608e-23 1.5995649950451954e-14 1.5633229473504445e-14 3.62420476947505e-16
6.164241091010745 1.1009284139036023e-22 1.8013915856374353e-14 1.7639461612576122e-14 3.744542437982324e-16
6.187401249150058 1.2359156527663818e-22 2.0298621535128533e-14 1.991176704285674e-14 3.868544922717969e-16
6.1990139391386085 1.30189410923228e-22 2.1422379463584924e-14 2.1029205858598886e-14 3.9317360498603813e-16
6.204828454712694 1.336527370483772e-22 2.2012890289280055e-14 2.1616520394407287e-14 3.9636989487276757e-16
6.210648424152782 1.3620555167399358e-22 2.2454386191855782e-14 2.205525702575359e-14 3.9912916610219536e-16
6.233982942956859 1.4490668174556898e-22 2.3978579637553477e-14 2.356967557478481e-14 4.0890406276866956e-16
6.239830258556775 1.4604596312615226e-22 2.418977149676881e-14 2.3779395693967072e-14 4.1037580280174225e-16
6.245683058788269 1.4620460702011997e-22 2.4238761908789777e-14 2.3826910259853905e-14 4.1185164893587192e-16
6.257405133728602 1.4610316527698515e-22 2.4267404660309556e-14 2.3852901547921327e-14 4.1450311238822744e-16
6.269149208991335 1.4457799688766638e-22 2.4059147948492384e-14 2.3643343030416623e-14 4.158049180757665e-16
6.280915325867298 1.4055649169254823e-22 2.3433830283249866e-14 2.301839795835051e-14 4.1543232489936176e-16
6.304513850009849 1.3056986817414562e-22 2.1850631947657027e-14 2.143746520259097e-14 4.1316674506606514e-16
6.32820103803542 1.1817369240091753e-22 1.9850456844000467e-14 1.9441173222102722e-14 4.092836218977502e-16
6.3519772230701035 1.0684336019321688e-22 1.8014653085580742e-14 1.7608739655535558e-14 4.0591343004518506e-16
6.375842739491607 9.73076821889251e-23 1.6468504306966872e-14 1.6065440125088798e-14 4.0306418187807037e-16
6.399797922933955 8.980304101442568e-23 1.525551023691634e-14 1.4853349774966992e-14 4.0216046194935204e-16
6.42384311029221 8.357994012961355e-23 1.4251691551620698e-14 1.3850047266246082e-14 4.016442853746165e-16
6.447978639727206 7.916856693920563e-23 1.3550203164461117e-14 1.3147543405762593e-14 4.026597586985207e-16
6.472204850670314 7.553162338960709e-23 1.2976288921088525e-14 1.2572301386163444e-14 4.0398753492508423e-16
6.496522083828205 7.331157189600474e-23 1.2642206607854622e-14 1.2235636780933727e-14 4.065698269208912e-16
6.520930681187647 7.149048103213475e-23 1.2374487916609287e-14 1.1965129647528664e-14 4.093582690806246e-16
