Dust emission spectrum from A.P. Jones, M. Kohler, N. Ysard, M. Bocchio, and L. Verstraete (2017), A&A, 602A, 46J 
inside the DustPedia framework.

lambda    nu*dP/dnu     j_nu    j_nu(carb.) j_nu(sil)
 (um)   (erg s-1 H-1) (Jy cm2 sr-1 H-1)
0.9927057738263894 2.5589271773140543e-22 6.742918456384594e-15 6.742918342257204e-15 1.1412739090535058e-22
1.0001793341362166 2.6020045863409815e-22 6.908048334820275e-15 6.908048197454705e-15 1.373655698630518e-22
1.0077091589558085 2.645232785944158e-22 7.075685737820552e-15 7.075685572704273e-15 1.6511627882504032e-22
1.0114953028030835 2.6669011054480176e-22 7.160448322868394e-15 7.160448141930495e-15 1.8093789783812594e-22
1.0152956718711033 2.688604361558065e-22 7.245842116022549e-15 7.245841917812886e-15 1.9820966061795398e-22
1.0229392996569957 2.7320910322360727e-22 7.418472013663243e-15 7.418471776040648e-15 2.3762259548134273e-22
1.0267826658714554 2.7538248273603044e-22 7.505580242793356e-15 7.505579982736563e-15 2.600567937664635e-22
1.0306404723013447 2.775589007001738e-22 7.593321436770922e-15 7.59332115225649e-15 2.845144325477932e-22
1.03451277320114 2.797382753514213e-22 7.68169718929904e-15 7.68169687813024e-15 3.1116879952237707e-22
1.0383996230291617 2.8192052683714715e-22 7.770709134123956e-15 7.770708793916783e-15 3.40207173650944e-22
1.0403485208654093 2.8301270697427284e-22 7.815454200679239e-15 7.815453844996269e-15 3.5568297212806665e-22
1.0423010764483396 2.841055772673557e-22 7.860358947217857e-15 7.860358575385979e-15 3.7183188088490954e-22
1.0462171883269815 2.8629335076496075e-22 7.950648348992557e-15 7.950647942731133e-15 4.0626142348733937e-22
1.0471985131304309 2.8684071092249752e-22 7.973320841190994e-15 7.973320425856688e-15 4.153343075270284e-22
1.048180758391296 2.873882355151395e-22 7.99603344596701e-15 7.996033021366e-15 4.246010087130708e-22
1.0501480137395462 2.8848377351567874e-22 8.041579106543588e-15 8.041578662811897e-15 4.437316876106196e-22
1.0521189612883777 2.8957995587022467e-22 8.08728555927667e-15 8.087285095590794e-15 4.636858739313108e-22
1.0531058218030118 2.9012755041020834e-22 8.110178594201228e-15 8.11017812021829e-15 4.739829401154783e-22
1.0540936079674168 2.906728930423814e-22 8.13304445161042e-15 8.133043967109484e-15 4.845009376226839e-22
1.058054026499678 2.928557222137227e-22 8.224906916155122e-15 8.224906387305239e-15 5.288498827060462e-22
1.0590464539527713 2.934017889637787e-22 8.247972437636628e-15 8.247971897107121e-15 5.405295073918771e-22
1.06003981227728 2.9394799744638117e-22 8.27107798066704e-15 8.271077428211382e-15 5.524556568106608e-22
1.0620293250338977 2.9504083558016073e-22 8.317409251974944e-15 8.317408674907544e-15 5.77067398782867e-22
1.0660195594769086 2.972281688260004e-22 8.410553392544402e-15 8.410552763071333e-15 6.294730692744461e-22
1.070024785945596 2.9941765996717615e-22 8.504341330292776e-15 8.50434064388148e-15 6.8641129461929385e-22
1.0740450607676866 3.0160924939801946e-22 8.59877511902595e-15 8.598774370772863e-15 7.482530868227465e-22
1.07808044048254 3.038028799374741e-22 8.693856876375102e-15 8.69385606097712e-15 8.153979833192984e-22
1.0861967418109137 3.0819264816158266e-22 8.885875076181213e-15 8.885874108830861e-15 9.673503541816965e-22
1.0902777775684922 3.1038095336202853e-22 8.982591629581784e-15 8.982590576462925e-15 1.053118859410172e-21
1.0943741465085532 3.125709616968523e-22 9.079958984109264e-15 9.079957837992466e-15 1.1461167969945923e-21
1.1026131145906286 3.169559155841043e-22 9.27665592021911e-15 9.276654564072891e-15 1.3561462208390802e-21
1.1109141095355224 3.2134719281563783e-22 9.475986343603598e-15 9.47598474102702e-15 1.6025765768130731e-21
1.1192775983109025 3.2574103105425605e-22 9.677868381746844e-15 9.677866490414231e-15 1.8913326132300806e-21
1.1277040513999907 3.301211614068715e-22 9.88184273653298e-15 9.881840507296116e-15 2.229236865336491e-21
1.1361939428280308 3.345064174506498e-22 1.0088494388787768e-14 1.0088491764653025e-14 2.624134742563995e-21
1.1447477501889525 3.388966735728378e-22 1.0297849436488045e-14 1.0297846351452216e-14 3.085035825662564e-21
1.1533659546722406 3.4329348599607943e-22 1.050998565977645e-14 1.0509982037498692e-14 3.6222777597368845e-21
1.1707974979042381 3.521200919707977e-22 1.094314176241767e-14 1.0943136787530134e-14 4.974887538141187e-21
1.1884924949847024 3.6097238052791805e-22 1.1387800498770519e-14 1.1387793700377163e-14 6.798393358216335e-21
1.2064549276569216 3.6991073407084685e-22 1.1846156573175505e-14 1.1846147328705284e-14 9.244470220382923e-21
1.2246888378427687 3.7887401476106105e-22 1.2316576613196626e-14 1.2316564104085528e-14 1.2509111096097792e-20
1.2431983285522175 3.878537457356341e-22 1.27990530942551e-14 1.2799036249570902e-14 1.684468419798214e-20
1.2619875648066055 3.9686161973976703e-22 1.3294242888458638e-14 1.3294220313965405e-14 2.2574493232119543e-20
1.3004222497298317 4.1489896158415375e-22 1.4321752769931726e-14 1.4321712796186366e-14 3.997374536156247e-20
1.3400274889804893 4.330302656904407e-22 1.54028608490142e-14 1.5402791362194818e-14 6.948681937557859e-20
1.3808389325824078 4.513120482778127e-22 1.654205209235848e-14 1.654193345969083e-14 1.1863266765182857e-19
1.4228933163050095 4.698925405212518e-22 1.7747628247524024e-14 1.7747429228198365e-14 1.990193256558677e-19
1.466228494730424 4.891001918390534e-22 1.9035703059379877e-14 1.9035374818762416e-14 3.2824061746337753e-19
1.5108834753276823 5.0887772986906305e-22 2.0408629875213166e-14 2.0408097415542106e-14 5.324596710653024e-19
1.5568984535646726 5.291906291966517e-22 2.186965165256842e-14 2.1868801228082938e-14 8.504244854804968e-19
1.6043148490894465 5.501498928279044e-22 2.3428261829488786e-14 2.342692200172233e-14 1.3398277664629618e-18
1.6531753430134553 5.718714372571548e-22 2.5094974459577992e-14 2.5092894698767177e-14 2.0797608108159344e-18
1.7035239163302658 5.944934834562807e-22 2.6882197449530014e-14 2.687901595896118e-14 3.1814905688334084e-18
1.755405889504358 6.184512946992235e-22 2.88172468817479e-14 2.881244825257785e-14 4.798629170055486e-18
1.8088679632656115 6.437128863963479e-22 3.090782918539282e-14 3.090069037495813e-14 7.138810434690832e-18
1.8639582606462262 6.702315883434309e-22 3.316122066629375e-14 3.3150741466245366e-14 1.0479200048388772e-17
1.9207263702978936 6.980516450292652e-22 3.558954919547748e-14 3.557436519168917e-14 1.5184003788313435e-17
1.979223391128241 7.272530472977067e-22 3.820760345124123e-14 3.8185878111190964e-14 2.1725340050269913e-17
2.039501978296691 7.578916892856394e-22 4.1029923645619704e-14 4.0999217721975817e-14 3.0705923643892506e-17
2.1016163906111602 7.902520232919318e-22 4.4084761579253395e-14 4.404187408987218e-14 4.2887489381214087e-17
2.1656225393682647 8.244243675291406e-22 4.7391779438176496e-14 4.733256337723914e-14 5.921606093736938e-17
2.231578038680979 8.602265354951633e-22 5.0955884788295154e-14 5.0875034405429746e-14 8.085038286540869e-17
2.299542257339062 8.97590573231129e-22 5.4788462175174155e-14 5.467927060086241e-14 1.0919157431175465e-16
2.369576372248914 9.3653315381079e-22 5.890651093897175e-14 5.876059630085197e-14 1.4591463811980295e-16
2.4417434235010123 9.770902933133825e-22 6.332922285816349e-14 6.313623069463499e-14 1.9299216352851602e-16
2.5161083711144245 1.019478255689391e-21 6.808896660686446e-14 6.783624099369398e-14 2.5272561317047366e-16
2.5927381535095444 1.0641594443621917e-21 7.323771658994345e-14 7.290995263493426e-14 3.277639550091931e-16
2.6717017477616296 1.1115351377377554e-21 7.882801739270655e-14 7.840691819298864e-14 4.210991997179157e-16
2.753070231689431 1.1622823659232086e-21 8.493728452689162e-14 8.44012139454461e-14 5.36070581445521e-16
2.836916847834745 1.2184634000714072e-21 9.175474403344912e-14 9.107836364705933e-14 6.763803863898135e-16
2.9233170693905177 1.2848330799381037e-21 9.969928990813194e-14 9.885338233330616e-14 8.459075748258017e-16
2.967498994190263 1.326629656208793e-21 1.0449841782806412e-13 1.0355729915570822e-13 9.411186723558785e-16
3.0123486681368425 1.3716427542377605e-21 1.0967703092219988e-13 1.0863135918448149e-13 1.0456717377184077e-15
3.0578761833420214 1.4486522698636426e-21 1.175854216045164e-13 1.1642476048593857e-13 1.1606611185778037e-15
3.1040917844459814 1.539991511669234e-21 1.2688851490508218e-13 1.2560276293225233e-13 1.2857519728298842e-15
3.127460860933648 1.6267392344225742e-21 1.3504523275157251e-13 1.3369252108003404e-13 1.352711671538427e-15
3.1510058709225794 1.7378279182560587e-21 1.453534737558007e-13 1.4393097850366917e-13 1.4224952521314728e-15
3.162844764501044 1.8389996395370006e-21 1.543934792074847e-13 1.5293487558739292e-13 1.4586036200918358e-15
3.1747281389236908 1.953934190422388e-21 1.6465916424239424e-13 1.6316372145855468e-13 1.4954427838395702e-15
3.1986289994194426 2.266646336973791e-21 1.9244962366448763e-13 1.9087808203161943e-13 1.5715416328681783e-15
3.2227097969389145 2.9934931486183168e-21 2.560760138592014e-13 2.544238476316035e-13 1.6521662275979139e-15
3.2348180950136065 3.676763742403507e-21 3.157075886919235e-13 3.1401239976580733e-13 1.695188926116231e-15
3.240889293275058 4.187362823006572e-21 3.6022530853538915e-13 3.5850742619884303e-13 1.7178823365460153e-15
3.2469718861334385 4.779069499277973e-21 4.1189954064070954e-13 4.1015817725767114e-13 1.7413633830384486e-15
3.2714166318528037 7.891214676930465e-21 6.852501648304692e-13 6.834117758153227e-13 1.8383890151464655e-15
3.2744851364798273 8.085819774065509e-21 7.028077040877406e-13 7.009578832670165e-13 1.8498208207239526e-15
3.2775565192852394 8.285684950727614e-21 7.208552048136864e-13 7.18993895278761e-13 1.8613095349252767e-15
3.283707930232385 8.094017023024266e-21 7.055017060271098e-13 7.036198557186578e-13 1.8818503084521113e-15
3.2898708863219004 7.484389311021711e-21 6.535888835164782e-13 6.516883443265718e-13 1.9005391899064427e-15
3.29141343181113 7.34034400121158e-21 6.413104010052999e-13 6.394051690548323e-13 1.9052319504674924e-15
3.292184975758714 7.269523323100534e-21 6.352718273537002e-13 6.333642459382983e-13 1.9075814154020764e-15
3.295272960557952 6.827168328731692e-21 5.971747530512997e-13 5.952580334871176e-13 1.9167195641821557e-15
3.3076538914384823 5.2843487661468105e-21 4.639604548795441e-13 4.620070343626422e-13 1.9534205169019827e-15
3.310756385682612 4.967432132187549e-21 4.3654458015239595e-13 4.3458190933224934e-13 1.9626708201465316e-15
3.313861789986515 4.673888063023797e-21 4.111328053323848e-13 4.0916085413151445e-13 1.97195120087034e-15
3.3200813396944477 4.263674789627774e-21 3.7575280251519496e-13 3.7376088816347743e-13 1.991914351717494e-15
3.345076488085796 3.54505416766195e-21 3.1477364367812976e-13 3.1269276065631926e-13 2.080883021810334e-15
3.3482140837626964 3.573918424571427e-21 3.176342220356879e-13 3.15541286654566e-13 2.0929353811219484e-15
3.3513546224236106 3.603053064762178e-21 3.2052394277673713e-13 3.1841890098039956e-13 2.1050417963375753e-15
3.3576445397418455 3.808744402894538e-21 3.394579461933552e-13 3.37327592034301e-13 2.1303541590542347e-15
3.3702598118196083 4.555744980153632e-21 4.0756062548889584e-13 4.0537717811948077e-13 2.183447369415012e-15
3.382922481734668 4.7331493400135414e-21 4.250222702974563e-13 4.2278721784609906e-13 2.235052451357189e-15
3.389271646505754 4.824669889985758e-21 4.340536526413112e-13 4.3179244361132933e-13 2.2612090299817033e-15
3.395632727569191 4.9251119265745975e-21 4.4392157060955855e-13 4.4163340559545593e-13 2.288165014102577e-15
3.421196662673239 5.411923779027922e-21 4.914724116919552e-13 4.890726622903724e-13 2.39974940158295e-15
3.4276182099114902 5.32300991014425e-21 4.843052190808432e-13 4.818805683983923e-13 2.424650682450807e-15
3.4340518103208963 4.920583097083359e-21 4.4853139470254523e-13 4.4608319206728606e-13 2.4482026352590585e-15
3.4469541582030403 4.343624421131118e-21 3.9742685218266933e-13 3.9493344525365283e-13 2.4934069290165127e-15
3.472904465399547 4.1835909966238854e-21 3.8566612068117546e-13 3.8306858233687674e-13 2.5975383442988335e-15
3.4990501388274233 3.940984654547763e-21 3.6603645658080095e-13 3.633323617140372e-13 2.704094866763805e-15
3.5253949054701885 3.0792596720153048e-21 2.8815324842300353e-13 2.8534563802976667e-13 2.807610393236888e-15
3.5519380250092896 2.2597601882316287e-21 2.1305766627130144e-13 2.1014601690883726e-13 2.9116493624641305e-15
3.578680990867387 1.939586727253384e-21 1.8424750817575876e-13 1.812218302711564e-13 3.0256779046023517e-15
3.605625307711299 1.8158719898162608e-21 1.7379419091291111e-13 1.7064842378413854e-13 3.1457671287726204e-15
3.660119384959845 1.736827838925906e-21 1.6874132541064313e-13 1.6534328432576292e-13 3.3980410848802033e-15
3.715437065384467 1.6833416276683965e-21 1.6601663454349148e-13 1.623526874784512e-13 3.663947065040364e-15
3.8285932144167436 1.6782434417006466e-21 1.7055467063407728e-13 1.6631938530549849e-13 4.2352853285788106e-15
3.94519561050918 1.698401304648598e-21 1.7786000044465922e-13 1.730019552599189e-13 4.858045184740304e-15
4.06534921144712 1.7271748099165385e-21 1.863818360408647e-13 1.8085043223931415e-13 5.531403801550498e-15
4.189162171576248 1.7596669433917004e-21 1.9567127811119861e-13 1.8941479755838933e-13 6.256480552809213e-15
4.316745939156006 1.7938600009779017e-21 2.0554857408419144e-13 1.9851816782055257e-13 7.03040626363891e-15
4.448215356677963 1.8289056862077588e-21 2.1594668834979617e-13 2.0810444605724269e-13 7.842242292553468e-15
4.58368876423945 1.864699072797556e-21 2.2687848265061948e-13 2.181857276075754e-13 8.69275504304404e-15
4.723288106065518 1.9016517303840575e-21 2.3842119094335633e-13 2.2883416848181226e-13 9.587022461544086e-15
4.867139040275056 1.9404400652798874e-21 2.5069369943324197e-13 2.4019269423685496e-13 1.0501005196387074e-14
4.940699165968905 1.9619304531827624e-21 2.573009871347322e-13 2.463328921913034e-13 1.096809494342873e-14
5.015371051989984 1.982894672238383e-21 2.6398068281008484e-13 2.525402552382566e-13 1.1440427571828315e-14
5.091171501069577 2.007702650899297e-21 2.713229637656326e-13 2.5939474155041677e-13 1.1928222215215763e-14
5.129500256944802 2.0198884998788763e-21 2.7502481772494665e-13 2.6285124261509255e-13 1.2173575109854026e-14
5.168117569889187 2.0323166277094077e-21 2.7880026894381476e-13 2.663779804671183e-13 1.2422288476696533e-14
5.20702561229733 2.0479496576116276e-21 2.8305994869089316e-13 2.703659973723897e-13 1.2693951318503502e-14
5.246226572918644 2.0635596584896527e-21 2.87364757449228e-13 2.7439747092923345e-13 1.2967286519994571e-14
5.265937586045735 2.0713580205488478e-21 2.895344936364496e-13 2.7642994821903126e-13 1.3104545417418373e-14
5.285722656980489 2.079153084258612e-21 2.9171601466872187e-13 2.7847383554687054e-13 1.3242179121851342e-14
5.305582063971359 2.086945734657545e-21 2.939095013760871e-13 2.805293284525655e-13 1.3380172923521654e-14
5.3255160863122235 2.095361044278655e-21 2.9620337278938725e-13 2.826837466482975e-13 1.3519626141089786e-14
5.365609099470188 2.117039421473664e-21 3.015208911493363e-13 2.8771272827719543e-13 1.3808162872140791e-14
5.406003951863644 2.1390105037619733e-21 3.0694368950983014e-13 2.92845295516018e-13 1.4098393993812246e-14
5.446702915881641 2.161300706279073e-21 3.1247718695145176e-13 2.980869848536629e-13 1.4390202097788887e-14
5.487708281020852 2.1851335158996132e-21 3.1830131162395456e-13 3.036165735115239e-13 1.4684738112430816e-14
5.529022354014368 2.220011107274538e-21 3.2581638906333153e-13 3.1082461446481686e-13 1.4991774598514622e-14
5.570647458961463 2.2561455435130804e-21 3.33612427508936e-13 3.1831186517539467e-13 1.5300562333541342e-14
5.612585937458331 2.2936460573806496e-21 3.4171090425054733e-13 3.260999224394179e-13 1.5610981811129413e-14
5.654840148729818 2.3344401328032208e-21 3.504067848026093e-13 3.344823076006269e-13 1.5924477201982482e-14
5.67608639626678 2.3634733196140778e-21 3.5609767194277796e-13 3.4000910385935374e-13 1.6088568083424215e-14
5.686739436050992 2.378320550426994e-21 3.590071938040672e-13 3.4283639716368025e-13 1.6170796640386896e-14
5.6974124697621304 2.393395664606034e-21 3.6196084618990426e-13 3.4570770142335805e-13 1.6253144766546292e-14
5.718818669136295 2.4242527776712407e-21 3.680049507101496e-13 3.5158675855913674e-13 1.6418192151012818e-14
5.740305295436557 2.458356299718768e-21 3.7458402419686024e-13 3.579990680663516e-13 1.6584956130508714e-14
5.7835210386641895 2.548650825719124e-21 3.9126598375660566e-13 3.7433634784557064e-13 1.6929635911035037e-14
5.827062130521658 2.651215661413686e-21 4.100757976843112e-13 3.927962836307825e-13 1.727951405352875e-14
5.8489554468988025 2.7252215510647222e-21 4.2310636722158856e-13 4.056376584757082e-13 1.746870874588035e-14
5.870931020387893 2.8036978445671437e-21 4.3692572801509524e-13 4.1926703797262527e-13 1.7658690042470043e-14
5.892989160043636 2.8869975290056247e-21 4.515974567368955e-13 4.3374801315991227e-13 1.7849443576983178e-14
5.915130176081913 2.9816488034744043e-21 4.681556057925163e-13 4.501083467680823e-13 1.8047259024433923e-14
5.95966208400165 3.2499800268605835e-21 5.141285967105793e-13 4.956289334034188e-13 1.8499663307160617e-14
6.004529249263818 3.636568613382123e-21 5.796157576319793e-13 5.606060748277303e-13 1.900968280424882e-14
6.027089341400364 3.906263258120241e-21 6.249403567071718e-13 6.056351541623545e-13 1.930520254481736e-14
6.049734195844842 4.222676996397885e-21 6.780997575791841e-13 6.584813424126138e-13 1.9618415166570183e-14
6.095279466722835 5.1377261455588634e-21 8.312544958994342e-13 8.108633412206842e-13 2.039115467874962e-14
6.141167624020661 6.537100403713446e-21 1.0656277957927384e-12 1.0442301815746987e-12 2.1397614218039472e-14
6.164241091010745 7.42976564378345e-21 1.2156936949709345e-12 1.1936626845853299e-12 2.203101038560433e-14
6.187401249150058 8.435497970446238e-21 1.3854422862852076e-12 1.3627611537007404e-12 2.2681132584466867e-14
6.1990139391386085 8.924377544490736e-21 1.4684865756640947e-12 1.445474694900911e-12 2.3011880763183505e-14
6.204828454712694 9.18095999121931e-21 1.512123653433509e-12 1.4889447448895714e-12 2.31789085439379e-14
6.210648424152782 9.36664185754829e-21 1.5441528704615107e-12 1.5208320406460933e-12 2.3320829815417028e-14
6.233982942956859 9.989622684138616e-21 1.6530429114463741e-12 1.6292289138291006e-12 2.3813997617273313e-14
6.239830258556775 1.0064741474239228e-20 1.6670354402442378e-12 1.64315423935132e-12 2.388120089291744e-14
6.245683058788269 1.0064000853569176e-20 1.6684762916256841e-12 1.6445277909160564e-12 2.3948500709627634e-14
6.257405133728602 1.0030218657577222e-20 1.6659965890085745e-12 1.6419310111095936e-12 2.4065577898981056e-14
6.269149208991335 9.886794776274031e-21 1.6452562864290908e-12 1.6211511667258687e-12 2.4105119703221723e-14
6.280915325867298 9.551799764452124e-21 1.5924931811002509e-12 1.5684443569847466e-12 2.4048824115504682e-14
6.304513850009849 8.735979800269013e-21 1.4619504636648043e-12 1.4381008892458255e-12 2.3849574418978572e-14
6.32820103803542 7.739820338354688e-21 1.3001114417715692e-12 1.2765533147228408e-12 2.3558127048728316e-14
6.3519772230701035 6.830276878890204e-21 1.1516398232810529e-12 1.128343758971581e-12 2.3296064309472005e-14
6.375842739491607 6.0632821877414014e-21 1.026159359435851e-12 1.0030951953394547e-12 2.306416409639654e-14
6.399797922933955 5.452785394641152e-21 9.263051948796857e-13 9.033636801047309e-13 2.294151477495478e-14
6.42384311029221 4.94310703474117e-21 8.428773298536617e-13 8.200366768439629e-13 2.2840653009698798e-14
6.447978639727206 4.571876859158628e-21 7.825057681297902e-13 7.596808494849118e-13 2.2824918644878198e-14
6.472204850670314 4.2610728747673985e-21 7.320498389341276e-13 7.092237906746115e-13 2.28260482595159e-14
6.496522083828205 4.0572978587471945e-21 6.996603192828759e-13 6.767642277568509e-13 2.2896091526025246e-14
