Dust emission spectrum from A.P. Jones, M. Kohler, N. Ysard, M. Bocchio, and L. Verstraete (2017), A&A, 602A, 46J 
inside the DustPedia framework.

lambda    nu*dP/dnu     j_nu    j_nu(carb.) j_nu(sil)
 (um)   (erg s-1 H-1) (Jy cm2 sr-1 H-1)
0.9927057738263894 7.238369921222207e-25 1.907351587362433e-17 1.9073515868024527e-17 5.599804648774538e-27
1.0001793341362166 7.357617203020374e-25 1.953369933872563e-17 1.953369933198125e-17 6.744388681741487e-27
1.0077091589558085 7.476705871820899e-25 1.9999306444494947e-17 1.9999306436382545e-17 8.112399337848998e-27
1.0114953028030835 7.536176376171647e-25 2.0234121686538296e-17 2.0234121677645443e-17 8.892850798367178e-27
1.0152956718711033 7.595590056103472e-25 2.0470265953396944e-17 2.0470265943651742e-17 9.745212843240178e-27
1.0229392996569957 7.714165782198427e-25 2.0946345597115815e-17 2.0946345585424243e-17 1.169157294089063e-26
1.0267826658714554 7.773183900058837e-25 2.1185899307838442e-17 2.1185899295038243e-17 1.2800197326442504e-26
1.0306404723013447 7.832119635901564e-25 2.142673204736776e-17 2.1426732033358382e-17 1.400937404514613e-26
1.03451277320114 7.890967439857838e-25 2.1668833958262345e-17 2.1668833942934568e-17 1.5327774056815772e-26
1.0383996230291617 7.949721794959718e-25 2.1912195063938144e-17 2.1912195047173368e-17 1.6764774318153295e-26
1.0403485208654093 7.979062214404273e-25 2.2034344665208154e-17 2.2034344647677267e-17 1.7530886055304732e-26
1.0423010764483396 8.008377218236064e-25 2.215680527130941e-17 2.21568052529789e-17 1.8330511602605043e-26
1.0462171883269815 8.066928261785466e-25 2.2402654373437073e-17 2.2402654353401134e-17 2.0035940119886015e-26
1.0471985131304309 8.081549078338884e-25 2.246430901952327e-17 2.246430899903779e-17 2.048549048061893e-26
1.048180758391296 8.096162948541596e-25 2.2526040289887626e-17 2.252604026894293e-17 2.094470038713352e-26
1.0501480137395462 8.125369513826066e-25 2.264973205218377e-17 2.264973203029088e-17 2.189289317986297e-26
1.0521189612883777 8.154547286978287e-25 2.27737283536202e-17 2.2773728330738057e-17 2.2882145843095226e-26
1.0531058218030118 8.169102782575884e-25 2.2835777721695985e-17 2.2835777698303248e-17 2.3392728742114187e-26
1.0540936079674168 8.183577490214345e-25 2.2897697409784728e-17 2.2897697385870398e-17 2.3914328589862613e-26
1.058054026499678 8.241397157296489e-25 2.3146115761521834e-17 2.31461157354075e-17 2.611433601203344e-26
1.0590464539527713 8.255831872046472e-25 2.320840441051561e-17 2.3208404383821705e-17 2.669390341031494e-26
1.06003981227728 8.270258342085551e-25 2.3270766347074435e-17 2.327076631978866e-17 2.728577813338626e-26
1.0620293250338977 8.299086221515382e-25 2.339570940613597e-17 2.339570937762853e-17 2.850744880706509e-26
1.0660195594769086 8.356639461318427e-25 2.3646467509883587e-17 2.3646467478773843e-17 3.1109740384223817e-26
1.070024785945596 8.414051697193467e-25 2.3898379144205063e-17 2.3898379110266526e-17 3.393854375838614e-26
1.0740450607676866 8.471317792564039e-25 2.415143328841819e-17 2.4151433251405644e-17 3.701254365202766e-26
1.07808044048254 8.528432654661189e-25 2.440561883241133e-17 2.4405618792059458e-17 4.035187480626219e-26
1.0861967418109137 8.642087677843616e-25 2.491704846329162e-17 2.4917048415376653e-17 4.7914962541765064e-26
1.0902777775684922 8.698388546546308e-25 2.517360401877537e-17 2.5173603966588133e-17 5.218723415999638e-26
1.0943741465085532 8.754514271922239e-25 2.5431226907107023e-17 2.5431226850284934e-17 5.6822084964957e-26
1.1026131145906286 8.866221011837616e-25 2.5949628196041584e-17 2.5949628128743447e-17 6.729813679992533e-26
1.1109141095355224 8.977169833689041e-25 2.6472158665176873e-17 2.647215858557368e-17 7.960320528155761e-26
1.1192775983109025 9.087220640248594e-25 2.6998418046258012e-17 2.6998417952220393e-17 9.403762572670105e-26
1.1277040513999907 9.195864616111092e-25 2.7526889695768088e-17 2.7526889584820358e-17 1.1094773930701493e-25
1.1361939428280308 9.303626803908007e-25 2.8059128886652424e-17 2.805912875592006e-17 1.3073235985201382e-25
1.1447477501889525 9.410472772751183e-25 2.859503774950269e-17 2.859503759565253e-17 1.538501475949137e-25
1.1533659546722406 9.51642669813932e-25 2.913469442612733e-17 2.91346942452992e-17 1.8082813520441072e-25
1.1707974979042381 9.726002705016137e-25 3.022634288970824e-17 3.0226342640835435e-17 2.4887278657578245e-25
1.1884924949847024 9.931579522514293e-25 3.1331717422441465e-17 3.133171708161651e-17 3.408249421483078e-25
1.2064549276569216 1.0134766056187631e-24 3.245594530682341e-17 3.245594484235302e-17 4.644703995550897e-25
1.2246888378427687 1.0333372322814138e-24 3.359210896711682e-17 3.359210833721596e-17 6.299008589178929e-25
1.2431983285522175 1.0526947611876793e-24 3.473860002287822e-17 3.473859917272644e-17 8.501517768022476e-25
1.2619875648066055 1.0715437735906946e-24 3.5895038681420723e-17 3.589503753944574e-17 1.1419749808052892e-24
1.3004222497298317 1.1074118385703323e-24 3.8226363608969767e-17 3.8226361577208265e-17 2.0317614980869272e-24
1.3400274889804893 1.1408155054667595e-24 4.057873981876319e-17 4.0578736269633045e-17 3.5491301579180326e-24
1.3808389325824078 1.1716469901569195e-24 4.2944666819752643e-17 4.2944660729925354e-17 6.0898272808021444e-24
1.4228933163050095 1.2000680914860626e-24 4.532602781006912e-17 4.532601754090917e-17 1.0269159926968758e-23
1.466228494730424 1.2267599723822252e-24 4.7745306481264984e-17 4.774528945467082e-17 1.7026594170485733e-23
1.5108834753276823 1.2512401301764404e-24 5.018120307279922e-17 5.018117530289799e-17 2.776990121682447e-23
1.5568984535646726 1.273122113013994e-24 5.261381359882564e-17 5.261376899964825e-17 4.459917737829275e-23
1.6043148490894465 1.292463097216157e-24 5.5039843215972876e-17 5.5039772554453035e-17 7.06615198556523e-23
1.6531753430134553 1.3093383177260552e-24 5.745664060418342e-17 5.745653028703326e-17 1.1031715013880395e-22
1.7035239163302658 1.323948343186976e-24 5.986716720192235e-17 5.986699745131005e-17 1.697506122995868e-22
1.755405889504358 1.337356816434636e-24 6.231524111680982e-17 6.231498354064604e-17 2.57576163783543e-22
1.8088679632656115 1.3493281410940596e-24 6.478789625208816e-17 6.47875107022881e-17 3.8554980007716986e-22
1.8639582606462262 1.3597068673685241e-24 6.727456636552688e-17 6.727399684573123e-17 5.69519795636103e-22
1.9207263702978936 1.3686381624356193e-24 6.97788130142839e-17 6.97779824844344e-17 8.30529849517847e-22
1.979223391128241 1.3764340907084942e-24 7.231354768463654e-17 7.231235152795018e-17 1.1961566863604267e-21
2.039501978296691 1.3834610595405716e-24 7.489632416096392e-17 7.489462214653476e-17 1.702014429151872e-21
2.1016163906111602 1.3907218847838868e-24 7.758239258705295e-17 7.757999893443436e-17 2.3936526186212585e-21
2.1656225393682647 1.3988007767006436e-24 8.04096294315363e-17 8.040630105512696e-17 3.328376409333404e-21
2.231578038680979 1.4077414102741958e-24 8.33881613200333e-17 8.338358397524966e-17 4.577344783654083e-21
2.299542257339062 1.4178900875359199e-24 8.654727416518058e-17 8.654104630338735e-17 6.227861793229771e-21
2.369576372248914 1.4300011818835939e-24 8.994489935632003e-17 8.993651344024273e-17 8.385916077268644e-21
2.4417434235010123 1.4449623704086888e-24 9.365392799775013e-17 9.364274956961609e-17 1.1178428134040906e-20
2.5161083711144245 1.4642940714579044e-24 9.779734837670104e-17 9.77825922728234e-17 1.475610387762545e-20
2.5927381535095444 1.490481352934544e-24 1.0257809718941202e-16 1.0255880143095485e-16 1.92957584571999e-20
2.6717017477616296 1.5264662310464594e-24 1.0825416356626106e-16 1.0822916214370162e-16 2.500142255943173e-20
2.753070231689431 1.5766725794958655e-24 1.1522009747090694e-16 1.1518799129415819e-16 3.2106176748735486e-20
2.836916847834745 1.6511600534071098e-24 1.2433838230163246e-16 1.2429750748713575e-16 4.087481449669365e-20
2.9233170693905177 1.7720879926634727e-24 1.3750884631004866e-16 1.3745725054017433e-16 5.159576987430467e-20
2.967498994190263 1.8718537612282688e-24 1.474456383048619e-16 1.4738794732108183e-16 5.769098378002455e-20
3.0123486681368425 1.9876716632993563e-24 1.5893491640249318e-16 1.5887049605584508e-16 6.442034664809774e-20
3.0578761833420214 2.2413463027401943e-24 1.8192747524858875e-16 1.818556163547287e-16 7.185889386006458e-20
3.1040917844459814 2.5667313099759147e-24 2.1148735016740328e-16 2.1140734542273784e-16 8.000474466543421e-20
3.127460860933648 2.9084632605328925e-24 2.414487151085899e-16 2.4136432856365745e-16 8.438654493250345e-20
3.1510058709225794 3.362845620137727e-24 2.812714006125642e-16 2.811824317157071e-16 8.896889685706403e-20
3.162844764501044 3.785043608721061e-24 3.177738805047439e-16 3.1768253446065427e-16 9.134604408958713e-20
3.1747281389236908 4.275556759950634e-24 3.6030364083664585e-16 3.602098652589962e-16 9.377557764957233e-20
3.1986289994194426 5.6422373580154484e-24 4.790542037649791e-16 4.789553963586579e-16 9.880740632134788e-20
3.2227097969389145 8.860926474578038e-24 7.580009768042152e-16 7.578968217107204e-16 1.041550934947433e-19
3.2348180950136065 1.1911933588647694e-23 1.0228255317465478e-15 1.0227185187068208e-15 1.0701303972698038e-19
3.240889293275058 1.419281409147484e-23 1.2209619875776687e-15 1.2208534669261696e-15 1.0852065149933453e-19
3.2469718861334385 1.6831624130705104e-23 1.4506878899170541e-15 1.4505778092122729e-15 1.1008070478164804e-19
3.2714166318528037 3.090025403777959e-23 2.6832883199330586e-15 2.6831717793124914e-15 1.165406205665198e-19
3.2744851364798273 3.177989546042772e-23 2.7622623294584774e-15 2.7621450239561412e-15 1.1730550233665923e-19
3.2775565192852394 3.268474761675687e-23 2.843575465114914e-15 2.8434573905650957e-15 1.1807454981786946e-19
3.283707930232385 3.1815411559124253e-23 2.773138117830407e-15 2.7730186607530404e-15 1.194570773662972e-19
3.2898708863219004 2.9057020127390975e-23 2.53746091420046e-15 2.537340192269759e-15 1.207219307011397e-19
3.29141343181113 2.8406475366873146e-23 2.4818139457319273e-15 2.481692906008684e-15 1.210397232429084e-19
3.292184975758714 2.808681362812235e-23 2.454460990775109e-15 2.4543397919182316e-15 1.211988568767642e-19
3.295272960557952 2.6069719685659152e-23 2.280327313724264e-15 2.280205494611379e-15 1.218191128849644e-19
3.3076538914384823 1.90801155061292e-23 1.6752147636600582e-15 1.6750904497844955e-15 1.2431387556246902e-19
3.310756385682612 1.765706194584601e-23 1.5517262216685214e-15 1.5516012782345504e-15 1.2494343397102307e-19
3.313861789986515 1.6343880290029378e-23 1.437669294396672e-15 1.4375437190484117e-15 1.2557534825980477e-19
3.3200813396944477 1.4502623226560328e-23 1.278099665213384e-15 1.2779727337207136e-15 1.2693149267032019e-19
3.345076488085796 1.1220951402479634e-23 9.96334496300014e-16 9.962015286775443e-16 1.3296762246955546e-19
3.3482140837626964 1.1344567740870004e-23 1.0082555113536247e-15 1.0081217262958715e-15 1.3378505775341768e-19
3.3513546224236106 1.1469542573003764e-23 1.020318863271436e-15 1.0201842567068179e-15 1.3460656461769008e-19
3.3576445397418455 1.2380736659436808e-23 1.1034448611409149e-15 1.1033085381420506e-15 1.3632299886442172e-19
3.3702598118196083 1.573909125580029e-23 1.408031815824875e-15 1.407891891625848e-15 1.3992419902676808e-19
3.382922481734668 1.6505866740296223e-23 1.4821761265550743e-15 1.4820326887993e-15 1.4343775577422677e-19
3.389271646505754 1.690304533302323e-23 1.5206902720513506e-15 1.5205450507311101e-15 1.4522132024059684e-19
3.395632727569191 1.7331315238177244e-23 1.5621461595111398e-15 1.5619990999803232e-15 1.4705953081624515e-19
3.421196662673239 1.9388301455369408e-23 1.7607075901192004e-15 1.7605529060172447e-15 1.5468410195606485e-19
3.4276182099114902 1.8976192810728447e-23 1.7265173974232016e-15 1.7263609972987597e-15 1.5640012444133872e-19
3.4340518103208963 1.7166431328364856e-23 1.5647908456908063e-15 1.564632815485219e-15 1.5803020558743583e-19
3.4469541582030403 1.4588501774530713e-23 1.3347982643497554e-15 1.3346370910352128e-15 1.611733145427208e-19
3.472904465399547 1.3867836055115837e-23 1.2784123825524839e-15 1.278243988525491e-15 1.6839402699231497e-19
3.4990501388274233 1.276495935037435e-23 1.1856023046466703e-15 1.185426487636552e-15 1.7581701011826702e-19
3.5253949054701885 8.83545766262429e-24 8.268110188715688e-16 8.266279370348345e-16 1.8308183673425556e-19
3.5519380250092896 5.140212789014543e-24 4.846362665687783e-16 4.84445839080655e-16 1.9042748812311457e-19
3.578680990867387 3.6765959003451965e-24 3.492515305912988e-16 3.4905304371508617e-16 1.9848687621264857e-19
3.605625307711299 3.086389319498827e-24 2.9539336342691446e-16 2.951863605220169e-16 2.0700290489750398e-19
3.660119384959845 2.659526437696798e-24 2.583860104056915e-16 2.5816099279826013e-16 2.250176074313925e-19
3.715437065384467 2.3585168758174012e-24 2.326046167940233e-16 2.3236042648543535e-16 2.4419030858797606e-19
3.8285932144167436 2.2140909541130346e-24 2.2501118970557336e-16 2.2472514887320813e-16 2.8604083236525456e-19
3.94519561050918 2.1953032182365548e-24 2.29896568203886e-16 2.295639004316497e-16 3.326677722362968e-19
4.06534921144712 2.2281139273224066e-24 2.404388729491946e-16 2.400545884695191e-16 3.8428447967539654e-19
4.189162171576248 2.2908017183700388e-24 2.5473235251485693e-16 2.542910870309757e-16 4.412654838812964e-19
4.316745939156006 2.375228869438723e-24 2.721644425822448e-16 2.7166071071114635e-16 5.037318710985221e-19
4.448215356677963 2.4786313131560275e-24 2.9266256196403315e-16 2.9209134627493223e-16 5.712156891008917e-19
4.58368876423945 2.6012866635560816e-24 3.164993106804476e-16 3.158551730646627e-16 6.44137615784924e-19
4.723288106065518 2.7457321795565987e-24 3.442484897742925e-16 3.4352519456273135e-16 7.232952115611641e-19
4.867139040275056 2.9170667432065218e-24 3.768682508844412e-16 3.760609626131658e-16 8.072882712751715e-19
4.940699165968905 3.019326375889426e-24 3.9597512528437905e-16 3.951236807734533e-16 8.514445109257371e-19
5.015371051989984 3.1248983444732724e-24 4.160144309404788e-16 4.151174417865028e-16 8.969891539760644e-19
5.091171501069577 3.2526984460746006e-24 4.3957295281227106e-16 4.3862813630713087e-16 9.448165051402073e-19
5.129500256944802 3.318148186435297e-24 4.517937996149058e-16 4.508245417608498e-16 9.692578540558923e-19
5.168117569889187 3.3862490148889666e-24 4.645374264963022e-16 4.635431885096873e-16 9.942379866148947e-19
5.20702561229733 3.469429293216141e-24 4.795315519961281e-16 4.785103210197418e-16 1.0212309763862666e-18
5.246226572918644 3.554602136994659e-24 4.950025925945866e-16 4.939539233283308e-16 1.0486692662557397e-18
5.265937586045735 3.597955424703553e-24 5.02922330028699e-16 5.01859774660263e-16 1.0625553684360576e-18
5.285722656980489 3.6418307890187614e-24 5.109678416244302e-16 5.098912888812961e-16 1.0765527431340217e-18
5.305582063971359 3.6862365809515514e-24 5.191414120020449e-16 5.180507506458011e-16 1.09066135624381e-18
5.3255160863122235 3.733880671248781e-24 5.278269591948702e-16 5.2672199187422e-16 1.1049673206502599e-18
5.365609099470188 3.852215516597056e-24 5.48654618181419e-16 5.47520031784661e-16 1.1345863967581431e-18
5.406003951863644 3.974862855513686e-24 5.703847961574651e-16 5.692200996103585e-16 1.1646965471063539e-18
5.446702915881641 4.102030732711691e-24 5.930646394656032e-16 5.918693410779529e-16 1.1952983876503818e-18
5.487708281020852 4.23922820348003e-24 6.175146221604815e-16 6.162881269916083e-16 1.2264951688732743e-18
5.529022354014368 4.429597765108397e-24 6.501028504323348e-16 6.488437571874485e-16 1.2590932448865307e-18
5.570647458961463 4.630867483680266e-24 6.847585463379102e-16 6.83466307416049e-16 1.2922389218610961e-18
5.612585937458331 4.8438212702761056e-24 7.216399151769345e-16 7.203139813505856e-16 1.325933826348899e-18
5.654840148729818 5.077598765147142e-24 7.621634981388007e-16 7.608031875968873e-16 1.3603105419132425e-18
5.67608639626678 5.236808534556375e-24 7.890147572599189e-16 7.87636478799261e-16 1.3782784606577157e-18
5.686739436050992 5.31882368630261e-24 8.028757795559899e-16 8.014884590909655e-16 1.3873204650248182e-18
5.6974124697621304 5.402496865486269e-24 8.170368008465495e-16 8.156403996173689e-16 1.3964012291807898e-18
5.718818669136295 5.574976762133551e-24 8.462892432075466e-16 8.448745639827575e-16 1.414679224789228e-18
5.740305295436557 5.7650344093304855e-24 8.784283177045674e-16 8.769950918773739e-16 1.4332258271935072e-18
5.7835210386641895 6.258076039532891e-24 9.607327348737908e-16 9.592610575485332e-16 1.4716773252578083e-18
5.827062130521658 6.825298781169709e-24 1.0557005538468702e-15 1.0541894667251972e-15 1.5110871216729752e-18
5.8489554468988025 7.22352101729442e-24 1.1214933094089754e-15 1.119961055036135e-15 1.5322543728399727e-18
5.870931020387893 7.65046787227777e-24 1.1922419711625988e-15 1.1906883412543805e-15 1.553629908218127e-18
5.892989160043636 8.108444347976776e-24 1.2683602285244052e-15 1.266785013775779e-15 1.575214748626459e-18
5.915130176081913 8.629142244312404e-24 1.3548816715598633e-15 1.3532841063840723e-15 1.5975651757910905e-18
5.95966208400165 1.0085583218193117e-23 1.5954826503922486e-15 1.5938348929803352e-15 1.6477574119135566e-18
6.004529249263818 1.2184066204419756e-23 1.941961644316398e-15 1.940257764329519e-15 1.7038799868791346e-18
6.027089341400364 1.3642899366000154e-23 2.1826481813750153e-15 2.1809122464661384e-15 1.7359349088768383e-18
6.049734195844842 1.536589024765717e-23 2.4675357506181556e-15 2.465765922292441e-15 1.76982832571506e-18
6.095279466722835 2.034319445248535e-23 3.2914116810609852e-15 3.289559860399749e-15 1.851820661236293e-18
6.141167624020661 2.8000440972794743e-23 4.564416385300465e-15 4.5624597718481556e-15 1.956613452310429e-18
6.164241091010745 3.289144800262286e-23 5.381855615958698e-15 5.379834028955128e-15 2.021587003570815e-18
6.187401249150058 3.845934524359389e-23 6.316545080088275e-15 6.314456540145544e-15 2.088539942729742e-18
6.1990139391386085 4.117814824232127e-23 6.775773167719058e-15 6.773650508796374e-15 2.122658922685763e-18
6.204828454712694 4.260998495772338e-23 7.017955223488832e-15 7.0158153066675515e-15 2.1399168212810758e-18
6.210648424152782 4.3655367225083845e-23 7.196876066884146e-15 7.194721251865125e-15 2.154815019023451e-18
6.233982942956859 4.720619206434025e-23 7.811492349178993e-15 7.809284756305603e-15 2.207592873388289e-18
6.239830258556775 4.765970205780635e-23 7.893934742904056e-15 7.891719203718767e-15 2.215539185287057e-18
6.245683058788269 4.769850081931316e-23 7.907771364594834e-15 7.905547856921124e-15 2.2235076737098214e-18
6.257405133728602 4.7599748616811653e-23 7.906210376916035e-15 7.90397255333107e-15 2.2378235849660517e-18
6.269149208991335 4.6899970349448955e-23 7.804599245444086e-15 7.802354393398859e-15 2.2448520452279247e-18
6.280915325867298 4.5146823336084215e-23 7.526959325363917e-15 7.524716485746571e-15 2.2428396173467402e-18
6.304513850009849 4.082397068440516e-23 6.8318178653374016e-15 6.829587259951392e-15 2.230605386008987e-18
6.32820103803542 3.546740920100468e-23 5.9577073493184865e-15 5.955497712375889e-15 2.209636942595874e-18
6.3519772230701035 3.055527727896531e-23 5.151866425006289e-15 5.1496749871440946e-15 2.191437862193804e-18
6.375842739491607 2.642130930382297e-23 4.4715837051890514e-15 4.469407653466767e-15 2.1760517222842538e-18
6.399797922933955 2.3109741929059033e-23 3.9258236757775515e-15 3.923652505760465e-15 2.17117001708558e-18
6.42384311029221 2.0355212776599198e-23 3.4708832467435005e-15 3.4687148658076743e-15 2.168380935825913e-18
6.447978639727206 1.8348547237746173e-23 3.1404704222459322e-15 3.1382965603870522e-15 2.1738618588790954e-18
6.472204850670314 1.6676196401774388e-23 2.864960832339487e-15 2.862779803244431e-15 2.1810290950556543e-18
6.496522083828205 1.5589583112820493e-23 2.688344084644278e-15 2.686149114597827e-15 2.1949700464515928e-18
6.520930681187647 1.4673887030307462e-23 2.53994427124653e-15 2.537734247123024e-15 2.2100241235059415e-18
6.57002334288761 1.3736676563922058e-23 2.3956204864258515e-15 2.393370696259945e-15 2.249790165907172e-18
