Dust emission spectrum from A.P. Jones, M. Kohler, N. Ysard, M. Bocchio, and L. Verstraete (2017), A&A, 602A, 46J 
inside the DustPedia framework.

lambda    nu*dP/dnu     j_nu    j_nu(carb.) j_nu(sil)
 (um)   (erg s-1 H-1) (Jy cm2 sr-1 H-1)
0.9927057738263894 2.8655536280660775e-21 7.55089657015089e-14 7.550896407644196e-14 1.6250669567652169e-21
1.0001793341362166 2.9137318284278395e-21 7.735651355553013e-14 7.735651159991394e-14 1.955616175522431e-21
1.0077091589558085 2.962101292933769e-21 7.923271624244015e-14 7.923271389217427e-14 2.3502658799736305e-21
1.0114953028030835 2.9863555285390887e-21 8.018161750405137e-14 8.018161492881996e-14 2.5752314162162237e-21
1.0152956718711033 3.010654952915764e-21 8.113774851576579e-14 8.113774569497764e-14 2.8207881479588557e-21
1.0229392996569957 3.0593623549800694e-21 8.307114859016688e-14 8.307114520913485e-14 3.381032038676722e-21
1.0267826658714554 3.0837149999639423e-21 8.404699582987174e-14 8.404699212999873e-14 3.699873016460528e-21
1.0306404723013447 3.108108379638977e-21 8.503011767010214e-14 8.5030113622672e-14 4.04743015010025e-21
1.03451277320114 3.1325417417113456e-21 8.602053852815284e-14 8.602053410199449e-14 4.426158363166213e-21
1.0383996230291617 3.1570143567236694e-21 8.701828339205771e-14 8.701827855334735e-14 4.838710368941836e-21
1.0403485208654093 3.1692651625122652e-21 8.751991029743584e-14 8.751990523887887e-14 5.058556992554945e-21
1.0423010764483396 3.181525518627793e-21 8.802337784666e-14 8.802337255870845e-14 5.2879515564774904e-21
1.0462171883269815 3.2060745453532166e-21 8.903584810003686e-14 8.903584232306094e-14 5.776975911045952e-21
1.0471985131304309 3.212217640811469e-21 8.929012126470311e-14 8.929011535886926e-14 5.9058338275317255e-21
1.048180758391296 3.2183630515721197e-21 8.954485751828712e-14 8.95448514808468e-14 6.037440318041166e-21
1.0501480137395462 3.2306607793708607e-21 9.005572101027226e-14 9.005571470114925e-14 6.309123034270869e-21
1.0521189612883777 3.2429676504845813e-21 9.05684420392649e-14 9.056843544678207e-14 6.592482871361519e-21
1.0531058218030118 3.2491163387289556e-21 9.082527234373905e-14 9.082526560503933e-14 6.738699722656734e-21
1.0540936079674168 3.2552405771319547e-21 9.108182065893559e-14 9.108181377088636e-14 6.888049222966879e-21
1.058054026499678 3.2797588383671898e-21 9.211263126120728e-14 9.211262374347915e-14 7.517728125254948e-21
1.0590464539527713 3.2858936858284544e-21 9.237149047193827e-14 9.237148278839259e-14 7.68354566403893e-21
1.06003981227728 3.2920306286166343e-21 9.263081320701724e-14 9.263080535415949e-14 7.852857733367698e-21
1.0620293250338977 3.3043107659527567e-21 9.31508510748806e-14 9.315084287263402e-14 8.202246583411745e-21
1.0660195594769086 3.3288958141161053e-21 9.419650934643152e-14 9.41965004003053e-14 8.946126230164266e-21
1.070024785945596 3.353513464642149e-21 9.524963611757573e-14 9.52496263633367e-14 9.754239016258236e-21
1.0740450607676866 3.3781632273991804e-21 9.631026225404354e-14 9.631025162221105e-14 1.063183247191187e-20
1.07808044048254 3.402844640857893e-21 9.737841947465155e-14 9.737840789009491e-14 1.1584556642003157e-20
1.0861967418109137 3.452262933076135e-21 9.953636900956226e-14 9.953635526937672e-14 1.3740185554583513e-20
1.0902777775684922 3.476913123483293e-21 1.0062373474107936e-13 1.0062371978440456e-13 1.4956674805671453e-20
1.0943741465085532 3.5015919320748875e-21 1.0171869757102924e-13 1.0171868129550535e-13 1.6275523935980764e-20
1.1026131145906286 3.551034220284455e-21 1.0393155957286859e-13 1.0393154031943108e-13 1.925343751391452e-20
1.1109141095355224 3.600587751395014e-21 1.0617525568595906e-13 1.0617523293945561e-13 2.2746503426486554e-20
1.1192775983109025 3.650212185246269e-21 1.0844895093482378e-13 1.0844892409644011e-13 2.6838383713528184e-20
1.1277040513999907 3.699728113970377e-21 1.1074761531304864e-13 1.1074758368766512e-13 3.1625383520563235e-20
1.1361939428280308 3.749346571558346e-21 1.1307783610569278e-13 1.1307779888748384e-13 3.721820893533354e-20
1.1447477501889525 3.79906774046614e-21 1.1543998699630416e-13 1.1543994325235653e-13 4.374394764937135e-20
1.1533659546722406 3.848910079943623e-21 1.1783500531215578e-13 1.1783495396378736e-13 5.1348368443951314e-20
1.1707974979042381 3.9491090719043866e-21 1.2272989072342786e-13 1.2272982023809726e-13 7.048533059441935e-20
1.1884924949847024 4.049807659257593e-21 1.2776158002606916e-13 1.2776148375678945e-13 9.626927972334813e-20
1.2064549276569216 4.151685753779185e-21 1.3295510227738064e-13 1.329549714420433e-13 1.308353373584743e-19
1.2246888378427687 4.2540826755218505e-21 1.3829329315440385e-13 1.3829311621400355e-13 1.7694040032591832e-19
1.2431983285522175 4.3569142441905746e-21 1.4377681626548268e-13 1.4377657813387014e-13 2.381316125492977e-19
1.2619875648066055 4.4603294118420005e-21 1.4941405168493208e-13 1.494137327352672e-13 3.189496647945629e-19
1.3004222497298317 4.6682685109698235e-21 1.6114233504584564e-13 1.6114177092980337e-13 5.641160422702624e-19
1.3400274889804893 4.8785071706420126e-21 1.7352821050627018e-13 1.7352723107834466e-13 9.794279254688758e-19
1.3808389325824078 5.091788911811569e-21 1.8663059792862416e-13 1.8662892784382233e-13 1.6700848018291978e-18
1.4228933163050095 5.3098641340191344e-21 2.0055116131636182e-13 2.005483630957687e-13 2.79822059306587e-18
1.466228494730424 5.5364725014655976e-21 2.15478644851977e-13 2.1547403570910879e-13 4.609142868259052e-18
1.5108834753276823 5.771070520967501e-21 2.314497871158258e-13 2.314423201412049e-13 7.466974620930617e-18
1.5568984535646726 6.013338216113329e-21 2.4851084807589364e-13 2.4849893800965725e-13 1.1910066236459187e-17
1.6043148490894465 6.264542679952432e-21 2.667770148850036e-13 2.6675827610579354e-13 1.8738779210049926e-17
1.6531753430134553 6.525982887546643e-21 2.8637445974239736e-13 2.8634541215962983e-13 2.904758276757304e-17
1.7035239163302658 6.799153581152031e-21 3.074485997652646e-13 3.07404226490233e-13 4.437327503162977e-17
1.755405889504358 7.088818868116093e-21 3.3030934719256017e-13 3.302425140115642e-13 6.683318099597491e-17
1.8088679632656115 7.394512343576437e-21 3.550469926180987e-13 3.549477096859736e-13 9.928293212508643e-17
1.8639582606462262 7.715530848519682e-21 3.817433040685862e-13 3.815977781790959e-13 1.4552588949014403e-16
1.9207263702978936 8.052146410393969e-21 4.105316029874685e-13 4.103210549857313e-13 2.1054800173736355e-16
1.979223391128241 8.404985705025564e-21 4.4157169505748273e-13 4.4127089828800827e-13 3.007967694744696e-16
2.039501978296691 8.774341052769785e-21 4.750158215550607e-13 4.745913396005016e-13 4.244819545589648e-16
2.1016163906111602 9.163034093995541e-21 5.11166262749495e-13 5.1057431070128e-13 5.919520482151673e-16
2.1656225393682647 9.571671617863604e-21 5.502245785480281e-13 5.49408555945161e-13 8.160226028670404e-16
2.231578038680979 9.997748241293724e-21 5.922208703228358e-13 5.911085265222693e-13 1.1123438005665054e-15
2.299542257339062 1.0440052722962589e-20 6.372553932466176e-13 6.357556136970272e-13 1.4997795495902903e-15
2.369576372248914 1.0898249733332534e-20 6.854833323518403e-13 6.834825260997413e-13 2.000806252099192e-15
2.4417434235010123 1.1372209612742172e-20 7.370794714507623e-13 7.344376729159622e-13 2.6417985348002655e-15
2.5161083711144245 1.1863756759324258e-20 7.923572016465892e-13 7.889037887588423e-13 3.4534128877468733e-15
2.5927381535095444 1.2377330010071904e-20 8.518341797559809e-13 8.473633888151271e-13 4.470790940853468e-15
2.6717017477616296 1.2916457606072514e-20 9.16011298478501e-13 9.102778539210887e-13 5.733444557412482e-15
2.753070231689431 1.348743594519838e-20 9.856350040255435e-13 9.783497515854072e-13 7.28525244013635e-15
2.836916847834745 1.4111074505972064e-20 1.0626154460253117e-12 1.053440831971057e-12 9.174614054254983e-15
2.9233170693905177 1.4835811515496425e-20 1.1512155908821534e-12 1.1397638029134678e-12 1.1451787968685333e-14
2.967498994190263 1.528486047766866e-20 1.2039861533049428e-12 1.1912588248176988e-12 1.2727328487244097e-14
3.0123486681368425 1.576547547871238e-20 1.2606128937288854e-12 1.2464863572194732e-12 1.4126536509412503e-14
3.0578761833420214 1.6576016153865268e-20 1.3454559720939686e-12 1.3297920571137392e-12 1.5663914980229674e-14
3.1040917844459814 1.7529922274483683e-20 1.444388353413541e-12 1.4270542650124606e-12 1.73340884010805e-14
3.127460860933648 1.8429983257862418e-20 1.5299817733535302e-12 1.5117545525366975e-12 1.822722081683294e-14
3.1510058709225794 1.9578280027195564e-20 1.6375447662116449e-12 1.6183873967140584e-12 1.9157369497586036e-14
3.162844764501044 2.0623831335584755e-20 1.7314767257327737e-12 1.7118383152072306e-12 1.9638410525543465e-14
3.1747281389236908 2.180822318115955e-20 1.8377915797896343e-12 1.8176625671419686e-12 2.012901264766569e-14
3.1986289994194426 2.5021787324617536e-20 2.1244750341002015e-12 2.103333115220736e-12 2.1141918879465427e-14
3.2227097969389145 3.248521558854293e-20 2.778922183640358e-12 2.756707782670491e-12 2.2214400969866792e-14
3.2348180950136065 3.9495038676788114e-20 3.3912658793224775e-12 3.3684793490349297e-12 2.2786530287548313e-14
3.240889293275058 4.473361642773293e-20 3.848288639104287e-12 3.82520032458177e-12 2.3088314522516788e-14
3.2469718861334385 5.080548566902028e-20 4.378834878266418e-12 4.355434306800677e-12 2.3400571465740245e-14
3.2714166318528037 8.267357585548195e-20 7.179133226182856e-12 7.154442927401393e-12 2.4690298781462876e-14
3.2744851364798273 8.466409642613788e-20 7.358880223717804e-12 7.334038121654831e-12 2.4842102062972287e-14
3.2775565192852394 8.67078996634773e-20 7.543593697150126e-12 7.518599050344257e-12 2.499464680587057e-14
3.283707930232385 8.473871138374626e-20 7.386110663927696e-12 7.360843597418059e-12 2.5267066509638404e-14
3.2898708863219004 7.848844526411262e-20 6.8541564551660954e-12 6.82864182048416e-12 2.551463468193322e-14
3.29141343181113 7.701125150029818e-20 6.7283109038792094e-12 6.702734112466341e-12 2.55767914128696e-14
3.292184975758714 7.628492769657305e-20 6.666415838208964e-12 6.6408079286878994e-12 2.560790952106522e-14
3.295272960557952 7.175670470506036e-20 6.2765835480696435e-12 6.250854660910353e-12 2.5728887159290788e-14
3.3076538914384823 5.595009952757503e-20 4.912361915562539e-12 4.8861472989075806e-12 2.621461665495803e-14
3.310756385682612 5.2699281286710704e-20 4.6312833293826965e-12 4.604946316653428e-12 2.6337012729267023e-14
3.313861789986515 4.968668459735377e-20 4.370627997658882e-12 4.344168202881047e-12 2.6459794777835373e-14
3.3200813396944477 4.5477926373339994e-20 4.0079178479871934e-12 3.981193799021848e-12 2.672404896534619e-14
3.345076488085796 3.8117069169663056e-20 3.38450364406682e-12 3.3566015418857465e-12 2.7902102181073517e-14
3.3482140837626964 3.841310748016656e-20 3.4139888103067478e-12 3.3859271044166822e-12 2.8061705890065576e-14
3.3513546224236106 3.8711845031004526e-20 3.443766433209224e-12 3.4155444235332908e-12 2.8222009675933333e-14
3.3576445397418455 4.08198022049344e-20 3.6381034678975554e-12 3.6095462389458866e-12 2.8557228951668904e-14
3.3702598118196083 4.846352261645716e-20 4.3355858760760684e-12 4.306325543780715e-12 2.9260332295352006e-14
3.382922481734668 5.028172365713252e-20 4.515144316820276e-12 4.485201120809305e-12 2.9943196010970394e-14
3.389271646505754 5.121908835591898e-20 4.6079489152179715e-12 4.57765970605522e-12 3.028920916275146e-14
3.395632727569191 5.2250506026168145e-20 4.709563365479272e-12 4.678917568890656e-12 3.0645796588616674e-14
3.421196662673239 5.725675694169026e-20 5.199651282754593e-12 5.167529968564569e-12 3.2121314190024756e-14
3.4276182099114902 5.634534224190485e-20 5.126487415822098e-12 5.094037406601013e-12 3.245000922108605e-14
3.4340518103208963 5.2221717102276674e-20 4.760224376564189e-12 4.727463766707597e-12 3.2760609856593274e-14
3.4469541582030403 4.630304781332091e-20 4.236571295019955e-12 4.203215110407829e-12 3.3356184612125526e-14
3.472904465399547 4.464900831976688e-20 4.115987878557457e-12 4.081258874449351e-12 3.472900410810722e-14
3.4990501388274233 4.2154721668979415e-20 3.9153070362903446e-12 3.8791745273903505e-12 3.6132508899995077e-14
3.5253949054701885 3.3345429898879855e-20 3.1204234033095267e-12 3.082929512044107e-12 3.7493891265420254e-14
3.5519380250092896 2.4960037707453974e-20 2.3533149277027325e-12 2.314454435110679e-12 3.886049259205417e-14
3.578680990867387 2.1685688687871885e-20 2.0599924961714097e-12 2.0196344053102924e-12 4.035809086111715e-14
3.605625307711299 2.042273712848395e-20 1.9546273610570313e-12 1.9126930734240555e-12 4.193428763297586e-14
3.660119384959845 1.9618379693472476e-20 1.906021608873473e-12 1.860780708799116e-12 4.524090007435718e-14
3.715437065384467 1.9072066215347194e-20 1.880949294438939e-12 1.832229695649923e-12 4.871959878901655e-14
3.8285932144167436 1.901740168994569e-20 1.9326794915151443e-12 1.876508420129548e-12 5.6171071385596175e-14
3.94519561050918 1.921387458395414e-20 2.0121155893440457e-12 1.9478569127652515e-12 6.425867657879372e-14
4.06534921144712 1.9491228359289283e-20 2.1033255623220055e-12 2.030362025530315e-12 7.296353679169057e-14
4.189162171576248 1.979939366793986e-20 2.2016511018643244e-12 2.119359037072006e-12 8.229206479231771e-14
4.316745939156006 2.0117484955052635e-20 2.305152210549894e-12 2.2129542279496216e-12 9.219798260027255e-14
4.448215356677963 2.0436411754922456e-20 2.413014226763701e-12 2.310483744317361e-12 1.0253048244634004e-13
4.58368876423945 2.07548920755363e-20 2.525253801199409e-12 2.4119627301466238e-12 1.1329107105278552e-13
4.723288106065518 2.1076886070194224e-20 2.6425323827398512e-12 2.5179959638133702e-12 1.2453641892648062e-13
4.867139040275056 2.140821567592521e-20 2.7658183739307078e-12 2.6298718937565767e-12 1.3594648017413083e-13
4.940699165968905 2.159139181970509e-20 2.8316428952975645e-12 2.689897210891214e-12 1.417456844063516e-13
5.015371051989984 2.1766775623178903e-20 2.8977879521428723e-12 2.7502003997543293e-12 1.4758755238854304e-13
5.091171501069577 2.1978189955270894e-20 2.9701547857184446e-12 2.816553030221434e-12 1.5360175549701126e-13
5.129500256944802 2.2080653126610684e-20 3.0064667439603864e-12 2.8498492786118692e-12 1.5661746534851652e-13
5.168117569889187 2.218487538466101e-20 3.0433984249293343e-12 2.883728500442652e-12 1.5966992448668167e-13
5.20702561229733 2.2320743839362753e-20 3.085089803076963e-12 2.9220759702667806e-12 1.6301383281018281e-13
5.246226572918644 2.245555357175029e-20 3.1270889983656494e-12 2.960717228047131e-12 1.6637177031851883e-13
5.265937586045735 2.2522580305137977e-20 3.148207031011718e-12 2.980151533009861e-12 1.680554980018566e-13
5.285722656980489 2.258936564251925e-20 3.1694057397798712e-12 2.9996636122721843e-12 1.6974212750768805e-13
5.305582063971359 2.2655917998278083e-20 3.1906864905541483e-12 3.019255036630303e-12 1.714314539238445e-13
5.3255160863122235 2.272845927200571e-20 3.2129290143369742e-12 3.039791332997882e-12 1.7313768133909232e-13
5.365609099470188 2.2921037588205983e-20 3.2645455769796017e-12 3.0878769998983172e-12 1.7666857708128432e-13
5.406003951863644 2.3115440394398534e-20 3.317019036055556e-12 3.1368059719460338e-12 1.802130641095226e-13
5.446702915881641 2.331191436484832e-20 3.370397003072259e-12 3.1866275034431897e-12 1.8376949962906975e-13
5.487708281020852 2.35225372458271e-20 3.4264517035644885e-12 3.239099182286936e-12 1.8735252127755272e-13
5.529022354014368 2.3840934873688437e-20 3.4989767785331253e-12 3.3078895291276826e-12 1.9108724940544187e-13
5.570647458961463 2.417009372312734e-20 3.5739908993350186e-12 3.3791554235239524e-12 1.948354758110659e-13
5.612585937458331 2.45110329608888e-20 3.65169124949703e-12 3.4530957225550414e-12 1.9859552694198806e-13
5.654840148729818 2.488261403707508e-20 3.7349583995310435e-12 3.5325727180039662e-12 2.0238568152707763e-13
5.67608639626678 2.5152398235356374e-20 3.789638910267262e-12 3.5852680006830636e-12 2.0437090958419815e-13
5.686739436050992 2.5290291158474815e-20 3.817566331696447e-12 3.6122013826698734e-12 2.05364949026574e-13
5.6974124697621304 2.5430254407866474e-20 3.845898336166262e-12 3.639538432787378e-12 2.0635990337888357e-13
5.718818669136295 2.5716609228463396e-20 3.903817126134801e-12 3.695464675959294e-12 2.08352450175505e-13
5.740305295436557 2.6034057391104796e-20 3.966854595018489e-12 3.756490369860984e-12 2.103642251575053e-13
5.7835210386641895 2.688233151221482e-20 4.126945040354889e-12 3.912424226979523e-12 2.1452081337536693e-13
5.827062130521658 2.784634434857006e-20 4.307122969107295e-12 4.088390201791898e-12 2.1873276731539816e-13
5.8489554468988025 2.8548126670693795e-20 4.432261355741836e-12 4.211246695862568e-12 2.2101465987926778e-13
5.870931020387893 2.9291771585466916e-20 4.56480310445433e-12 4.341499458302557e-12 2.233036461517721e-13
5.892989160043636 3.008059898491937e-20 4.705345904258847e-12 4.479746389286376e-12 2.2559951497247046e-13
5.915130176081913 3.097800861392255e-20 4.8639291025815795e-12 4.63594734685587e-12 2.2798175572570987e-13
5.95966208400165 3.353345160956122e-20 5.30480380691441e-12 5.071349879805121e-12 2.334539271092917e-13
6.004529249263818 3.72221365363861e-20 5.9326632226398196e-12 5.69302684298284e-12 2.396363796569806e-13
6.027089341400364 3.979942003719313e-20 6.3672779101813505e-12 6.1240473684916565e-12 2.4323054168969325e-13
6.049734195844842 4.282220264994223e-20 6.876615298944929e-12 6.629572876263947e-12 2.470424226809825e-13
6.095279466722835 5.157001171794668e-20 8.343730841159238e-12 8.087243987664567e-12 2.564868534946671e-13
6.141167624020661 6.494199870314901e-20 1.0586344810169921e-11 1.0317507750922884e-11 2.688370592470395e-13
6.164241091010745 7.346660128324226e-20 1.2020955741142398e-11 1.174432278304564e-11 2.7663295809675937e-13
6.187401249150058 8.30584157874491e-20 1.3641475804623243e-11 1.3356846214172853e-11 2.846295904503929e-13
6.1990139391386085 8.771483828882873e-20 1.443328253108349e-11 1.4144585626150404e-11 2.886969049330828e-13
6.204828454712694 9.01577047855187e-20 1.4849165890695988e-11 1.4558415539677446e-11 2.907503510185427e-13
6.210648424152782 9.192041931860224e-20 1.515368917735024e-11 1.4861199237689436e-11 2.9248993966080605e-13
6.233982942956859 9.781656729436763e-20 1.6186295348743122e-11 1.5887782521169464e-11 2.985128275736596e-13
6.239830258556775 9.85166070146221e-20 1.631742611236847e-11 1.6018109288348587e-11 2.993168240198838e-13
6.245683058788269 9.849071478828841e-20 1.6328438854538383e-11 1.6028317074337022e-11 3.0012178020136506e-13
6.257405133728602 9.812970739313805e-20 1.6299122021021495e-11 1.599760986734843e-11 3.0151215367306363e-13
6.269149208991335 9.671980833935066e-20 1.609509211968323e-11 1.5793158906546613e-11 3.0193321313661857e-13
6.280915325867298 9.347910416009072e-20 1.5585003833970472e-11 1.5283846994093613e-11 3.0115683987685764e-13
6.304513850009849 8.561103667664363e-20 1.4326852582739446e-11 1.40283301622964e-11 2.985224204430479e-13
6.32820103803542 7.603485990680329e-20 1.2772104133795362e-11 1.2477366828268586e-11 2.947373055267753e-13
6.3519772230701035 6.729998717279825e-20 1.1347321156780359e-11 1.1056001081071615e-11 2.9132007570874465e-13
6.375842739491607 5.993489258504985e-20 1.0143474949471442e-11 9.855193832187538e-12 2.8828111728390506e-13
6.399797922933955 5.4075370787137055e-20 9.186185270448684e-12 8.899581508262701e-12 2.8660376218598354e-13
6.42384311029221 4.918260681932408e-20 8.386406367444767e-12 8.101207806048652e-12 2.8519856139611305e-13
6.447978639727206 4.561560718292885e-20 7.807400950854447e-12 7.52254825503212e-12 2.848526958223249e-13
6.472204850670314 4.2627467655946365e-20 7.32337412403647e-12 7.0386578557535474e-12 2.8471626828292426e-13
6.496522083828205 4.066127486634306e-20 7.0118294357168095e-12 6.7263934740429144e-12 2.8543596167389747e-13
