Dust emission spectrum from A.P. Jones, M. Kohler, N. Ysard, M. Bocchio, and L. Verstraete (2017), A&A, 602A, 46J 
inside the DustPedia framework.

lambda    nu*dP/dnu     j_nu    j_nu(carb.) j_nu(sil)
 (um)   (erg s-1 H-1) (Jy cm2 sr-1 H-1)
0.9927057738263894 9.129945080686694e-21 2.4057923858137425e-13 2.4057923290754624e-13 5.673827992715068e-21
1.0001793341362166 9.283311990948291e-21 2.4646216335409456e-13 2.4646215652675283e-13 6.8273418490392e-21
1.0077091589558085 9.437310228377698e-21 2.5243691875112634e-13 2.524369105467278e-13 8.204398591996039e-21
1.0114953028030835 9.514539435349e-21 2.554589212308453e-13 2.5545891224153487e-13 8.989310503753987e-21
1.0152956718711033 9.59191860573736e-21 2.5850411016455925e-13 2.585041003185411e-13 9.846018182246025e-21
1.0229392996569957 9.747041420400957e-21 2.6466231593345005e-13 2.646623041329987e-13 1.1800451371309587e-20
1.0267826658714554 9.824609042081507e-21 2.677708138396706e-13 2.6777080092702227e-13 1.2912648373088589e-20
1.0306404723013447 9.90231313630397e-21 2.709026675845605e-13 2.709026534596159e-13 1.412494457848903e-20
1.03451277320114 9.980151483429777e-21 2.740579618671466e-13 2.740579464212564e-13 1.5445890133328896e-20
1.0383996230291617 1.0058121938194307e-20 2.7723678333790797e-13 2.7723676645318464e-13 1.6884723352819918e-20
1.0403485208654093 1.0097156056331712e-20 2.7883504440154036e-13 2.7883502675010466e-13 1.7651435639193606e-20
1.0423010764483396 1.0136222431531008e-20 2.804392206834366e-13 2.8043920223201416e-13 1.845142245059088e-20
1.0462171883269815 1.0214450972381002e-20 2.836653647122211e-13 2.8366534455546013e-13 2.015676085678028e-20
1.0471985131304309 1.0234027889263075e-20 2.844756157393527e-13 2.844755951332519e-13 2.0606100823447743e-20
1.048180758391296 1.0253612660189621e-20 2.8528735571205334e-13 2.85287334647035e-13 2.10650184097293e-20
1.0501480137395462 1.0292805649486982e-20 2.86915308441533e-13 2.8691528642916664e-13 2.201236635123014e-20
1.0521189612883777 1.033202971412649e-20 2.8854923488737304e-13 2.8854921188697103e-13 2.3000402011753455e-20
1.0531058218030118 1.035162745147687e-20 2.893677186238002e-13 2.89367695113572e-13 2.3510227977388467e-20
1.0540936079674168 1.0371148093320526e-20 2.9018532679245063e-13 2.901853027614815e-13 2.403096916751489e-20
1.058054026499678 1.0449303578886191e-20 2.934706162656578e-13 2.93470590039254e-13 2.62264037972656e-20
1.0590464539527713 1.0468860551937813e-20 2.9429566053704e-13 2.9429563373251974e-13 2.68045202504406e-20
1.06003981227728 1.0488424715690285e-20 2.951221966860107e-13 2.951221692911995e-13 2.7394811149259216e-20
1.0620293250338977 1.0527574518119725e-20 2.967797509306965e-13 2.967797223178018e-13 2.861289478514383e-20
1.0660195594769086 1.0605959361887714e-20 3.001128319857608e-13 3.001128007795802e-13 3.120618060437367e-20
1.070024785945596 1.0684456650429553e-20 3.034699633078778e-13 3.0346992928466e-13 3.402321773754926e-20
1.0740450607676866 1.0763065015025113e-20 3.0685125154608186e-13 3.0685121446381355e-13 3.7082268390126823e-20
1.07808044048254 1.0841783179639272e-20 3.1025680621551025e-13 3.1025676581251623e-13 4.0402994005873095e-20
1.0861967418109137 1.0999424216246527e-20 3.1713770616697234e-13 3.1713765825125046e-13 4.791572188764816e-20
1.0902777775684922 1.1078072049741656e-20 3.2060535992311685e-13 3.206053077681301e-13 5.215498673675156e-20
1.0943741465085532 1.1156820843725456e-20 3.240975268596187e-13 3.24097470108958e-13 5.675066071992778e-20
1.1026131145906286 1.1314618351271821e-20 3.311558994566041e-13 3.311558323301093e-13 6.712649475557782e-20
1.1109141095355224 1.147281185156074e-20 3.3831385759294727e-13 3.383137782972988e-13 7.929564839410574e-20
1.1192775983109025 1.1631274782784314e-20 3.4556882838922583e-13 3.455687348401749e-13 9.354905097726798e-20
1.1277040513999907 1.1789438657569144e-20 3.5290491003245273e-13 3.529047998109125e-13 1.1022154030443914e-19
1.1361939428280308 1.1947975868068978e-20 3.603431241200882e-13 3.603429944221269e-13 1.2969796137472918e-19
1.1447477501889525 1.2106888710785276e-20 3.678847472109746e-13 3.678845947909448e-13 1.5242002981899243e-19
1.1533659546722406 1.2266237104863403e-20 3.755328351118333e-13 3.755326562175294e-13 1.788943037134669e-19
1.1707974979042381 1.258672280297923e-20 3.9116851068151995e-13 3.911682651775716e-13 2.455039483928363e-19
1.1884924949847024 1.290902066846261e-20 4.072481994106137e-13 4.0724786418653235e-13 3.3522408135495884e-19
1.2064549276569216 1.3235300218425995e-20 4.23852092517082e-13 4.238516370486503e-13 4.554684318158218e-19
1.2246888378427687 1.356348244909767e-20 4.409267044387138e-13 4.4092608863246426e-13 6.158062494741837e-19
1.2431983285522175 1.3893310466034796e-20 4.584749284101399e-13 4.584740998649291e-13 8.2854521074213745e-19
1.2619875648066055 1.4225277444609034e-20 4.765245216414529e-13 4.765234122068607e-13 1.1094345921163922e-18
1.3004222497298317 1.4893646723357418e-20 5.141086046593167e-13 5.141066435399955e-13 1.9611193210731872e-18
1.3400274889804893 1.5570636281388467e-20 5.538466083668313e-13 5.53843205396669e-13 3.402970162292075e-18
1.3808389325824078 1.6258720469004317e-20 5.95934901316453e-13 5.959291021079224e-13 5.799208530359528e-18
1.4228933163050095 1.6963553173501076e-20 6.407057135796079e-13 6.406960028597639e-13 9.710719844004486e-18
1.466228494730424 1.7697085036536852e-20 6.887677849919248e-13 6.887517995791245e-13 1.5985412800328377e-17
1.5108834753276823 1.845765894834609e-20 7.402476228162657e-13 7.40221742018694e-13 2.5880797571777886e-17
1.5568984535646726 1.924428995723249e-20 7.953011532056022e-13 7.952598986201572e-13 4.125458544507769e-17
1.6043148490894465 2.0060993477739797e-20 8.54302098179589e-13 8.542372314989266e-13 6.486668066244942e-17
1.6531753430134553 2.0911853836945198e-20 9.176580674453016e-13 9.175575807551406e-13 1.0048669016116603e-16
1.7035239163302658 2.1801512978349628e-20 9.858351569728953e-13 9.85681753977512e-13 1.5340299538337153e-16
1.755405889504358 2.2744951496681045e-20 1.0598197274564813e-12 1.059588832771688e-12 2.308946847935323e-16
1.8088679632656115 2.3740494716278913e-20 1.1398981921509538e-12 1.1395554232344295e-12 3.42768916524248e-16
1.8639582606462262 2.4785634276722285e-20 1.2263252014664577e-12 1.2258231275128662e-12 5.020739535912411e-16
1.9207263702978936 2.5880918069547168e-20 1.3195158458822275e-12 1.3187899495521112e-12 7.258963301162254e-16
1.979223391128241 2.7027973937182205e-20 1.4199653258511654e-12 1.4189290197143283e-12 1.0363061368370521e-15
2.039501978296691 2.8227298694935995e-20 1.5281390818085982e-12 1.5266777097415748e-12 1.461372067023361e-15
2.1016163906111602 2.948740660913527e-20 1.6449755921396851e-12 1.642939160349725e-12 2.036431789960061e-15
2.1656225393682647 3.080972662985568e-20 1.7710875933577047e-12 1.7682824036385092e-12 2.8051897191954473e-15
2.231578038680979 3.2185734842352334e-20 1.9065356958669917e-12 1.9027147527083666e-12 3.820943158624608e-15
2.299542257339062 3.361105388275221e-20 2.0516012636963445e-12 2.046453423517625e-12 5.147840178719725e-15
2.369576372248914 3.508403060579177e-20 2.206732163462554e-12 2.1998699670191744e-12 6.862196443379787e-15
2.4417434235010123 3.660367101767495e-20 2.372433801838781e-12 2.3633803861669542e-12 9.05341567182643e-15
2.5161083711144245 3.817514064040738e-20 2.5496432726947675e-12 2.5378180354173643e-12 1.1825237277403372e-14
2.5927381535095444 3.981178187563652e-20 2.739931514394504e-12 2.724635158573644e-12 1.5296355820861248e-14
2.6717017477616296 4.152382940680237e-20 2.9447932283571713e-12 2.9251932801110386e-12 1.9599948246132323e-14
2.753070231689431 4.3330006127009e-20 3.1664707018405176e-12 3.1415871276967604e-12 2.4883574143757373e-14
2.836916847834745 4.529414213115002e-20 3.4108143233639823e-12 3.3795047097357015e-12 3.1309613628280936e-14
2.9233170693905177 4.7565265370856156e-20 3.6909255029413405e-12 3.651879521886835e-12 3.904598105450692e-14
2.967498994190263 4.896578818856144e-20 3.857027746561592e-12 3.813653590921804e-12 4.337415563978829e-14
3.0123486681368425 5.046185985800616e-20 4.03494783677391e-12 3.986828136229912e-12 4.81197005439978e-14
3.0578761833420214 5.297689903323693e-20 4.300073342451883e-12 4.246741734323064e-12 5.333160812881917e-14
3.1040917844459814 5.592984576874352e-20 4.6083728479605096e-12 4.5493826059010665e-12 5.899024205944464e-14
3.127460860933648 5.871261834267508e-20 4.874081255165165e-12 4.812066402462122e-12 6.201485270304115e-14
3.1510058709225794 6.225916776602856e-20 5.2074122028254935e-12 5.142248377555766e-12 6.516382526972762e-14
3.162844764501044 6.54893288316428e-20 5.498166020209782e-12 5.431374035133636e-12 6.679198507614666e-14
3.1747281389236908 6.914514429963524e-20 5.8269012987261755e-12 5.7584490598577386e-12 6.84522388684374e-14
3.1986289994194426 7.905619491656041e-20 6.712266802218096e-12 6.640387586589934e-12 7.187921562816209e-14
3.2227097969389145 1.0207203284683492e-19 8.731671662581676e-12 8.656164916119826e-12 7.550674646185038e-14
3.2348180950136065 1.2368385082983408e-19 1.0620190211104718e-11 1.0542748561643176e-11 7.744164946153945e-14
3.240889293275058 1.3983524890419382e-19 1.2029575131124743e-11 1.1951112865440191e-11 7.846226568455362e-14
3.2469718861334385 1.5855682760131868e-19 1.3665732307156941e-11 1.3586214008263305e-11 7.951829889363519e-14
3.2714166318528037 2.567465804753041e-19 2.2295127403478163e-11 2.2211248157133717e-11 8.38792463444469e-14
3.2744851364798273 2.628763641128584e-19 2.2848831545029452e-11 2.2764439246535463e-11 8.439229849399102e-14
3.2775565192852394 2.6916968616954024e-19 2.341778264648362e-11 2.3332874811583127e-11 8.490783490048971e-14
3.283707930232385 2.6309234883543006e-19 2.2932012672827673e-11 2.2846184663748453e-11 8.582800907922382e-14
3.2898708863219004 2.438227530662927e-19 2.1292297117392687e-11 2.1205633326617276e-11 8.666379077541192e-14
3.29141343181113 2.392682259334334e-19 2.0904361143819625e-11 2.0817487525302692e-11 8.687361851693883e-14
3.292184975758714 2.3702875315840757e-19 2.071355747299366e-11 2.062657880813738e-11 8.69786648562759e-14
3.295272960557952 2.230762004067513e-19 1.9512551686897093e-11 1.942516471926693e-11 8.738696763016223e-14
3.3076538914384823 1.743596344551965e-19 1.5308598825404732e-11 1.5219572729122486e-11 8.902609628224643e-14
3.310756385682612 1.6433668767307378e-19 1.4442127927429688e-11 1.4352688842143803e-11 8.943908528589139e-14
3.313861789986515 1.550467469956644e-19 1.3638496085151848e-11 1.3548642726735309e-11 8.985335841654012e-14
3.3200813396944477 1.4206903076134217e-19 1.2520381852071829e-11 1.242963667401375e-11 9.074517805807551e-14
3.345076488085796 1.1938112913689223e-19 1.0600129427532144e-11 1.0505407907000967e-11 9.47215205311763e-14
3.3482140837626964 1.2029293033080646e-19 1.0691108974206886e-11 1.0595848708897893e-11 9.52602653089918e-14
3.3513546224236106 1.2121296772075167e-19 1.0782982551518188e-11 1.068718120224305e-11 9.580134927513995e-14
3.3576445397418455 1.2770755027359635e-19 1.1382056169564405e-11 1.1285123250191752e-11 9.693291937265382e-14
3.3702598118196083 1.5124804020224524e-19 1.3530771835854159e-11 1.3431465548046792e-11 9.930628780736972e-14
3.382922481734668 1.5684723791320937e-19 1.4084400123231012e-11 1.3982789602242005e-11 1.01610520989006e-13
3.389271646505754 1.5973321351610712e-19 1.4370472251108856e-11 1.4267694311565135e-11 1.0277793954371769e-13
3.395632727569191 1.6291153273721311e-19 1.4683918774088146e-11 1.4579937738448233e-11 1.0398103563991388e-13
3.421196662673239 1.7834615204085668e-19 1.619612859278736e-11 1.6087170154956553e-11 1.0895843783081187e-13
3.4276182099114902 1.7553510726993108e-19 1.5970770300602255e-11 1.5860703961427828e-11 1.1006633917443046e-13
3.4340518103208963 1.6282707821268358e-19 1.4842358119988915e-11 1.4731245304177316e-11 1.1111281581159917e-13
3.4469541582030403 1.4458000598844677e-19 1.3228578508999354e-11 1.311545996298509e-11 1.1311854601426323e-13
3.472904465399547 1.394620032915231e-19 1.2856364265835642e-11 1.2738621076437348e-11 1.177431893982947e-13
3.4990501388274233 1.3176152349331457e-19 1.2237936810417565e-11 1.2115467553994627e-11 1.2246925642293854e-13
3.5253949054701885 1.0463567916756062e-19 9.791675293609319e-12 9.664624961333628e-12 1.2705033227568958e-13
3.5519380250092896 7.881002152796474e-20 7.430469548487365e-12 7.298823106363525e-12 1.316464421238386e-13
3.578680990867387 6.872536754669229e-20 6.528441106045476e-12 6.391758285811622e-12 1.3668282023385452e-13
3.605625307711299 6.483543751151967e-20 6.20529556488138e-12 6.063313534745461e-12 1.4198203013591747e-13
3.660119384959845 6.235486511076541e-20 6.058080339787376e-12 5.90498823532649e-12 1.530921044608853e-13
3.715437065384467 6.066563820464923e-20 5.9830428485981255e-12 5.818272362527636e-12 1.6477048607049008e-13
3.8285932144167436 6.047754998010003e-20 6.146145643303979e-12 5.956394219955408e-12 1.897514233485704e-13
3.94519561050918 6.105446582451557e-20 6.393746453782632e-12 6.1769329633434396e-12 2.1681349043919325e-13
4.06534921144712 6.187218373447349e-20 6.676713403923568e-12 6.430831713022151e-12 2.458816909014147e-13
4.189162171576248 6.2776606963116e-20 6.980627195440223e-12 6.703661233881367e-12 2.769659615588595e-13
4.316745939156006 6.370320076785654e-20 7.299400218129504e-12 6.989501417710393e-12 3.098988004191092e-13
4.448215356677963 6.46235224090379e-20 7.630374687426773e-12 7.286211113298975e-12 3.4416357412779733e-13
4.58368876423945 6.553344410154126e-20 7.973473348876948e-12 7.593719388990622e-12 3.7975395988632705e-13
4.723288106065518 6.644492533313406e-20 8.330588601977496e-12 7.913741338705529e-12 4.168472632719662e-13
4.867139040275056 6.737462248737807e-20 8.704413839673346e-12 8.250051287298307e-12 4.5436255237504027e-13
4.940699165968905 6.788894138240995e-20 8.90342040661461e-12 8.430036965949771e-12 4.733834406648385e-13
5.015371051989984 6.837671305906899e-20 9.102919915189674e-12 8.610408209131822e-12 4.925117060578535e-13
5.091171501069577 6.897159016023849e-20 9.320890346746418e-12 8.808713252688444e-12 5.121770940579739e-13
5.129500256944802 6.925798588631947e-20 9.430057622251991e-12 8.908033219702342e-12 5.220244025496481e-13
5.168117569889187 6.954902478011291e-20 9.540977301027155e-12 9.008992053620537e-12 5.319852474066194e-13
5.20702561229733 6.993608670289734e-20 9.666304559874145e-12 9.123392019695674e-12 5.429125401784728e-13
5.246226572918644 7.031903606050943e-20 9.792405399309729e-12 9.238529164416591e-12 5.538762348931397e-13
5.265937586045735 7.050902603182678e-20 9.855754025330158e-12 9.296384012906806e-12 5.593700124233511e-13
5.285722656980489 7.069805876224341e-20 9.9193061362727e-12 9.354435319799334e-12 5.648708164733679e-13
5.305582063971359 7.088615988302062e-20 9.983065472041574e-12 9.412687525673124e-12 5.703779463684511e-13
5.3255160863122235 7.109224226510912e-20 1.004970575146626e-11 9.473766910758867e-12 5.759388407073955e-13
5.365609099470188 7.164797808225696e-20 1.0204515788077395e-11 9.617067818301838e-12 5.874479697755568e-13
5.406003951863644 7.220811892584549e-20 1.036171930744758e-11 9.762728152607861e-12 5.98991154839719e-13
5.446702915881641 7.277340339097868e-20 1.0521455117481468e-11 9.91089234472735e-12 6.105627727541214e-13
5.487708281020852 7.338042999243883e-20 1.0689089222315557e-11 1.0066877808752582e-11 6.222114135629769e-13
5.529022354014368 7.431270104500242e-20 1.0906385034149888e-11 1.02720317378272e-11 6.343532963226897e-13
5.570647458961463 7.527590777370387e-20 1.1130921228698886e-11 1.0484393309807667e-11 6.46527918891218e-13
5.612585937458331 7.62730892388772e-20 1.1363281710327978e-11 1.0704552153790116e-11 6.587295565378595e-13
5.654840148729818 7.736122327850328e-20 1.1612162221039977e-11 1.0941143466952127e-11 6.710187540878511e-13
5.67608639626678 7.81584655665689e-20 1.17759093787526e-11 1.1098451417567646e-11 6.774579611849542e-13
5.686739436050992 7.856592031344464e-20 1.1859515982948463e-11 1.1178834919077111e-11 6.806810638713508e-13
5.6974124697621304 7.897947215842189e-20 1.1944317020729634e-11 1.1260410642591752e-11 6.839063781378846e-13
5.718818669136295 7.982551507347915e-20 1.2117624453439644e-11 1.1427261177170862e-11 6.903632762687803e-13
5.740305295436557 8.07647959690612e-20 1.230627240282062e-11 1.1609391997748458e-11 6.968804050721613e-13
5.7835210386641895 8.328503330947809e-20 1.2785823841066978e-11 1.2075479947904328e-11 7.103438931626505e-13
5.827062130521658 8.615065947158603e-20 1.3325321254704067e-11 1.2601344790911181e-11 7.239764637928886e-13
5.8489554468988025 8.824459044597243e-20 1.3700481737334377e-11 1.2969112927033135e-11 7.313688103012426e-13
5.870931020387893 9.04631909777436e-20 1.4097701595451875e-11 1.3358920839298854e-11 7.387807561530175e-13
5.892989160043636 9.281637017881353e-20 1.4518764320085688e-11 1.3772552751503843e-11 7.462115685818481e-13
5.915130176081913 9.549508105626074e-20 1.499390453698112e-11 1.4239980366225173e-11 7.539241707559426e-13
5.95966208400165 1.0313716040799759e-19 1.6315719823207518e-11 1.5544043047419392e-11 7.716767757881251e-13
6.004529249263818 1.141783967122609e-19 1.819836360904867e-11 1.7406609424906733e-11 7.917541841419326e-13
6.027089341400364 1.2189808251184702e-19 1.950176578819026e-11 1.8698321873811783e-11 8.034439143784821e-13
6.049734195844842 1.3095204648159308e-19 2.1028970733355894e-11 2.021312505511584e-11 8.158456782400551e-13
6.095279466722835 1.5716228809108422e-19 2.54279529231983e-11 2.458132124235988e-11 8.466316808384193e-13
6.141167624020661 1.9722458929587722e-19 3.215003463127265e-11 3.1263072578963653e-11 8.86962052309001e-13
6.164241091010745 2.2275786663228447e-19 3.644870470398077e-11 3.553625034537966e-11 9.124543586011097e-13
6.187401249150058 2.5147615697178034e-19 4.130232774423516e-11 4.0363731769495194e-11 9.385959747399647e-13
6.1990139391386085 2.6541068138054397e-19 4.367274027820504e-11 4.272084918900569e-11 9.518910891993427e-13
6.204828454712694 2.7272015949164553e-19 4.491759078896801e-11 4.395898821556761e-11 9.586025734004032e-13
6.210648424152782 2.7798845842861063e-19 4.582823626290189e-11 4.486395543346162e-11 9.642808294402697e-13
6.233982942956859 2.955902945684281e-19 4.891310278460418e-11 4.7929193942752875e-11 9.839088418513011e-13
6.239830258556775 2.976676380019525e-19 4.930305495010797e-11 4.831655000971271e-11 9.865049403952502e-13
6.245683058788269 2.975687120865201e-19 4.933289935780066e-11 4.8343795491964026e-11 9.891038658366318e-13
6.257405133728602 2.964436818933211e-19 4.923862377559676e-11 4.8245045450171836e-11 9.93578325424927e-13
6.269149208991335 2.921743419204116e-19 4.862057761443678e-11 4.762571592105151e-11 9.948616933852717e-13
6.280915325867298 2.824189559319271e-19 4.708539465084181e-11 4.609319073048544e-11 9.92203920356382e-13
6.304513850009849 2.587610171560047e-19 4.330318952866036e-11 4.231985968234104e-11 9.833298463193223e-13
6.32820103803542 2.300013537791152e-19 3.863492672941614e-11 3.766425635625336e-11 9.70670373162779e-13
6.3519772230701035 2.0377779675040832e-19 3.435858165040794e-11 3.339935866212412e-11 9.592229882838222e-13
6.375842739491607 1.8166812404997564e-19 3.0745797413476176e-11 2.979677460299245e-11 9.490228104837274e-13
6.399797922933955 1.640798611278215e-19 2.7873465896385383e-11 2.6930166276893e-11 9.432996194923851e-13
6.42384311029221 1.4939298546483114e-19 2.5473848695258348e-11 2.4535376377598404e-11 9.384723176599414e-13
6.447978639727206 1.3868117430599824e-19 2.3736163980021846e-11 2.2799038033952364e-11 9.371259460694796e-13
6.472204850670314 1.2970590025765837e-19 2.2283398144794218e-11 2.134693075641851e-11 9.36467388375702e-13
6.496522083828205 1.2379153260652347e-19 2.134721833184332e-11 2.040859827253359e-11 9.386200593097305e-13
