Dust emission spectrum from A.P. Jones, M. Kohler, N. Ysard, M. Bocchio, and L. Verstraete (2017), A&A, 602A, 46J 
inside the DustPedia framework.

lambda    nu*dP/dnu     j_nu    j_nu(carb.) j_nu(sil)
 (um)   (erg s-1 H-1) (Jy cm2 sr-1 H-1)
0.9927057738263894 5.02465846040943e-21 1.3240260438081858e-13 1.3240259796945437e-13 6.411364207952874e-21
1.0001793341362166 5.109139551943005e-21 1.3564227810910986e-13 1.3564227039363238e-13 7.715477506967528e-21
1.0077091589558085 5.193956364783482e-21 1.389322072841441e-13 1.3893219801165812e-13 9.272485960843287e-21
1.0114953028030835 5.236486787200506e-21 1.405961134311856e-13 1.4059610327114482e-13 1.0160040766560181e-20
1.0152956718711033 5.279096551148141e-21 1.422726998132651e-13 1.422726886844312e-13 1.112883385804635e-20
1.0229392996569957 5.364506764922182e-21 1.4566294765848655e-13 1.4566293431932673e-13 1.3339159785676255e-20
1.0267826658714554 5.407210205908687e-21 1.4737411649019486e-13 1.4737410189311426e-13 1.459708065132532e-20
1.0306404723013447 5.449985208024496e-21 1.4909804515647773e-13 1.4909802918818262e-13 1.5968295146555715e-20
1.03451277320114 5.492830460686056e-21 1.5083477675030943e-13 1.5083475928782082e-13 1.7462488662511788e-20
1.0383996230291617 5.535744693852911e-21 1.5258435538306808e-13 1.525843362929411e-13 1.909012692857688e-20
1.0403485208654093 5.5572272925780156e-21 1.5346397641380945e-13 1.5346395645632335e-13 1.99574861275345e-20
1.0423010764483396 5.578726679058644e-21 1.5434682623127836e-13 1.5434680536876358e-13 2.086251474220741e-20
1.0462171883269815 5.62177523043545e-21 1.561222355840311e-13 1.5612221279217235e-13 2.279185877978387e-20
1.0471985131304309 5.632547634413456e-21 1.5656811509787482e-13 1.5656809179763388e-13 2.33002409299648e-20
1.048180758391296 5.643324109752981e-21 1.5701480698098967e-13 1.5701478316152262e-13 2.3819467008172736e-20
1.0501480137395462 5.664889205731837e-21 1.5791063089107017e-13 1.5791060599973543e-13 2.4891334745993086e-20
1.0521189612883777 5.686470382571389e-21 1.588097134348402e-13 1.5880968742556806e-13 2.6009272139237878e-20
1.0531058218030118 5.697252665379249e-21 1.5926007904862835e-13 1.59260052462488e-13 2.6586140361861606e-20
1.0540936079674168 5.707992089008009e-21 1.5970995060270044e-13 1.5970992342733264e-13 2.7175367800631354e-20
1.058054026499678 5.750987276088569e-21 1.6151753725099157e-13 1.615175075913564e-13 2.9659635147171255e-20
1.0590464539527713 5.761745368514521e-21 1.6197146295537782e-13 1.61971432641544e-13 3.03138338118999e-20
1.06003981227728 5.7725071488621954e-21 1.6242620186894207e-13 1.6242617088712265e-13 3.0981819421200383e-20
1.0620293250338977 5.794041714149479e-21 1.633381225511827e-13 1.6333809019092213e-13 3.2360260573120167e-20
1.0660195594769086 5.83715445956025e-21 1.6517175823735594e-13 1.6517172294227271e-13 3.5295083241416396e-20
1.070024785945596 5.880324617762841e-21 1.6701849746558297e-13 1.6701845898225854e-13 3.8483324421992256e-20
1.0740450607676866 5.923551344231942e-21 1.6887839486592624e-13 1.6887835292023906e-13 4.194568715559394e-20
1.07808044048254 5.966833845424908e-21 1.7075150659503763e-13 1.7075146089057508e-13 4.570446252096947e-20
1.0861967418109137 6.053497000799676e-21 1.7453569526727196e-13 1.745356410582232e-13 5.420904874630052e-20
1.0902777775684922 6.0967256865197255e-21 1.7644251854498014e-13 1.764424595365257e-13 5.900845446390223e-20
1.0943741465085532 6.140004901711206e-21 1.7836267440555727e-13 1.7836261019385744e-13 6.421169982838015e-20
1.1026131145906286 6.2267129285354844e-21 1.8224324113198686e-13 1.822431651715474e-13 7.596043944089806e-20
1.1109141095355224 6.313617671145361e-21 1.8617792894438615e-13 1.8617783920278056e-13 8.974160561048386e-20
1.1192775983109025 6.400648592393349e-21 1.9016528078919975e-13 1.901651749039303e-13 1.0588526954159214e-19
1.1277040513999907 6.487491327951957e-21 1.9419648466106584e-13 1.9419635988968256e-13 1.2477138318665356e-19
1.1361939428280308 6.574516159008792e-21 1.9828309987188814e-13 1.9828295303517369e-13 1.4683671442504394e-19
1.1447477501889525 6.661723673681658e-21 2.0242579148336629e-13 2.024256189007049e-13 1.725826613520044e-19
1.1533659546722406 6.749146536657798e-21 2.066262140401156e-13 2.0662601145579118e-13 2.0258432442294107e-19
1.1707974979042381 6.924904082872274e-21 2.152112554721838e-13 2.1521097738694934e-13 2.780852345052485e-19
1.1884924949847024 7.101553557025112e-21 2.2403673937729835e-13 2.2403635956684703e-13 3.7981045136274383e-19
1.2064549276569216 7.280290870982029e-21 2.33146696249684e-13 2.331461800660305e-13 5.161836535925287e-19
1.2246888378427687 7.459961967346462e-21 2.425112029926388e-13 2.425105049110337e-13 6.980816051103447e-19
1.2431983285522175 7.640424587661625e-21 2.521316373383392e-13 2.521306978395135e-13 9.39498825648233e-19
1.2619875648066055 7.821946285232304e-21 2.6202295360418574e-13 2.620216952545181e-13 1.2583496676794878e-18
1.3004222497298317 8.187073018325372e-21 2.826067224418741e-13 2.826044968391766e-13 2.225602697468499e-18
1.3400274889804893 8.556486180497655e-21 3.043537055881768e-13 3.0434984145869e-13 3.8641294867753066e-18
1.3808389325824078 8.931599418115192e-21 3.273721218087049e-13 3.273655328359378e-13 6.5889727670099735e-18
1.4228933163050095 9.315632279984258e-21 3.51847208326385e-13 3.518361685281284e-13 1.1039798256713391e-17
1.466228494730424 9.715344616750913e-21 3.7811969475749506e-13 3.781015103414673e-13 1.8184416027829387e-17
1.5108834753276823 1.0130051695574197e-20 4.062674853642048e-13 4.0623802596646933e-13 2.945939773559964e-17
1.5568984535646726 1.0559543104344575e-20 4.3639005787549553e-13 4.3634306918246667e-13 4.698869302885876e-17
1.6043148490894465 1.1006495170370809e-20 4.687141705162791e-13 4.686402405542993e-13 7.392996197965465e-17
1.6531753430134553 1.147376066248593e-20 5.034938135071068e-13 5.033792123014715e-13 1.1460120563541366e-16
1.7035239163302658 1.1964684220615254e-20 5.410269626000177e-13 5.408518970581683e-13 1.7506554184926575e-16
1.755405889504358 1.2488519455455067e-20 5.819128384400688e-13 5.816491620033795e-13 2.6367643668920933e-16
1.8088679632656115 1.3045543884506236e-20 6.263808765273029e-13 6.259891763362201e-13 3.9170019108287025e-16
1.8639582606462262 1.363584365402786e-20 6.746641433298107e-13 6.740900011534998e-13 5.741421763105933e-16
1.9207263702978936 1.4261463725682114e-20 7.271081853025389e-13 7.262775118851915e-13 8.306734173476648e-16
1.979223391128241 1.492534837862426e-20 7.841311828682664e-13 7.829444516793466e-13 1.1867311889199228e-15
2.039501978296691 1.5630141037913655e-20 8.461677340205872e-13 8.444930286190335e-13 1.6747054015537517e-15
2.1016163906111602 1.638323679807944e-20 9.139503181923166e-13 9.11614894313964e-13 2.335423878352501e-15
2.1656225393682647 1.7188463442386347e-20 9.88073497614007e-13 9.848540498939475e-13 3.2194477200597944e-15
2.231578038680979 1.8044465677944317e-20 1.0688716009235992e-12 1.0644830794536368e-12 4.388521469962247e-15
2.299542257339062 1.8952449595302908e-20 1.1568476750387698e-12 1.150930606277983e-12 5.9170687607871285e-15
2.369576372248914 1.9915426722293186e-20 1.2526500501316667e-12 1.2447562845619751e-12 7.893765569691794e-15
2.4417434235010123 2.09369712302135e-20 1.3570108372654618e-12 1.3465881697562062e-12 1.0422667509255027e-14
2.5161083711144245 2.2024302379788875e-20 1.4709602494296097e-12 1.4573355260349158e-12 1.362472339469415e-14
2.5927381535095444 2.3189312239920966e-20 1.5959377955442952e-12 1.5782992183151546e-12 1.7638577229140672e-14
2.6717017477616296 2.444228771706743e-20 1.7334018654596091e-12 1.7107817505956364e-12 2.262011486397322e-14
2.753070231689431 2.5798216073823792e-20 1.885282340327078e-12 1.8565398897184164e-12 2.8742450608661156e-14
2.836916847834745 2.729747797472107e-20 2.0555997859127015e-12 2.019403251410321e-12 3.619653450238121e-14
2.9233170693905177 2.902819761031771e-20 2.252503250617606e-12 2.20732259932577e-12 4.518065129183607e-14
2.967498994190263 3.006201817969442e-20 2.3679806355860246e-12 2.3177676040636778e-12 5.0213031522346664e-14
3.0123486681368425 3.116674416498014e-20 2.4921036858656393e-12 2.436370369658736e-12 5.5733316206903904e-14
3.0578761833420214 3.286844611254919e-20 2.667893582214323e-12 2.6060948585109217e-12 6.179872370340164e-14
3.1040917844459814 3.483678238921676e-20 2.8703973677412487e-12 2.8020093216428904e-12 6.838804609835837e-14
3.127460860933648 3.656949285306708e-20 3.0358496121859315e-12 2.9639378976138036e-12 7.191171457212761e-14
3.1510058709225794 3.874169484666673e-20 3.24038983721775e-12 3.164808414185286e-12 7.558142303246435e-14
3.162844764501044 4.0656815972147005e-20 3.4133488318782866e-12 3.33586956136553e-12 7.747927051275657e-14
3.1747281389236908 4.281640757215629e-20 3.6081634280471494e-12 3.5287485887425803e-12 7.94148393045689e-14
3.1986289994194426 4.862085083502541e-20 4.128153692446119e-12 4.044742641949429e-12 8.34110504966912e-14
3.2227097969389145 6.188801873102678e-20 5.2941618221507485e-12 5.20651951628366e-12 8.764230586708954e-14
3.2348180950136065 7.427634729126973e-20 6.377784416695101e-12 6.287884893416486e-12 8.989952327861422e-14
3.240889293275058 8.351364675040679e-20 7.184409481378625e-12 7.0933193310710484e-12 9.109015030757842e-14
3.2469718861334385 9.421324177382882e-20 8.120072540224644e-12 8.0277504449925e-12 9.232209523214498e-14
3.2714166318528037 1.5030661346232337e-19 1.3052189791677405e-11 1.2954779345152648e-11 9.741044652476057e-14
3.2744851364798273 1.538212436936717e-19 1.3369918961960082e-11 1.3271909607112396e-11 9.80093548476869e-14
3.2775565192852394 1.5742937697297541e-19 1.3696367464657163e-11 1.3597756276204616e-11 9.861118845254722e-14
3.283707930232385 1.540186501075008e-19 1.3424782787303087e-11 1.3325096823481432e-11 9.968596382165258e-14
3.2898708863219004 1.430961404983261e-19 1.249614936065513e-11 1.2395486668020997e-11 1.0066269263413104e-13
3.29141343181113 1.4051523677762757e-19 1.2276520396093292e-11 1.2175612476985048e-11 1.0090791910824634e-13
3.292184975758714 1.3924630916069018e-19 1.2168508627198557e-11 1.2067477938056568e-11 1.0103068914198191e-13
3.295272960557952 1.31324472099806e-19 1.1486996573052564e-11 1.1385488591761818e-11 1.0150798129074729e-13
3.3076538914384823 1.0368131026812479e-19 9.103113742733212e-12 8.999689416586454e-12 1.0342432614675675e-13
3.310756385682612 9.799950973576936e-20 8.612327998511008e-12 8.508420784070482e-12 1.0390721444052936e-13
3.313861789986515 9.273546398858492e-20 8.157360841620383e-12 8.052969216104793e-12 1.0439162551558884e-13
3.3200813396944477 8.539624459183957e-20 7.525873762163298e-12 7.420439576627303e-12 1.0543418553599622e-13
3.345076488085796 7.267551264681123e-20 6.4530285970496936e-12 6.342946647191783e-12 1.1008194985791218e-13
3.3482140837626964 7.322060837956328e-20 6.5075270939938426e-12 6.39681546084625e-12 1.1071163314759343e-13
3.3513546224236106 7.377052030452155e-20 6.56255059353596e-12 6.451206515090752e-12 1.1134407844520612e-13
3.3576445397418455 7.752221180819769e-20 6.909240427049397e-12 6.796573810565178e-12 1.1266661648422025e-13
3.3702598118196083 9.104219386138078e-20 8.144708195403505e-12 8.029267630686928e-12 1.1544056471657793e-13
3.382922481734668 9.433806519219654e-20 8.471268443717035e-12 8.353133782017557e-12 1.1813466169947416e-13
3.389271646505754 9.603603880181014e-20 8.639926539565057e-12 8.520426754830146e-12 1.1949978473491262e-13
3.395632727569191 9.790094698382074e-20 8.824234412769454e-12 8.703327786396614e-12 1.209066263728406e-13
3.421196662673239 1.0691473896356616e-19 9.709235892689872e-12 9.582507918034435e-12 1.2672797465543886e-13
3.4276182099114902 1.0536291143084775e-19 9.58626956644711e-12 9.458244793805157e-12 1.2802477264194965e-13
3.4340518103208963 9.816739547052455e-20 8.948362000188531e-12 8.81911181724015e-12 1.292501829483793e-13
3.4469541582030403 8.786436650371797e-20 8.039290512484876e-12 7.907690613018735e-12 1.3159989946614085e-13
3.472904465399547 8.516001401829641e-20 7.850512220266066e-12 7.713496146565456e-12 1.370160737006088e-13
3.4990501388274233 8.098253484356884e-20 7.521612667246668e-12 7.379059356848861e-12 1.425533103978043e-13
3.5253949054701885 6.571168854569915e-20 6.149217192004899e-12 6.001292830196142e-12 1.4792436180875626e-13
3.5519380250092896 5.1184337247443346e-20 4.825828643400159e-12 4.672512639852798e-12 1.5331600354736023e-13
3.578680990867387 4.5647986667464086e-20 4.336247345139612e-12 4.17702287862081e-12 1.592244665188031e-13
3.605625307711299 4.365117006524374e-20 4.177783360521214e-12 4.0123403369603665e-12 1.6544302356084738e-13
3.660119384959845 4.2692121644940995e-20 4.147748573292572e-12 3.969259997012814e-12 1.784885762797602e-13
3.715437065384467 4.2198091445622e-20 4.161713232069316e-12 3.969500172415767e-12 1.9221305965354958e-13
3.8285932144167436 4.306784318304075e-20 4.376851192434947e-12 4.155239895063643e-12 2.216112973713045e-13
3.94519561050918 4.441977710659686e-20 4.65172839558411e-12 4.398209131437739e-12 2.535192641463694e-13
4.06534921144712 4.594871924746288e-20 4.958390203410957e-12 4.6705277209917285e-12 2.878624824192293e-13
4.189162171576248 4.75602210746372e-20 5.2885969585744926e-12 4.963930706140054e-12 3.2466625243444093e-13
4.316745939156006 4.9209526710678035e-20 5.638649638892533e-12 5.2749016448618786e-12 3.637479940306553e-13
4.448215356677963 5.0870270300529574e-20 6.0064696007569055e-12 5.601956874284935e-12 4.0451272647197024e-13
4.58368876423945 5.253266780006864e-20 6.3916650863067075e-12 5.944698692088519e-12 4.4696639421818923e-13
4.723288106065518 5.4196741954350455e-20 6.794962271770101e-12 6.303629692784422e-12 4.913325789856789e-13
4.867139040275056 5.585937462202351e-20 7.216710025002788e-12 6.680361418837926e-12 5.363486061648616e-13
4.940699165968905 5.6713510224913e-20 7.437797879671577e-12 6.878569717501787e-12 5.592281621697905e-13
5.015371051989984 5.754613626941319e-20 7.661056614940372e-12 7.078780575799921e-12 5.822760391404497e-13
5.091171501069577 5.843734701273931e-20 7.897282089554032e-12 7.291278260990218e-12 6.060038285638136e-13
5.129500256944802 5.887348546994262e-20 8.016120499311816e-12 7.398218813787082e-12 6.179016855247344e-13
5.168117569889187 5.931071011873459e-20 8.13644965892403e-12 7.506505129759405e-12 6.299445291646218e-13
5.20702561229733 5.980675089888908e-20 8.266265617364585e-12 7.623128392323206e-12 6.431372250413789e-13
5.246226572918644 6.029810919582568e-20 8.396922983262709e-12 7.740537713109182e-12 6.563852701535279e-13
5.265937586045735 6.054202046760403e-20 8.462565653025371e-12 7.799537584948994e-12 6.630280680763776e-13
5.285722656980489 6.078474813102182e-20 8.528416984623618e-12 7.858734670086352e-12 6.696823145372673e-13
5.305582063971359 6.10262892826148e-20 8.594476586536345e-12 7.918129385438556e-12 6.763472010977906e-13
5.3255160863122235 6.127808631318604e-20 8.662361979862731e-12 7.979283212822254e-12 6.830787670404786e-13
5.365609099470188 6.186670983884982e-20 8.811411489967605e-12 8.114402307020715e-12 6.97009182946888e-13
5.406003951863644 6.245525894664307e-20 8.962203587433948e-12 8.251210366983992e-12 7.109932204499553e-13
5.446702915881641 6.304402898948795e-20 9.114798683722487e-12 8.38977428547829e-12 7.25024398244195e-13
5.487708281020852 6.365495046791505e-20 9.272410165267931e-12 8.533249699178798e-12 7.391604660891355e-13
5.529022354014368 6.445885062554547e-20 9.460200395020232e-12 8.706305334675823e-12 7.538950603444066e-13
5.570647458961463 6.527796665692332e-20 9.652542577263617e-12 8.883859668012263e-12 7.686829092513568e-13
5.612585937458331 6.611395477677377e-20 9.849758291020337e-12 9.066240880863951e-12 7.835174101563863e-13
5.654840148729818 6.700100844986374e-20 1.0057061485340833e-11 9.258590807352441e-12 7.984706779883915e-13
5.67608639626678 6.759569861866991e-20 1.0184447910494889e-11 9.378144927470046e-12 8.063029830248448e-13
5.686739436050992 6.789794024715201e-20 1.0249185707464848e-11 9.438960948247576e-12 8.102247592172721e-13
5.6974124697621304 6.820356591159864e-20 1.0314642411869991e-11 9.500492266873141e-12 8.141501449968477e-13
5.718818669136295 6.882534248910314e-20 1.04477829224731e-11 9.625771597872944e-12 8.220113246001543e-13
5.740305295436557 6.950211916414335e-20 1.059015875351056e-11 9.760210388494712e-12 8.299483650158468e-13
5.7835210386641895 7.123816450328783e-20 1.0936402207049762e-11 1.0090054886399348e-11 8.463473206504153e-13
5.827062130521658 7.317612810651918e-20 1.1318490434961222e-11 1.0455525724716956e-11 8.629647102442667e-13
5.8489554468988025 7.454186305608186e-20 1.1573054260952051e-11 1.0701086817466865e-11 8.719674434851851e-13
5.870931020387893 7.598007506990784e-20 1.1840665954389379e-11 1.0959667790908976e-11 8.809981634804043e-13
5.892989160043636 7.749656803379305e-20 1.2122370275097851e-11 1.1232314237957596e-11 8.900560371402566e-13
5.915130176081913 7.920712431517977e-20 1.2436494607831318e-11 1.153703993450782e-11 8.994546733234996e-13
5.95966208400165 8.399944952113603e-20 1.3288241389126363e-11 1.2367197399988874e-11 9.210439891374874e-13
6.004529249263818 9.082351581901624e-20 1.4475937766860875e-11 1.3530502195077141e-11 9.454355717837319e-13
6.027089341400364 9.55535678997931e-20 1.528706000134657e-11 1.432744440964539e-11 9.596155917011796e-13
6.049734195844842 1.0107720368151377e-19 1.6231510809774006e-11 1.525685623321698e-11 9.746545765570258e-13
6.095279466722835 1.1697645207706514e-19 1.892611613553567e-11 1.79142005184835e-11 1.0119156170521668e-12
6.141167624020661 1.4114975299442862e-19 2.3009146390760533e-11 2.1948505601621163e-11 1.060640789139371e-12
6.164241091010745 1.565404861906298e-19 2.5613901056066744e-11 2.452250316695322e-11 1.0913978891135204e-12
6.187401249150058 1.7380435103236558e-19 2.854554625040816e-11 2.7422599308966174e-11 1.122946941441985e-12
6.1990139391386085 1.821836919965639e-19 2.9977923352988643e-11 2.8838929666895156e-11 1.1389936860934877e-12
6.204828454712694 1.8657503449447324e-19 3.0729305330716e-11 2.958221019952176e-11 1.1470951311942395e-12
6.210648424152782 1.897478996078297e-19 3.1281196430858845e-11 3.01272381139287e-11 1.1539583169301484e-12
6.233982942956859 2.0035565220113605e-19 3.315405407305045e-11 3.197633370260477e-11 1.1777203704456827e-12
6.239830258556775 2.0161361349225491e-19 3.339350938993668e-11 3.2212617018474545e-11 1.1808923714621225e-12
6.245683058788269 2.0157451902373448e-19 3.341835030426051e-11 3.223428214534579e-11 1.1840681589147165e-12
6.257405133728602 2.0094074140215973e-19 3.3375801784336616e-11 3.2186248195621584e-11 1.1895535887150245e-12
6.269149208991335 1.9842421658219763e-19 3.301966887135674e-11 3.1828454079967687e-11 1.1912147913890537e-12
6.280915325867298 1.9262623302779293e-19 3.211499090877176e-11 3.092683913685334e-11 1.188151771918428e-12
6.304513850009849 1.7854164650293741e-19 2.9878622530744546e-11 2.8700864313624792e-11 1.1777582171197482e-12
6.32820103803542 1.6142116758124642e-19 2.711503597525587e-11 2.5952211143001367e-11 1.1628248322544962e-12
6.3519772230701035 1.4581898892102446e-19 2.4586258743191124e-11 2.3436915881543722e-11 1.149342861647401e-12
6.375842739491607 1.3264891055981076e-19 2.244970906436136e-11 2.131235578209305e-11 1.13735328226831e-12
6.399797922933955 1.222198732185309e-19 2.076239853325683e-11 1.9631662907198974e-11 1.1307356260578564e-12
6.42384311029221 1.1350499354354414e-19 1.9354382822513387e-11 1.8229191124360566e-11 1.12519169815282e-12
6.447978639727206 1.0718385570472127e-19 1.8345197808930187e-11 1.7221370651574484e-11 1.1238271573557055e-12
6.472204850670314 1.0189061490181421e-19 1.750474831572645e-11 1.6381459404896184e-11 1.123288910830262e-12
6.496522083828205 9.844016173981113e-20 1.6975503744356893e-11 1.5849375432707865e-11 1.1261283116490262e-12
