Dust emission spectrum from A.P. Jones, M. Kohler, N. Ysard, M. Bocchio, and L. Verstraete (2017), A&A, 602A, 46J 
inside the DustPedia framework.

lambda    nu*dP/dnu     j_nu    j_nu(carb.) j_nu(sil)
 (um)   (erg s-1 H-1) (Jy cm2 sr-1 H-1)
0.9927057738263894 3.644770765956117e-24 9.604177987141007e-17 9.60417798705928e-17 8.17271766967209e-28
1.0001793341362166 3.704669259611614e-24 9.835506994977348e-17 9.83550699487887e-17 9.847939009971823e-28
1.0077091589558085 3.764475059356458e-24 1.0069526821762284e-16 1.006952682164377e-16 1.1851518691187108e-27
1.0114953028030835 3.7943358579235565e-24 1.0187534053949838e-16 1.0187534053819887e-16 1.2995148702796474e-27
1.0152956718711033 3.824164698261551e-24 1.0306199761281531e-16 1.030619976113908e-16 1.4244595020177559e-27
1.0229392996569957 3.883685486800288e-24 1.0545407072368938e-16 1.0545407072197947e-16 1.7099259240218393e-27
1.0267826658714554 3.9133049507751504e-24 1.0665756235017224e-16 1.0665756234829961e-16 1.8726115518550182e-27
1.0306404723013447 3.9428794067367935e-24 1.0786737750528338e-16 1.0786737750323324e-16 2.0501193245984504e-27
1.03451277320114 3.972406013562904e-24 1.0908346407300362e-16 1.0908346407075987e-16 2.2437347011201615e-27
1.0383996230291617 4.0018819465661416e-24 1.1030576930579759e-16 1.1030576930334276e-16 2.4548485426881976e-27
1.0403485208654093 4.0166000322964944e-24 1.1091923726842994e-16 1.1091923726586252e-16 2.5674328359068714e-27
1.0423010764483396 4.031304398034286e-24 1.1153423983728478e-16 1.1153423983459984e-16 2.684965218123393e-27
1.0462171883269815 4.060670577758296e-24 1.1276882169492556e-16 1.127688216919899e-16 2.935711287425423e-27
1.0471985131304309 4.068003004960096e-24 1.1307841567245234e-16 1.1307841566945053e-16 3.0018241405861337e-27
1.048180758391296 4.075331698689182e-24 1.133883873420128e-16 1.1338838733894342e-16 3.0693643317934465e-27
1.0501480137395462 4.0899777135482535e-24 1.1400946031271677e-16 1.1400946030950793e-16 3.2088448016513006e-27
1.0521189612883777 4.104608278709916e-24 1.1463203369564214e-16 1.1463203369228775e-16 3.3543946321581644e-27
1.0531058218030118 4.111906359807678e-24 1.149435649717558e-16 1.149435649683263e-16 3.4295285477809654e-27
1.0540936079674168 4.119163425780113e-24 1.1525443220614615e-16 1.1525443220263983e-16 3.506291119695e-27
1.058054026499678 4.148149410019458e-24 1.165015404644025e-16 1.1650154046057236e-16 3.830144506216625e-27
1.0590464539527713 4.155385125432745e-24 1.1681422292406564e-16 1.1681422292015015e-16 3.915481772913607e-27
1.06003981227728 4.162616444572037e-24 1.17127265760477e-16 1.1712726575647436e-16 4.0026402185791084e-27
1.0620293250338977 4.177065726640415e-24 1.177544289845504e-16 1.177544289803678e-16 4.18256942300999e-27
1.0660195594769086 4.205909698773362e-24 1.1901304047148343e-16 1.1901304046691753e-16 4.565959105602273e-27
1.070024785945596 4.234678670482427e-24 1.2027731711563348e-16 1.202773171106506e-16 4.982895790473649e-27
1.0740450607676866 4.263370007200586e-24 1.2154720060570736e-16 1.215472006002712e-16 5.4361646667540476e-27
1.07808044048254 4.2919810961525906e-24 1.2282263214139955e-16 1.2282263213547076e-16 5.928768779788865e-27
1.0861967418109137 4.348901339417823e-24 1.2538843561395835e-16 1.2538843560691318e-16 7.045181726256398e-27
1.0902777775684922 4.377089751520363e-24 1.2667533022902646e-16 1.2667533022135023e-16 7.676237151382876e-27
1.0943741465085532 4.4051856815311914e-24 1.279674384611635e-16 1.279674384528023e-16 8.361153904979734e-27
1.1026131145906286 4.461090187394117e-24 1.3056704943101076e-16 1.305670494211004e-16 9.910316531228426e-27
1.1109141095355224 4.51659528809168e-24 1.3318677189781989e-16 1.331867718860883e-16 1.1731610058723102e-26
1.1192775983109025 4.571629974300115e-24 1.3582456296074015e-16 1.358245629468701e-16 1.387005516750262e-26
1.1277040513999907 4.62593738026218e-24 1.3847275196169454e-16 1.3847275194531692e-16 1.637763306077009e-26
1.1361939428280308 4.679781781241304e-24 1.41139152428277e-16 1.4113915240896273e-16 1.9314271907106285e-26
1.1447477501889525 4.7331454102471096e-24 1.4382324347380584e-16 1.4382324345105687e-16 2.2748979698935515e-26
1.1533659546722406 4.786040226732229e-24 1.4652539649599816e-16 1.4652539646923702e-16 2.6761151480274136e-26
1.1707974979042381 4.890596835520364e-24 1.5198932322887447e-16 1.5198932319197814e-16 3.6896335208615376e-26
1.1884924949847024 4.99305507656478e-24 1.5751874148414378e-16 1.5751874143352329e-16 5.0620479852979843e-26
1.2064549276569216 5.094224063619713e-24 1.6313929366785986e-16 1.6313929359874633e-16 6.911352916172494e-26
1.2246888378427687 5.19299383172698e-24 1.6881576431326256e-16 1.6881576421935355e-16 9.3909030304679e-26
1.2431983285522175 5.28913479783582e-24 1.745398048735496e-16 1.745398047465562e-16 1.2699338982225627e-25
1.2619875648066055 5.382613277298352e-24 1.803091171425673e-16 1.8030911697164076e-16 1.7092644345868855e-25
1.3004222497298317 5.560031053372889e-24 1.9192477569842845e-16 1.9192477539306626e-16 3.0536218886845257e-25
1.3400274889804893 5.7245721349757155e-24 2.0362269107122494e-16 2.0362269053552284e-16 5.357021131104962e-25
1.3808389325824078 5.875647366828275e-24 2.153615556892292e-16 2.1536155476595128e-16 9.23278036131449e-25
1.4228933163050095 6.0140228845283376e-24 2.271469181194285e-16 2.271469165553631e-16 1.5640653963561583e-24
1.466228494730424 6.143074706170998e-24 2.3908750789600735e-16 2.3908750529041403e-16 2.6055933655677105e-24
1.5108834753276823 6.260306315731818e-24 2.510706737669665e-16 2.510706694964628e-16 4.2705037367002e-24
1.5568984535646726 6.363706405091441e-24 2.629903755284577e-16 2.629903686352523e-16 6.893205457612036e-24
1.6043148490894465 6.4534951561156745e-24 2.748236002658126e-16 2.748235892878655e-16 1.0977946933523872e-23
1.6531753430134553 6.5299780997718495e-24 2.8654977842806742e-16 2.8654976119778223e-16 1.723028521167327e-23
1.7035239163302658 6.5940957511893405e-24 2.981761599033824e-16 2.981761332444048e-16 2.665897749908763e-23
1.755405889504358 6.65112680475916e-24 3.099147254073918e-16 3.0991468472610275e-16 4.0681289119124345e-23
1.8088679632656115 6.699812253329114e-24 3.216910164085116e-16 3.216909551588229e-16 6.124968875398231e-23
1.8639582606462262 6.739313566937491e-24 3.3344275056467023e-16 3.334426595424758e-16 9.102219447632767e-23
1.9207263702978936 6.770305480925369e-24 3.451780705590953e-16 3.4517793699381335e-16 1.3356528201118475e-22
1.979223391128241 6.794309175604321e-24 3.569517813245446e-16 3.569515877201899e-16 1.9360435463564016e-22
2.039501978296691 6.813137090445906e-24 3.688422746416728e-16 3.688419973271162e-16 2.7731455653049627e-22
2.1016163906111602 6.831793637795639e-24 3.8111638414574615e-16 3.811159914541275e-16 3.926916187850364e-22
2.1656225393682647 6.853200969538235e-24 3.939541352559224e-16 3.93953585324856e-16 5.49931066508473e-22
2.231578038680979 6.87760882229879e-24 4.07398084466542e-16 4.0739732258971366e-16 7.618768284443475e-22
2.299542257339062 6.90678538771995e-24 4.2158659109457827e-16 4.2158554656280024e-16 1.0445317778949e-21
2.369576372248914 6.944584294279305e-24 4.3680378962881124e-16 4.368023719828444e-16 1.4176459667571946e-21
2.4417434235010123 6.995549356224895e-24 4.53410198860258e-16 4.534082935624095e-16 1.9052978484965403e-21
2.5161083711144245 7.067431967740368e-24 4.720200127489272e-16 4.72017476120999e-16 2.536627928136695e-21
2.5927381535095444 7.172889372247842e-24 4.936535044243872e-16 4.936501578809048e-16 3.346543482508327e-21
2.6717017477616296 7.327016350399861e-24 5.196184562203489e-16 5.196140799510709e-16 4.3762692780140955e-21
2.753070231689431 7.552508832516377e-24 5.519223300697383e-16 5.519166559662817e-16 5.674103456485023e-21
2.836916847834745 7.90073879592517e-24 5.949544859966834e-16 5.949471896040477e-16 7.296392635496144e-21
2.9233170693905177 8.484790471872505e-24 6.583949294843226e-16 6.583856225882217e-16 9.30689610073852e-21
2.967498994190263 8.976848416141887e-24 7.071049951121791e-16 7.070945300175839e-16 1.0465094595096846e-20
3.0123486681368425 9.550733926706137e-24 7.636800012049491e-16 7.636682490400675e-16 1.1752164881761168e-20
3.0578761833420214 1.0826485498146857e-23 8.78773248955464e-16 8.787600650751436e-16 1.3183880320407073e-20
3.1040917844459814 1.2468834184619273e-23 1.0273769954544283e-15 1.0273622315027962e-15 1.4763951632301605e-20
3.127460860933648 1.4202065170458997e-23 1.1789973192466953e-15 1.1789817004524482e-15 1.561879424756088e-20
3.1510058709225794 1.6510262424105777e-23 1.3809330433429263e-15 1.3809165269417474e-15 1.6516401178932286e-20
3.162844764501044 1.8657169610610086e-23 1.566365357783034e-15 1.5663483743186439e-15 1.6983464389891094e-20
3.1747281389236908 2.115350773898398e-23 1.7826183308370095e-15 1.7826008690206064e-15 1.7461816402528912e-20
3.1986289994194426 2.8115105745647395e-23 2.3871132570513926e-15 2.387094801428218e-15 1.8455623174142745e-20
3.2227097969389145 4.45198125255768e-23 3.80841230071653e-15 3.808392784882336e-15 1.951583419405545e-20
3.2348180950136065 6.007481062345178e-23 5.158360703006649e-15 5.158340619439902e-15 2.0083566747824948e-20
3.240889293275058 7.170375926769795e-23 6.168442978821668e-15 6.168422595679889e-15 2.0383141779652792e-20
3.2469718861334385 8.515681647564249e-23 7.339515274687193e-15 7.339494581482563e-15 2.069320462946918e-20
3.2714166318528037 1.5691083992908655e-22 1.362568163801602e-14 1.3625659657570947e-14 2.1980445077068302e-20
3.2744851364798273 1.6139662016921252e-22 1.4028359676339034e-14 1.4028337542641953e-14 2.213369708439329e-20
3.2775565192852394 1.6601118605867757e-22 1.444298549116112e-14 1.4442963203291108e-14 2.228787001695978e-20
3.283707930232385 1.6157475687361506e-22 1.4083398428863067e-14 1.408337586222757e-14 2.256663549874176e-20
3.2898708863219004 1.47503347336939e-22 1.2881017287398776e-14 1.2880994464233673e-14 2.2823165102198552e-20
3.29141343181113 1.4418492555059635e-22 1.2597133378014683e-14 1.2597110490351159e-14 2.288766352071773e-20
3.292184975758714 1.4255436567799297e-22 1.245759430934476e-14 1.245757138937696e-14 2.2919967795630845e-20
3.295272960557952 1.3226256068844115e-22 1.156905150333762e-14 1.1569028457182054e-14 2.3046155567000942e-20
3.3076538914384823 9.660732063670982e-23 8.482024637443586e-15 8.482001082874503e-15 2.3554569079570273e-20
3.310756385682612 8.935019347295877e-23 7.852214516116807e-15 7.852190833062228e-15 2.3683054577162665e-20
3.313861789986515 8.265420689291632e-23 7.270575481095984e-15 7.270551668999791e-15 2.3812096194124515e-20
3.3200813396944477 7.326427704714099e-23 6.456697281810334e-15 6.4566731934089e-15 2.4088401433753697e-20
3.345076488085796 5.65175800039468e-23 5.018327999610128e-15 5.018302682514427e-15 2.531709570116975e-20
3.3482140837626964 5.71464210431458e-23 5.0789237004871416e-15 5.078898216993467e-15 2.5483493673485643e-20
3.3513546224236106 5.778220601111578e-23 5.140246385531092e-15 5.140220734711213e-15 2.5650819880112272e-20
3.3576445397418455 6.242524616723405e-23 5.5637090896515736e-15 5.563683089434775e-15 2.6000216798376824e-20
3.3702598118196083 7.954752642418754e-23 7.116385962509043e-15 7.116359228857978e-15 2.6733651063508638e-20
3.382922481734668 8.344960534045144e-23 7.493518198841352e-15 7.49349074656038e-15 2.74522809727053e-20
3.389271646505754 8.547107869617985e-23 7.68944502923895e-15 7.689417211500897e-15 2.7817738053186994e-20
3.395632727569191 8.764949841963725e-23 7.900227158623546e-15 7.900198964148323e-15 2.819447522473278e-20
3.421196662673239 9.810941792498993e-23 8.909599285958455e-15 8.909569524925414e-15 2.976103304054669e-20
3.4276182099114902 9.600462306287809e-23 8.73482123650244e-15 8.734791119571776e-15 3.011693066117307e-20
3.4340518103208963 8.67759444884009e-23 7.909984373820186e-15 7.909953917229688e-15 3.045659050022087e-20
3.4469541582030403 7.363248192977612e-23 6.737121508338819e-15 6.737090393519264e-15 3.1114819554849785e-20
3.472904465399547 6.995319943313695e-23 6.4486655307332785e-15 6.44863290720839e-15 3.2623524888286156e-20
3.4990501388274233 6.432368052906892e-23 5.974347570200744e-15 5.974313387124343e-15 3.418307640074551e-20
3.5253949054701885 4.427722252382829e-23 4.1434068121442555e-15 4.143371089839696e-15 3.5722304559756465e-20
3.5519380250092896 2.5434345085366587e-23 2.398034196393098e-15 2.397996906800048e-15 3.72895930498152e-20
3.578680990867387 1.796629105091494e-23 1.706675092574536e-15 1.7066360801689969e-15 3.901240553969981e-20
3.605625307711299 1.494899898627793e-23 1.430744677129463e-15 1.430703836514211e-15 4.08406152522044e-20
3.660119384959845 1.2754963815797415e-23 1.2392071635456249e-15 1.2391624226948512e-15 4.474085077404014e-20
3.715437065384467 1.1204480275316946e-23 1.1050223415989103e-15 1.1049734004353105e-15 4.8941163599805904e-20
3.8285932144167436 1.0435099897967048e-23 1.0604868053754763e-15 1.0604285171313464e-15 5.828824412990396e-20
3.94519561050918 1.0307501954820428e-23 1.0794223351394553e-15 1.0793533495809542e-15 6.898555850102281e-20
4.06534921144712 1.0444576963500368e-23 1.1270888273442256e-15 1.1270076527699253e-15 8.117457430079484e-20
4.189162171576248 1.0735863948711869e-23 1.193805582562891e-15 1.1937105348860087e-15 9.504767688258679e-20
4.316745939156006 1.114028158467181e-23 1.2765037368453352e-15 1.276392973899141e-15 1.1076294619421345e-19
4.448215356677963 1.1644162553232974e-23 1.3748758948807411e-15 1.3747475326724905e-15 1.2836220825046079e-19
4.58368876423945 1.2249368455854802e-23 1.490384249788501e-15 1.4902361396640271e-15 1.4811012447442905e-19
4.723288106065518 1.2969297662000814e-23 1.6260366421819146e-15 1.625866248015784e-15 1.7039416613037033e-19
4.867139040275056 1.3830571494254785e-23 1.7868303150453463e-15 1.786635199626554e-15 1.951154187926876e-19
4.940699165968905 1.4347470216552708e-23 1.8816254386675203e-15 1.8814168858384316e-15 2.0855282908862682e-19
5.015371051989984 1.4882752805633112e-23 1.9813252326154923e-15 1.9811024929317457e-15 2.2273968374665013e-19
5.091171501069577 1.5532472152908817e-23 2.0990739725559887e-15 2.09883602829017e-15 2.3794426581868595e-19
5.129500256944802 1.5865915767034742e-23 2.160277952040297e-15 2.1600320932188662e-15 2.458588214306979e-19
5.168117569889187 1.621329661264334e-23 2.2241964635035896e-15 2.22394243169508e-15 2.5403180850921207e-19
5.20702561229733 1.6637627829074186e-23 2.2995907453741782e-15 2.2993279333756958e-15 2.6281199848238615e-19
5.246226572918644 1.7072671618438782e-23 2.3774859711271006e-15 2.3772141251069083e-15 2.718460201928296e-19
5.265937586045735 1.7294316493608354e-23 2.4174001399519566e-15 2.4171236797206094e-15 2.764602313477921e-19
5.285722656980489 1.75187682641349e-23 2.457974498660174e-15 2.4576933583205862e-15 2.81140339588438e-19
5.305582063971359 1.7746071794663165e-23 2.49922124276488e-15 2.4989353555824775e-15 2.858871824019698e-19
5.3255160863122235 1.7989956812800405e-23 2.5430872158460586e-15 2.542796493192697e-15 2.9072265336222346e-19
5.365609099470188 1.8595154497284252e-23 2.6484285073812388e-15 2.6481277414657074e-15 3.0076591553095814e-19
5.406003951863644 1.922307728869023e-23 2.7584727874621938e-15 2.7581616829613297e-15 3.1110450086401304e-19
5.446702915881641 1.9874814714798194e-23 2.8734669707083106e-15 2.8731452244091675e-15 3.2174629914464743e-19
5.487708281020852 2.057834245752195e-23 2.9975803984588506e-15 2.9972476722269843e-15 3.327262318664005e-19
5.529022354014368 2.1552717990923697e-23 3.163150277623658e-15 3.1628060126190925e-15 3.442650045647257e-19
5.570647458961463 2.258379693752003e-23 3.339427875279381e-15 3.3390717246546526e-15 3.5615062472780246e-19
5.612585937458331 2.3675640421530174e-23 3.527233188886581e-15 3.526864796054289e-15 3.6839283229307805e-19
5.654840148729818 2.4874743891410787e-23 3.733777065985837e-15 3.7333960283594385e-15 3.8103762639873345e-19
5.67608639626678 2.568990067209501e-23 3.8706228438694614e-15 3.8702351852003735e-15 3.876586690888727e-19
5.686739436050992 2.6109942049270114e-23 3.941292532586648e-15 3.9409015253849944e-15 3.9100720165448624e-19
5.6974124697621304 2.653855626074248e-23 4.0135103538670095e-15 4.013115972545875e-15 3.943813211354667e-19
5.718818669136295 2.742232617297464e-23 4.16274733583567e-15 4.162346128767434e-15 4.012070682331024e-19
5.740305295436557 2.839601307383787e-23 4.3267498895752674e-15 4.326341718197332e-15 4.0817137793494056e-19
5.7835210386641895 3.0919538675570287e-23 4.746732504553241e-15 4.7463098137130054e-15 4.2269084023451804e-19
5.827062130521658 3.3824034449121585e-23 5.2317199651080595e-15 5.231282212104542e-15 4.377530035180156e-19
5.8489554468988025 3.58605660161878e-23 5.567559748561092e-15 5.5671139263420235e-15 4.458222190672651e-19
5.870931020387893 3.8044888311659e-23 5.9288808724646816e-15 5.9284268459775964e-15 4.540264870843319e-19
5.892989160043636 4.0388866263855975e-23 6.317812572401556e-15 6.317350204389413e-15 4.623680121437213e-19
5.915130176081913 4.3053769916314756e-23 6.759972439858466e-15 6.759501427436514e-15 4.710124219539066e-19
5.95966208400165 5.0502730582546076e-23 7.98924848456329e-15 7.988758304338885e-15 4.901802244035402e-19
6.004529249263818 6.123395408939624e-23 9.759795143619857e-15 9.759283603112959e-15 5.115405069015117e-19
6.027089341400364 6.869231401767504e-23 1.098968410180958e-14 1.098916048765448e-14 5.236141550994616e-19
6.049734195844842 7.750311770146244e-23 1.2445859669073447e-14 1.2445323293209728e-14 5.363758637185716e-19
6.095279466722835 1.0295193439632721e-22 1.6657029959151624e-14 1.665646321447599e-14 5.667446756314978e-19
6.141167624020661 1.4210867057799252e-22 2.316546175503727e-14 2.3164856813526657e-14 6.049415106150113e-19
6.164241091010745 1.6711931119148708e-22 2.734485886420483e-14 2.7344230570106696e-14 6.282940981377471e-19
6.187401249150058 1.9560163028926002e-22 3.212552131699827e-14 3.212486881068926e-14 6.525063089998954e-19
6.1990139391386085 2.0951139851322195e-22 3.4474636985209876e-14 3.447397210591346e-14 6.648792964147272e-19
6.204828454712694 2.1683774717712737e-22 3.571363852770951e-14 3.5712967374470185e-14 6.711532393121852e-19
6.210648424152782 2.221882405068629e-22 3.6629201220603623e-14 3.6628524556238596e-14 6.766643650317133e-19
6.233982942956859 2.4036961864557734e-22 3.97754056176749e-14 3.977470900971635e-14 6.966079585559775e-19
6.239830258556775 2.426960968076097e-22 4.0198051348140895e-14 4.019735143819327e-14 6.999099476378162e-19
6.245683058788269 2.4290231587935037e-22 4.026994444082729e-14 4.026924121413285e-14 7.032266944363321e-19
6.257405133728602 2.4241318493487387e-22 4.0264280672197846e-14 4.026357132046027e-14 7.093517375742167e-19
6.269149208991335 2.388508719943332e-22 3.974704720389098e-14 3.974633408137818e-14 7.13122512796021e-19
6.280915325867298 2.299020022947896e-22 3.8329673988590636e-14 3.832896003286174e-14 7.139557288882667e-19
6.304513850009849 2.0782648931658288e-22 3.477938815848117e-14 3.47786752083704e-14 7.129501107746758e-19
6.32820103803542 1.8045830670990272e-22 3.0312836611158563e-14 3.031212751084758e-14 7.091003109934812e-19
6.3519772230701035 1.5535801906814503e-22 2.619461623552861e-14 2.619391006503495e-14 7.061704936676678e-19
6.375842739491607 1.3423669786893443e-22 2.2718428671597333e-14 2.2717724502957108e-14 7.041686402261623e-19
6.399797922933955 1.1731459128994863e-22 1.9929101822687457e-14 1.992839612604425e-14 7.056966432105138e-19
6.42384311029221 1.0324198762932039e-22 1.7604379239654248e-14 1.760367128730106e-14 7.079523531838526e-19
6.447978639727206 9.299153617403029e-23 1.5916092161944204e-14 1.5915379122330906e-14 7.1303961329767e-19
6.472204850670314 8.445134208065517e-23 1.4508691398827407e-14 1.4507972647421267e-14 7.18751406138835e-19
6.496522083828205 7.890603675916316e-23 1.3606943535890482e-14 1.3606216706133226e-14 7.268297572568431e-19
6.520930681187647 7.42351605660788e-23 1.2849572196885547e-14 1.2848836829095777e-14 7.353677897729346e-19
6.57002334288761 6.946850359325141e-23 1.2115024299722257e-14 1.211426827700715e-14 7.560227151077659e-19
