Dust emission spectrum from A.P. Jones, M. Kohler, N. Ysard, M. Bocchio, and L. Verstraete (2017), A&A, 602A, 46J 
inside the DustPedia framework.

lambda    nu*dP/dnu     j_nu    j_nu(carb.) j_nu(sil)
 (um)   (erg s-1 H-1) (Jy cm2 sr-1 H-1)
0.9927057738263894 3.7329340270044416e-23 9.8364931875766e-16 9.836493158331247e-16 2.9245355580285274e-24
1.0001793341362166 3.794741842791006e-23 1.0074640223839314e-15 1.0074640188623001e-15 3.521631478240461e-24
1.0077091589558085 3.856501122660311e-23 1.0315685688039314e-15 1.0315685645688309e-15 4.235100531526086e-24
1.0114953028030835 3.887355517430627e-23 1.04372855215054e-15 1.0437285475084834e-15 4.642056730191867e-24
1.0152956718711033 3.9181893516007154e-23 1.0559598068169095e-15 1.0559598017304592e-15 5.0864505812186195e-24
1.0229392996569957 3.979753988042864e-23 1.0806262761090024e-15 1.0806262700079916e-15 6.1010106845955054e-24
1.0267826658714554 4.010410688076771e-23 1.0930419003727734e-15 1.0930418936939966e-15 6.678776511221185e-24
1.0306404723013447 4.0410342168408296e-23 1.105526490703638e-15 1.1055264833947806e-15 7.308857631325506e-24
1.03451277320114 4.071621858364187e-23 1.1180796101639293e-15 1.1180796021681736e-15 7.995755927406371e-24
1.0383996230291617 4.102170914305467e-23 1.1307008166860055e-15 1.1307008079416661e-15 8.744338891527619e-24
1.0403485208654093 4.117430134415975e-23 1.1370368130837989e-15 1.137036803940409e-15 9.14338998470038e-24
1.0423010764483396 4.1326787045381124e-23 1.1433896632245162e-15 1.1433896536646487e-15 9.55986740941089e-24
1.0462171883269815 4.1631425677248485e-23 1.1561456979095599e-15 1.1561456874615342e-15 1.0448025498445325e-23
1.0471985131304309 4.17075135987988e-23 1.1593451513282973e-15 1.159345140646175e-15 1.0682122328417762e-23
1.048180758391296 4.1783572002847075e-23 1.1625487683163548e-15 1.1625487573951142e-15 1.0921240372891723e-23
1.0501480137395462 4.193559861881214e-23 1.1689684642006735e-15 1.1689684527857211e-15 1.1414952124814634e-23
1.0521189612883777 4.2087502253808487e-23 1.1754047277905797e-15 1.1754047158605751e-15 1.193000479313176e-23
1.0531058218030118 4.216329220060873e-23 1.1786258470901727e-15 1.1786258348943484e-15 1.2195824129910226e-23
1.0540936079674168 4.223867427771917e-23 1.18184056271011e-15 1.1818405502427404e-15 1.2467369324232523e-23
1.058054026499678 4.253985931465941e-23 1.1947397866928653e-15 1.1947397730802796e-15 1.361258538224231e-23
1.0590464539527713 4.261506775315896e-23 1.1979746459537257e-15 1.1979746320394744e-15 1.3914251489644634e-23
1.06003981227728 4.269024026520954e-23 1.2012135116224688e-15 1.2012134974001572e-15 1.4222311858351176e-23
1.0620293250338977 4.2840475920560303e-23 1.2077032322661918e-15 1.2077032174080584e-15 1.4858133377832052e-23
1.0660195594769086 4.314049867941917e-23 1.220730420529734e-15 1.2207304043173887e-15 1.6212345395562436e-23
1.070024785945596 4.3439902400418313e-23 1.2338208688434093e-15 1.2338208511592047e-15 1.7684204650779252e-23
1.0740450607676866 4.373866212282138e-23 1.246974090986445e-15 1.246974071703052e-15 1.92833929378649e-23
1.07808044048254 4.4036753120758054e-23 1.2601895973169499e-15 1.2601895762966086e-15 2.1020341263579184e-23
1.0861967418109137 4.4630312976948674e-23 1.286790545101232e-15 1.2867905201479134e-15 2.4953318902543583e-23
1.0902777775684922 4.492455505840822e-23 1.300140771716928e-15 1.3001407445424596e-15 2.717446858684273e-23
1.0943741465085532 4.521801134447668e-23 1.3135503250907722e-15 1.313550295507041e-15 2.958373143765418e-23
1.1026131145906286 4.5802473431832575e-23 1.3405453737598488e-15 1.3405453387318713e-15 3.502797760275164e-23
1.1109141095355224 4.638351571880527e-23 1.3677715920546003e-15 1.3677715506339872e-15 4.1420613184247444e-23
1.1192775983109025 4.6960430175646274e-23 1.3952091356720083e-15 1.3952090867550595e-15 4.8916949341782935e-23
1.1277040513999907 4.753061248742935e-23 1.422780762584858e-15 1.4227807048888486e-15 5.769600906282236e-23
1.1361939428280308 4.8096775208840953e-23 1.4505672283096463e-15 1.4505671603457951e-15 6.796385092635902e-23
1.1447477501889525 4.8658754291053077e-23 1.4785643074440967e-15 1.478564227486748e-15 7.995734851194396e-23
1.1533659546722406 4.921668278911548e-23 1.5067767127433271e-15 1.506776618794763e-15 9.394856428104625e-23
1.1707974979042381 5.0322175408986216e-23 1.563905928263401e-15 1.5639057990452923e-15 1.2921810861298857e-22
1.1884924949847024 5.1409427219717707e-23 1.6218423694300613e-15 1.6218421925852943e-15 1.768447673734826e-22
1.2064549276569216 5.2486784391717205e-23 1.6808559705318062e-15 1.6808557296926251e-15 2.4083918111053256e-22
1.2246888378427687 5.354315345655082e-23 1.7406006375909655e-15 1.7406003111961057e-15 3.2639485974635487e-22
1.2431983285522175 5.457629857630377e-23 1.80100089491505e-15 1.8010004547013457e-15 4.402137040519266e-22
1.2619875648066055 5.5586118769616e-23 1.862047946673581e-15 1.8620473557736616e-15 5.908999192214347e-22
1.3004222497298317 5.752064210710745e-23 1.9855350138267998e-15 1.9855339640571552e-15 1.0497696441021346e-21
1.3400274889804893 5.934139155027232e-23 2.1107697753605057e-15 2.1107679443699058e-15 1.830990599200285e-21
1.3808389325824078 6.104409061897098e-23 2.2374641465987934e-15 2.2374610097628555e-15 3.136835937594004e-21
1.4228933163050095 6.263840003371e-23 2.365823974529988e-15 2.3658186934275877e-15 5.2811024005252815e-21
1.466228494730424 6.416086642266899e-23 2.4971308979906694e-15 2.4971221561940635e-15 8.741796605502414e-21
1.5108834753276823 6.558833261883672e-23 2.6304314887087512e-15 2.630417255234929e-15 1.423347382222511e-20
1.5568984535646726 6.690254172055765e-23 2.7648548582977792e-15 2.7648320386502503e-15 2.28196475290758e-20
1.6043148490894465 6.810815227526282e-23 2.9004015906019558e-15 2.9003654998442965e-15 3.6090757658040514e-20
1.6531753430134553 6.921088961239702e-23 3.0371258188346324e-15 3.0370695758805292e-15 5.624295410359693e-20
1.7035239163302658 7.022284522478287e-23 3.175382814670036e-15 3.175296431603314e-15 8.638306672148934e-20
1.755405889504358 7.120087450684012e-23 3.317663325222461e-15 3.317532499044615e-15 1.308261778463116e-19
1.8088679632656115 7.213472216750494e-23 3.46354363599961e-15 3.4633481930559565e-15 1.954429436541216e-19
1.8639582606462262 7.301791149533203e-23 3.612725985764625e-15 3.6124378633786885e-15 2.881223859358251e-19
1.9207263702978936 7.385957110372372e-23 3.7656652742973486e-15 3.765245970020014e-15 4.1930427733363907e-19
1.979223391128241 7.467741731792854e-23 3.9233182428705184e-15 3.92271562181757e-15 6.026210529473731e-19
2.039501978296691 7.549166928109019e-23 4.0868866492031545e-15 4.086031037234204e-15 8.556119689510695e-19
2.1016163906111602 7.635589202922268e-23 4.259566816744478e-15 4.2583661950519375e-15 1.2006216925392817e-18
2.1656225393682647 7.730162801158832e-23 4.443660145462244e-15 4.441994503155981e-15 1.6656423062637463e-18
2.231578038680979 7.833152136107488e-23 4.64000099167977e-15 4.637715715615369e-15 2.285276064401113e-18
2.299542257339062 7.946425403632768e-23 4.850456774379122e-15 4.8473550026437806e-15 3.1017717353425983e-18
2.369576372248914 8.073910324636378e-23 5.078366792710019e-15 5.074200634646906e-15 4.166158063111613e-18
2.4417434235010123 8.220206866621426e-23 5.32785266785481e-15 5.3223134655140585e-15 5.539202340749813e-18
2.5161083711144245 8.393162866931167e-23 5.605629967909457e-15 5.598337330977202e-15 7.292636932255127e-18
2.5927381535095444 8.60551526247688e-23 5.922498656030406e-15 5.912988572512892e-15 9.510083517515878e-18
2.6717017477616296 8.872059448939891e-23 6.2919005689153654e-15 6.279613222675601e-15 1.2287346239762929e-17
2.753070231689431 9.214925690029705e-23 6.7340844890692245e-15 6.718351470579327e-15 1.5733018489897017e-17
2.836916847834745 9.684637152407948e-23 7.292885472997765e-15 7.272916009791385e-15 1.996946320637793e-17
2.9233170693905177 1.0392234992519102e-22 8.06407046557759e-15 8.038942160037293e-15 2.5128305540297152e-17
2.967498994190263 1.0944574669635674e-22 8.621024951654138e-15 8.59297558565486e-15 2.8049365999275714e-17
3.0123486681368425 1.157833627405434e-22 9.258077889696388e-15 9.226809586369197e-15 3.126830332719067e-17
3.0578761833420214 1.29056709666892e-22 1.0475383177014284e-14 1.0440563022273184e-14 3.482015474110018e-17
3.1040917844459814 1.4590888420917048e-22 1.2022249141289937e-14 1.1983548246445621e-14 3.870089484431607e-17
3.127460860933648 1.6331944980131334e-22 1.3558112231248866e-14 1.3517327324509091e-14 4.078490673977218e-17
3.1510058709225794 1.8635861424506825e-22 1.55872003552694e-14 1.5544238634915687e-14 4.2961720353715194e-17
3.162844764501044 2.076736857854301e-22 1.7435274156077072e-14 1.7391184185953663e-14 4.4089970123413533e-17
3.1747281389236908 2.323838395530629e-22 1.958312055329474e-14 1.9537878169207277e-14 4.5242384087465715e-17
3.1986289994194426 3.0105265759696175e-22 2.5560878074645604e-14 2.5513251067171135e-14 4.762700747447191e-17
3.2227097969389145 4.624205937949206e-22 3.955740551471248e-14 3.9507246932700797e-14 5.0158582011674954e-17
3.2348180950136065 6.1522177992963345e-22 5.2826397957615083e-14 5.277488716053308e-14 5.1510797081992056e-17
3.240889293275058 7.29432551271952e-22 6.275072807018675e-14 6.269850398749584e-14 5.222408269091298e-17
3.2469718861334385 8.615783943334608e-22 7.425791671486029e-14 7.420495456092916e-14 5.2962153931107243e-17
3.2714166318528037 1.56537424923463e-21 1.3593255363401823e-13 1.3587653749386238e-13 5.601614015587773e-17
3.2744851364798273 1.6093989172673662e-21 1.3988661503857177e-13 1.398302378969372e-13 5.637714163459906e-17
3.2775565192852394 1.654679856664528e-21 1.4395727016777824e-13 1.4390053011706834e-13 5.674005070986134e-17
3.283707930232385 1.6112796029026985e-21 1.404445413817274e-13 1.4038715011978346e-13 5.739126194395809e-17
3.2898708863219004 1.4733990089314632e-21 1.2866744008140585e-13 1.2860945413830497e-13 5.798594310086322e-17
3.29141343181113 1.4408766932130518e-21 1.258863630602505e-13 1.258282277351489e-13 5.813532510162476e-17
3.292184975758714 1.4248953880132669e-21 1.245192919396222e-13 1.244610818165772e-13 5.821012304502737e-17
3.295272960557952 1.3241098731086533e-21 1.1582034430859625e-13 1.1576184285092115e-13 5.850145767507266e-17
3.3076538914384823 9.747027446238528e-22 8.557791106921407e-14 8.551823841226573e-14 5.967265694835759e-17
3.310756385682612 9.035197349606397e-22 7.940252284515856e-14 7.934255475811329e-14 5.996808704524346e-17
3.313861789986515 8.378151515625921e-22 7.369737763660942e-14 7.363711306413266e-14 6.026457247677052e-17
3.3200813396944477 7.457266362027703e-22 6.572003900135238e-14 6.565913765610755e-14 6.090134524482667e-17
3.345076488085796 5.81921062471618e-22 5.167013097801184e-14 5.160639427314905e-14 6.373670486277912e-17
3.3482140837626964 5.8815745106108255e-22 5.227285914470275e-14 5.220873843385328e-14 6.412071084946786e-17
3.3513546224236106 5.94461485335482e-22 5.2882690230714337e-14 5.281818366723722e-14 6.45065634771102e-17
3.3576445397418455 6.401673010458403e-22 5.705551600365068e-14 5.699020306978734e-14 6.531293386333917e-17
3.3702598118196083 8.083494251364804e-22 7.231559245686825e-14 7.224858787805476e-14 6.700457881349077e-17
3.382922481734668 8.46961729749941e-22 7.605456142914575e-14 7.59859085075125e-14 6.865292163326999e-17
3.389271646505754 8.669555418192432e-22 7.799605531258022e-14 7.792656609016038e-14 6.948922241986156e-17
3.395632727569191 8.88541779702116e-22 8.008810120015073e-14 8.001775008565515e-14 7.035111449556926e-17
3.421196662673239 9.92263727925292e-22 9.011033179877634e-14 9.003640822533941e-14 7.392357343690686e-17
3.4276182099114902 9.717469922974329e-22 8.841278673911112e-14 8.83380614401822e-14 7.472529892893492e-17
3.4340518103208963 8.812226810094333e-22 8.032707310460067e-14 8.025158734212464e-14 7.548576247599987e-17
3.4469541582030403 7.522386645662546e-22 6.882727776698745e-14 6.875032796001558e-14 7.694980697185597e-17
3.472904465399547 7.164091493725168e-22 6.604248304434309e-14 6.59621669630264e-14 8.031608131669144e-17
3.4990501388274233 6.614864522441389e-22 6.143849273207448e-14 6.1354721604305e-14 8.377112776945346e-17
3.5253949054701885 4.65201672514928e-22 4.3532987596092706e-14 4.3445843599941344e-14 8.714399615135257e-17
3.5519380250092896 2.804456307590844e-22 2.644134183648564e-14 2.635079450202012e-14 9.054733446552196e-17
3.578680990867387 2.074740543402798e-22 1.9708619875663156e-14 1.961434007294219e-14 9.427980272096293e-17
3.605625307711299 1.7827772247269705e-22 1.706267441135759e-14 1.6964455304596582e-14 9.82191067610066e-17
3.660119384959845 1.5764692086615864e-22 1.531616996092911e-14 1.520963787995179e-14 1.0653208097731942e-16
3.715437065384467 1.4329129070888452e-22 1.4131853838743336e-14 1.4016504279317898e-14 1.1534955942543656e-16
3.8285932144167436 1.3756576656093398e-22 1.398038176305862e-14 1.3845891136135688e-14 1.3449062692293282e-16
3.94519561050918 1.3817334731796572e-22 1.4469790825141972e-14 1.4314137521718575e-14 1.5565330342339908e-16
4.06534921144712 1.414044923421666e-22 1.525915544613168e-14 1.5080267412711114e-14 1.7888803342056352e-16
4.189162171576248 1.4617094700431143e-22 1.625390312096761e-14 1.604958875766736e-14 2.043143633002473e-16
4.316745939156006 1.5206149871045085e-22 1.7423892731873975e-14 1.7191964807316575e-14 2.319279245574051e-16
4.448215356677963 1.589325483577584e-22 1.876584328414242e-14 1.8504390829844673e-14 2.614524542977517e-16
4.58368876423945 1.6679550947608824e-22 2.0294058518567374e-14 2.000104755886581e-14 2.930109597015609e-16
4.723288106065518 1.7577590591924355e-22 2.203805258281942e-14 2.1711166550007642e-14 3.2688603281177873e-16
4.867139040275056 1.8611987367816372e-22 2.404561754072856e-14 2.3683254623510555e-14 3.623629172180046e-16
4.940699165968905 1.921312045331591e-22 2.51974011135663e-14 2.4816570728371427e-14 3.8083038519487527e-16
5.015371051989984 1.9830720493848506e-22 2.6400429684309173e-14 2.600068229431384e-14 3.9974738999533444e-16
5.091171501069577 2.0560679409930108e-22 2.7785909791165918e-14 2.736641421748329e-14 4.1949557368262474e-16
5.129500256944802 2.0933206053838656e-22 2.8502321686077994e-14 2.807278968317274e-14 4.295320029052553e-16
5.168117569889187 2.13190063266035e-22 2.924615493684685e-14 2.88063953746044e-14 4.3975956224244865e-16
5.20702561229733 2.178141595844937e-22 3.010545918791766e-14 2.965461446610326e-14 4.508447218143952e-16
5.246226572918644 2.225353054137296e-22 3.098955913438979e-14 3.0527486734682464e-14 4.620723997073311e-16
5.265937586045735 2.2493320077120915e-22 3.1441170353573876e-14 3.097343126538732e-14 4.677390881865535e-16
5.285722656980489 2.2735649045535556e-22 3.189930063680395e-14 3.1425859954917046e-14 4.734406818869036e-16
5.305582063971359 2.2980557015796627e-22 3.23640617084174e-14 3.1884884779933344e-14 4.791769284840616e-16
5.3255160863122235 2.3241790560530833e-22 3.285494293449437e-14 3.236995677866718e-14 4.849861558271954e-16
5.365609099470188 2.3880724857581667e-22 3.401229739660617e-14 3.351528964434347e-14 4.970077522627019e-16
5.406003951863644 2.4540688051014364e-22 3.5215391977927246e-14 3.4706208656578365e-14 5.091833213488893e-16
5.446702915881641 2.522268467913573e-22 3.64665293126598e-14 3.5945018278653933e-14 5.215110340058739e-16
5.487708281020852 2.595459535064097e-22 3.780721719137985e-14 3.727318294961524e-14 5.34034241764615e-16
5.529022354014368 2.6954650613053315e-22 3.95595630239461e-14 3.901245796822734e-14 5.471050557187499e-16
5.570647458961463 2.800801775816065e-22 4.141498238391103e-14 4.0854638054413747e-14 5.603443294972791e-16
5.612585937458331 2.9118514824339665e-22 4.3381209576952467e-14 4.2807459195285344e-14 5.737503816671234e-16
5.654840148729818 3.0332205812898986e-22 4.5529592151528e-14 4.4942213699752693e-14 5.873784517753169e-16
5.67608639626678 3.1151999863170065e-22 4.6935814910946214e-14 4.6341312418526845e-14 5.945024924193819e-16
5.686739436050992 3.1573714846325354e-22 4.76604836253633e-14 4.706240140327436e-14 5.98082222088947e-16
5.6974124697621304 3.2003558642440475e-22 4.840000062928489e-14 4.779832690060761e-14 6.016737286772639e-16
5.718818669136295 3.2888412078974623e-22 4.992506795303948e-14 4.931617597014531e-14 6.088919828941915e-16
5.740305295436557 3.3861043930561117e-22 5.159466144296194e-14 5.097845641130259e-14 6.162050316593503e-16
5.7835210386641895 3.6372431729122776e-22 5.583854460761497e-14 5.520719722442664e-14 6.31347383188322e-16
5.827062130521658 3.925097021875074e-22 6.071129239540884e-14 6.006447893997372e-14 6.468134554351269e-16
5.8489554468988025 4.126549062199189e-22 6.406705473859971e-14 6.34119191463841e-14 6.551355922156219e-16
5.870931020387893 4.342137646053278e-22 6.766747906946738e-14 6.700395623988392e-14 6.635228295834638e-16
5.892989160043636 4.57299342387809e-22 7.1532870366162e-14 7.086089521757416e-14 6.719751485878271e-16
5.915130176081913 4.835081132876087e-22 7.591673218455224e-14 7.523600261535283e-14 6.807295691994218e-16
5.95966208400165 5.566806912591384e-22 8.806376046852354e-14 8.736326191943995e-14 7.004985490836059e-16
6.004529249263818 6.618636068652435e-22 1.0549136197527918e-13 1.0476870772652949e-13 7.2265424874966e-16
6.027089341400364 7.349007104339985e-22 1.1757249365317612e-13 1.1683712812235588e-13 7.353655308202218e-16
6.049734195844842 8.210585517205085e-22 1.318499154339608e-13 1.3110110114497382e-13 7.48814288986975e-16
6.095279466722835 1.0697329097880805e-21 1.7307662290283467e-13 1.7229506629537638e-13 7.815566074582703e-16
6.141167624020661 1.4518078657038672e-21 2.3666254459939744e-13 2.3583888058805123e-13 8.236640113461431e-16
6.164241091010745 1.69579734345018e-21 2.7747445036920894e-13 2.766245477765727e-13 8.499025926362237e-16
6.187401249150058 1.973240097647898e-21 3.240840412567049e-13 3.2320714098954584e-13 8.769002671590575e-16
6.1990139391386085 2.1086878703787926e-21 3.4697992263097034e-13 3.460892735754757e-13 8.906490554946629e-16
6.204828454712694 2.1799930712360172e-21 3.59049499234268e-13 3.5815190003991e-13 8.975991943580484e-16
6.210648424152782 2.232050550030344e-21 3.679682981651548e-13 3.670647323914217e-13 9.035657737330833e-16
6.233982942956859 2.4087709371511514e-21 3.98593805677766e-13 3.9766924459225144e-13 9.245610855144416e-16
6.239830258556775 2.431292769622379e-21 4.0269799506960874e-13 4.0177037624617907e-13 9.276188234297212e-16
6.245683058788269 2.433157207547133e-21 4.0338481421638543e-13 4.024541306075407e-13 9.306836088447285e-16
6.257405133728602 2.4280988573804558e-21 4.0330171776619765e-13 4.023655846028857e-13 9.361331633118035e-16
6.269149208991335 2.3931036563736125e-21 3.9823511297854007e-13 3.9729656767979694e-13 9.385452987431701e-16
6.280915325867298 2.3056489470218245e-21 3.8440192599178027e-13 3.834647314474781e-13 9.371945443022414e-16
6.304513850009849 2.09010486433467e-21 3.4977527940575594e-13 3.488441989402244e-13 9.310804655315109e-16
6.32820103803542 1.823245607447532e-21 3.0626324278557996e-13 3.053419075044947e-13 9.213352810852341e-16
6.3519772230701035 1.5786218825085618e-21 2.661683937613897e-13 2.6525565302383864e-13 9.127407375510734e-16
6.375842739491607 1.3727065848877852e-21 2.3231900911518355e-13 2.3141368958950385e-13 9.05319525679697e-16
6.399797922933955 1.2079508323725246e-21 2.0520358866233118e-13 2.0430135249988728e-13 9.022361624439478e-16
6.42384311029221 1.0708794559666165e-21 1.8260175434124426e-13 1.8170173910116228e-13 9.000152400819369e-16
6.447978639727206 9.711352765779416e-22 1.6621597190095965e-13 1.6531477639912568e-13 9.011955018339842e-16
6.472204850670314 8.880106384593086e-22 1.5255971065536262e-13 1.5165665092223976e-13 9.03059733122802e-16
6.496522083828205 8.340956738741059e-22 1.4383554420020337e-13 1.429278473787738e-13 9.07696821429614e-16
