Dust emission spectrum from A.P. Jones, M. Kohler, N. Ysard, M. Bocchio, and L. Verstraete (2017), A&A, 602A, 46J 
inside the DustPedia framework.

lambda    nu*dP/dnu     j_nu    j_nu(carb.) j_nu(sil)
 (um)   (erg s-1 H-1) (Jy cm2 sr-1 H-1)
0.9927057738263894 3.1662608077987773e-22 8.343277068573384e-15 8.343276801095276e-15 2.6747810814654078e-22
1.0001793341362166 3.219560241353206e-22 8.547593605670532e-15 8.547593283700856e-15 3.219696781250943e-22
1.0077091589558085 3.273025039377996e-22 8.754955977301778e-15 8.754955590251575e-15 3.8705020222886553e-22
1.0114953028030835 3.2998162433066627e-22 8.859782478206944e-15 8.859782054048926e-15 4.241580187207713e-22
1.0152956718711033 3.326644976819213e-22 8.965374237555307e-15 8.965373772885917e-15 4.646693886088017e-22
1.0229392996569957 3.3803840366282364e-22 9.17878799618039e-15 9.178787439058478e-15 5.571219126515057e-22
1.0267826658714554 3.4072327893911685e-22 9.286450921849468e-15 9.286450312098055e-15 6.09751411856235e-22
1.0306404723013447 3.434112898033854e-22 9.394879075811116e-15 9.394878408679763e-15 6.67131350271038e-22
1.03451277320114 3.4610232135789014e-22 9.504073855623954e-15 9.504073125955023e-15 7.296689284373345e-22
1.0383996230291617 3.487962609778623e-22 9.614036698699244e-15 9.614035900894985e-15 7.97804260684363e-22
1.0403485208654093 3.5014428675415786e-22 9.669306604686774e-15 9.669305770568545e-15 8.341182286728588e-22
1.0423010764483396 3.5149299837439184e-22 9.724769084897654e-15 9.72476821288479e-15 8.720128620125752e-22
1.0462171883269815 3.5419242565691876e-22 9.836272539164766e-15 9.836271586356458e-15 9.528083086236428e-22
1.0471985131304309 3.548676903621991e-22 9.864269065330619e-15 9.864268091230214e-15 9.741004018684132e-22
1.048180758391296 3.5554311496071527e-22 9.892313906354763e-15 9.892312910507065e-15 9.958476950464575e-22
1.0501480137395462 3.5689443739530555e-22 9.948548634205022e-15 9.948547593459938e-15 1.0407450831223165e-21
1.0521189612883777 3.582463801764748e-22 1.0004976927210881e-14 1.000497583963421e-14 1.0875766737648176e-21
1.0531058218030118 3.589216630213748e-22 1.0033238085508745e-14 1.0033236973764728e-14 1.1117440190046729e-21
1.0540936079674168 3.5959409120224016e-22 1.006146358428356e-14 1.006146244785328e-14 1.1364302824521815e-21
1.058054026499678 3.622851537796286e-22 1.0174845293846758e-14 1.0174844053322958e-14 1.2405237992053485e-21
1.0590464539527713 3.6295824932983976e-22 1.0203310780954164e-14 1.0203309513015439e-14 1.2679387241898073e-21
1.06003981227728 3.6363147385653407e-22 1.0231824345191873e-14 1.0231823049259104e-14 1.2959327680756734e-21
1.0620293250338977 3.6497830395349387e-22 1.0288995813422377e-14 1.0288994459717447e-14 1.353704932647007e-21
1.0660195594769086 3.6767344772911914e-22 1.0403916880963316e-14 1.0403915404238156e-14 1.4767251608943885e-21
1.070024785945596 3.70370493908761e-22 1.0519610296916082e-14 1.0519608686521693e-14 1.6103943874448664e-21
1.0740450607676866 3.730693541503028e-22 1.0636077927123976e-14 1.0636076171538803e-14 1.7555851721328084e-21
1.07808044048254 3.7576994302532606e-22 1.0753321705765836e-14 1.075331979252859e-14 1.913237243895465e-21
1.0861967418109137 3.8117175004539787e-22 1.0990023849293704e-14 1.099002157924424e-14 2.270049462825921e-21
1.0902777775684922 3.838631941160811e-22 1.1109207175962848e-14 1.1109204704492343e-14 2.4714705054586998e-21
1.0943741465085532 3.865558875357786e-22 1.1229167242013096e-14 1.1229164552128417e-14 2.6898846771065233e-21
1.1026131145906286 3.919447490489326e-22 1.1471426775433627e-14 1.1471423592222513e-14 3.183211112124689e-21
1.1109141095355224 3.9733782092885445e-22 1.1716821709032865e-14 1.1716817946912376e-14 3.762120489366905e-21
1.1192775983109025 4.0273030422887523e-22 1.19652438781e-14 1.1965239437541272e-14 4.4405587283361956e-21
1.1277040513999907 4.081018483587212e-22 1.2216115649123521e-14 1.2216110414535532e-14 5.234587989526754e-21
1.1361939428280308 4.134757471908388e-22 1.2470157634718655e-14 1.2470151472036803e-14 6.1626818559560245e-21
1.1447477501889525 4.1885172003356656e-22 1.2727395355188332e-14 1.2727388109129134e-14 7.246059195252228e-21
1.1533659546722406 4.2423161638501555e-22 1.298791962711817e-14 1.2987911118046933e-14 8.509071236146022e-21
1.1707974979042381 4.3501956013424525e-22 1.351948049692212e-14 1.3519468807227357e-14 1.168969476350216e-20
1.1884924949847024 4.4582089503916885e-22 1.406456472781776e-14 1.4064548748869515e-14 1.5978948245634058e-20
1.2064549276569216 4.567101251928984e-22 1.46258520050231e-14 1.4625830270591063e-14 2.1734432029436006e-20
1.2246888378427687 4.676097400712693e-22 1.5201230393952763e-14 1.520120097553558e-14 2.941841717739156e-20
1.2431983285522175 4.785085482232858e-22 1.5790633407829117e-14 1.579059378144555e-14 3.962638356358866e-20
1.2619875648066055 4.894196854762005e-22 1.639479317092972e-14 1.6394740049434393e-14 5.312149532851592e-20
1.3004222497298317 5.111971497449557e-22 1.764583639203941e-14 1.7645742269358783e-14 9.412268062571021e-20
1.3400274889804893 5.329900990593264e-22 1.8958426189041152e-14 1.8958262471121894e-14 1.637179192536407e-19
1.3808389325824078 5.548628731406236e-22 2.0337526078979986e-14 2.0337246387521778e-14 2.7969145821067484e-19
1.4228933163050095 5.769963776925562e-22 2.1792891626021272e-14 2.179242210202442e-14 4.695239968564487e-19
1.466228494730424 5.997986239206443e-22 2.3344068742739727e-14 2.334329383708452e-14 7.749056551961153e-19
1.5108834753276823 6.232002227162285e-22 2.4993553337141515e-14 2.4992295444997203e-14 1.257892144306059e-18
1.5568984535646726 6.471659634926717e-22 2.6745171592454742e-14 2.674316112005593e-14 2.0104723988118666e-18
1.6043148490894465 6.718484136300858e-22 2.8610821795026915e-14 2.8607652074929193e-14 3.169720097733642e-18
1.6531753430134553 6.974132628309934e-22 3.060402544749714e-14 3.0599101647014767e-14 4.923800482380692e-18
1.7035239163302658 7.240648441534528e-22 3.274124048195345e-14 3.2733702786098907e-14 7.537695854535517e-18
1.755405889504358 7.523870152499079e-22 3.5058091970884583e-14 3.504671433720444e-14 1.1377633680136724e-17
1.8088679632656115 7.82395263136214e-22 3.756665379786276e-14 3.7549714578679774e-14 1.693921918297871e-17
1.8639582606462262 8.141038398527677e-22 4.027962505521513e-14 4.025474023313413e-14 2.4884822080998315e-17
1.9207263702978936 8.476549554559161e-22 4.321694240362954e-14 4.318085647718679e-14 3.608592644274311e-17
1.979223391128241 8.832525963312899e-22 4.64033324759526e-14 4.635165875674817e-14 5.167371920444961e-17
2.039501978296691 9.21091108614431e-22 4.9865037961731616e-14 4.9791943655181545e-14 7.309430655006687e-17
2.1016163906111602 9.61665584966089e-22 5.364718695132272e-14 5.3545009008866045e-14 1.0217794245666852e-16
2.1656225393682647 1.0052520743766047e-21 5.778660416286339e-14 5.764540297319682e-14 1.412011896665661e-16
2.231578038680979 1.0518117129029842e-21 6.230451427636202e-14 6.211155721865785e-14 1.929570577041691e-16
2.299542257339062 1.101462348395724e-21 6.723268939336131e-14 6.69718608073404e-14 2.608285860208986e-16
2.369576372248914 1.1544491029080546e-21 7.261309269429086e-14 7.226422524480158e-14 3.4886744948928056e-16
2.4417434235010123 1.2110560441135071e-21 7.849350120070397e-14 7.803164668091653e-14 4.618545197874388e-16
2.5161083711144245 1.2718102058019475e-21 8.494172597586218e-14 8.433634677220667e-14 6.053792036555107e-16
2.5927381535095444 1.337563950007609e-21 9.205399624141414e-14 9.126810698878213e-14 7.858892526319916e-16
2.6717017477616296 1.4091209527274731e-21 9.993225333038022e-14 9.892156773442282e-14 1.0106855959574066e-15
2.753070231689431 1.4876526771926025e-21 1.0871469999420817e-13 1.0742676137841803e-13 1.2879386157901184e-15
2.836916847834745 1.5761298344447214e-21 1.1868833279233726e-13 1.1706160016502932e-13 1.6267326273079378e-15
2.9233170693905177 1.681038286066957e-21 1.304436553247312e-13 1.2840702431878219e-13 2.036631005949056e-15
2.967498994190263 1.7458284665668037e-21 1.3751864486188852e-13 1.3525147207531796e-13 2.267172786570571e-15
3.0123486681368425 1.8157742155159277e-21 1.4518993678754435e-13 1.4266945143462908e-13 2.5204853529152813e-15
3.0578761833420214 1.9285921675724445e-21 1.5654158547552588e-13 1.5374234956322158e-13 2.7992359123043e-15
3.1040917844459814 2.061402011964232e-21 1.69850442641057e-13 1.6674774175206282e-13 3.1027008889941617e-15
3.127460860933648 2.1820266744075787e-21 1.811429231434919e-13 1.7787769111168535e-13 3.2652320318065605e-15
3.1510058709225794 2.3350369702600113e-21 1.9530457038353522e-13 1.9186988721046758e-13 3.43468317306761e-15
3.162844764501044 2.471360437091206e-21 2.0748342090719835e-13 2.0396103282267392e-13 3.5223880845245022e-15
3.1747281389236908 2.626077483135057e-21 2.2130106823879962e-13 2.1768918250702826e-13 3.611885731771417e-15
3.1986289994194426 3.04520727625132e-21 2.5855334585516426e-13 2.5475653032856915e-13 3.7968155265951336e-15
3.2227097969389145 4.0095378892732665e-21 3.4299276100780173e-13 3.389999499755775e-13 3.9928110322241816e-15
3.2348180950136065 4.913095742496438e-21 4.2186599916320656e-13 4.177685843977571e-13 4.097414765449445e-15
3.240889293275058 5.587258942122448e-21 4.806538533596788e-13 4.765012625917624e-13 4.152590767916295e-15
3.2469718861334385 6.368025957345159e-21 5.488488851260418e-13 5.446392030818265e-13 4.209682044215161e-15
3.2714166318528037 1.0478030330895242e-20 9.098817235748471e-13 9.054360802020612e-13 4.4456433727860204e-15
3.2744851364798273 1.0735723380647273e-20 9.331334746136845e-13 9.286600139857709e-13 4.473460627913644e-15
3.2775565192852394 1.1000403540322619e-20 9.570359233120624e-13 9.52534505501025e-13 4.501417811037198e-15
3.283707930232385 1.0750454164151194e-20 9.370456884140625e-13 9.324942539136355e-13 4.551434500426824e-15
3.2898708863219004 9.949816537368171e-21 8.688871211276557e-13 8.642901500026154e-13 4.596971125040505e-15
3.29141343181113 9.760704555764792e-21 8.527722068228102e-13 8.481638007359679e-13 4.608406086842394e-15
3.292184975758714 9.667736540428088e-21 8.448477823704697e-13 8.402336511721594e-13 4.6141311983105294e-15
3.295272960557952 9.085697209912212e-21 7.947290481756979e-13 7.900926438602343e-13 4.636404315463678e-15
3.3076538914384823 7.057622052026547e-21 6.196520484422484e-13 6.149261752356324e-13 4.725873206616121e-15
3.310756385682612 6.641613126192489e-21 5.836738452693317e-13 5.789254187938753e-13 4.748426475456308e-15
3.313861789986515 6.256517081935248e-21 5.503468172153629e-13 5.455757629075223e-13 4.771054307840503e-15
3.3200813396944477 5.718970492844666e-21 5.040063551319056e-13 4.991866393911195e-13 4.819715740786338e-15
3.345076488085796 4.781661601002476e-21 4.2457490740572397e-13 4.195383606322995e-13 5.036546773424431e-15
3.3482140837626964 4.820885822561111e-21 4.2845922482287837e-13 4.233933059675923e-13 5.065918855286109e-15
3.3513546224236106 4.8604768252449096e-21 4.3238308395696267e-13 4.272876596666754e-13 5.095424290287269e-15
3.3576445397418455 5.133873873017482e-21 4.575613631688732e-13 4.524042534723973e-13 5.157109696475828e-15
3.3702598118196083 6.1238286296914945e-21 5.478426552795559e-13 5.425561561796534e-13 5.286499099902653e-15
3.382922481734668 6.362438865117447e-21 5.713274644051802e-13 5.659151483105314e-13 5.412316094648745e-15
3.389271646505754 6.48553342430396e-21 5.834740067894581e-13 5.77997908388741e-13 5.476098400717086e-15
3.395632727569191 6.6201902749117856e-21 5.967062898034327e-13 5.911644595592039e-13 5.5418302442289306e-15
3.421196662673239 7.270208176465627e-21 6.602285789457161e-13 6.544145918063216e-13 5.813987139394216e-15
3.4276182099114902 7.155419412639027e-21 6.510239553845865e-13 6.451491741845136e-13 5.8747812000728286e-15
3.4340518103208963 6.627519282360829e-21 6.041256510630482e-13 5.981933412591024e-13 5.9323098039458345e-15
3.4469541582030403 5.8726016062529106e-21 5.373230611610306e-13 5.312802756457503e-13 6.042785515280481e-15
3.472904465399547 5.672972681601401e-21 5.229654066587983e-13 5.166682184342399e-13 6.297188224558491e-15
3.4990501388274233 5.364186229661582e-21 4.982226250688527e-13 4.916649763315311e-13 6.557648737321699e-15
3.5253949054701885 4.237091496544982e-21 3.9650169477127916e-13 3.896908061075149e-13 6.810888663764075e-15
3.5519380250092896 3.1667618232651283e-21 2.9857278095951733e-13 2.915071996921807e-13 7.0655812673366065e-15
3.578680990867387 2.7553563716939053e-21 2.6174005961553526e-13 2.5439530516131235e-13 7.3447544542229e-15
3.605625307711299 2.603197748525633e-21 2.4914787442538977e-13 2.415090032929689e-13 7.638871132420865e-15
3.660119384959845 2.521639635752876e-21 2.4498963271344935e-13 2.3673243048631225e-13 8.25720222713705e-15
3.715437065384467 2.474901639538018e-21 2.440828612973682e-13 2.3517322355012736e-13 8.909637747240762e-15
3.8285932144167436 2.518318413310412e-21 2.559288818662952e-13 2.4561496286290306e-13 1.0313919003392104e-14
3.94519561050918 2.5984947035153824e-21 2.721195914403245e-13 2.6027133727331235e-13 1.184825416701213e-14
4.06534921144712 2.6932667042137807e-21 2.9063415607789556e-13 2.771226364771866e-13 1.3511519600708866e-14
4.189162171576248 2.7959242873153004e-21 3.10900924095695e-13 2.9559353836231254e-13 1.5307385733382527e-14
4.316745939156006 2.9034979738761606e-21 3.3269590049459826e-13 3.1546609305117575e-13 1.7229807443422514e-14
4.448215356677963 3.014450898314343e-21 3.5592906380745064e-13 3.3667621450997495e-13 1.925284929747558e-14
4.58368876423945 3.1283394175880626e-21 3.8062597372008115e-13 3.592465753962631e-13 2.137939832381807e-14
4.723288106065518 3.2454220222805056e-21 4.068975256103504e-13 3.8327444972829195e-13 2.3623075882058393e-14
4.867139040275056 3.3660561402815193e-21 4.3487509942000595e-13 4.0894946959424504e-13 2.5925629825760935e-14
4.940699165968905 3.4295350306493925e-21 4.497726957485742e-13 4.226667035172292e-13 2.7105992231345097e-14
5.015371051989984 3.4924520292535435e-21 4.649464665327324e-13 4.3664427866918785e-13 2.8302187863544687e-14
5.091171501069577 3.5607852833375505e-21 4.812081191283197e-13 4.5166836879958277e-13 2.9539750328736837e-14
5.129500256944802 3.594683819283623e-21 4.894464532257977e-13 4.592831431212046e-13 3.0163310104593116e-14
5.168117569889187 3.628941664187661e-21 4.978308488757788e-13 4.670348957313942e-13 3.079595314438468e-14
5.20702561229733 3.6677468190880755e-21 5.069422593292767e-13 4.754563340539662e-13 3.148592527531049e-14
5.246226572918644 3.7065338198746226e-21 5.161601157221753e-13 4.839792023578898e-13 3.218091336428563e-14
5.265937586045735 3.7259209832957945e-21 5.208093601038246e-13 4.882791549309329e-13 3.253020517289174e-14
5.285722656980489 3.745304261737608e-21 5.25485709170599e-13 4.92605058792689e-13 3.288065037790991e-14
5.305582063971359 3.764683967052333e-21 5.301893428371615e-13 4.969571281334559e-13 3.32322147037056e-14
5.3255160863122235 3.784922237938942e-21 5.350422714425429e-13 5.014546556712396e-13 3.358761577130318e-14
5.365609099470188 3.8320958660655895e-21 5.457890622090895e-13 5.114661373440817e-13 3.4322924865007865e-14
5.406003951863644 3.879678131961585e-21 5.567259804664382e-13 5.216625821288828e-13 3.506339833755533e-14
5.446702915881641 3.927698945404593e-21 5.678600456135403e-13 5.320512818079806e-13 3.5808763805559705e-14
5.487708281020852 3.977841002032268e-21 5.794391963537048e-13 5.428773004666824e-13 3.656189588702231e-14
5.529022354014368 4.0432349984797105e-21 5.933989352676843e-13 5.560518540350649e-13 3.7347081232619425e-14
5.570647458961463 4.110377287833597e-21 6.077945409658862e-13 5.696568610829942e-13 3.813767988289195e-14
5.612585937458331 4.1794143677552084e-21 6.226555567489407e-13 5.837221414610197e-13 3.8933415287921e-14
5.654840148729818 4.2530113894276804e-21 6.383903471144845e-13 5.986524429811595e-13 3.973790413332495e-14
5.67608639626678 4.3017748379047325e-21 6.481359414076341e-13 6.079770849814302e-13 4.01588564262041e-14
5.686739436050992 4.3266172371571195e-21 6.531023384115373e-13 6.127324405478949e-13 4.0369897863642264e-14
5.6974124697621304 4.351777065331606e-21 6.581331003022973e-13 6.175517899063469e-13 4.058131039595035e-14
5.718818669136295 4.403081154769073e-21 6.683938565557135e-13 6.273886252420864e-13 4.1005231313627147e-14
5.740305295436557 4.458892486690786e-21 6.794092017161432e-13 6.379754549094361e-13 4.1433746806707085e-14
5.7835210386641895 4.6011764802628435e-21 7.063673940033869e-13 6.640477468806803e-13 4.231964712270651e-14
5.827062130521658 4.760552739439924e-21 7.363367267539115e-13 6.931169149733411e-13 4.3219811780569996e-14
5.8489554468988025 4.871873029009292e-21 7.563863929021172e-13 7.126802962951061e-13 4.3706096607011124e-14
5.870931020387893 4.9894178649335585e-21 7.775463526613307e-13 7.333516567579633e-13 4.419469590336712e-14
5.892989160043636 5.113679010903358e-21 7.99905234656784e-13 7.552196568320257e-13 4.468557782475835e-14
5.915130176081913 5.2537772777187286e-21 8.24907776289181e-13 7.797132866476432e-13 4.5194489641537705e-14
5.95966208400165 5.644250688076312e-21 8.928887752416577e-13 8.465331364470409e-13 4.63556387946168e-14
6.004529249263818 6.199685169734018e-21 9.881389845118642e-13 9.404758090110914e-13 4.7663175500772416e-14
6.027089341400364 6.584070607166131e-21 1.0533471919165137e-12 1.0049277513767518e-12 4.8419440539761833e-14
6.049734195844842 7.03358119411397e-21 1.1294895884081926e-12 1.0802688825061341e-12 4.9220705902058554e-14
6.095279466722835 8.326719985518714e-21 1.3472153298869909e-12 1.2960224105650126e-12 5.1192919321978014e-14
6.141167624020661 1.0295989108035729e-20 1.6783729025287126e-12 1.6246169488777967e-12 5.3755953650916484e-14
6.164241091010745 1.1551110274556056e-20 1.89004776246763e-12 1.8346815435240144e-12 5.5366218943615335e-14
6.187401249150058 1.2963340385594288e-20 2.129093030978588e-12 2.072073395340588e-12 5.701963563799984e-14
6.1990139391386085 1.365033315239557e-20 2.246132112598707e-12 2.1882711825528446e-12 5.786093004586242e-14
6.204828454712694 1.4010720829572298e-20 2.307595544290806e-12 2.2493096938281672e-12 5.828585046263805e-14
6.210648424152782 1.4272363558473876e-20 2.3528935441603728e-12 2.2942460283321177e-12 5.864751582825483e-14
6.233982942956859 1.5151962858949335e-20 2.507286370110251e-12 2.447379464436048e-12 5.990690567420395e-14
6.239830258556775 1.525924750490858e-20 2.527407827339534e-12 2.467327323116164e-12 6.008050422336972e-14
6.245683058788269 1.52608936786901e-20 2.5300513843740886e-12 2.4697970077907858e-12 6.025437658330299e-14
6.257405133728602 1.5219057094322038e-20 2.5278508946475648e-12 2.4672928601604478e-12 6.055803448711668e-14
6.269149208991335 1.5024080836430906e-20 2.5001493409446753e-12 2.43948299343488e-12 6.066634750979495e-14
6.280915325867298 1.4561587504028895e-20 2.427733974539691e-12 2.3672008523132816e-12 6.053312222640957e-14
6.304513850009849 1.343209740821476e-20 2.2478372755996622e-12 2.1877891271655243e-12 6.004814843413816e-14
6.32820103803542 1.2050750605884387e-20 2.024248375250592e-12 1.964917702121608e-12 5.933067312898385e-14
6.3519772230701035 1.0789661746824909e-20 1.819224076520123e-12 1.7605368888225143e-12 5.868718769760825e-14
6.375842739491607 9.725640739559114e-21 1.6459826480757628e-12 1.5878630746877977e-12 5.811957338796508e-14
6.399797922933955 8.881617322227586e-21 1.5087863667985493e-12 1.4509586290926228e-12 5.78277377059262e-14
6.42384311029221 8.177055127654241e-21 1.3943162354412358e-12 1.3367253926313231e-12 5.75908428099125e-14
6.447978639727206 7.666580181810191e-21 1.3121839014710565e-12 1.2546148701717248e-12 5.756903129933152e-14
6.472204850670314 7.239839969399158e-21 1.2438002914458066e-12 1.186210394993454e-12 5.758989645235284e-14
6.496522083828205 6.963298750854627e-21 1.2007853494861107e-12 1.1430002899976824e-12 5.778505948842815e-14
