Dust emission spectrum from A.P. Jones, M. Kohler, N. Ysard, M. Bocchio, and L. Verstraete (2017), A&A, 602A, 46J 
inside the DustPedia framework.

lambda    nu*dP/dnu     j_nu    j_nu(carb.) j_nu(sil)
 (um)   (erg s-1 H-1) (Jy cm2 sr-1 H-1)
0.9927057738263894 8.300488891328347e-22 2.1872259687007157e-14 2.187225933046527e-14 3.5654188585466036e-22
1.0001793341362166 8.440149785352473e-22 2.240770941619594e-14 2.2407708987094045e-14 4.291018930642028e-22
1.0077091589558085 8.580337666824388e-22 2.295139133970928e-14 2.2951390823966953e-14 5.157423269223477e-22
1.0114953028030835 8.650622311754656e-22 2.322633332650921e-14 2.322633276137441e-14 5.651347968037495e-22
1.0152956718711033 8.721030509370324e-22 2.3503350311941515e-14 2.350334969289027e-14 6.190512434581849e-22
1.0229392996569957 8.862138566193512e-22 2.406344670027508e-14 2.4063445958201345e-14 7.420737366013371e-22
1.0267826658714554 8.932677843390922e-22 2.4346112966400695e-14 2.4346112154307543e-14 8.120931528071972e-22
1.0306404723013447 9.003326959715196e-22 2.463086409155106e-14 2.463086320312774e-14 8.884233186041153e-22
1.03451277320114 9.074083530030657e-22 2.4917706331225165e-14 2.4917705359620964e-14 9.71604205294216e-22
1.0383996230291617 9.14494523343587e-22 2.5206646090574736e-14 2.52066450283554e-14 1.0622193345727942e-21
1.0403485208654093 9.180414802735726e-22 2.5351904584461332e-14 2.5351903473951524e-14 1.1105098020460342e-21
1.0423010764483396 9.215909814913431e-22 2.5497689931739047e-14 2.5497688770839985e-14 1.1608990603858143e-21
1.0462171883269815 9.286975086967493e-22 2.5790844581281144e-14 2.5790843312957068e-14 1.2683240791947596e-21
1.0471985131304309 9.304756888097074e-22 2.586446386200927e-14 2.5864462565377618e-14 1.2966316495771487e-21
1.048180758391296 9.322544817231224e-22 2.593821560805691e-14 2.5938214282513428e-14 1.3255434750428621e-21
1.0501480137395462 9.358138931248127e-22 2.6086116937723393e-14 2.6086115552494217e-14 1.385229183090393e-21
1.0521189612883777 9.393757175292713e-22 2.6234549460716923e-14 2.6234548013234758e-14 1.4474821628321782e-21
1.0531058218030118 9.411551547597266e-22 2.6308898893477546e-14 2.6308897413871415e-14 1.4796061412359904e-21
1.0540936079674168 9.429274147625423e-22 2.6383163901656616e-14 2.638316238923776e-14 1.512418858537144e-21
1.058054026499678 9.500220184964701e-22 2.6681543428162268e-14 2.6681541777394802e-14 1.6507674618711348e-21
1.0590464539527713 9.517970456851662e-22 2.675646875487994e-14 2.6756467067678794e-14 1.687201140490423e-21
1.06003981227728 9.535726176094818e-22 2.6831526491060682e-14 2.6831524766657444e-14 1.7244032307284918e-21
1.0620293250338977 9.571253843713127e-22 2.6982039661106953e-14 2.698203785993243e-14 1.8011745184630884e-21
1.0660195594769086 9.642373321869436e-22 2.7284660123147285e-14 2.728465815851207e-14 1.9646352130701127e-21
1.070024785945596 9.71357689529416e-22 2.758941254990872e-14 2.75894104076868e-14 2.1422219208331927e-21
1.0740450607676866 9.78486291922734e-22 2.7896304898096468e-14 2.789630256300668e-14 2.335089781130965e-21
1.07808044048254 9.856229829787023e-22 2.820534535369216e-14 2.820534280920951e-14 2.5444826413675644e-21
1.0861967418109137 9.999090647200043e-22 2.88295878881082e-14 2.8829584869807135e-14 3.0183010663945286e-21
1.0902777775684922 1.0070332141084528e-21 2.914408252754621e-14 2.9144079241828334e-14 3.2857178743026074e-21
1.0943741465085532 1.0141644779391591e-21 2.946074009190625e-14 2.946073651625083e-14 3.575655429656853e-21
1.1026131145906286 1.0284479112460821e-21 3.010058161216542e-14 3.010057738177465e-14 4.230390756222811e-21
1.1109141095355224 1.042758580212243e-21 3.0749190553644194e-14 3.0749185555150635e-14 4.9984935617361994e-21
1.1192775983109025 1.0570845707099033e-21 3.1406314735959164e-14 3.140630883756397e-14 5.898395189250862e-21
1.1277040513999907 1.0713735581343375e-21 3.2070482753799406e-14 3.2070475802483327e-14 6.951316074927426e-21
1.1361939428280308 1.0856866558647642e-21 3.2743598221966346e-14 3.274359004031242e-14 8.181653931164575e-21
1.1447477501889525 1.100023713027457e-21 3.342575910792651e-14 3.342574949050483e-14 9.617421680145353e-21
1.1533659546722406 1.114389942182886e-21 3.411722852170575e-14 3.4117217230950087e-14 1.1290755651186632e-20
1.1707974979042381 1.1432533591010068e-21 3.552987706262462e-14 3.552986155989213e-14 1.5502732480639997e-20
1.1884924949847024 1.1722350855652416e-21 3.6981165352742886e-14 3.698114417339271e-14 2.117935018771346e-20
1.2064549276569216 1.2015315625268704e-21 3.8478285992586137e-14 3.8478257200874413e-14 2.879171172718447e-20
1.2246888378427687 1.2309483306953625e-21 4.0016123648536144e-14 4.0016084700198235e-14 3.894833792235098e-20
1.2431983285522175 1.2604595717915485e-21 4.1594774215532054e-14 4.159472178305584e-14 5.2432476219023314e-20
1.2619875648066055 1.2901060950459808e-21 4.321653424351928e-14 4.321646399638129e-14 7.02471379821594e-20
1.3004222497298317 1.3496108068483835e-21 4.6586745451254116e-14 4.658662113545078e-14 1.2431580332682186e-19
1.3400274889804893 1.4096232399492567e-21 5.0140214979791555e-14 5.0139999012448814e-14 2.1596734274046405e-19
1.3808389325824078 1.4703434319840998e-21 5.389286135469178e-14 5.389249287143135e-14 3.6848326045368735e-19
1.4228933163050095 1.5322651151100267e-21 5.787295880342336e-14 5.787234102822014e-14 6.177752032294167e-19
1.466228494730424 1.596461286953481e-21 6.213402388981718e-14 6.213300566558645e-14 1.0182242307470802e-18
1.5108834753276823 1.6627584950205858e-21 6.66852186781158e-14 6.668356805480592e-14 1.6506233098778061e-18
1.5568984535646726 1.7310506274176853e-21 7.153844404247118e-14 7.153580951867559e-14 2.6345237956013292e-18
1.6043148490894465 1.8016950692121798e-21 7.672560581886002e-14 7.672145802674007e-14 4.147792119947677e-18
1.6531753430134553 1.8750593559319345e-21 8.228172204751243e-14 8.227528809273545e-14 6.433954776984214e-18
1.7035239163302658 1.95157196681374e-21 8.824746512585232e-14 8.823762984891428e-14 9.835276938048608e-18
1.755405889504358 2.0326128449366934e-21 9.47112677580206e-14 9.469644397112095e-14 1.4823786899622348e-17
1.8088679632656115 2.1180425110569435e-21 1.016976629217903e-13 1.0167562612672134e-13 2.2036795068975622e-17
1.8639582606462262 2.2076576742486152e-21 1.0922884651309899e-13 1.0919652245770384e-13 3.232405539512363e-17
1.9207263702978936 2.301538254516781e-21 1.1734190373688517e-13 1.1729510291211266e-13 4.680082477253474e-17
1.979223391128241 2.399867240163262e-21 1.2608152855253325e-13 1.2601461755340963e-13 6.691099912361583e-17
2.039501978296691 2.5027330805132475e-21 1.3549026681584813e-13 1.3539577137208402e-13 9.449544376411801e-17
2.1016163906111602 2.6109548119618904e-21 1.456539394863698e-13 1.455220619141377e-13 1.3187757223210816e-16
2.1656225393682647 2.724708083606153e-21 1.5662900032744976e-13 1.5644706163541188e-13 1.81938692037896e-16
2.231578038680979 2.8432679119771784e-21 1.6842218435120596e-13 1.681739817902865e-13 2.4820256091945727e-16
2.299542257339062 2.9662761085878415e-21 1.8105995230259573e-13 1.8072502922621048e-13 3.3492307638519115e-16
2.369576372248914 3.0936311815535873e-21 1.9458469600975593e-13 1.9413751903577434e-13 4.471769739815829e-16
2.4417434235010123 3.2252876168990878e-21 2.0904409722425387e-13 2.0845316533037703e-13 5.909318938768388e-16
2.5161083711144245 3.361769168618574e-21 2.2452601356099578e-13 2.2375287659429627e-13 7.731369666995786e-16
2.5927381535095444 3.504372407211381e-21 2.4117836339721677e-13 2.40176589595796e-13 1.0017738014207085e-15
2.6717017477616296 3.654156329265509e-21 2.591460124825761e-13 2.57860175994903e-13 1.2858364876730625e-15
2.753070231689431 3.8130234717782914e-21 2.7864817451041544e-13 2.770128372692842e-13 1.6353372411312652e-15
2.836916847834745 3.98720789209608e-21 3.002513161462084e-13 2.981899687232466e-13 2.061347422961882e-15
2.9233170693905177 4.191279349399056e-21 3.2523102141940004e-13 3.226556074871854e-13 2.5754139322145994e-15
2.967498994190263 4.319341924818109e-21 3.4023391161917376e-13 3.3737017641424813e-13 2.8637352049257204e-15
3.0123486681368425 4.4568061500541486e-21 3.563677673530796e-13 3.531875954798213e-13 3.1801718732582675e-15
3.0578761833420214 4.69308821499315e-21 3.809325176697509e-13 3.774044988335814e-13 3.528018836169413e-15
3.1040917844459814 4.972748265565845e-21 4.097325456882122e-13 4.05826386784925e-13 3.906158903287203e-15
3.127460860933648 5.2396998312118994e-21 4.3497843310182034e-13 4.308699645693228e-13 4.108468532497644e-15
3.1510058709225794 5.581550081510324e-21 4.668458164164204e-13 4.625265823743e-13 4.31923404212029e-15
3.162844764501044 5.894020046195901e-21 4.948333006089946e-13 4.904050386118268e-13 4.4282619971677925e-15
3.1747281389236908 6.248604258171755e-21 5.265734945810066e-13 5.220340184913552e-13 4.539476089651397e-15
3.1986289994194426 7.212868857136667e-21 6.124086825783905e-13 6.076395334883485e-13 4.769149090042159e-15
3.2227097969389145 9.457145137979275e-21 8.090040328101125e-13 8.039916295603687e-13 5.012403249743636e-15
3.2348180950136065 1.1567190928828063e-20 9.932239904248452e-13 9.880818020462429e-13 5.142188378602169e-15
3.240889293275058 1.3144437255986537e-20 1.1307735121605878e-12 1.1255628653636677e-12 5.21064679692014e-15
3.2469718861334385 1.4972570909533686e-20 1.290459383522069e-12 1.2851779024834232e-12 5.281481038645788e-15
3.2714166318528037 2.4577518276284447e-20 2.1342403089328844e-12 2.1286661988555947e-12 5.574110077289568e-15
3.2744851364798273 2.517757273447099e-20 2.1883980329082573e-12 2.1827894627599778e-12 5.608570148279819e-15
3.2775565192852394 2.579376889654992e-20 2.2440598057263294e-12 2.238416605633396e-12 5.6432000929334525e-15
3.283707930232385 2.5200169630442238e-20 2.1965314152263374e-12 2.1908263369522556e-12 5.705078274081729e-15
3.2898708863219004 2.3315977825745338e-20 2.036113206027699e-12 2.03035186236593e-12 5.7613436617691326e-15
3.29141343181113 2.2870700200944775e-20 1.9981649245211057e-12 1.9923894535444744e-12 5.775470976631378e-15
3.292184975758714 2.2651765996343032e-20 1.9795010123370426e-12 1.973718468547881e-12 5.782543789161726e-15
3.295272960557952 2.1285919487833035e-20 1.861886671245733e-12 1.856076624469873e-12 5.8100467758597854e-15
3.3076538914384823 1.6519668226412768e-20 1.4504100928929267e-12 1.4444896047182932e-12 5.920488174633766e-15
3.310756385682612 1.5539862882803526e-20 1.365663936069079e-12 1.359715615161421e-12 5.948320907658167e-15
3.313861789986515 1.463202426789874e-20 1.2870879883804596e-12 1.281111745653794e-12 5.976242726665699e-15
3.3200813396944477 1.336329465951755e-20 1.1776919363937755e-12 1.1716556147818173e-12 6.036321611958231e-15
3.345076488085796 1.1140669377459237e-20 9.892060676943107e-13 9.829019534153598e-13 6.304114278951132e-15
3.3482140837626964 1.122939773613293e-20 9.980197055766942e-13 9.916793122998165e-13 6.340393276877539e-15
3.3513546224236106 1.1318947758023071e-20 1.006922101416492e-12 1.0005452682822895e-12 6.3768331342025004e-15
3.3576445397418455 1.1953340584740638e-20 1.0653527818674395e-12 1.05889975334562e-12 6.453028521819647e-15
3.3702598118196083 1.4256792357022876e-20 1.2754241591235007e-12 1.2688113123613682e-12 6.6128467621321435e-15
3.382922481734668 1.4802912018084364e-20 1.3292560240496693e-12 1.322487901064194e-12 6.7681229854749916e-15
3.389271646505754 1.508456644618756e-20 1.357089979993968e-12 1.3502431658125618e-12 6.846814181406235e-15
3.395632727569191 1.5394201402620912e-20 1.3875457384141618e-12 1.3806178281809214e-12 6.9279102332404625e-15
3.421196662673239 1.6896885909961842e-20 1.5344549567444898e-12 1.5271914172564154e-12 7.263539488074576e-15
3.4276182099114902 1.662136090435874e-20 1.5122669260612134e-12 1.5049285556416863e-12 7.33837041952745e-15
3.4340518103208963 1.5377620046236018e-20 1.401733337382802e-12 1.3943242241589248e-12 7.409113223877376e-15
3.4469541582030403 1.3592853166666525e-20 1.2436998051509097e-12 1.236154979660107e-12 7.544825490802924e-15
3.472904465399547 1.309249248313506e-20 1.2069370046194541e-12 1.1990794546901767e-12 7.857549929277683e-15
3.4990501388274233 1.2338032365698472e-20 1.1459495644338523e-12 1.1377721588458318e-12 8.177405588020415e-15
3.5253949054701885 9.67629268126312e-21 9.054953026981493e-13 8.970074133570308e-13 8.487889341118747e-15
3.5519380250092896 7.143331973919736e-21 6.734969700282668e-13 6.646972233906015e-13 8.799746637665408e-15
3.578680990867387 6.151411227542064e-21 5.843421046935982e-13 5.752005840259917e-13 9.141520667606596e-15
3.605625307711299 5.765885133362751e-21 5.518436031115593e-13 5.42342261579811e-13 9.501341531748195e-15
3.660119384959845 5.514060625317248e-21 5.357179781768604e-13 5.254612905266527e-13 1.0256687650207807e-14
3.715437065384467 5.340253684701051e-21 5.266732134287807e-13 5.156211448552929e-13 1.1052068573487817e-14
3.8285932144167436 5.3056061457023906e-21 5.391922805772634e-13 5.264339521220891e-13 1.2758328455174311e-14
3.94519561050918 5.3468026443085505e-21 5.599279263925104e-13 5.453138783431149e-13 1.461404804939544e-14
4.06534921144712 5.412598688267467e-21 5.840810527571408e-13 5.674652637482755e-13 1.661578900886503e-14
4.189162171576248 5.488005999198937e-21 6.102547713235893e-13 5.914888683852738e-13 1.8765902938315685e-14
4.316745939156006 5.566906817769529e-21 6.378813050228589e-13 6.1682656059232e-13 2.1054744430538825e-14
4.448215356677963 5.646812018501707e-21 6.667431592154553e-13 6.432945115951697e-13 2.3448647620285752e-14
4.58368876423945 5.7275043528335054e-21 6.968671330951859e-13 6.70918276505119e-13 2.5948856590066692e-14
4.723288106065518 5.810343610871596e-21 7.284767349142055e-13 6.999073783071185e-13 2.8569356607087064e-14
4.867139040275056 5.897494629010909e-21 7.61922397083245e-13 7.306848645372419e-13 3.1237532546003106e-14
4.940699165968905 5.9469933349238364e-21 7.799294073228979e-13 7.473321893093442e-13 3.2597218013553555e-14
5.015371051989984 5.9945823893995666e-21 7.980524505261092e-13 7.640830224893838e-13 3.396942803672536e-14
5.091171501069577 6.053551665402955e-21 8.180830853761195e-13 7.826988444545556e-13 3.538424092156394e-14
5.129500256944802 6.0822531230799296e-21 8.2814994819385e-13 7.920552218557491e-13 3.609472633810078e-14
5.168117569889187 6.1116125945523644e-21 8.384122886216139e-13 8.015979075652437e-13 3.681438105637069e-14
5.20702561229733 6.150608192546609e-21 8.501140801627024e-13 8.125124723954495e-13 3.7601607767252825e-14
5.246226572918644 6.189440039097109e-21 8.619217420074411e-13 8.235288657001846e-13 3.839287630725631e-14
5.265937586045735 6.20880132197777e-21 8.678664571814707e-13 8.290765424545417e-13 3.8789914726929204e-14
5.285722656980489 6.228129970818355e-21 8.738390971215129e-13 8.346512681255601e-13 3.918782899595284e-14
5.305582063971359 6.247428947846142e-21 8.798401877206924e-13 8.402536142512905e-13 3.958657346940178e-14
5.3255160863122235 6.268590530678581e-21 8.861373379506639e-13 8.461479231377047e-13 3.998941481295906e-14
5.365609099470188 6.3255002765883436e-21 9.009140127559112e-13 8.600910326506605e-13 4.082298010525055e-14
5.406003951863644 6.383170401723135e-21 9.159720676588457e-13 8.743115065879333e-13 4.166056107091247e-14
5.446702915881641 6.441681032555832e-21 9.313273078770102e-13 8.888255154842729e-13 4.2501792392737186e-14
5.487708281020852 6.504724742625558e-21 9.47522154717444e-13 9.041720898947814e-13 4.3350064822662504e-14
5.529022354014368 6.600933666903335e-21 9.687755006043106e-13 9.245412214331684e-13 4.423427917114242e-14
5.570647458961463 6.7007288502805725e-21 9.9082544751985e-13 9.45702874526887e-13 4.512257299296334e-14
5.612585937458331 6.804433138028895e-21 1.0137348755385428e-12 9.677203014307153e-13 4.601457410782761e-14
5.654840148729818 6.917836420213222e-21 1.0383889412004215e-12 9.914744146121263e-13 4.6914526588295265e-14
5.67608639626678 7.00041062258618e-21 1.0547315701255628e-12 1.0073458269745112e-12 4.73857431510516e-14
5.686739436050992 7.04265987644684e-21 1.0630886398831925e-12 1.0154668604546902e-12 4.7621779428502136e-14
5.6974124697621304 7.085572524897786e-21 1.0715736912116882e-12 1.0237155980192826e-12 4.7858093192405384e-14
5.718818669136295 7.17345640235958e-21 1.0889406806445428e-12 1.040609151135311e-12 4.833152950923172e-14
5.740305295436557 7.271000086765677e-21 1.1078949266825082e-12 1.0590852235917284e-12 4.880970309077992e-14
5.7835210386641895 7.53203876718243e-21 1.156310047730055e-12 1.1065122167861446e-12 4.9797830943910663e-14
5.827062130521658 7.829323448794825e-21 1.2109976963854573e-12 1.1601977477286618e-12 5.07999486567954e-14
5.8489554468988025 8.045810400523057e-21 1.2491584798267057e-12 1.1978161235800902e-12 5.134235624661481e-14
5.870931020387893 8.275458462499258e-21 1.2896399376247323e-12 1.2377532161473074e-12 5.188672147742525e-14
5.892989160043636 8.519308073223723e-21 1.3326294256826292e-12 1.2801964273691597e-12 5.24329983134695e-14
5.915130176081913 8.796871348413916e-21 1.381217207873925e-12 1.3282175460091726e-12 5.2999661864752536e-14
5.95966208400165 9.587325647871282e-21 1.5166610997018464e-12 1.4623625609263482e-12 5.429853877549809e-14
6.004529249263818 1.0729264378281703e-20 1.7100875475212966e-12 1.6543230998498953e-12 5.576444767140132e-14
6.027089341400364 1.1527384917633865e-20 1.8441993194779278e-12 1.7875840369263992e-12 5.6615282551528416e-14
6.049734195844842 1.2464070484191625e-20 2.001546218427316e-12 1.944028856533633e-12 5.751736189368333e-14
6.095279466722835 1.517577221161446e-20 2.4553525279962173e-12 2.395604726651245e-12 5.974780134497237e-14
6.141167624020661 1.9324397473366875e-20 3.1501145481670938e-12 3.08745568361613e-12 6.265886455096397e-14
6.164241091010745 2.1970357530268906e-20 3.594894698751763e-12 3.5304009342726144e-12 6.44937644791492e-14
6.187401249150058 2.4950320588990635e-20 4.097829117079552e-12 4.0314526369501326e-12 6.637648012941973e-14
6.1990139391386085 2.6397859448140044e-20 4.3437093548100604e-12 4.276375167813824e-12 6.733418699623625e-14
6.204828454712694 2.7157497950319646e-20 4.472897720720437e-12 4.405079959876117e-12 6.781776084432041e-14
6.210648424152782 2.770627154167093e-20 4.567562140360894e-12 4.499334132952286e-12 6.822800740860834e-14
6.233982942956859 2.954448082333224e-20 4.8889028286240935e-12 4.819251958870878e-12 6.965086975321593e-14
6.239830258556775 2.976428261981417e-20 4.929894534069624e-12 4.860051832295683e-12 6.984270177394191e-14
6.245683058788269 2.975869554782419e-20 4.933592386733811e-12 4.863557601799467e-12 7.003478493434517e-14
6.257405133728602 2.965159217140535e-20 4.925062264611388e-12 4.854694551306019e-12 7.03677133053691e-14
6.269149208991335 2.921895839903111e-20 4.8623114039222365e-12 4.7918372202849965e-12 7.047418363723813e-14
6.280915325867298 2.821776083017501e-20 4.70451567412531e-12 4.63421484813592e-12 7.030082598939144e-14
6.304513850009849 2.5783810861198918e-20 4.314874244834519e-12 4.245173032004186e-12 6.970121283033269e-14
6.32820103803542 2.2816747747780982e-20 3.8326877775061765e-12 3.763855227404713e-12 6.883255010146464e-14
6.3519772230701035 2.0108845622088177e-20 3.390513712581793e-12 3.3224639423904907e-12 6.804977019130234e-14
6.375842739491607 1.782571150667118e-20 3.0168512918887977e-12 2.949496065318343e-12 6.73552265704543e-14
6.399797922933955 1.600792897770951e-20 2.719385909793947e-12 2.652406664186746e-12 6.69792456072011e-14
6.42384311029221 1.4490259855106026e-20 2.4708167251322716e-12 2.4041498599780587e-12 6.666686515421264e-14
6.447978639727206 1.3383608481321519e-20 2.2906896134013966e-12 2.2240871084021755e-12 6.660250499922108e-14
6.472204850670314 1.2456705941681448e-20 2.1400548280356437e-12 2.0734676070278697e-12 6.658722100777398e-14
6.496522083828205 1.18470880067301e-20 2.0429698942341283e-12 1.9761973569514902e-12 6.677253728263817e-14
