Dust emission spectrum from A.P. Jones, M. Kohler, N. Ysard, M. Bocchio, and L. Verstraete (2017), A&A, 602A, 46J 
inside the DustPedia framework.

lambda    nu*dP/dnu     j_nu    j_nu(carb.) j_nu(sil)
 (um)   (erg s-1 H-1) (Jy cm2 sr-1 H-1)
0.9927057738263894 1.699322957233985e-19 4.47781251192863e-12 4.477812401562932e-12 1.10365701222898e-19
1.0001793341362166 1.727790957451263e-19 4.587103154696211e-12 4.587103021925313e-12 1.3277089725702488e-19
1.0077091589558085 1.7563839216330647e-19 4.6981198518604626e-12 4.698119692350641e-12 1.5950982299755847e-19
1.0114953028030835 1.7707261829725235e-19 4.754279527359812e-12 4.7542793526125375e-12 1.7474727365816645e-19
1.0152956718711033 1.7850984107419326e-19 4.8108756463904396e-12 4.810875455014594e-12 1.9137584529825392e-19
1.0229392996569957 1.8139171164438157e-19 4.925345899777631e-12 4.925345670475807e-12 2.2930182522186226e-19
1.0267826658714554 1.8283309434328443e-19 4.983136352747338e-12 4.983136101868349e-12 2.508789867881131e-19
1.0306404723013447 1.8427724919697312e-19 5.041367375021012e-12 5.04136710062677e-12 2.743942406757853e-19
1.03451277320114 1.8572414159831582e-19 5.100040796020839e-12 5.100040496008108e-12 3.0001273155469656e-19
1.0383996230291617 1.8717373838424216e-19 5.159158486429552e-12 5.159158158516696e-12 3.2791285733575287e-19
1.0403485208654093 1.8789954096106356e-19 5.188884528931558e-12 5.188884186153409e-12 3.4277814951335377e-19
1.0423010764483396 1.8862600786919397e-19 5.2187223598125624e-12 5.218722001525298e-12 3.582872619080002e-19
1.0462171883269815 1.900809198782545e-19 5.278734374259849e-12 5.278733982915952e-12 3.9134389645635193e-19
1.0471985131304309 1.9044505738528117e-19 5.293807633750287e-12 5.293807233697217e-12 4.0005307131049792e-19
1.048180758391296 1.9080935782080615e-19 5.308909058868829e-12 5.308908649921332e-12 4.08947497856721e-19
1.0501480137395462 1.915384457799342e-19 5.3391965340471346e-12 5.3391961067399814e-12 4.273071536552397e-19
1.0521189612883777 1.9226818042318157e-19 5.369597057821359e-12 5.369596611367676e-12 4.464536806831267e-19
1.0531058218030118 1.926328112654486e-19 5.384826433259945e-12 5.384825976927301e-12 4.563326436111519e-19
1.0540936079674168 1.9299603672859162e-19 5.400040331484957e-12 5.4000398650622675e-12 4.66422689969506e-19
1.058054026499678 1.9445047306355565e-19 5.4611773629026e-12 5.461176853945167e-12 5.089574340621436e-19
1.0590464539527713 1.9481446394256239e-19 5.4765321463311744e-12 5.476531626174424e-12 5.20156751385332e-19
1.06003981227728 1.9517860683247508e-19 5.4919152070897294e-12 5.491914675498321e-12 5.315914100554293e-19
1.0620293250338977 1.959073472834775e-19 5.52276629647341e-12 5.522765741287792e-12 5.551856182342415e-19
1.0660195594769086 1.9736663771336085e-19 5.584809309803149e-12 5.584808704392455e-12 6.05410695613252e-19
1.070024785945596 1.988283243954057e-19 5.647308635616464e-12 5.6473079756569354e-12 6.599595301614067e-19
1.0740450607676866 2.0029238911907969e-19 5.710266563525077e-12 5.7102658443410035e-12 7.191840761963831e-19
1.07808044048254 2.0175881545068803e-19 5.7736854418110335e-12 5.773684658347865e-12 7.834631684855444e-19
1.0861967418109137 2.046964750777635e-19 5.901851705177635e-12 5.901850776331236e-12 9.288463987802362e-19
1.0902777775684922 2.0616263522505367e-19 5.966457482154395e-12 5.9664564712937425e-12 1.0108606524087891e-18
1.0943741465085532 2.0763102352491562e-19 6.031530143428053e-12 6.031529043674357e-12 1.0997536945750364e-18
1.1026131145906286 2.1057445971616047e-19 6.163086764835971e-12 6.1630854644417265e-12 1.3003942447153331e-18
1.1109141095355224 2.1352675363622995e-19 6.296543572458617e-12 6.296542036834241e-12 1.5356243763564348e-18
1.1192775983109025 2.1648562404102279e-19 6.4318559109011395e-12 6.431854099862581e-12 1.8110385594506886e-18
1.1277040513999907 2.194406120161437e-19 6.568732548712478e-12 6.56873041563998e-12 2.133072497327665e-18
1.1361939428280308 2.22404226191936e-19 6.7075657474076756e-12 6.7075632382880265e-12 2.5091196467104404e-18
1.1447477501889525 2.253765723575976e-19 6.84838238210524e-12 6.848379434443357e-12 2.9476618840967896e-18
1.1533659546722406 2.283588051227841e-19 6.991241794642018e-12 6.991238336220542e-12 3.458421475648097e-18
1.1707974979042381 2.343619607580961e-19 7.28347009663597e-12 7.283465353923436e-12 4.7427125354350836e-18
1.1884924949847024 2.404067760630095e-19 7.58424896761988e-12 7.584242496422232e-12 6.471197647963145e-18
1.2064549276569216 2.4653369586738823e-19 7.895085199796798e-12 7.895076413954021e-12 8.78584277647718e-18
1.2246888378427687 2.527049853942113e-19 8.215027137998438e-12 8.215015268294964e-12 1.1869703472020255e-17
1.2431983285522175 2.589162436148901e-19 8.544155588098537e-12 8.54413963012308e-12 1.5957975456665658e-17
1.2619875648066055 2.6517727880131673e-19 8.88302364737833e-12 8.88300229606554e-12 2.1351312788712607e-17
1.3004222497298317 2.7781391751899294e-19 9.589761872532926e-12 9.589724190292609e-12 3.7682240316069035e-17
1.3400274889804893 2.9065632432104477e-19 1.0338628204808695e-11 1.0338562924096846e-11 6.52807118483901e-17
1.3808389325824078 3.0375331751744824e-19 1.1133545449926245e-11 1.1133434385535269e-11 1.110643909754203e-16
1.4228933163050095 3.172113321435911e-19 1.1980928219335515e-11 1.1980742557312554e-11 1.856620229605137e-16
1.466228494730424 3.3125176656134323e-19 1.2892267006576267e-11 1.289196190261634e-11 3.0510395992545057e-16
1.5108834753276823 3.458438819805754e-19 1.387012904605706e-11 1.3869635938945164e-11 4.931071118957471e-16
1.5568984535646726 3.6096728033604497e-19 1.491755190546043e-11 1.4916767275735242e-11 7.846297251840833e-16
1.6043148490894465 3.766915994626302e-19 1.604149984618844e-11 1.6040268339790506e-11 1.2315063979375086e-15
1.6531753430134553 3.9308565240642534e-19 1.7249461618293785e-11 1.724755731723985e-11 1.9043010539311373e-15
1.7035239163302658 4.1022512973492545e-19 1.854982980163199e-11 1.8546928037296544e-11 2.9017643354509567e-15
1.755405889504358 4.283737381443485e-19 1.9960426755621145e-11 1.9956067295883826e-11 4.3594597373148146e-15
1.8088679632656115 4.474849994666224e-19 2.14859609288978e-11 2.1479501416120254e-11 6.459512777547828e-15
1.8639582606462262 4.67492875361767e-19 2.3130265223858813e-11 2.3120821684762686e-11 9.443539096127493e-15
1.9207263702978936 4.883850268898439e-19 2.489988106840146e-11 2.488625409457626e-11 1.36269738251969e-14
1.979223391128241 5.10166093851889e-19 2.6802533011845057e-11 2.6783117025012975e-11 1.941598683207446e-14
2.039501978296691 5.328161302520066e-19 2.8845025549759157e-11 2.8817700098382565e-11 2.7325451376594516e-14
2.1016163906111602 5.564611717844254e-19 3.1042575486283886e-11 3.100457406530753e-11 3.8001420976349633e-14
2.1656225393682647 5.810936241934422e-19 3.340398701853366e-11 3.335174697145358e-11 5.22400470800822e-14
2.231578038680979 6.065193118044966e-19 3.5927429460654855e-11 3.5856420878593436e-11 7.100858206140883e-14
2.299542257339062 6.326212606600053e-19 3.861487302179663e-11 3.8519406418299535e-11 9.546660349709883e-14
2.369576372248914 6.593301218495876e-19 4.147086184518891e-11 4.1343873908604914e-11 1.269879365839942e-13
2.4417434235010123 6.865889218721456e-19 4.450063944217447e-11 4.4333464591344066e-11 1.6717485083040465e-13
2.5161083711144245 7.144522289441829e-19 4.7716872515230617e-11 4.749899458071119e-11 2.1787793451941907e-13
2.5927381535095444 7.431209456818449e-19 5.1143164213063245e-11 5.086196028413171e-11 2.8120392893152856e-13
2.6717017477616296 7.727321828489683e-19 5.480073807967531e-11 5.444123469890229e-11 3.5950338077300993e-13
2.753070231689431 8.035701096038683e-19 5.872330600362792e-11 5.826794119212479e-11 4.553648115031424e-13
2.836916847834745 8.367139967004586e-19 6.300761975448387e-11 6.24360009208251e-11 5.716188336587675e-13
2.9233170693905177 8.747213884187673e-19 6.787582189042616e-11 6.716466296548023e-11 7.111589249459374e-13
2.967498994190263 8.98138983764362e-19 7.074627221985595e-11 6.995730477262387e-11 7.88967447232089e-13
3.0123486681368425 9.230692402096252e-19 7.380893697649625e-11 7.293476414363322e-11 8.741728328630664e-13
3.0578761833420214 9.656033055687737e-19 7.837689841103565e-11 7.74092516713646e-11 9.676467396710199e-13
3.1040917844459814 1.0154928604806076e-18 8.367213714277539e-11 8.260316942109747e-11 1.0689677216779232e-12
3.127460860933648 1.0630665511907212e-18 8.825143378737101e-11 8.712837372522266e-11 1.1230600621483433e-12
3.1510058709225794 1.1237775168330862e-18 9.399375167380006e-11 9.281442227247981e-11 1.1793294013202516e-12
3.162844764501044 1.1794423645750184e-18 9.902025333582233e-11 9.781184817652508e-11 1.2084051592972531e-12
3.1747281389236908 1.242383538871326e-18 1.0469637932628538e-10 1.0345833789466815e-10 1.2380414316172493e-12
3.1986289994194426 1.4130371379900692e-18 1.1997392843966986e-10 1.1867475234458007e-10 1.2991760950898243e-12
3.2227097969389145 1.8103902060441883e-18 1.5486840439488327e-10 1.5350456330821814e-10 1.3638410866651114e-12
3.2348180950136065 2.183706389733996e-18 1.875052973252492e-10 1.8610697590219993e-10 1.3983214230492763e-12
3.240889293275058 2.4628212269109975e-18 2.1186856115193806e-10 2.1045205194558207e-10 1.4165092063559295e-12
3.2469718861334385 2.78641196889554e-18 2.4015591532980366e-10 2.3872058717761676e-10 1.4353281521869638e-12
3.2714166318528037 4.481446731910245e-18 3.891558191539394e-10 3.8764281605362047e-10 1.5130031003189263e-12
3.2744851364798273 4.587065334540875e-18 3.98701052750303e-10 3.971789228070234e-10 1.5221299432796794e-12
3.2775565192852394 4.695485585945468e-18 4.085075939870482e-10 4.069762940250645e-10 1.5312999619836575e-12
3.283707930232385 4.589853841205188e-18 4.000670749980005e-10 3.9851943090614186e-10 1.5476440918585396e-12
3.2898708863219004 4.256302445128137e-18 3.716899064728096e-10 3.7012743865667705e-10 1.562467816132427e-12
3.29141343181113 4.17745236856918e-18 3.649752182221221e-10 3.634090293525525e-10 1.5661888695696091e-12
3.292184975758714 4.138679702981418e-18 3.6167249225129346e-10 3.6010444058507556e-10 1.5680516662178627e-12
3.295272960557952 3.897502415179452e-18 3.4091587173946534e-10 3.39340583664901e-10 1.5752880745643423e-12
3.3076538914384823 3.0549836531644598e-18 2.682244621043955e-10 2.6662013391350187e-10 1.6043281908935735e-12
3.310756385682612 2.8815084152311735e-18 2.5323081380051653e-10 2.516191708783414e-10 1.6116429221752217e-12
3.313861789986515 2.720666632106495e-18 2.393200884893463e-10 2.3770110894289683e-10 1.6189795464494892e-12
3.3200813396944477 2.4959207952082436e-18 2.199626566118396e-10 2.1832787307536692e-10 1.6347835364727106e-12
3.345076488085796 2.1026860537296366e-18 1.8670240829639697e-10 1.8499713100414463e-10 1.7052772922523382e-12
3.3482140837626964 2.118274280790196e-18 1.882629437233685e-10 1.8654811405169163e-10 1.7148296716768872e-12
3.3513546224236106 2.134001350587867e-18 1.8983859368345242e-10 1.881141712741268e-10 1.7244224093256114e-12
3.3576445397418455 2.2458393056602996e-18 2.0016255162734943e-10 1.9841806392190354e-10 1.7444877054458355e-12
3.3702598118196083 2.6513536226054155e-18 2.3719223651207816e-10 2.354056650394425e-10 1.786571472635688e-12
3.382922481734668 2.7473053742967358e-18 2.4669958277307614e-10 2.4487219183139405e-10 1.8273909416820383e-12
3.389271646505754 2.7967436283685724e-18 2.5161033087763775e-10 2.497622664454297e-10 1.8480644322080517e-12
3.395632727569191 2.851300705539503e-18 2.570000248427993e-10 2.5513065497122575e-10 1.8693698715735025e-12
3.421196662673239 3.116697239656918e-18 2.830362679577462e-10 2.810787943432113e-10 1.9574736145349235e-12
3.4276182099114902 3.0677661260923113e-18 2.7911560768551416e-10 2.7713856560574447e-10 1.977042079769727e-12
3.4340518103208963 2.8480284758604712e-18 2.596095135935108e-10 2.576140085639249e-10 1.995505029585928e-12
3.4469541582030403 2.5321482833092593e-18 2.3168295044102551e-10 2.29652099989118e-10 2.03085045190759e-12
3.472904465399547 2.4419042927155688e-18 2.2510798890386598e-10 2.229955755529571e-10 2.1124133509089065e-12
3.4990501388274233 2.307311322900373e-18 2.1430178873917182e-10 2.1210611397902265e-10 2.1956747601491608e-12
3.5253949054701885 1.838616811588855e-18 1.7205544945734628e-10 1.6977921485218867e-10 2.2762346051576328e-12
3.5519380250092896 1.3922850658681564e-18 1.3126924195898297e-10 1.289123005944612e-10 2.356941364521762e-12
3.578680990867387 1.217305992578399e-18 1.156357654280279e-10 1.1319039791827756e-10 2.445367509750311e-12
3.605625307711299 1.1490952213004831e-18 1.0997805758764821e-10 1.074397171882006e-10 2.5383403994475965e-12
3.660119384959845 1.103889892523416e-18 1.072483060192128e-10 1.0451535712224173e-10 2.7329488969710473e-12
3.715437065384467 1.0721839378758566e-18 1.0574227242528705e-10 1.0280521299031591e-10 2.9370594349711187e-12
3.8285932144167436 1.0633979462186228e-18 1.0806983180371189e-10 1.0469773664318955e-10 3.372095160522326e-12
3.94519561050918 1.0673565465653363e-18 1.1177572422201998e-10 1.0793468208554116e-10 3.84104213647882e-12
4.06534921144712 1.07506251564121e-18 1.1601149135193907e-10 1.1166940438169652e-10 4.342086970242568e-12
4.189162171576248 1.083898525640466e-18 1.205272455968977e-10 1.1565233322823387e-10 4.874912368663806e-12
4.316745939156006 1.092786706495848e-18 1.2521643226111966e-10 1.197803472342089e-10 5.436085026910789e-12
4.448215356677963 1.1012718984955847e-18 1.300318661843775e-10 1.2401570436324507e-10 6.016161821132397e-12
4.58368876423945 1.1093148578432812e-18 1.3497066384640998e-10 1.283560834942321e-10 6.614580352177872e-12
4.723288106065518 1.1171477056616624e-18 1.4006333661826673e-10 1.3282940677784873e-10 7.233929840417984e-12
4.867139040275056 1.1250723907179764e-18 1.4535288402149587e-10 1.3749777747550084e-10 7.855106545995053e-12
4.940699165968905 1.129789616614983e-18 1.481683426331556e-10 1.4000026876881026e-10 8.168073864345343e-12
5.015371051989984 1.1340158709956495e-18 1.5097034055014895e-10 1.4248891336020568e-10 8.481427189943286e-12
5.091171501069577 1.1399845671378046e-18 1.540586656417306e-10 1.4525622141825086e-10 8.802444223479729e-12
5.129500256944802 1.1427669905982264e-18 1.5559734277917293e-10 1.4663472176666632e-10 8.962621012506564e-12
5.168117569889187 1.1456161009368794e-18 1.5715960431202843e-10 1.4803522436718953e-10 9.124379944838865e-12
5.20702561229733 1.1500538785140781e-18 1.5895614945125366e-10 1.4965360852561924e-10 9.302540925634495e-12
5.246226572918644 1.1544093746134185e-18 1.6075937934147373e-10 1.5127847865012088e-10 9.480900691352801e-12
5.265937586045735 1.1565574544683944e-18 1.6166363980488458e-10 1.5209351573078016e-10 9.570124074104442e-12
5.285722656980489 1.1586864194066262e-18 1.6256974394004253e-10 1.5291038415594439e-10 9.659359784098179e-12
5.305582063971359 1.1607967868002415e-18 1.634777556223362e-10 1.5372916037143915e-10 9.748595250897047e-12
5.3255160863122235 1.1632017701043003e-18 1.6443194287698104e-10 1.5459329352437315e-10 9.838649352607898e-12
5.365609099470188 1.1703757438444196e-18 1.6669162306759946e-10 1.5666651581961997e-10 1.0025107247979535e-11
5.406003951863644 1.177603864016887e-18 1.6898377738990207e-10 1.5877208506805318e-10 1.0211692321848947e-11
5.446702915881641 1.184898807028712e-18 1.7131065796017695e-10 1.609123543623059e-10 1.039830359787105e-11
5.487708281020852 1.1928638044827888e-18 1.7376060125977928e-10 1.631748325028035e-10 1.058576875697575e-11
5.529022354014368 1.206160732662402e-18 1.7702025600606478e-10 1.6623905522179842e-10 1.078120078426638e-11
5.570647458961463 1.2199362691267109e-18 1.8038991381550339e-10 1.6941321174794233e-10 1.0976702067561085e-11
5.612585937458331 1.2342399972007857e-18 1.8387896604557938e-10 1.7270679587595041e-10 1.1172170169628973e-11
5.654840148729818 1.2500052938141856e-18 1.8762971465269584e-10 1.762610841288798e-10 1.1368630523816066e-11
5.67608639626678 1.2620229219612463e-18 1.901453342922455e-10 1.786736525593254e-10 1.1471681732920137e-11
5.686739436050992 1.2681718905788918e-18 1.91430390498113e-10 1.7990717299338756e-10 1.152321750472545e-11
5.6974124697621304 1.2744176556282952e-18 1.9273423941231315e-10 1.8115948153012204e-10 1.1574757882191102e-11
5.718818669136295 1.2872100366430379e-18 1.9540027774804545e-10 1.8372243182962325e-10 1.1677845918422242e-11
5.740305295436557 1.301514331913791e-18 1.9831400194265088e-10 1.865321885609508e-10 1.178181338170012e-11
5.7835210386641895 1.3405599033632363e-18 2.0580123572874294e-10 1.9380469240372373e-10 1.1996543325019219e-11
5.827062130521658 1.385168796266476e-18 2.1425046906727663e-10 2.020369078769322e-10 1.2213561190344434e-11
5.8489554468988025 1.4182177465243878e-18 2.2018648664607978e-10 2.0785494685792765e-10 1.2331539788152129e-11
5.870931020387893 1.4532698606562478e-18 2.264762563840607e-10 2.1402656160241936e-10 1.2449694781641345e-11
5.892989160043636 1.49048491244163e-18 2.331485181406413e-10 2.2058050541475547e-10 1.256801272588586e-11
5.915130176081913 1.532967035912688e-18 2.406947157966397e-10 2.2800379376433373e-10 1.2690922032305903e-11
5.95966208400165 1.6549669880463387e-18 2.618064874658685e-10 2.488310825256776e-10 1.297540494019087e-11
6.004529249263818 1.8319730343565676e-18 2.919896614524187e-10 2.7869160969904505e-10 1.329805175337363e-11
6.027089341400364 1.9560581571350245e-18 3.1293837657223967e-10 2.994517033048664e-10 1.3486673267373118e-11
6.049734195844842 2.1016980382806552e-18 3.375017628576562e-10 3.2381480365496073e-10 1.3686959202695446e-11
6.095279466722835 2.523933740990224e-18 4.083579408692258e-10 3.941712758505062e-10 1.4186665018719542e-11
6.141167624020661 3.1697725793965323e-18 5.167119301132055e-10 5.018675535896675e-10 1.4844376523538135e-11
6.164241091010745 3.581227449889099e-18 5.859775179759238e-10 5.707159583822785e-10 1.526155959364529e-11
6.187401249150058 4.043878678126382e-18 6.641647642986796e-10 6.48475677820272e-10 1.568908647840775e-11
6.1990139391386085 4.268124720244752e-18 7.023104775311418e-10 6.864040062208285e-10 1.5906471310313303e-11
6.204828454712694 4.3857476606862344e-18 7.223419753551914e-10 7.063257967314536e-10 1.601617862373782e-11
6.210648424152782 4.470295852786322e-18 7.369578422953591e-10 7.208491526417787e-10 1.6108689653580336e-11
6.233982942956859 4.752111291501075e-18 7.863604195274454e-10 7.699332499188116e-10 1.6427169608633927e-11
6.239830258556775 4.7849500881503714e-18 7.925371354209969e-10 7.760688407409398e-10 1.646829468005684e-11
6.245683058788269 4.7825964544283395e-18 7.92890313974564e-10 7.763808601940305e-10 1.6509453780533653e-11
6.257405133728602 4.7629032826104096e-18 7.911074417716996e-10 7.745277354966331e-10 1.6579706275066557e-11
6.269149208991335 4.692403296614361e-18 7.808603492753824e-10 7.642635051890713e-10 1.6596844086311056e-11
6.280915325867298 4.53331726635784e-18 7.558027819328954e-10 7.392543611297834e-10 1.654842080311195e-11
6.304513850009849 4.148472492247603e-18 6.942393895365131e-10 6.778469409917636e-10 1.639244854474948e-11
6.32820103803542 3.68170850941838e-18 6.184421794188723e-10 6.022685884530352e-10 1.617359096583703e-11
6.3519772230701035 3.2563784515280722e-18 5.490516959926452e-10 5.330767380622158e-10 1.597495793042963e-11
6.375842739491607 2.897917024717182e-18 4.904480091317928e-10 4.746508372009904e-10 1.5797171930802344e-11
6.399797922933955 2.6126093030133433e-18 4.438233663020438e-10 4.2812967613235075e-10 1.569369016969306e-11
6.42384311029221 2.3744028945221563e-18 4.048729589842745e-10 3.892678311189426e-10 1.5605127865331827e-11
6.447978639727206 2.2003835767398756e-18 3.7660962749855864e-10 3.610353756752579e-10 1.5574251823300757e-11
6.472204850670314 2.054523220664887e-18 3.529658930924188e-10 3.374111260040794e-10 1.5554767088339425e-11
6.496522083828205 1.9579894452678447e-18 3.3764529204459384e-10 3.2206349777101326e-10 1.5581794273580567e-11
6.520930681187647 1.875823449301416e-18 3.2469154315298055e-10 3.0907587934260786e-10 1.5615663810372804e-11
