Dust emission spectrum from A.P. Jones, M. Kohler, N. Ysard, M. Bocchio, and L. Verstraete (2017), A&A, 602A, 46J 
inside the DustPedia framework.

lambda    nu*dP/dnu     j_nu    j_nu(carb.) j_nu(sil)
 (um)   (erg s-1 H-1) (Jy cm2 sr-1 H-1)
0.9927057738263894 1.3780686673578056e-24 3.631289211225509e-17 3.631289211216814e-17 8.69440404232965e-29
1.0001793341362166 1.4008230936954549e-24 3.719037887396156e-17 3.719037887385682e-17 1.0473533565658181e-28
1.0077091589558085 1.4235447422448452e-24 3.807814300266248e-17 3.8078143002536465e-17 1.2600516136000664e-28
1.0114953028030835 1.4348904765177587e-24 3.852583466665664e-17 3.8525834666518505e-17 1.381420479626348e-28
1.0152956718711033 1.4462246672409819e-24 3.897604181915661e-17 3.897604181900521e-17 1.5139905628876564e-28
1.0229392996569957 1.4688428636284625e-24 3.9883625939720083e-17 3.988362593953839e-17 1.8167777491536357e-28
1.0267826658714554 1.4800994253085769e-24 4.0340274710263474e-17 4.0340274710064546e-17 1.9892778725404303e-28
1.0306404723013447 1.4913394667081292e-24 4.079933993646293e-17 4.079933993624519e-17 2.1774511945596946e-28
1.03451277320114 1.502561903223922e-24 4.1260801848596124e-17 4.126080184835787e-17 2.3826522400670926e-28
1.0383996230291617 1.5137656562895043e-24 4.172464043048193e-17 4.1724640430221306e-17 2.6063461189136144e-28
1.0403485208654093 1.519360191178107e-24 4.195744465130039e-17 4.195744465102785e-17 2.7256180251337112e-28
1.0423010764483396 1.5249496535819688e-24 4.219083542421922e-17 4.2190835423934207e-17 2.850116984149054e-28
1.0462171883269815 1.53611282922419e-24 4.265936633493181e-17 4.265936633462024e-17 3.1156770898516895e-28
1.0471985131304309 1.5389002454741934e-24 4.2776861625714746e-17 4.277686162539618e-17 3.1856853149730585e-28
1.048180758391296 1.54168627765111e-24 4.289450129087575e-17 4.289450129055003e-17 3.257200587348114e-28
1.0501480137395462 1.5472541239824687e-24 4.3130212435517076e-17 4.313021243517659e-17 3.404876487405741e-28
1.0521189612883777 1.5528162368837653e-24 4.3366497142462136e-17 4.336649714210624e-17 3.5589592794249455e-28
1.0531058218030118 1.5555908292631413e-24 4.3484734307334375e-17 4.348473430697052e-17 3.6384906427931625e-28
1.0540936079674168 1.5583499391857666e-24 4.3602721925344067e-17 4.3602721924972094e-17 3.719741133298677e-28
1.058054026499678 1.569370651032261e-24 4.407606388604576e-17 4.407606388563951e-17 4.062474242485955e-28
1.0590464539527713 1.5721218164466747e-24 4.4194745561896347e-17 4.4194745561481067e-17 4.152772329894314e-28
1.06003981227728 1.57487134471075e-24 4.431356503456573e-17 4.431356503414122e-17 4.244991612798297e-28
1.0620293250338977 1.5803654257630085e-24 4.4551616009002534e-17 4.455161600855899e-17 4.435350119340668e-28
1.0660195594769086 1.5913332394779308e-24 4.5029356500173696e-17 4.502935649968961e-17 4.840883831131788e-28
1.070024785945596 1.6022730760372581e-24 4.5509263362931847e-17 4.5509263362403655e-17 5.281788123552842e-28
1.0740450607676866 1.6131839272286137e-24 4.599131440283031e-17 4.599131440225421e-17 5.760987927424589e-28
1.07808044048254 1.6240647929295033e-24 4.6475487232361945e-17 4.647548723173379e-17 6.281635847826455e-28
1.0861967418109137 1.645713368032593e-24 4.74495530207198e-17 4.7449553019973684e-17 7.461126125238025e-28
1.0902777775684922 1.656435365630579e-24 4.793812986617612e-17 4.793812986536338e-17 8.127569027591712e-28
1.0943741465085532 1.667122696729097e-24 4.8428701199885865e-17 4.8428701199000794e-17 8.85069540716867e-28
1.1026131145906286 1.6883895612114223e-24 4.94157333829348e-17 4.9415733381886244e-17 1.0485592156164116e-27
1.1109141095355224 1.709506457067244e-24 5.041046009935166e-17 5.0410460098110994e-17 1.2406599220286772e-27
1.1192775983109025 1.7304464108331986e-24 5.141210657898515e-17 5.141210657751906e-17 1.4660832147178442e-27
1.1277040513999907 1.751112102779905e-24 5.2417767888509594e-17 5.241776788677932e-17 1.7302649270804297e-27
1.1361939428280308 1.771603431657032e-24 5.343039878170922e-17 5.3430398779669745e-17 2.0394672897656128e-27
1.1447477501889525 1.7919135664346735e-24 5.444980004024316e-17 5.4449800037842257e-17 2.4008957013301222e-27
1.1533659546722406 1.8120469122816165e-24 5.547610962574303e-17 5.547610962292019e-17 2.8228336312396304e-27
1.1707974979042381 1.8518483406431363e-24 5.755149841275287e-17 5.75514984088652e-17 3.8876823862059185e-27
1.1884924949847024 1.8908568978529493e-24 5.965193540010501e-17 5.965193539477725e-17 5.327785599045161e-27
1.2064549276569216 1.929377897206601e-24 6.178710308729805e-17 6.178710308003227e-17 7.265792173585641e-27
1.2246888378427687 1.9669903600761152e-24 6.394365019352229e-17 6.394365018366147e-17 9.86083836249428e-27
1.2431983285522175 2.003606288929384e-24 6.611838496841555e-17 6.611838495509685e-17 1.3318696816339346e-26
1.2619875648066055 2.0392120278239097e-24 6.831041010399026e-17 6.83104100860862e-17 1.7904082899350132e-26
1.3004222497298317 2.106800878668688e-24 7.272392585549502e-17 7.272392582359081e-17 3.1904195079265167e-26
1.3400274889804893 2.1694926965097483e-24 7.716872644920513e-17 7.716872639338372e-17 5.582143489639029e-26
1.3808389325824078 2.227055324453117e-24 8.162880944625313e-17 8.162880935031048e-17 9.594265158956665e-26
1.4228933163050095 2.2797696440017618e-24 8.61058660068334e-17 8.610586584476715e-17 1.6206625624007547e-25
1.466228494730424 2.3289058265612794e-24 9.064065094922e-17 9.064065068002955e-17 2.69190408718017e-25
1.5108834753276823 2.37350824955182e-24 9.518996121785888e-17 9.518996077800993e-17 4.398489294514996e-25
1.5568984535646726 2.412803868461596e-24 9.971299036290358e-17 9.971298965516091e-17 7.077426254478796e-25
1.6043148490894465 2.4468650839373012e-24 1.0420032175821863e-16 1.0420032063472928e-16 1.123489349774746e-24
1.6531753430134553 2.4757961106372226e-24 1.0864337002308697e-16 1.086433682656105e-16 1.75747645612131e-24
1.7035239163302658 2.4999415775725645e-24 1.1304400295505917e-16 1.1304400024522555e-16 2.7098336529625894e-24
1.755405889504358 2.5212900932903264e-24 1.1748158618406358e-16 1.1748158206359224e-16 4.1204713412237646e-24
1.8088679632656115 2.5393512693183126e-24 1.2192677346135247e-16 1.2192676728036572e-16 6.180986727819436e-24
1.8639582606462262 2.5537931525496124e-24 1.2635468059194721e-16 1.263546714413509e-16 9.150596294053696e-24
1.9207263702978936 2.5648573435260754e-24 1.3076699590468847e-16 1.3076698252988275e-16 1.3374805705226676e-23
1.979223391128241 2.573105547036637e-24 1.3518292806701722e-16 1.3518290875882344e-16 1.9308193824977638e-23
2.039501978296691 2.5792098339668363e-24 1.3963048289055295e-16 1.3963045535020955e-16 2.7540343430130724e-23
2.1016163906111602 2.585051768520779e-24 1.4420892009936273e-16 1.4420888127068988e-16 3.8828672837636816e-23
2.1656225393682647 2.591722492578913e-24 1.4898436481369456e-16 1.4898431068298948e-16 5.413070506144936e-23
2.231578038680979 2.59930038701366e-24 1.5397066422113844e-16 1.539705895795229e-16 7.464161558644181e-23
2.299542257339062 2.60843882548287e-24 1.5921775048480158e-16 1.592176486489232e-16 1.0183587843541797e-22
2.369576372248914 2.6205821014026665e-24 1.6483062836015455e-16 1.6483049084605206e-16 1.3751410245977678e-22
2.4417434235010123 2.637435577627322e-24 1.709429994470729e-16 1.7094281560069705e-16 1.8384637586269831e-22
2.5161083711144245 2.661919628938277e-24 1.7778442621355607e-16 1.7778418278650498e-16 2.434270510758358e-22
2.5927381535095444 2.6988131765625096e-24 1.857380635969973e-16 1.8573774427436134e-16 3.193226360340902e-22
2.6717017477616296 2.753821571328161e-24 1.9529593563985201e-16 1.9529552053873733e-16 4.1510111467681757e-22
2.753070231689431 2.8355344991523616e-24 2.0721522377139252e-16 2.0721468889586005e-16 5.348755325079704e-22
2.836916847834745 2.963413168859704e-24 2.231558344371604e-16 2.2315515107390154e-16 6.833632589055624e-22
2.9233170693905177 3.1803196161168747e-24 2.4678350235427486e-16 2.4678263657865356e-16 8.657756213428923e-22
2.967498994190263 3.364475048607941e-24 2.650191918717327e-16 2.6501822189998805e-16 9.699717447104804e-22
3.0123486681368425 3.579536724448267e-24 2.862209994559638e-16 2.8621991418766423e-16 1.0852682996585493e-21
3.0578761833420214 4.060645398318028e-24 3.2959786905425405e-16 3.2959665606237967e-16 1.212991874464185e-21
3.1040917844459814 4.680591285971598e-24 3.8566009789940207e-16 3.856587446594929e-16 1.3532399091984705e-21
3.127460860933648 5.336361858930546e-24 4.430029189906954e-16 4.430014901573006e-16 1.4288333946529288e-21
3.1510058709225794 6.210076723986085e-24 5.19416344183981e-16 5.194148361850832e-16 1.5079988979428723e-21
3.162844764501044 7.023348020274852e-24 5.896461930836703e-16 5.896446439729847e-16 1.5491106857809034e-21
3.1747281389236908 7.969116663739043e-24 6.715620700192303e-16 6.715604788601906e-16 1.5911590396207972e-21
3.1986289994194426 1.060713436915272e-23 9.005988204703752e-16 9.00597142129903e-16 1.6783404722656172e-21
3.2227097969389145 1.6825517590110225e-23 1.4393256512319044e-15 1.4393238801134319e-15 1.771118472675821e-21
3.2348180950136065 2.272247426002157e-23 1.9510792806764016e-15 1.9510774599397e-15 1.8207367009814327e-21
3.240889293275058 2.713120585555936e-23 2.3340100711021407e-15 2.334008224187915e-15 1.8469142248648496e-21
3.2469718861334385 3.2231424810766183e-23 2.777969451115103e-15 2.7779675771103845e-15 1.8740047194072665e-21
3.2714166318528037 5.94367864095579e-23 5.1613179151255555e-15 5.161315928840187e-15 1.9862853698596023e-21
3.2744851364798273 6.113746087458621e-23 5.313979251533325e-15 5.313977251928158e-15 1.999605165442398e-21
3.2775565192852394 6.288698236477689e-23 5.47117212665623e-15 5.4711701136560864e-15 2.0130001430511695e-21
3.283707930232385 6.12044240535431e-23 5.334783144556265e-15 5.334781107428394e-15 2.0371278705948877e-21
3.2898708863219004 5.586861912071936e-23 4.878836051586095e-15 4.8788339923402116e-15 2.059245882919594e-21
3.29141343181113 5.461030405032907e-23 4.771187288192108e-15 4.771185223387744e-15 2.064804364036887e-21
3.292184975758714 5.39920127224732e-23 4.7182742334308406e-15 4.7182721658428786e-15 2.0675879615917812e-21
3.295272960557952 5.0089309573756955e-23 4.381329071576486e-15 4.381326993130888e-15 2.0784455980127672e-21
3.3076538914384823 3.656917523715555e-23 3.2107364461433967e-15 3.210734324001082e-15 2.1221423142878783e-21
3.310756385682612 3.381748733066417e-23 2.971926020471371e-15 2.9719238872965682e-15 2.1331748022360082e-21
3.313861789986515 3.1278628183586564e-23 2.7513859935590555e-15 2.7513838493082454e-15 2.1442508097149233e-21
3.3200813396944477 2.7718159426556705e-23 2.4427698168792356e-15 2.442767648876651e-15 2.1680025846147206e-21
3.345076488085796 2.136661374565029e-23 1.897191564273693e-15 1.8971892905839737e-15 2.2736897195291462e-21
3.3482140837626964 2.1604778552568244e-23 1.9201381264378607e-15 1.92013583843505e-15 2.2880028111454317e-21
3.3513546224236106 2.1845576344974184e-23 1.943360293746748e-15 1.9433579913565714e-15 2.3023901769225383e-21
3.3576445397418455 2.3605417787941873e-23 2.103855180001355e-15 2.1038528475561333e-15 2.3324452217879313e-21
3.3702598118196083 3.009647197347504e-23 2.6924546909350626e-15 2.692452295419417e-15 2.395515645700775e-21
3.382922481734668 3.157482214750299e-23 2.835322029651346e-15 2.8353195725114615e-15 2.457139884564591e-21
3.389271646505754 3.2340708310268213e-23 2.9095467443723e-15 2.9095442559306263e-15 2.488441673754359e-21
3.395632727569191 3.31659859852623e-23 2.9893932988507977e-15 2.989390778145804e-15 2.5207049940066024e-21
3.421196662673239 3.712864468710687e-23 3.371759339615779e-15 3.3717566849711683e-15 2.654644610406295e-21
3.4276182099114902 3.633001618970524e-23 3.305426205657575e-15 3.3054235207696152e-15 2.6848879590813808e-21
3.4340518103208963 3.283056388193836e-23 2.9926409769535808e-15 2.9926382632904536e-15 2.713663128426538e-21
3.4469541582030403 2.784669924025568e-23 2.547878211774671e-15 2.5478754425306562e-15 2.769244014988182e-21
3.472904465399547 2.6449873251201746e-23 2.438292848782715e-15 2.438289951948943e-15 2.89683377152692e-21
3.4990501388274233 2.4313533825105238e-23 2.258227460497489e-15 2.2582244322484526e-15 3.0282490366093567e-21
3.5253949054701885 1.6710968172201975e-23 1.5637913901434317e-15 1.5637882329064606e-15 3.1572369711861283e-21
3.5519380250092896 9.565494506762177e-24 9.018664666079183e-16 9.01863178630883e-16 3.28797703544544e-21
3.578680990867387 6.732236214810986e-24 6.395165163797715e-16 6.39513084862447e-16 3.431517324276466e-21
3.605625307711299 5.586184226070304e-24 5.346447179674765e-16 5.346411345497374e-16 3.583417739137356e-21
3.660119384959845 4.749974259481437e-24 4.614832479349317e-16 4.614793422361136e-16 3.905698818241473e-21
3.715437065384467 4.157710915532084e-24 4.1004699358468466e-16 4.10042743473811e-16 4.25011087368076e-21
3.8285932144167436 3.856607506046562e-24 3.919350474518395e-16 3.9193004047353425e-16 5.00697830533273e-21
3.94519561050918 3.7981646161026505e-24 3.9775143746058135e-16 3.977455792850581e-16 5.858175523329363e-21
4.06534921144712 3.839348967930708e-24 4.1430948722503826e-16 4.1430267718019935e-16 6.810044838949477e-21
4.189162171576248 3.938209948947064e-24 4.379206969106406e-16 4.3791282473734643e-16 7.872173294101435e-21
4.316745939156006 4.079103546388244e-24 4.674020921614837e-16 4.673930420784604e-16 9.050083023203369e-21
4.448215356677963 4.2567622529037404e-24 5.026140596199982e-16 5.026037206824918e-16 1.0338937506450189e-20
4.58368876423945 4.47179243265415e-24 5.440842957716442e-16 5.440725452842768e-16 1.1750487367058207e-20
4.723288106065518 4.7291430687549814e-24 5.929203042695762e-16 5.929070001144727e-16 1.3304155103556351e-20
4.867139040275056 5.038747412543319e-24 6.509771942778148e-16 6.509622147451982e-16 1.4979532616694287e-20
4.940699165968905 5.225647585227189e-24 6.853271887981309e-16 6.853113177113555e-16 1.5871086775505456e-20
5.015371051989984 5.4191675843741985e-24 7.214480825501951e-16 7.214312839965402e-16 1.6798553654937697e-20
5.091171501069577 5.655501399992042e-24 7.642901705285897e-16 7.642723907824047e-16 1.777974618500298e-20
5.129500256944802 5.7767832955605744e-24 7.865576604814246e-16 7.865393758911045e-16 1.828459032002139e-20
5.168117569889187 5.903232154034671e-24 8.098259344744043e-16 8.098071319745345e-16 1.880249986988418e-20
5.20702561229733 6.0585716641228195e-24 8.373931351353192e-16 8.373737745364813e-16 1.936059883800445e-20
5.246226572918644 6.217869920150685e-24 8.658807968569872e-16 8.658608664118143e-16 1.9930445172754058e-20
5.265937586045735 6.2990431155045826e-24 8.804804581095706e-16 8.804602382937162e-16 2.021981585447668e-20
5.285722656980489 6.381254133594856e-24 8.953232152717515e-16 8.953027030975245e-16 2.05121742267345e-20
5.305582063971359 6.464519754000347e-24 9.104135991566082e-16 9.103927916192085e-16 2.080753739963185e-20
5.3255160863122235 6.554002583684092e-24 9.264836128639112e-16 9.264625053336655e-16 2.1107530245831117e-20
5.365609099470188 6.777083096776492e-24 9.652310268793794e-16 9.652092976143664e-16 2.172926501322154e-20
5.406003951863644 7.008661937894832e-24 1.0057288404900448e-15 1.0057064762367507e-15 2.2364253294031466e-20
5.446702915881641 7.249150682517663e-24 1.0480698990563456e-15 1.048046886389045e-15 2.3012667300476653e-20
5.487708281020852 7.509059800301585e-24 1.0938203849363821e-15 1.0937967082874176e-15 2.367664896476174e-20
5.529022354014368 7.870713731815261e-24 1.1551327464300378e-15 1.1551083745632257e-15 2.437186681210939e-20
5.570647458961463 8.253722183548228e-24 1.2204639463774539e-15 1.2204388641742776e-15 2.5082203176039178e-20
5.612585937458331 8.65962491132023e-24 1.2901241886889418e-15 1.2900983808092239e-15 2.580787971754634e-20
5.654840148729818 9.10589654021029e-24 1.366823627029057e-15 1.3667970753447158e-15 2.6551684340882223e-20
5.67608639626678 9.410055316899231e-24 1.4177857492157905e-15 1.417758808500782e-15 2.6940715007865865e-20
5.686739436050992 9.566842247395024e-24 1.4441136575079652e-15 1.4440865206510185e-15 2.713685694698419e-20
5.6974124697621304 9.726867784064556e-24 1.4710251823226475e-15 1.4709978482334569e-15 2.733408919067986e-20
5.718818669136295 1.005694697993889e-23 1.5266585694921715e-15 1.5266308376497445e-15 2.773184242635608e-20
5.740305295436557 1.0420861413775574e-23 1.5878447743381987e-15 1.587816638028321e-15 2.8136309878077453e-20
5.7835210386641895 1.1365350579553111e-23 1.7447957289295726e-15 1.744766752086818e-15 2.897684275480638e-20
5.827062130521658 1.2453602909173827e-23 1.926256404316801e-15 1.926226561932852e-15 2.984238394826332e-20
5.8489554468988025 1.321733024036568e-23 2.05206676873089e-15 2.0520364617283047e-15 3.030700258472982e-20
5.870931020387893 1.4036963206509707e-23 2.187507608927893e-15 2.1874768314759343e-15 3.0777451958579276e-20
5.892989160043636 1.491700355428377e-23 2.3333864333337495e-15 2.33335517954028e-15 3.125379347004209e-20
5.915130176081913 1.5917983964127734e-23 2.4993196438957294e-15 2.4992878966521864e-15 3.1747243543071285e-20
5.95966208400165 1.8717388845629296e-23 2.9609858466070047e-15 2.960952996123762e-15 3.285048324231032e-20
6.004529249263818 2.2753111623055352e-23 3.626512637036953e-15 3.6264785532738106e-15 3.4083763143074796e-20
6.027089341400364 2.5558801790530345e-23 4.089004158841122e-15 4.088969372630466e-15 3.478621065762062e-20
6.049734195844842 2.8874609249747475e-23 4.6368371412613006e-15 4.636801611926324e-15 3.5529334976447026e-20
6.095279466722835 3.845345697805451e-23 6.221547838534371e-15 6.2215105196376165e-15 3.731889675529926e-20
6.141167624020661 5.319623341705344e-23 8.6716405531249e-15 8.671600955723504e-15 3.959740139671472e-20
6.164241091010745 6.261113025794463e-23 1.0244731790870698e-14 1.0244690786461696e-14 4.1004409005592143e-20
6.187401249150058 7.333653915863868e-23 1.2044759282280303e-14 1.2044716822800162e-14 4.245948014077256e-20
6.1990139391386085 7.857351317264055e-23 1.2929097712592668e-14 1.2929054510769538e-14 4.3201823126399046e-20
6.204828454712694 8.133219940832765e-23 1.3395586368824784e-14 1.339554279095641e-14 4.3577868375032465e-20
6.210648424152782 8.334594131714159e-23 1.3740129758720976e-14 1.3740085854488007e-14 4.390423297028369e-20
6.233982942956859 9.018742471429081e-23 1.492385526855533e-14 1.4923810199221094e-14 4.506933423931152e-20
6.239830258556775 9.10619050546984e-23 1.508269470913684e-14 1.5082649458348182e-14 4.5250788654612224e-20
6.245683058788269 9.113756993888392e-23 1.5109386111138635e-14 1.510934067826066e-14 4.5432877970890685e-20
6.257405133728602 9.094923559031575e-23 1.5106461926623933e-14 1.5106416163279957e-14 4.576334397550777e-20
6.269149208991335 8.960315338112242e-23 1.4910813334361423e-14 1.4910767393667158e-14 4.594069426246312e-20
6.280915325867298 8.622811395088706e-23 1.4376105746789532e-14 1.4376059819061086e-14 4.592772844730957e-20
6.304513850009849 7.790534323843182e-23 1.3037318683576158e-14 1.3037272954911629e-14 4.5728664528579476e-20
6.32820103803542 6.758928226584661e-23 1.1353441730358737e-14 1.1353396385970201e-14 4.534438853980312e-20
6.3519772230701035 5.812868487871862e-23 9.800965549168867e-15 9.800920531228605e-15 4.501794026287046e-20
6.375842739491607 5.0169764773872737e-23 8.490809447643721e-15 8.490764696463211e-15 4.475118050839643e-20
6.399797922933955 4.379065310820318e-23 7.439043814408607e-15 7.438999108086887e-15 4.470632171896339e-20
6.42384311029221 3.848709156676048e-23 6.562653154307643e-15 6.56260844770559e-15 4.4706602053936776e-20
6.447978639727206 3.4622017954032334e-23 5.925778315540465e-15 5.925733432205111e-15 4.488333535366955e-20
6.472204850670314 3.140225107442641e-23 5.394888451058877e-15 5.394843353998505e-15 4.509706036981443e-20
6.496522083828205 2.93093942232914e-23 5.05425552527409e-15 5.054210068803076e-15 4.5456471013759615e-20
