Dust emission spectrum from A.P. Jones, M. Kohler, N. Ysard, M. Bocchio, and L. Verstraete (2017), A&A, 602A, 46J 
inside the DustPedia framework.

lambda    nu*dP/dnu     j_nu    j_nu(carb.) j_nu(sil)
 (um)   (erg s-1 H-1) (Jy cm2 sr-1 H-1)
0.9927057738263894 1.5438337460447385e-21 4.068089608834082e-14 4.068089482194757e-14 1.2663932557922744e-21
1.0001793341362166 1.5697902767028227e-21 4.16762797572291e-14 4.167627823324319e-14 1.5239859042667707e-21
1.0077091589558085 1.5958498928305233e-21 4.268710257336787e-14 4.268710074183666e-14 1.831531216191798e-21
1.0114953028030835 1.6089171631530664e-21 4.319833299779666e-14 4.3198330990952774e-14 2.0068438928155428e-21
1.0152956718711033 1.6220087914147248e-21 4.3713458854097834e-14 4.371345665589483e-14 2.1982030166342126e-21
1.0229392996569957 1.6482505714445604e-21 4.4755100000304e-14 4.47550973655103e-14 2.634793694852298e-21
1.0267826658714554 1.661370914095623e-21 4.5280849329622805e-14 4.528084644636053e-14 2.883262265488532e-21
1.0306404723013447 1.6745132183463063e-21 4.5810518361868235e-14 4.581051520775928e-14 3.154108957811886e-21
1.03451277320114 1.6876770798474715e-21 4.6344120283226956e-14 4.6344116833980094e-14 3.449246861396919e-21
1.0383996230291617 1.7008621066082417e-21 4.6881668589321235e-14 4.6881664818578035e-14 3.770743200734098e-21
1.0403485208654093 1.7074624379197435e-21 4.715192694211769e-14 4.7151923000050904e-14 3.9420667762294355e-21
1.0423010764483396 1.7140679193075048e-21 4.742317709936748e-14 4.742317297853656e-14 4.120830935735319e-21
1.0462171883269815 1.7272941516032198e-21 4.7968659970531954e-14 4.796865546861078e-14 4.501921168334974e-21
1.0471985131304309 1.7306038585690524e-21 4.810565337464417e-14 4.8105648772305716e-14 4.6023384438901044e-21
1.048180758391296 1.7339148142424112e-21 4.8242896311632824e-14 4.824289160673518e-14 4.704897646946821e-21
1.0501480137395462 1.7405404504393467e-21 4.851813171248022e-14 4.8518126795863814e-14 4.9166164060516674e-21
1.0521189612883777 1.747171018187902e-21 4.879436804427871e-14 4.8794362906843715e-14 5.137434991501401e-21
1.0531058218030118 1.750483746562378e-21 4.893273937892059e-14 4.893273412754076e-14 5.251379856106875e-21
1.0540936079674168 1.753783303937472e-21 4.9070958836660257e-14 4.907095346889431e-14 5.3677659527912834e-21
1.058054026499678 1.7669930279397156e-21 4.962632475281798e-14 4.9626318894351575e-14 5.858466420149012e-21
1.0590464539527713 1.770298308564377e-21 4.9765789455483875e-14 4.9765783467798027e-14 5.987685842114311e-21
1.06003981227728 1.7736047196370586e-21 4.99055039341545e-14 4.9905497814525985e-14 6.119628505663997e-21
1.0620293250338977 1.7802209147821302e-21 5.0185683205690583e-14 5.0185676813787964e-14 6.3919026304333224e-21
1.0660195594769086 1.7934666719104043e-21 5.074905000232896e-14 5.074904303073076e-14 6.971598232418683e-21
1.070024785945596 1.806730021699541e-21 5.131644138126179e-14 5.1316433779911904e-14 7.601349873093241e-21
1.0740450607676866 1.820010701741378e-21 5.188787402816793e-14 5.188786574292106e-14 8.285246883576713e-21
1.07808044048254 1.833308465128592e-21 5.246336509171741e-14 5.246335606402514e-14 9.027692269356723e-21
1.0861967418109137 1.859933975716355e-21 5.362600651491063e-14 5.362599580736518e-14 1.0707545462800861e-20
1.0902777775684922 1.8732150231954777e-21 5.4211849681820866e-14 5.421183802628138e-14 1.1655539498928533e-20
1.0943741465085532 1.8865115282264147e-21 5.4801787108932304e-14 5.480177442563105e-14 1.2683301239500623e-20
1.1026131145906286 1.9131502825263453e-21 5.5994023212851325e-14 5.5994008208901305e-14 1.5003950032295203e-20
1.1109141095355224 1.9398491558369515e-21 5.720287751170107e-14 5.720285978565084e-14 1.7726050248106935e-20
1.1192775983109025 1.966586436567082e-21 5.84279009396722e-14 5.842788002487358e-14 2.0914798611641304e-20
1.1277040513999907 1.9932654922636092e-21 5.966638443522995e-14 5.966635978998551e-14 2.464524445319316e-20
1.1361939428280308 2.0200000450611834e-21 6.092187789777543e-14 6.092184889411587e-14 2.900365956747699e-20
1.1447477501889525 2.046790222845464e-21 6.219458373765442e-14 6.21945496485727e-14 3.4089081717078914e-20
1.1533659546722406 2.0736460033344752e-21 6.348500815639414e-14 6.348496814128755e-14 4.0015106591544386e-20
1.1707974979042381 2.1276357658154047e-21 6.612238362711487e-14 6.612232869882594e-14 5.492828890862608e-20
1.1884924949847024 2.1818964569438837e-21 6.883352550218034e-14 6.883345048079978e-14 7.502138054933192e-20
1.2064549276569216 2.2367947905354256e-21 7.163193405918052e-14 7.163183210092692e-14 1.019582535724508e-19
1.2246888378427687 2.2919753092413433e-21 7.450838112935505e-14 7.450824324203372e-14 1.3788732132980157e-19
1.2431983285522175 2.3473932484898347e-21 7.746324781144696e-14 7.746306223862063e-14 1.855728263182814e-19
1.2619875648066055 2.4031295580809833e-21 8.050107757588624e-14 8.050082902261727e-14 2.4855326899087105e-19
1.3004222497298317 2.5152148951937876e-21 8.682182706525956e-14 8.682138745706467e-14 4.396081948754452e-19
1.3400274889804893 2.628567167799192e-21 9.349797814557716e-14 9.349721489030688e-14 7.632552703042886e-19
1.3808389325824078 2.7435990260455826e-21 1.0056181345606945e-13 1.005605119810005e-13 1.3014750689704894e-18
1.4228933163050095 2.8612700114250853e-21 1.0806887128327284e-13 1.0806669066685423e-13 2.1806164186191432e-18
1.466228494730424 2.9836171195942037e-21 1.1612191219537893e-13 1.1611832035110504e-13 3.5918442738908204e-18
1.5108834753276823 3.1103769943199573e-21 1.2474221040442735e-13 1.2473639148954404e-13 5.818914883323662e-18
1.5568984535646726 3.2414157398182547e-21 1.3395670516424579e-13 1.3394742380664076e-13 9.281357605051781e-18
1.6043148490894465 3.3774658988022878e-21 1.4383017506478404e-13 1.4381557218118305e-13 1.4602883600947056e-17
1.6531753430134553 3.519290417423701e-21 1.544341916509669e-13 1.5441155525265682e-13 2.263639831010178e-17
1.7035239163302658 3.667774015814063e-21 1.6585181845920132e-13 1.658172389509518e-13 3.457950824951168e-17
1.755405889504358 3.825582141959957e-21 1.7825614724419212e-13 1.7820406502731842e-13 5.2082216873649127e-17
1.8088679632656115 3.992583721239001e-21 1.9170362792528236e-13 1.9162625804514606e-13 7.736988013636458e-17
1.8639582606462262 4.1685446755484225e-21 2.0624815697635114e-13 2.0613475056917131e-13 1.1340640717988336e-16
1.9207263702978936 4.3537836201324846e-21 2.2197382878264408e-13 2.218097515005908e-13 1.6407728205334463e-16
1.979223391128241 4.548840682034599e-21 2.3898188063680283e-13 2.387474736798213e-13 2.3440695698153064e-16
2.039501978296691 4.7541071676197956e-21 2.5737273128616896e-13 2.570419380950201e-13 3.3079319114889783e-16
2.1016163906111602 4.971371810017579e-21 2.7733145187466927e-13 2.768701514473292e-13 4.613004273401231e-16
2.1656225393682647 5.201264787953042e-21 2.989930954721708e-13 2.9835717981556183e-13 6.359156566089562e-16
2.231578038680979 5.44276963777028e-21 3.224047749605982e-13 3.2153794010108966e-13 8.668348595086693e-16
2.299542257339062 5.69559918207733e-21 3.476564144706578e-13 3.4648765603958556e-13 1.1687584310722657e-15
2.369576372248914 5.959967717172311e-21 3.7487290449779327e-13 3.733137025626009e-13 1.5592019351923036e-15
2.4417434235010123 6.236222508872451e-21 4.041951166234861e-13 4.0213639785272706e-13 2.058718770759087e-15
2.5161083711144245 6.525787577044933e-21 4.35844639095746e-13 4.3315343995942616e-13 2.691199136319948e-15
2.5927381535095444 6.831505180601541e-21 4.701587181792078e-13 4.666746897384206e-13 3.4840284407873824e-15
2.6717017477616296 7.155726030075409e-21 5.074708633181407e-13 5.030028655598092e-13 4.467997758331593e-15
2.753070231689431 7.502275314866203e-21 5.482513644709008e-13 5.42574063287387e-13 5.677301183513772e-15
2.836916847834745 7.882791126417507e-21 5.936029609352197e-13 5.864533051536929e-13 7.149655781526776e-15
2.9233170693905177 8.323719374647758e-21 6.458962833420513e-13 6.369720559494933e-13 8.924227392557775e-15
2.967498994190263 8.592689589608824e-21 6.768448623166307e-13 6.669266230136913e-13 9.918239302939368e-15
3.0123486681368425 8.880372804621138e-21 7.100776931048236e-13 6.990690694362757e-13 1.1008623668548012e-14
3.0578761833420214 9.347828860237806e-21 7.587524076577672e-13 7.465457252145098e-13 1.2206682443257172e-14
3.1040917844459814 9.89419548884601e-21 8.152381115395959e-13 8.017298849677339e-13 1.3508226571862454e-14
3.127460860933648 1.0396055628132854e-20 8.630379856165679e-13 8.488337527274709e-13 1.420423288909711e-14
3.1510058709225794 1.103211485910203e-20 9.227359054357138e-13 9.078068199420605e-13 1.492908549365319e-14
3.162844764501044 1.1604378804435809e-20 9.742472913749523e-13 9.589433369498817e-13 1.530395442507063e-14
3.1747281389236908 1.2251554112900063e-20 1.032445550514933e-12 1.0167592763238082e-12 1.5686274191124692e-14
3.1986289994194426 1.4001462408899943e-20 1.1887942672798279e-12 1.1723186486156278e-12 1.647561866420033e-14
3.2227097969389145 1.8042151473293234e-20 1.5434016386031617e-12 1.5260902487846796e-12 1.7311389818482456e-14
3.2348180950136065 2.1829302285925787e-20 1.8743865176965712e-12 1.8566292750433263e-12 1.7757242653244788e-14
3.240889293275058 2.465723807722107e-20 2.1211826081075097e-12 2.103190188978442e-12 1.7992419129067607e-14
3.2469718861334385 2.7934233589364413e-20 2.4076021462646317e-12 2.3893663894162607e-12 1.8235756848369496e-14
3.2714166318528037 4.512653159079423e-20 3.91865694659413e-12 3.899416122251377e-12 1.924082434275237e-14
3.2744851364798273 4.6201587511282864e-20 4.015774844272514e-12 3.996415721633738e-12 1.935912263877651e-14
3.2775565192852394 4.7305357325415213e-20 4.115569593386754e-12 4.096091594640869e-12 1.947799874588615e-14
3.283707930232385 4.6249091282821634e-20 4.031226115465061e-12 4.011535823635397e-12 1.9690291829663468e-14
3.2898708863219004 4.2885851868164145e-20 3.74509059809184e-12 3.725207379649253e-12 1.988321844258713e-14
3.29141343181113 4.209103907322412e-20 3.677405465237546e-12 3.657473808873966e-12 1.9931656363579985e-14
3.292184975758714 4.170024517112359e-20 3.644116646104699e-12 3.624160739809638e-12 1.9955906295059966e-14
3.295272960557952 3.9262681463801293e-20 3.434320201041997e-12 3.4142700184683425e-12 2.005018257365435e-14
3.3076538914384823 3.07549501271589e-20 2.7002533864166065e-12 2.6798246812504567e-12 2.0428705166149108e-14
3.310756385682612 2.9005599684671e-20 2.5490508978201174e-12 2.5285268110068337e-12 2.0524086813283742e-14
3.313861789986515 2.7384594738745445e-20 2.4088521389506702e-12 2.3882323697056e-12 2.0619769245070326e-14
3.3200813396944477 2.5121603395423996e-20 2.2139382915576186e-12 2.193112592507942e-12 2.0825699049676407e-14
3.345076488085796 2.1176406034647345e-20 1.8803025771337425e-12 1.8585588367435844e-12 2.1743740390157685e-14
3.3482140837626964 2.1338749548596193e-20 1.8964946333086843e-12 1.8746265158522004e-12 2.1868117456484322e-14
3.3513546224236106 2.150255638922836e-20 1.912845586721746e-12 1.8908525466382552e-12 2.1993040083490916e-14
3.3576445397418455 2.2644299046878213e-20 2.0181945634366242e-12 1.9959402913908228e-12 2.225427204580199e-14
3.3702598118196083 2.677516864968914e-20 2.395328213053309e-12 2.372526021840941e-12 2.2802191212367684e-14
3.382922481734668 2.776654127965602e-20 2.4933501069192282e-12 2.4700157690156225e-12 2.3334337903606128e-14
3.389271646505754 2.8277507197309115e-20 2.5439989815799026e-12 2.5203950001886808e-12 2.36039813912214e-14
3.395632727569191 2.8839365569821575e-20 2.599416348298599e-12 2.575534483027371e-12 2.3881865271227457e-14
3.421196662673239 3.1562318582483857e-20 2.8662652072881536e-12 2.8412334906022233e-12 2.5031716685930636e-14
3.4276182099114902 3.1076378548685124e-20 2.8274327073068145e-12 2.8021448429164376e-12 2.5287864390377643e-14
3.4340518103208963 2.885864094460548e-20 2.6305838590097886e-12 2.6050539476388763e-12 2.5529911370911808e-14
3.4469541582030403 2.567822076126165e-20 2.349469810776678e-12 2.3234757758503733e-12 2.5994034926304905e-14
3.472904465399547 2.4808613988171867e-20 2.2869926634836293e-12 2.2599288084222877e-12 2.706385506134122e-14
3.4990501388274233 2.348635093593531e-20 2.181399175123012e-12 2.1532415872800664e-12 2.8157587842946145e-14
3.5253949054701885 1.8759680004736624e-20 1.7555072674994765e-12 1.7262887723265577e-12 2.921849517291818e-14
3.5519380250092896 1.4261403680811756e-20 1.3446123185152996e-12 1.314328848944742e-12 3.028346957055751e-14
3.578680990867387 1.2519866172266823e-20 1.1893018819533233e-12 1.1578513537948534e-12 3.1450528158469894e-14
3.605625307711299 1.1863348415575814e-20 1.135422018163068e-12 1.1027431806396389e-12 3.267883752342938e-14
3.660119384959845 1.1479537174956991e-20 1.1152932228452319e-12 1.0800375858380362e-12 3.5255637007195594e-14
3.715437065384467 1.1236122666390302e-20 1.1081430172767191e-12 1.0701764762216434e-12 3.796654105507557e-14
3.8285932144167436 1.1312638791180151e-20 1.1496683586481573e-12 1.1058949832329796e-12 4.3773375415177725e-14
3.94519561050918 1.1529043092897043e-20 1.2073445798803283e-12 1.1572686403587845e-12 5.007593952154395e-14
4.06534921144712 1.179288221898026e-20 1.2725863228015808e-12 1.2157268004742339e-12 5.685952232734734e-14
4.189162171576248 1.2076451298283468e-20 1.3428760876919905e-12 1.278746966473819e-12 6.412912121817158e-14
4.316745939156006 1.2367605689175304e-20 1.4171360712985957e-12 1.3452873989246165e-12 7.184867237397917e-14
4.448215356677963 1.2660303771165824e-20 1.4948560188221346e-12 1.4149553655337855e-12 7.99006532883497e-14
4.58368876423945 1.2953027859847557e-20 1.575998695684698e-12 1.4877124575546215e-12 8.828623813007698e-14
4.723288106065518 1.3247151936851864e-20 1.6608728564372514e-12 1.5638232669591905e-12 9.704958947806125e-14
4.867139040275056 1.3544350033368863e-20 1.7498521479941889e-12 1.6439108482073026e-12 1.0594129978688696e-13
4.940699165968905 1.3701517476449648e-20 1.7969107754126243e-12 1.686450232219827e-12 1.104605431927976e-13
5.015371051989984 1.3853625540907033e-20 1.844318601933394e-12 1.72930556803679e-12 1.1501303389660452e-13
5.091171501069577 1.4024640595702194e-20 1.8953040931979074e-12 1.7756042701055332e-12 1.1969982309237475e-13
5.129500256944802 1.410798564292936e-20 1.920920971699913e-12 1.7988710456770796e-12 1.2204992602283332e-13
5.168117569889187 1.419205902548639e-20 1.9469160559059586e-12 1.8224873887180505e-12 1.244286671879085e-13
5.20702561229733 1.4293546598401744e-20 1.9756005972690553e-12 1.848566066408182e-12 1.270345308608731e-13
5.246226572918644 1.4394153560524464e-20 2.0044840620864443e-12 1.874832734793818e-12 1.2965132729262562e-13
5.265937586045735 1.4444132042676224e-20 2.0190012617355996e-12 1.888037827656335e-12 1.3096343407926437e-13
5.285722656980489 1.4493897010450273e-20 2.0335692955553205e-12 1.9012914933374042e-12 1.322778022179159e-13
5.305582063971359 1.454345105917293e-20 2.0481885935527e-12 1.9145943215294707e-12 1.3359427202322864e-13
5.3255160863122235 1.4596204656878422e-20 2.0633413325577646e-12 1.928417420003442e-12 1.3492391255432248e-13
5.365609099470188 1.472749171500093e-20 2.097573801063388e-12 1.9598983080058304e-12 1.3767549305755764e-13
5.406003951863644 1.4859402325601037e-20 2.1322942387189302e-12 1.991856573648104e-12 1.4043766507082657e-13
5.446702915881641 1.4992054325479014e-20 2.1675257629070194e-12 2.024316614521172e-12 1.432091483858474e-13
5.487708281020852 1.5132037146048017e-20 2.204234769217994e-12 2.0582334192973427e-12 1.4600134992065105e-13
5.529022354014368 1.533052194770214e-20 2.249959600242109e-12 2.1010478259272426e-12 1.4891177431486618e-13
5.570647458961463 1.553440312627979e-20 2.2970459293999702e-12 2.145213211661008e-12 1.5183271773896231e-13
5.612585937458331 1.5744215379837337e-20 2.3455973326170172e-12 2.190834456601429e-12 1.5476287601558792e-13
5.654840148729818 1.5970243193401017e-20 2.3971835864540133e-12 2.2394670929368355e-12 1.5771649351717709e-13
5.67608639626678 1.612893436710956e-20 2.4300997736599825e-12 2.2708362180896616e-12 1.592635555703215e-13
5.686739436050992 1.6209856504444397e-20 2.446875840425458e-12 2.286837643022371e-12 1.6003819740308779e-13
5.6974124697621304 1.629186697274213e-20 2.4638709105532605e-12 2.3030573583401565e-12 1.6081355221310328e-13
5.718818669136295 1.6459269118457577e-20 2.4985399940354268e-12 2.336173676371975e-12 1.6236631766345143e-13
5.740305295436557 1.6643475108346634e-20 2.535995243414455e-12 2.372061176029284e-12 1.6393406738517212e-13
5.7835210386641895 1.7127758311643795e-20 2.629434027495626e-12 2.462260785709669e-12 1.6717324178595668e-13
5.827062130521658 1.767428184625287e-20 2.7337629797852063e-12 2.5633074178210926e-12 1.7045556196411394e-13
5.8489554468988025 1.8067195703363376e-20 2.8050363600511627e-12 2.63280254929483e-12 1.72233810756332e-13
5.870931020387893 1.8482560667195596e-20 2.880305483255225e-12 2.7062878956730588e-12 1.740175875821664e-13
5.892989160043636 1.8922163369257074e-20 2.9598919873200536e-12 2.7840852594329837e-12 1.7580672788706944e-13
5.915130176081913 1.9420666310745048e-20 3.0492839367958814e-12 2.87162076009555e-12 1.7766317670033232e-13
5.95966208400165 2.0831566085352315e-20 3.2954368181430432e-12 3.113509250424649e-12 1.8192756771839463e-13
6.004529249263818 2.2857889159309965e-20 3.643212641220994e-12 3.4564671697372274e-12 1.867454714837656e-13
6.027089341400364 2.4269519692631993e-20 3.882739408895801e-12 3.6931930543228334e-12 1.8954635457296742e-13
6.049734195844842 2.592252113534473e-20 4.162775251981937e-12 3.970258348805617e-12 1.9251690317631925e-13
6.095279466722835 3.0696810744917567e-20 4.966567158030404e-12 4.7666903344297895e-12 1.9987682360061491e-13
6.141167624020661 3.7980519951082035e-20 6.191292049842564e-12 5.981790873715766e-12 2.095011761267951e-13
6.164241091010745 4.262170380779101e-20 6.9739664845827565e-12 6.7583900672581895e-12 2.1557641732456546e-13
6.187401249150058 4.783803477858596e-20 7.856896712824335e-12 7.635088625328793e-12 2.2180808749554105e-13
6.1990139391386085 5.0370174463984414e-20 8.288300740916317e-12 8.063323048865155e-12 2.2497769205116305e-13
6.204828454712694 5.169808243786812e-20 8.514784223678304e-12 8.288206308164003e-12 2.2657791551430337e-13
6.210648424152782 5.265672712743117e-20 8.680809790694202e-12 8.452876236684552e-12 2.2793355400965063e-13
6.233982942956859 5.586274397656771e-20 9.243944027138342e-12 9.011316915979935e-12 2.3262711115841017e-13
6.239830258556775 5.624322521685991e-20 9.31563418197296e-12 9.082380526983368e-12 2.332536549895979e-13
6.245683058788269 5.622996570355929e-20 9.322173757769657e-12 9.088292811039841e-12 2.3388094672981834e-13
6.257405133728602 5.603538752069355e-20 9.307350882398287e-12 9.07238643595174e-12 2.3496444644655006e-13
6.269149208991335 5.527094880957155e-20 9.1976093409029e-12 8.962316768367371e-12 2.352925725355265e-13
6.280915325867298 5.351236606701637e-20 8.92167760712601e-12 8.68699005203663e-12 2.346875550893802e-13
6.304513850009849 4.92418783458867e-20 8.24053953024e-12 8.007904943484955e-12 2.3263458675504395e-13
6.32820103803542 4.404668869974647e-20 7.39882858351519e-12 7.169143686913931e-12 2.296848966012575e-13
6.3519772230701035 3.930947589874426e-20 6.627894985811507e-12 6.4008730913569095e-12 2.2702189445459633e-13
6.375842739491607 3.531353808338243e-20 5.9765184098343616e-12 5.7518647356166014e-12 2.2465367421776081e-13
6.399797922933955 3.2139807568406986e-20 5.459828061875902e-12 5.236481528372748e-12 2.233465335031524e-13
6.42384311029221 2.948899222416858e-20 5.0283359942020924e-12 4.806084515149195e-12 2.2225147905289794e-13
6.447978639727206 2.7559999864073713e-20 4.717069056681181e-12 4.4950871061102094e-12 2.2198195057097103e-13
6.472204850670314 2.5944277288211247e-20 4.45721173241707e-12 4.235336098028925e-12 2.2187563438814564e-13
6.496522083828205 2.4884698610207168e-20 4.29123933736819e-12 4.068802855408362e-12 2.224364819598285e-13
6.520930681187647 2.3985128545792688e-20 4.151653186314689e-12 3.928556514474299e-12 2.2309667184038998e-13
