Dust emission spectrum from A.P. Jones, M. Kohler, N. Ysard, M. Bocchio, and L. Verstraete (2017), A&A, 602A, 46J 
inside the DustPedia framework.

lambda    nu*dP/dnu     j_nu    j_nu(carb.) j_nu(sil)
 (um)   (erg s-1 H-1) (Jy cm2 sr-1 H-1)
0.9927057738263894 5.985729170490455e-25 1.5772736346871915e-17 1.577273634616472e-17 7.071942764388461e-28
1.0001793341362166 6.084082862317344e-25 1.6152599694315898e-17 1.6152599693463907e-17 8.519892431250506e-28
1.0077091589558085 6.182282567647569e-25 1.65368767631795e-17 1.6536876762154386e-17 1.0251176871318889e-27
1.0114953028030835 6.231312590958407e-25 1.6730651054157182e-17 1.6730651053033264e-17 1.123917548770554e-27
1.0152956718711033 6.280289656594246e-25 1.692550527151579e-17 1.6925505270283936e-17 1.2318433717971899e-27
1.0229392996569957 6.378017501325755e-25 1.7318289829279416e-17 1.731828982780104e-17 1.4783706820713408e-27
1.0267826658714554 6.426649205650999e-25 1.7515903998706557e-17 1.7515903997087725e-17 1.61883421004675e-27
1.0306404723013447 6.475206475572871e-25 1.771455500596547e-17 1.7714555004193404e-17 1.7720716187370848e-27
1.03451277320114 6.523684633755078e-25 1.791423424343175e-17 1.7914234241492567e-17 1.9391881225285005e-27
1.0383996230291617 6.572079029854622e-25 1.8114932999176925e-17 1.8114932997055543e-17 2.1213792938194346e-27
1.0403485208654093 6.596243371492383e-25 1.821566194592072e-17 1.8215661943702187e-17 2.2185278972084813e-27
1.0423010764483396 6.620385041414957e-25 1.8316642459061174e-17 1.831664245674124e-17 2.319937986142483e-27
1.0462171883269815 6.668598074739323e-25 1.8519353708828846e-17 1.8519353706292585e-17 2.5362617491524804e-27
1.0471985131304309 6.6806362697048195e-25 1.8570186996937906e-17 1.857018699434461e-17 2.5932928631296223e-27
1.048180758391296 6.692668297107199e-25 1.862108219235477e-17 1.8621082189703218e-17 2.6515528366837927e-27
1.0501480137395462 6.716713565744077e-25 1.8723057736205712e-17 1.8723057733433846e-17 2.771860767415046e-27
1.0521189612883777 6.740733314903312e-25 1.8825279198876337e-17 1.8825279195978946e-17 2.8973933074515875e-27
1.0531058218030118 6.752714888572171e-25 1.8876429923531663e-17 1.8876429920569475e-17 2.962190122885183e-27
1.0540936079674168 6.764629080547953e-25 1.892747150754484e-17 1.8927471504516446e-17 3.028388857559488e-27
1.058054026499678 6.8122160389327405e-25 1.9132234258366592e-17 1.9132234255058938e-17 3.307644659628361e-27
1.0590464539527713 6.824094979188627e-25 1.918357331730886e-17 1.918357331392764e-17 3.381222458686745e-27
1.06003981227728 6.835966661381603e-25 1.923497143056432e-17 1.9234971427107943e-17 3.456367263696652e-27
1.0620293250338977 6.859687975981936e-25 1.933794422894115e-17 1.9337944225329668e-17 3.611485577272833e-27
1.0660195594769086 6.907040484353065e-25 1.9544591956936864e-17 1.9544591952994904e-17 3.9419655426297274e-27
1.070024785945596 6.954269191135423e-25 1.975216789505272e-17 1.975216789075142e-17 4.301300171260351e-27
1.0740450607676866 7.001369758570727e-25 1.9960662413124933e-17 1.9960662408433062e-17 4.6918786498986645e-27
1.07808044048254 7.0483378847537685e-25 2.0170065800229812e-17 2.0170065795113537e-17 5.116276431191313e-27
1.0861967418109137 7.141776285193153e-25 2.0591319186493994e-17 2.0591319180416144e-17 6.0778460854490896e-27
1.0902777775684922 7.1880482660241e-25 2.0802598061520422e-17 2.080259805489919e-17 6.621228892535453e-27
1.0943741465085532 7.234167671761397e-25 2.1014730666973588e-17 2.101473065976271e-17 7.210880937648977e-27
1.1026131145906286 7.325932444461035e-25 2.1441516387789728e-17 2.1441516379245536e-17 8.544191658915069e-27
1.1109141095355224 7.417038382755837e-25 2.1871594336690213e-17 2.187159432657909e-17 1.0111120456475492e-26
1.1192775983109025 7.507368801840743e-25 2.2304628594776445e-17 2.2304628582826247e-17 1.1950196143115115e-26
1.1277040513999907 7.596501842536908e-25 2.2739359160079045e-17 2.2739359145973155e-17 1.410588130102774e-26
1.1361939428280308 7.684871371414956e-25 2.3177068559682708e-17 2.317706854305329e-17 1.662941027041634e-26
1.1447477501889525 7.772448136048352e-25 2.3617670782695205e-17 2.3617670763115465e-17 1.9579748747475344e-26
1.1533659546722406 7.859251676578333e-25 2.4061226264676515e-17 2.406122624165182e-17 2.3024701936220606e-26
1.1707974979042381 8.030823364529807e-25 2.495808690015736e-17 2.495808686843592e-17 3.172143358623481e-26
1.1884924949847024 8.198934997670106e-25 2.5865645432291893e-17 2.5865645388804192e-17 4.348770043031712e-26
1.2064549276569216 8.364914313936672e-25 2.6788107388392854e-17 2.678810732906419e-17 5.93286595626847e-26
1.2246888378427687 8.52693859019002e-25 2.7719687371099162e-17 2.7719687290549943e-17 8.054920085827134e-26
1.2431983285522175 8.684630371744886e-25 2.8659010375449066e-17 2.8659010266611505e-17 1.0883756241977101e-25
1.2619875648066055 8.83793411941515e-25 2.960569553002998e-17 2.960569538366321e-17 1.4636677696698336e-25
1.3004222497298317 9.128828602438377e-25 3.151148554915959e-17 3.151148528812648e-17 2.610331238152481e-25
1.3400274889804893 9.398512598693445e-25 3.3430453530670544e-17 3.3430453073561376e-17 4.571091596150597e-25
1.3808389325824078 9.646018420682524e-25 3.5355789814978945e-17 3.535578902863042e-17 7.863485232698368e-25
1.4228933163050095 9.872603745088392e-25 3.728837680814763e-17 3.7288375478631685e-17 1.3295159442309773e-24
1.466228494730424 1.008381089974842e-24 3.9246034493013304e-17 3.9246032282611205e-17 2.2104021072288666e-24
1.5108834753276823 1.027554281154026e-24 4.1210243187807e-17 4.1210239572549114e-17 3.6152578876858034e-24
1.5568984535646726 1.0444499459428609e-24 4.3163569470210876e-17 4.3163563647198125e-17 5.823012747921279e-24
1.6043148490894465 1.0591043982638975e-24 4.510220845403608e-17 4.5102199200905455e-17 9.253130627891076e-24
1.6531753430134553 1.0715679336429624e-24 4.7022754022213516e-17 4.702273953216163e-17 1.4490051892306505e-23
1.7035239163302658 1.0819950116428757e-24 4.892636227614652e-17 4.892633990965499e-17 2.2366491519894474e-23
1.755405889504358 1.0912517058266486e-24 5.0847771015224244e-17 5.0847736967225486e-17 3.404799875050635e-23
1.8088679632656115 1.0991312667914218e-24 5.277471084429485e-17 5.2774659710590986e-17 5.113370385619517e-23
1.8639582606462262 1.1054958498053923e-24 5.469690247169301e-17 5.4696826680368254e-17 7.57913247542251e-23
1.9207263702978936 1.110455814213189e-24 5.661561305780955e-17 5.661550214161782e-17 1.1091619174991695e-22
1.979223391128241 1.1142602471731381e-24 5.85397528737279e-17 5.853959254772362e-17 1.603260043069047e-22
2.039501978296691 1.1172058698698598e-24 6.048208759275948e-17 6.04818586088652e-17 2.2898389428660584e-22
2.1016163906111602 1.1201126592516986e-24 6.248626775963712e-17 6.248594447819231e-17 3.2328144483425726e-22
2.1656225393682647 1.1234588516810364e-24 6.458168414685144e-17 6.458123282641342e-17 4.51320438022944e-22
2.231578038680979 1.1272843533951557e-24 6.677516824354497e-17 6.677454500117033e-17 6.232423746068985e-22
2.299542257339062 1.131878044247025e-24 6.90892476632213e-17 6.908839606625876e-17 8.515969625471716e-22
2.369576372248914 1.1378706155985662e-24 7.157033105785094e-17 7.156917929813737e-17 1.1517597135701588e-21
2.4417434235010123 1.1460058909147476e-24 7.427733440724196e-17 7.427579208029501e-17 1.5423269469880063e-21
2.5161083711144245 1.1575533220002576e-24 7.731073129563047e-17 7.730868568123261e-17 2.0456143978491548e-21
2.5927381535095444 1.1745864974261858e-24 8.083754127693915e-17 8.083485316945416e-17 2.6881074850139014e-21
2.6717017477616296 1.1995788420479436e-24 8.507191416128468e-17 8.506841339740078e-17 3.500763883895596e-21
2.753070231689431 1.2362500220750597e-24 9.034269378074943e-17 9.033817433262938e-17 4.5194481200669825e-21
2.836916847834745 1.2930205667274801e-24 9.736917097642194e-17 9.73633854672055e-17 5.785509216454997e-21
2.9233170693905177 1.3884269330608868e-24 1.0773786998242951e-16 1.0773052501310363e-16 7.344969325875768e-21
2.967498994190263 1.468911337927557e-24 1.1570592442641424e-16 1.1569768635834816e-16 8.238068066120265e-21
3.0123486681368425 1.5628012769904133e-24 1.2496213277996143e-16 1.2495290520359887e-16 9.227576362532219e-21
3.0578761833420214 1.771738264873937e-24 1.438099364367584e-16 1.4379961134776921e-16 1.032508898912125e-20
3.1040917844459814 2.040761915331014e-24 1.6814978962482857e-16 1.6813825756778534e-16 1.153205704325552e-20
3.127460860933648 2.324773435283614e-24 1.9299317494729731e-16 1.9298099160597735e-16 1.2183341320030769e-20
3.1510058709225794 2.7030326751059927e-24 2.2608405865430454e-16 2.2607119271235897e-16 1.2865941945518594e-20
3.162844764501044 3.054889856705974e-24 2.5647371724947e-16 2.564604966149739e-16 1.32206344960508e-20
3.1747281389236908 3.464035511225794e-24 2.9191627588087413e-16 2.9190269232609623e-16 1.358355477792673e-20
3.1986289994194426 4.605088111399675e-24 3.9099503946606245e-16 3.9098070299288213e-16 1.433647318035791e-20
3.2227097969389145 7.29403969023855e-24 6.239628808468164e-16 6.23947742553575e-16 1.513829324116324e-20
3.2348180950136065 9.843759095569706e-24 8.452404520544364e-16 8.452248847975459e-16 1.5567256890604713e-20
3.240889293275058 1.1749931631477432e-23 1.0108086941889638e-15 1.0107929006188693e-15 1.5793570094230936e-20
3.2469718861334385 1.395508223605293e-23 1.2027638358266094e-15 1.2027478080487033e-15 1.6027777906120362e-20
3.2714166318528037 2.5716868327533287e-23 2.2331781584759113e-15 2.2331611595340877e-15 1.6998941823625637e-20
3.2744851364798273 2.64521226994637e-23 2.2991800636325534e-15 2.299162949350993e-15 1.7114281559117076e-20
3.2775565192852394 2.7208487659984524e-23 2.3671404429981893e-15 2.3671232127135666e-15 1.7230284621880526e-20
3.283707930232385 2.6481132411181544e-23 2.30818443307867e-15 2.308166993572588e-15 1.743950608157369e-20
3.2898708863219004 2.4174423765150173e-23 2.1110786707809307e-15 2.1110610392307938e-15 1.7631550137390373e-20
3.29141343181113 2.3630443358701264e-23 2.064542084648945e-15 2.0645244048293977e-15 1.7679819547580092e-20
3.292184975758714 2.3363150491368198e-23 2.0416677470759824e-15 2.041650043082872e-15 1.7703993111082343e-20
3.295272960557952 2.1676032508324472e-23 1.8960099908207974e-15 1.895992192489244e-15 1.779833155270442e-20
3.3076538914384823 1.5831283069283853e-23 1.3899705752214351e-15 1.3899523970911166e-15 1.8178130318860473e-20
3.310756385682612 1.4641704378565336e-23 1.2867325653509254e-15 1.2867142913019415e-15 1.82740489837493e-20
3.313861789986515 1.35441220087299e-23 1.191392006425308e-15 1.191373636068149e-15 1.8370357158758245e-20
3.3200813396944477 1.2004935815323664e-23 1.057981318743288e-15 1.0579627419720018e-15 1.857677128615064e-20
3.345076488085796 9.259647261238163e-24 8.221857183966423e-16 8.221662234306559e-16 1.9494965986282785e-20
3.3482140837626964 9.362684513194618e-24 8.32114407275756e-16 8.320947879711138e-16 1.961930464220649e-20
3.3513546224236106 9.466859712013109e-24 8.421622291063794e-16 8.421424848034829e-16 1.9744302896739634e-20
3.3576445397418455 1.0227815038156774e-23 9.115636859904948e-16 9.115436806149576e-16 2.0005375537289032e-20
3.3702598118196083 1.3034179640126383e-23 1.1660482379954019e-15 1.166027684737544e-15 2.0553257857783022e-20
3.382922481734668 1.367355636559969e-23 1.227843355885067e-15 1.2278222668171359e-15 2.108906793153976e-20
3.389271646505754 1.4004786518521446e-23 1.2599470806165291e-15 1.259925719290777e-15 2.1361325751927784e-20
3.395632727569191 1.4361715629917745e-23 1.2944833445673704e-15 1.2944617026138108e-15 2.1641953559493678e-20
3.421196662673239 1.6075500494258575e-23 1.4598625774599473e-15 1.4598397699438293e-15 2.2807516118024167e-20
3.4276182099114902 1.5730404680056537e-23 1.4312047532142674e-15 1.431181682001133e-15 2.3071213134513543e-20
3.4340518103208963 1.4217742894797022e-23 1.2960057627937421e-15 1.2959824404334814e-15 2.3322360260669272e-20
3.4469541582030403 1.2063447912673572e-23 1.103764429327654e-15 1.1037406213500632e-15 2.3807977590755476e-20
3.472904465399547 1.1460164714188863e-23 1.0564601729125153e-15 1.0564352508642138e-15 2.4922048300761072e-20
3.4990501388274233 1.0537249479515161e-23 9.78693854374376e-16 9.78667783604771e-16 2.6070769604910344e-20
3.5253949054701885 7.251512787070662e-24 6.785874489785391e-16 6.785602487233263e-16 2.7200255212861646e-20
3.5519380250092896 4.163308860035083e-24 3.925305323569962e-16 3.9250218565892143e-16 2.834669807469119e-20
3.578680990867387 2.9393052922579246e-24 2.7921395225942615e-16 2.79184346550764e-16 2.9605708662062166e-20
3.605625307711299 2.4446927099641745e-24 2.339776118259893e-16 2.339466727350594e-16 3.093909092989879e-20
3.660119384959845 2.0848551538130768e-24 2.025538824626341e-16 2.0252010979343255e-16 3.377266920153543e-20
3.715437065384467 1.830533434817378e-24 1.8053317001888128e-16 1.8049636225153456e-16 3.680776734664383e-20
3.8285932144167436 1.7039560588260367e-24 1.7316776408404603e-16 1.7312426165355507e-16 4.350243049098069e-20
3.94519561050918 1.6825728785700786e-24 1.7620241583161262e-16 1.7615134535039039e-16 5.1070481222317314e-20
4.06534921144712 1.70459496653019e-24 1.8394521373506212e-16 1.8388563308948527e-16 5.958064557693111e-20
4.189162171576248 1.7519354354865762e-24 1.948115506274245e-16 1.947424184046814e-16 6.913222274317319e-20
4.316745939156006 1.8178818067867072e-24 2.0830110099723691e-16 2.0822130963785582e-16 7.979135938103809e-20
4.448215356677963 1.900216821961559e-24 2.243666980444604e-16 2.2427516378725894e-16 9.15342572014898e-20
4.58368876423945 1.9992730221063944e-24 2.4325213450087993e-16 2.431476476478949e-16 1.0448685298496638e-19
4.723288106065518 2.117275265621837e-24 2.654551736886751e-16 2.6533632591913104e-16 1.1884776954407463e-19
4.867139040275056 2.2586150471412226e-24 2.91800077670396e-16 2.916656148182924e-16 1.3446285210353003e-19
4.940699165968905 2.3434875376447525e-24 3.0734099457793955e-16 3.071981705000641e-16 1.4282407787534805e-19
5.015371051989984 2.4314416319140804e-24 3.236952679291795e-16 3.235437082594577e-16 1.5155966972181682e-19
5.091171501069577 2.538183511330539e-24 3.4301268296218654e-16 3.4285184701344647e-16 1.6083594874002868e-19
5.129500256944802 2.5929923670875153e-24 3.530577322278855e-16 3.528921072423205e-16 1.6562498556490136e-19
5.168117569889187 2.6501033562673764e-24 3.63550402718988e-16 3.6337985551598527e-16 1.7054720300285097e-19
5.20702561229733 2.719812881126531e-24 3.7592237275907895e-16 3.7574652768006596e-16 1.758450790129453e-19
5.246226572918644 2.7913012182069114e-24 3.8870773337604766e-16 3.88526466881113e-16 1.8126649493483967e-19
5.265937586045735 2.8277301319265922e-24 3.952602127520954e-16 3.95076188608062e-16 1.840241440334197e-19
5.285722656980489 2.864625281636637e-24 4.019218579935806e-16 4.017350445750375e-16 1.8681341854304099e-19
5.305582063971359 2.9019941680241394e-24 4.0869469903118827e-16 4.08505064461622e-16 1.8963456956624873e-19
5.3255160863122235 2.942078996014046e-24 4.1589668950449523e-16 4.1570418723043796e-16 1.9250227405726346e-19
5.365609099470188 3.041451419640333e-24 4.331809474756991e-16 4.3298249902441624e-16 1.984484512828721e-19
5.406003951863644 3.1445732901586803e-24 4.512399195412171e-16 4.510353843499089e-16 2.045351913081477e-19
5.446702915881641 3.2516244070658613e-24 4.701143366079235e-16 4.699035716858942e-16 2.1076492202909134e-19
5.487708281020852 3.367173508897453e-24 4.904852433725296e-16 4.90268085458917e-16 2.171579136123583e-19
5.529022354014368 3.526986808054293e-24 5.176325930571775e-16 5.174087360211677e-16 2.2385703600966695e-19
5.570647458961463 3.6961151377030375e-24 5.465382971355663e-16 5.463075794695912e-16 2.307176659750947e-19
5.612585937458331 3.87522520799867e-24 5.773369896103274e-16 5.770992467789683e-16 2.377428313591077e-19
5.654840148729818 4.071910243062578e-24 6.11206497106877e-16 6.109615381786773e-16 2.4495892819973843e-19
5.67608639626678 4.205474480742949e-24 6.336266458264304e-16 6.333779128973683e-16 2.4873292906223396e-19
5.686739436050992 4.2742998680448926e-24 6.452050379955691e-16 6.449544006375629e-16 2.5063735800640146e-19
5.6974124697621304 4.344530735902172e-24 6.570372148326123e-16 6.567846613488527e-16 2.525534837595716e-19
5.718818669136295 4.489343808552588e-24 6.814886476377821e-16 6.812322265766481e-16 2.5642106113399794e-19
5.740305295436557 4.648858061999731e-24 7.083545867550152e-16 7.08094229523435e-16 2.603572315798859e-19
5.7835210386641895 5.0620164250753494e-24 7.771150195870241e-16 7.768464783377836e-16 2.6854124924060447e-19
5.827062130521658 5.537513196410036e-24 8.565127968482221e-16 8.562358119786257e-16 2.769848695964437e-19
5.8489554468988025 5.870685128882544e-24 9.114577334135814e-16 9.11176222661822e-16 2.8151075175949518e-19
5.870931020387893 6.228047788621744e-24 9.705733160330898e-16 9.702872176731056e-16 2.860983599839285e-19
5.892989160043636 6.611544068651325e-24 1.034208189133863e-15 1.033917440704975e-15 2.9074842888766795e-19
5.915130176081913 7.047496824753848e-24 1.1065438496542219e-15 1.1062482854557789e-15 2.955641984434144e-19
5.95966208400165 8.265579543588324e-24 1.3075682855348922e-15 1.3072619934267496e-15 3.0629210814228585e-19
6.004529249263818 1.0019973829090151e-23 1.5970370257910016e-15 1.5967187700144822e-15 3.18255776519095e-19
6.027089341400364 1.1239050382560227e-23 1.798070352920096e-15 1.797745309102872e-15 3.2504381722409295e-19
6.049734195844842 1.267917649581876e-23 2.0360890770126663e-15 2.0357568595353297e-15 3.3221747733597663e-19
6.095279466722835 1.6838113031273128e-23 2.7243096971619754e-15 2.7239602994471033e-15 3.4939771487307847e-19
6.141167624020661 2.3236604673188457e-23 3.787852456041684e-15 3.787481315323749e-15 3.711407179346427e-19
6.164241091010745 2.732301430513118e-23 4.470721932681833e-15 4.470337423064563e-15 3.8450961727026734e-19
6.187401249150058 3.1976785717871563e-23 5.251852500970557e-15 5.2514541711788404e-15 3.9832979171785977e-19
6.1990139391386085 3.424939550020009e-23 5.635662237048951e-15 5.635256854319814e-15 4.053827291356308e-19
6.204828454712694 3.544640385446177e-23 5.838098167157996e-15 5.837689212348742e-15 4.0895480925486617e-19
6.210648424152782 3.6320529236581e-23 5.987679504597584e-15 5.987267435298307e-15 4.1206929927826166e-19
6.233982942956859 3.9290775299693114e-23 6.501680758925523e-15 6.501257521982565e-15 4.232369429575183e-19
6.239830258556775 3.9670808707532316e-23 6.570724566336156e-15 6.570299551438794e-15 4.2501489736263704e-19
6.245683058788269 3.9704432139698456e-23 6.5824620507711665e-15 6.5820352513134416e-15 4.267994577225038e-19
6.257405133728602 3.96243823777956e-23 6.581520118019492e-15 6.581090059134524e-15 4.300588849658518e-19
6.269149208991335 3.904225953801004e-23 6.497001747771157e-15 6.496569842414558e-15 4.3190535659584245e-19
6.280915325867298 3.7580155494027814e-23 6.265430897290078e-15 6.2649989036755105e-15 4.319936145668675e-19
6.304513850009849 3.397358747886357e-23 5.685418591003603e-15 5.684988019768115e-15 4.305712354892308e-19
6.32820103803542 2.950258764341597e-23 4.9557547953661396e-15 4.9553273477145994e-15 4.2744765153835585e-19
6.3519772230701035 2.540235621865587e-23 4.283042334197221e-15 4.282617466705117e-15 4.2486749210421135e-19
6.375842739491607 2.1952480552653155e-23 3.71527213882319e-15 3.714849302489568e-15 4.228363336218663e-19
6.399797922933955 1.9188613879385023e-23 3.259712501519515e-15 3.2592896178267843e-15 4.2288369273112564e-19
6.42384311029221 1.6890504311958542e-23 2.8800960760686473e-15 2.879672725394074e-15 4.2335067457307963e-19
6.447978639727206 1.521676789645057e-23 2.6044464927815427e-15 2.6040210232790272e-15 4.254695025155672e-19
6.472204850670314 1.3822561491698e-23 2.374708016277932e-15 2.3742800782377597e-15 4.279380401729994e-19
6.496522083828205 1.291754559087541e-23 2.2275648441679117e-15 2.2271330705273226e-15 4.3177364058882827e-19
6.520930681187647 1.2155447759579456e-23 2.10402055281009e-15 2.103584698747169e-15 4.358540629201703e-19
