Dust emission spectrum from A.P. Jones, M. Kohler, N. Ysard, M. Bocchio, and L. Verstraete (2017), A&A, 602A, 46J 
inside the DustPedia framework.

lambda    nu*dP/dnu     j_nu    j_nu(carb.) j_nu(sil)
 (um)   (erg s-1 H-1) (Jy cm2 sr-1 H-1)
0.9927057738263894 4.375384905347138e-20 1.1529387742491012e-12 1.152938749403831e-12 2.4845270474585634e-20
1.0001793341362166 4.4488164600764116e-20 1.1811139496171703e-12 1.1811139197232427e-12 2.989392777032234e-20
1.0077091589558085 4.5225585403121956e-20 1.2097310729015395e-12 1.209731036981193e-12 3.5920346499139707e-20
1.0114953028030835 4.559542995515437e-20 1.2242063242836365e-12 1.2242062849285487e-12 3.9355087894150456e-20
1.0152956718711033 4.596601503834311e-20 1.2387932283109896e-12 1.2387931852071885e-12 4.310380108369623e-20
1.0229392996569957 4.6708999959172106e-20 1.2682937899756441e-12 1.2682937383205042e-12 5.16551399659447e-20
1.0267826658714554 4.7080557323627475e-20 1.2831858343242563e-12 1.2831857778032552e-12 5.652100132157794e-20
1.0306404723013447 4.7452793253797846e-20 1.2981904429645845e-12 1.2981903811400861e-12 6.18244979139999e-20
1.03451277320114 4.782569779006236e-20 1.313308047776669e-12 1.313307980173689e-12 6.760298016156764e-20
1.0383996230291617 4.819926133495221e-20 1.3285390904859407e-12 1.328539016589139e-12 7.389680168679068e-20
1.0403485208654093 4.838628733758809e-20 1.336197291884149e-12 1.3361972146336978e-12 7.725045154642298e-20
1.0423010764483396 4.8573474661838645e-20 1.3438840230733952e-12 1.3438839423238503e-12 8.074954479275346e-20
1.0462171883269815 4.894832892354607e-20 1.3593433081910278e-12 1.3593432199827667e-12 8.82082615603918e-20
1.0471985131304309 4.904214163508128e-20 1.3632260523203329e-12 1.3632259621468437e-12 9.017348910763457e-20
1.048180758391296 4.913599374607356e-20 1.3671159805486626e-12 1.3671158883680867e-12 9.218057567136618e-20
1.0501480137395462 4.932381566088438e-20 1.3749174195824162e-12 1.3749173232586847e-12 9.632373154852866e-20
1.0521189612883777 4.951179367258828e-20 1.3827476863131217e-12 1.3827475856684173e-12 1.006447042247224e-19
1.0531058218030118 4.960571726171545e-20 1.3866701928759933e-12 1.3866700900017183e-12 1.0287427513445984e-19
1.0540936079674168 4.9699274431254363e-20 1.390588588882424e-12 1.3905884837308758e-12 1.0515154794214492e-19
1.058054026499678 5.007387114798562e-20 1.4063338971507679e-12 1.4063337823986446e-12 1.1475212338855287e-19
1.0590464539527713 5.016761177981957e-20 1.4102881945041203e-12 1.4102880772240035e-12 1.1728011710423123e-19
1.06003981227728 5.026138877569949e-20 1.4142496958369785e-12 1.41424957597567e-12 1.1986130856013426e-19
1.0620293250338977 5.0449051438901073e-20 1.4221943425769332e-12 1.4221942173893768e-12 1.2518755663174736e-19
1.0660195594769086 5.0824808600562266e-20 1.4381704402018503e-12 1.4381703036752922e-12 1.3652655824632638e-19
1.070024785945596 5.120113636291813e-20 1.4542627184276823e-12 1.4542625695845313e-12 1.4884315064908613e-19
1.0740450607676866 5.157802889719345e-20 1.4704717194674363e-12 1.4704715572503859e-12 1.6221705012833792e-19
1.07808044048254 5.195548082365898e-20 1.4867979997987703e-12 1.4867978230646959e-12 1.7673407410250938e-19
1.0861967418109137 5.2711469581296535e-20 1.5197881473660448e-12 1.5197879377921191e-12 2.0957392594850654e-19
1.0902777775684922 5.308869290527932e-20 1.5364153094799397e-12 1.5364150813769377e-12 2.2810300194302232e-19
1.0943741465085532 5.3466436372025855e-20 1.5531610698863313e-12 1.5531608216977216e-12 2.481886096715283e-19
1.1026131145906286 5.422347257312831e-20 1.5870109158031311e-12 1.587010622270844e-12 2.9353228722150584e-19
1.1109141095355224 5.498256086914688e-20 1.6213429199965146e-12 1.621342573290357e-12 3.467061577706124e-19
1.1192775983109025 5.574310215697071e-20 1.656145079787555e-12 1.6561446708083627e-12 4.0897919235905172e-19
1.1277040513999907 5.650238415020851e-20 1.6913416638667874e-12 1.6913411820551479e-12 4.818116392245494e-19
1.1361939428280308 5.726362863928617e-20 1.7270335218435515e-12 1.727032954961985e-12 5.668815660768404e-19
1.1447477501889525 5.80268529156475e-20 1.7632270871792596e-12 1.7632264210645648e-12 6.661146945140685e-19
1.1533659546722406 5.879234800073423e-20 1.7999372536866603e-12 1.7999364719675923e-12 7.817190679160048e-19
1.1707974979042381 6.033246667075528e-20 1.8750044394205386e-12 1.875003366900317e-12 1.07252022221405e-18
1.1884924949847024 6.188208452695774e-20 1.95222923152855e-12 1.9522277674209023e-12 1.4641076478823166e-18
1.2064549276569216 6.345160454008049e-20 2.0319973792840697e-12 2.0319953905122133e-12 1.9887718561964586e-18
1.2246888378427687 6.503115860558906e-20 2.1140569582630503e-12 2.1140542700859024e-12 2.6881771474827676e-18
1.2431983285522175 6.661955177150792e-20 2.198424508242844e-12 2.1984208923511194e-12 3.615891724360443e-18
1.2619875648066055 6.821920937861256e-20 2.285236702235365e-12 2.2852318617965235e-12 4.8404388413554485e-18
1.3004222497298317 7.144302279514096e-20 2.466116824447806e-12 2.466108272792143e-12 8.551655662168946e-18
1.3400274889804893 7.471271251811842e-20 2.6575267498545734e-12 2.6575119191457637e-12 1.4830708809666417e-17
1.3808389325824078 7.804037365745036e-20 2.860433111136443e-12 2.860407851629356e-12 2.525950708739247e-17
1.4228933163050095 8.145316369365834e-20 3.076449069006637e-12 3.076406796789302e-12 4.2272217335694173e-17
1.466228494730424 8.500817017625666e-20 3.3085047033245635e-12 3.3084351576372253e-12 6.954568733826816e-17
1.5108834753276823 8.869733786514785e-20 3.5572221639023265e-12 3.557109635489872e-12 1.1252841245503364e-16
1.5568984535646726 9.251556446648125e-20 3.823354110397168e-12 3.823174847225611e-12 1.7926317155650244e-16
1.6043148490894465 9.648134617005415e-20 4.108680687211656e-12 4.108398996575385e-12 2.8169063627124603e-16
1.6531753430134553 1.0061322236958377e-19 4.415129137714172e-12 4.4146930364246436e-12 4.361012895275397e-16
1.7035239163302658 1.0493195528024047e-19 4.744882188125988e-12 4.7442168585872705e-12 6.653295387175637e-16
1.755405889504358 1.0950730723440745e-19 5.1025830731975036e-12 5.101582296739209e-12 1.0007764582935628e-15
1.8088679632656115 1.143290494669736e-19 5.489501308006739e-12 5.488016600959608e-12 1.4847070471308937e-15
1.8639582606462262 1.1938238756954952e-19 5.90671309248153e-12 5.904539794757152e-12 2.1732977243797483e-15
1.9207263702978936 1.2466667947696278e-19 6.356021010588954e-12 6.352880977324229e-12 3.1400332647255187e-15
1.979223391128241 1.301859445201865e-19 6.8395628751712785e-12 6.835083146656947e-12 4.479728514331216e-15
2.039501978296691 1.359382117052638e-19 7.359276431763272e-12 7.352963600903885e-12 6.312830859390186e-15
2.1016163906111602 1.4195939484089532e-19 7.919304084064421e-12 7.910513280396473e-12 8.790803667947966e-15
2.1656225393682647 1.4825102391050175e-19 8.522164195252257e-12 8.510063458638914e-12 1.210073661334272e-14
2.231578038680979 1.5476655360297717e-19 9.167662643579481e-12 9.151192159449174e-12 1.6470484130310847e-14
2.299542257339062 1.614791008766121e-19 9.856600408147612e-12 9.834426498494797e-12 2.2173909652814447e-14
2.369576372248914 1.6837432183739503e-19 1.059048875183792e-11 1.056095240155596e-11 2.9536350281960017e-14
2.4417434235010123 1.7544088310737156e-19 1.1371042022189305e-11 1.1332103680304434e-11 3.8938341884871536e-14
2.5161083711144245 1.8269650664112358e-19 1.2201943759424613e-11 1.2151123039788577e-11 5.082071963603455e-14
2.5927381535095444 1.9019745489141537e-19 1.3089793424532176e-11 1.3024106446133686e-11 6.568697839849248e-14
2.6717017477616296 1.979844457745271e-19 1.4040690937367272e-11 1.395659000583795e-11 8.410093152932582e-14
2.753070231689431 2.0613786123040464e-19 1.5064145068728136e-11 1.4957459128136564e-11 1.066859405915743e-13
2.836916847834745 2.1494986770464641e-19 1.6186510066783913e-11 1.605238361138159e-11 1.3412645540231946e-13
2.9233170693905177 2.251106472922105e-19 1.7467927963743386e-11 1.7300800540342766e-11 1.671274234006164e-13
2.967498994190263 2.3139782718183937e-19 1.8227171928642845e-11 1.8041603244451527e-11 1.8556868419131815e-13
3.0123486681368425 2.381054103088581e-19 1.903899128873392e-11 1.883321200675878e-11 2.0577928197513763e-13
3.0578761833420214 2.4954708619391453e-19 2.0255447045999522e-11 2.002747990207336e-11 2.2796714392617115e-13
3.1040917844459814 2.6299640849984405e-19 2.166974522070169e-11 2.1417702278912078e-11 2.5204294178960587e-13
3.127460860933648 2.758079530174896e-19 2.289644733576654e-11 2.2631541042580755e-11 2.649062931857818e-13
3.1510058709225794 2.921681835114605e-19 2.443720689959343e-11 2.4158912322705936e-11 2.7829457688749437e-13
3.162844764501044 3.0714791108010933e-19 2.5786647046275898e-11 2.550143164527231e-11 2.8521540100358045e-13
3.1747281389236908 3.241012190377749e-19 2.7312197165230438e-11 2.7019925582256998e-11 2.922715829734342e-13
3.1986289994194426 3.7009817271814325e-19 3.142318803630139e-11 3.1116354829562247e-11 3.0683320673913627e-13
3.2227097969389145 4.771611186352528e-19 4.081837210321028e-11 4.0496129104995726e-11 3.2224299821456524e-13
3.2348180950136065 5.777601596720681e-19 4.960973280624552e-11 4.927927130414974e-11 3.3046150209579365e-13
3.240889293275058 6.529681493895709e-19 5.6172742372669027e-11 5.5837945787973706e-11 3.3479658469532483e-13
3.2469718861334385 7.401555463094447e-19 6.379269637606104e-11 6.345341427584785e-11 3.3928210021318066e-13
3.2714166318528037 1.1972428033813001e-18 1.0396508800572304e-10 1.0360728601417366e-10 3.5780199154939194e-13
3.2744851364798273 1.2257508528139047e-18 1.0654048281076005e-10 1.061805029677176e-10 3.599798430424903e-13
3.2775565192852394 1.255018106781049e-18 1.0918666830665483e-10 1.0882450015282911e-10 3.6216815382570675e-13
3.283707930232385 1.2266189354341175e-18 1.0691622579150247e-10 1.0655015370876627e-10 3.6607208273617756e-13
3.2898708863219004 1.136773349717505e-18 9.927094831358057e-11 9.890133214610939e-11 3.6961616747115924e-13
3.29141343181113 1.1155358419034173e-18 9.746201785485561e-11 9.709151196946294e-11 3.705058853926827e-13
3.292184975758714 1.1050930378098127e-18 9.657228436071181e-11 9.620133306138391e-11 3.7095129932790726e-13
3.295272960557952 1.040079509191823e-18 9.097611105345775e-11 9.060342882386848e-11 3.7268222958925575e-13
3.3076538914384823 8.130242233014777e-19 7.138270109792406e-11 7.100307094117506e-11 3.79630156748994e-13
3.310756385682612 7.662925035314138e-19 6.734281019371145e-11 6.696142964141919e-11 3.813805522922504e-13
3.313861789986515 7.229715367435096e-19 6.359530054395977e-11 6.321216422580711e-11 3.8313631815266045e-13
3.3200813396944477 6.624386545489989e-19 5.837996405042701e-11 5.799304718254317e-11 3.8691686788386353e-13
3.345076488085796 5.565088258965254e-19 4.9413719108844795e-11 4.900994358216538e-11 4.0377552667941955e-13
3.3482140837626964 5.607226962023532e-19 4.983457824931905e-11 4.9428518474802823e-11 4.0605977451622027e-13
3.3513546224236106 5.649745179391761e-19 5.0259559546676823e-11 4.985120570117167e-11 4.0835384550514773e-13
3.3576445397418455 5.951544353228748e-19 5.3043701785037656e-11 5.263055001125766e-11 4.1315177377998496e-13
3.3702598118196083 7.046116629172495e-19 6.303512846226986e-11 6.261191358729976e-11 4.2321487497011387e-13
3.382922481734668 7.305460523211144e-19 6.560079122994163e-11 6.516780963506717e-11 4.3298159487446475e-13
3.389271646505754 7.439122022826662e-19 6.692640450188114e-11 6.648847531011792e-11 4.379291917632092e-13
3.395632727569191 7.586466109679417e-19 6.838008965061973e-11 6.793706165012227e-11 4.4302800049744997e-13
3.421196662673239 8.302738551182074e-19 7.539956411082654e-11 7.493544495383207e-11 4.641191569944622e-13
3.4276182099114902 8.1711337473768265e-19 7.434370377783055e-11 7.387489358585156e-11 4.688101919789804e-13
3.4340518103208963 7.578750388368632e-19 6.90834280151138e-11 6.861018860975814e-11 4.732394053556705e-13
3.4469541582030403 6.72761268724895e-19 6.155536652732226e-11 6.107364138551942e-11 4.817251418028297e-13
3.472904465399547 6.486064197923304e-19 5.979205949436236e-11 5.929076311389074e-11 5.012963804716032e-13
3.4990501388274233 6.124494414236154e-19 5.688396251807176e-11 5.636267337510013e-11 5.212891429716462e-13
3.5253949054701885 4.859728719704264e-19 4.547673032462549e-11 4.4936074285649244e-11 5.40656038976246e-13
3.5519380250092896 3.655365906610278e-19 3.44639990334336e-11 3.3903922551073427e-11 5.600764823601623e-13
3.578680990867387 3.1834741884106056e-19 3.024083317929792e-11 2.965947701851942e-11 5.81356160778497e-13
3.605625307711299 2.9998186161141803e-19 2.8710782048342838e-11 2.8107041541435463e-11 6.037405069073739e-13
3.660119384959845 2.878922664450919e-19 2.797014276640187e-11 2.7319499206665917e-11 6.506435597359541e-13
3.715437065384467 2.794620570808382e-19 2.7561458373380967e-11 2.6861551444822002e-11 6.999069285589631e-13
3.8285932144167436 2.7738946339147583e-19 2.8190229969351154e-11 2.7385080333057083e-11 8.051496362940681e-13
3.94519561050918 2.788050200889744e-19 2.9197022435906624e-11 2.827806392044513e-11 9.189585154615034e-13
4.06534921144712 2.812775126670084e-19 3.035304761677129e-11 2.931207477067325e-11 1.0409728460980463e-12
4.189162171576248 2.840983869470173e-19 3.1591145524450796e-11 3.041995474123121e-11 1.171190783219584e-12
4.316745939156006 2.8697646131783237e-19 3.28830579796925e-11 3.15741976713393e-11 1.308860308353207e-12
4.448215356677963 2.897901737734634e-19 3.421676077373327e-11 3.2764996605523784e-11 1.4517641682094892e-12
4.58368876423945 2.925287248598985e-19 3.5592055681329614e-11 3.399222152592684e-11 1.599834155402773e-12
4.723288106065518 2.9525511279687216e-19 3.701785900141047e-11 3.526408782275217e-11 1.7537711786582995e-12
4.867139040275056 2.9805745352617835e-19 3.850730924655049e-11 3.659831525656414e-11 1.908993989986348e-12
4.940699165968905 2.9968490416200193e-19 3.9302729383281376e-11 3.7315212286816194e-11 1.9875170964651805e-12
5.015371051989984 3.011909719758107e-19 4.0097237413349174e-11 3.803087822096657e-11 2.0663591923826012e-12
5.091171501069577 3.0318851669594503e-19 4.0973202327945675e-11 3.8825890132389684e-11 2.147312195555991e-12
5.129500256944802 3.041373224724841e-19 4.1410855936535154e-11 3.9223058640797604e-11 2.1877972957375517e-12
5.168117569889187 3.0510776841693046e-19 4.185574567057586e-11 3.962702076821499e-11 2.2287249023608634e-12
5.20702561229733 3.065161827132183e-19 4.2365521354131657e-11 4.0091836389623705e-11 2.273684964507952e-12
5.246226572918644 3.0790619850237924e-19 4.2878038289676e-11 4.055927932005617e-11 2.318758969619834e-12
5.265937586045735 3.085946231655715e-19 4.3135366783913075e-11 4.07940354488359e-11 2.3413313350771743e-12
5.285722656980489 3.0927883605319213e-19 4.339343271926011e-11 4.1029509407127926e-11 2.363923312132197e-12
5.305582063971359 3.0995897529590784e-19 4.36522552375863e-11 4.126572333015298e-11 2.3865319074333106e-12
5.3255160863122235 3.107214299999179e-19 4.392404631899682e-11 4.151469000606665e-11 2.409356312930181e-12
5.365609099470188 3.1290224553509995e-19 4.456533164162691e-11 4.2108730642126895e-11 2.4566009995000206e-12
5.406003951863644 3.151034599747794e-19 4.521671044245355e-11 4.271276369880465e-11 2.5039467436489083e-12
5.446702915881641 3.17328586661954e-19 4.587882834227132e-11 4.332745883354656e-11 2.5513695087247477e-12
5.487708281020852 3.1974467738503747e-19 4.6576170039904907e-11 4.3977097767098915e-11 2.599072272805991e-12
5.529022354014368 3.2364408142330273e-19 4.749910737181686e-11 4.4850310993098035e-11 2.6487963787188184e-12
5.570647458961463 3.276840737197251e-19 4.845409003154624e-11 4.575547745836366e-11 2.6986125731825693e-12
5.612585937458331 3.318785736221911e-19 4.944377844562961e-11 4.669528203587236e-11 2.7484964097572523e-12
5.654840148729818 3.364870601253342e-19 5.050776295754315e-11 4.7709062665731433e-11 2.7987002918117076e-12
5.67608639626678 3.399436943946092e-19 5.121833073424066e-11 4.839331547356386e-11 2.825015260676801e-12
5.686739436050992 3.417120748557791e-19 5.158139556121384e-11 4.8743212739816476e-11 2.8381828213973743e-12
5.6974124697621304 3.4350810974425932e-19 5.1949825060200836e-11 4.909846847855978e-11 2.8513565816410544e-12
5.718818669136295 3.471860871823077e-19 5.2703331961738826e-11 4.9825610820988077e-11 2.8777211407507477e-12
5.740305295436557 3.5128785219303264e-19 5.352634088923209e-11 5.0622016946818655e-11 2.9043239424134267e-12
5.7835210386641895 3.624082807262449e-19 5.563650816697685e-11 5.267723216815975e-11 2.959275998817112e-12
5.827062130521658 3.750959038764951e-19 5.8017819609685185e-11 5.500293952414213e-11 3.0148800855430767e-12
5.8489554468988025 3.8444227632440534e-19 5.96868811926382e-11 5.664182300868553e-11 3.0450581839526773e-12
5.870931020387893 3.9435402613508795e-19 6.145577359508892e-11 5.838046993933343e-11 3.075303655755491e-12
5.892989160043636 4.048761057004846e-19 6.333258611788755e-11 6.022697277966316e-11 3.105613338224425e-12
5.915130176081913 4.1687502624209246e-19 6.5454516381246e-11 6.231743490246486e-11 3.1370814787811276e-12
5.95966208400165 4.512388141606876e-19 7.138344740225452e-11 6.817379270340748e-11 3.209654698847042e-12
6.004529249263818 5.010210168542554e-19 7.98554096311806e-11 7.656359720843908e-11 3.2918124227415316e-12
6.027089341400364 5.35884349328438e-19 8.573302265968174e-11 8.239330660907174e-11 3.3397160506100073e-12
6.049734195844842 5.767985562860408e-19 9.262535626647142e-11 8.92348032701968e-11 3.3905529962746027e-12
6.095279466722835 6.953571942775988e-19 1.1250478862111389e-10 1.0898781173597419e-10 3.5169768851396894e-12
6.141167624020661 8.766962881949707e-19 1.4291228151218007e-10 1.3922940858748467e-10 3.6828729246953694e-12
6.164241091010745 9.922641650755614e-19 1.6235899583687022e-10 1.5857113111756797e-10 3.787864719302281e-12
6.187401249150058 1.1222642925955483e-18 1.8432016850661114e-10 1.804246639407697e-10 3.895504565841444e-12
6.1990139391386085 1.185317248801273e-18 1.950413302317427e-10 1.9109108663684806e-10 3.9502435948945984e-12
6.204828454712694 1.2183940520433992e-18 2.0067209388338058e-10 1.9669422038184617e-10 3.9778735015343925e-12
6.210648424152782 1.2422071511207143e-18 2.0478606605045772e-10 2.0078484422335987e-10 4.001221827097802e-12
6.233982942956859 1.3216999138637401e-18 2.187096292576472e-10 2.1462781822382988e-10 4.081811033817242e-12
6.239830258556775 1.3310373390187895e-18 2.2046134241122449e-10 2.163689632560838e-10 4.0923791551406665e-12
6.245683058788269 1.3305031083569887e-18 2.2057956120310024e-10 2.16476603426163e-10 4.102957776937202e-12
6.257405133728602 1.32523179575442e-18 2.2011799809615207e-10 2.1599688315441226e-10 4.12111494173983e-12
6.269149208991335 1.3057081580463459e-18 2.1728220357347052e-10 2.131561553500995e-10 4.1260482233709675e-12
6.280915325867298 1.2613208117062982e-18 2.1028966701097152e-10 2.061750141017573e-10 4.114652909214173e-12
6.304513850009849 1.1537844781153468e-18 1.9308375148693038e-10 1.8900662634189461e-10 4.077125145035757e-12
6.32820103803542 1.0231612439685459e-18 1.7186750879330026e-10 1.67843587266835e-10 4.023921526465232e-12
6.3519772230701035 9.040784287042058e-19 1.524349217940189e-10 1.4845917687328108e-10 3.975744920737795e-12
6.375842739491607 8.037020505187923e-19 1.3601979188846862e-10 1.3208704756526265e-10 3.932744323205972e-12
6.399797922933955 7.238079437462951e-19 1.2295863670818463e-10 1.1905036045735963e-10 3.9082762508249675e-12
6.42384311029221 6.571017566629368e-19 1.1204616250580693e-10 1.0815864150951227e-10 3.88752099629467e-12
6.447978639727206 6.084008893918672e-19 1.0413167719745712e-10 1.0025051015150305e-10 3.88116704595406e-12
6.472204850670314 5.675888726521313e-19 9.751143785084337e-11 9.363378015767026e-11 3.877657693173101e-12
6.496522083828205 5.406319628795565e-19 9.322922421072547e-11 8.934345235796575e-11 3.8857718527597275e-12
