Dust emission spectrum from A.P. Jones, M. Kohler, N. Ysard, M. Bocchio, and L. Verstraete (2017), A&A, 602A, 46J 
inside the DustPedia framework.

lambda    nu*dP/dnu     j_nu    j_nu(carb.) j_nu(sil)
 (um)   (erg s-1 H-1) (Jy cm2 sr-1 H-1)
0.9927057738263894 3.9994648420776115e-23 1.0538817023942476e-15 1.0538817023403286e-15 5.391887056968162e-26
1.0001793341362166 4.065464910436884e-23 1.0793381476820131e-15 1.0793381476170731e-15 6.49397332962421e-26
1.0077091589558085 4.1313711716996125e-23 1.105093065251878e-15 1.105093065173766e-15 7.811190520777414e-26
1.0114953028030835 4.164281043188316e-23 1.1180811748413605e-15 1.118081174755734e-15 8.562664258255765e-26
1.0152956718711033 4.197157791210871e-23 1.1311423549697719e-15 1.1311423548759379e-15 9.38337858060477e-26
1.0229392996569957 4.262766836917395e-23 1.1574730163570554e-15 1.1574730162444806e-15 1.1257471424366525e-25
1.0267826658714554 4.2954195129141636e-23 1.1707213730635547e-15 1.170721372940305e-15 1.2324933211057992e-25
1.0306404723013447 4.32802468890445e-23 1.1840399485020506e-15 1.1840399483671583e-15 1.3489213879420476e-25
1.03451277320114 4.3605792339937546e-23 1.1974281747253002e-15 1.1974281745777134e-15 1.4758662441415413e-25
1.0383996230291617 4.3930800349441147e-23 1.2108854767498866e-15 1.2108854765884636e-15 1.614230769262517e-25
1.0403485208654093 4.409309313456416e-23 1.2176398496156457e-15 1.2176398494468464e-15 1.6879974132587491e-25
1.0423010764483396 4.425523996774955e-23 1.2244112726953623e-15 1.2244112725188633e-15 1.7649910033808909e-25
1.0462171883269815 4.457908043350826e-23 1.2380049739236122e-15 1.2380049737306921e-15 1.9292016951046369e-25
1.0471985131304309 4.465994334592539e-23 1.241413939817938e-15 1.2414139396206891e-15 1.972487576015269e-25
1.048180758391296 4.474076642420436e-23 1.2448271032559014e-15 1.2448271030542309e-15 2.0167035461547825e-25
1.0501480137395462 4.490229117955897e-23 1.2516659851783774e-15 1.2516659849675767e-15 2.108002239007567e-25
1.0521189612883777 4.506365090994143e-23 1.2585215442728336e-15 1.258521544052508e-15 2.2032544659246947e-25
1.0531058218030118 4.514414376190554e-23 1.2619520892575907e-15 1.2619520890323486e-15 2.252416990287741e-25
1.0540936079674168 4.5224187850698193e-23 1.2653754061066846e-15 1.2653754058764204e-15 2.302640304213775e-25
1.058054026499678 4.5543911341399766e-23 1.2791091413513853e-15 1.279109141099938e-15 2.514472542816346e-25
1.0590464539527713 4.5623726673074347e-23 1.2825526436999332e-15 1.2825526434429053e-15 2.5702773815463524e-25
1.06003981227728 4.570349486140459e-23 1.2860001540124337e-15 1.286000153749707e-15 2.6272672563517678e-25
1.0620293250338977 4.586288796109656e-23 1.292907159443949e-15 1.2929071591694593e-15 2.7448983293347974e-25
1.0660195594769086 4.618108817336143e-23 1.3067688346700222e-15 1.3067688343704757e-15 2.995465325032708e-25
1.070024785945596 4.649848266841654e-23 1.3206935355658956e-15 1.3206935352391116e-15 3.2678424748900187e-25
1.0740450607676866 4.681504236799792e-23 1.3346806250588732e-15 1.33468062470249e-15 3.5638288758324194e-25
1.07808044048254 4.713073843008741e-23 1.3487294606074249e-15 1.3487294602188884e-15 3.8853632428119128e-25
1.0861967418109137 4.775886731681528e-23 1.3769936800524717e-15 1.376993679591113e-15 4.613590697691022e-25
1.0902777775684922 4.806997442338351e-23 1.3911708988987207e-15 1.3911708983962254e-15 5.024955155688009e-25
1.0943741465085532 4.838008281734869e-23 1.405406200385886e-15 1.405406199838763e-15 5.471231296264891e-25
1.1026131145906286 4.8997194000498526e-23 1.4340483564132731e-15 1.4340483557652793e-15 6.4799394895022825e-25
1.1109141095355224 4.9609984618723454e-23 1.462914714251492e-15 1.4629147134850156e-15 7.664758311642214e-25
1.1192775983109025 5.021767365752669e-23 1.4919828629575065e-15 1.4919828620520462e-15 9.054606166259097e-25
1.1277040513999907 5.0817439422006927e-23 1.5211685991333466e-15 1.5211685980650635e-15 1.0682831225261781e-24
1.1361939428280308 5.1412181518670475e-23 1.5505577104300715e-15 1.550557709171288e-15 1.2587834098322649e-24
1.1447477501889525 5.2001703346714896e-23 1.5801444902358774e-15 1.5801444887544995e-15 1.4813777829159449e-24
1.1533659546722406 5.25861339420953e-23 1.6099330053726013e-15 1.6099330036314606e-15 1.741140884203769e-24
1.1707974979042381 5.374161357541097e-23 1.6701747764667888e-15 1.670174774070466e-15 2.396322802225348e-24
1.1884924949847024 5.487426236201184e-23 1.7311494895589461e-15 1.7311494862772431e-15 3.2817030406491787e-24
1.2064549276569216 5.599294689047451e-23 1.7931386001116243e-15 1.7931385956393757e-15 4.472248753016999e-24
1.2246888378427687 5.708547353727439e-23 1.8557556890404876e-15 1.8557556829753577e-15 6.065129949160142e-24
1.2431983285522175 5.814930149189763e-23 1.9189088809160017e-15 1.918908872730141e-15 8.185861203174723e-24
1.2619875648066055 5.918405399667792e-23 1.9825731434332655e-15 1.982573132437525e-15 1.0995740931863138e-23
1.3004222497298317 6.11492240645527e-23 2.1107887707934224e-15 2.1107887512301895e-15 1.9563233384774246e-23
1.3400274889804893 6.297345889283763e-23 2.2399621951618843e-15 2.239962160988355e-15 3.4173529551340583e-23
1.3808389325824078 6.465017764087987e-23 2.3696389458172593e-15 2.3696388871801056e-15 5.863715426078916e-23
1.4228933163050095 6.618768824318177e-23 2.4998789812665246e-15 2.499878882387807e-15 9.887871807928443e-23
1.466228494730424 6.76230033151661e-23 2.6318767249933005e-15 2.6318765610492374e-15 1.6394406330886473e-22
1.5108834753276823 6.892860162043936e-23 2.7643935580547543e-15 2.7643932906665497e-15 2.6738820453945704e-22
1.5568984535646726 7.008226132388951e-23 2.896261871651882e-15 2.8962614422195307e-15 4.294323510879796e-22
1.6043148490894465 7.108628892293738e-23 3.0272262361309548e-15 3.027225555751979e-15 6.803789757807571e-22
1.6531753430134553 7.194392737370581e-23 3.1570575173752362e-15 3.1570564551638672e-15 1.0622113684579766e-21
1.7035239163302658 7.266538400719759e-23 3.2858311402686053e-15 3.285829505789921e-15 1.634478684788004e-21
1.755405889504358 7.330856626664087e-23 3.4158729567866476e-15 3.4158704766615698e-15 2.480125076732162e-21
1.8088679632656115 7.385947195346043e-23 3.5463573762531047e-15 3.5463536639075356e-15 3.712345569893098e-21
1.8639582606462262 7.430866116932055e-23 3.6765887393389135e-15 3.676583255600368e-15 5.4837385449947114e-21
1.9207263702978936 7.466332842729402e-23 3.8066441345466234e-15 3.806636137619016e-15 7.9969276073984e-21
1.979223391128241 7.493994086319228e-23 3.9371104099179045e-15 3.937098892476943e-15 1.151744096207994e-20
2.039501978296691 7.515812550329107e-23 4.0688296155543645e-15 4.068813227357772e-15 1.638819659178661e-20
2.1016163906111602 7.537261539754427e-23 4.204714042444171e-15 4.2046909946664175e-15 2.30477777539172e-20
2.1656225393682647 7.561516524658378e-23 4.3467143557237254e-15 4.346682307764568e-15 3.204795915794241e-20
2.231578038680979 7.58880443621342e-23 4.495260592141642e-15 4.49521651823152e-15 4.4073910123466914e-20
2.299542257339062 7.621021023890242e-23 4.651831631882571e-15 4.651771665626183e-15 5.996625638838862e-20
2.369576372248914 7.662348646830314e-23 4.819500757086014e-15 4.819420011553444e-15 8.074553256960821e-20
2.4417434235010123 7.717722581208449e-23 5.002172026962009e-15 5.0020643931412424e-15 1.0763382076638556e-19
2.5161083711144245 7.795597240481847e-23 5.206527527443925e-15 5.206385445216867e-15 1.4208222705778683e-19
2.5927381535095444 7.909806709811553e-23 5.44369723130743e-15 5.443511438049898e-15 1.8579325753324756e-19
2.6717017477616296 8.07684031160806e-23 5.727945855651087e-15 5.727705124179584e-15 2.407314715015288e-19
2.753070231689431 8.321519806902029e-23 6.081201231798607e-15 6.080892090653441e-15 3.0914114516761953e-19
2.836916847834745 8.70013000743532e-23 6.551515637180198e-15 6.55112206526502e-15 3.9357191517812383e-19
2.9233170693905177 9.336646000761857e-23 7.244964275393661e-15 7.244467474338154e-15 4.968010555062009e-19
2.967498994190263 9.874033106039251e-23 7.777760977481368e-15 7.77720548725551e-15 5.554902258588961e-19
3.0123486681368425 1.050087907351508e-22 8.396539370750458e-15 8.395919085284606e-15 6.202854658531586e-19
3.0578761833420214 1.1897609232349745e-22 9.657151179580962e-15 9.656459270302454e-15 6.919092785065466e-19
3.1040917844459814 1.369584458854316e-22 1.1284772461682957e-14 1.1284002118119478e-14 7.703435634785262e-19
3.127460860933648 1.5595491815891323e-22 1.2946738958440781e-14 1.294592642364307e-14 8.1253479771400215e-19
3.1510058709225794 1.8125530740393785e-22 1.5160355229116494e-14 1.5159498572011664e-14 8.566571048280211e-19
3.162844764501044 2.0479794081467284e-22 1.7193840573490607e-14 1.719296102742798e-14 8.795460626266406e-19
3.1747281389236908 2.3217117781512806e-22 1.9565199425650657e-14 1.9564296486211734e-14 9.029394389189186e-19
3.1986289994194426 3.085073394699086e-22 2.6193817893083476e-14 2.619286650339765e-14 9.513896858331742e-19
3.2227097969389145 4.884193441751581e-22 4.178144814055398e-14 4.1780445259243765e-14 1.0028813102124093e-18
3.2348180950136065 6.590182799417452e-22 5.658701147011968e-14 5.658598107028065e-14 1.0303998390140215e-18
3.240889293275058 7.865615293396414e-22 6.766534966392026e-14 6.766430474760467e-14 1.0449163155833485e-18
3.2469718861334385 9.341112682800117e-22 8.050939672879364e-14 8.050833679104055e-14 1.0599377530954084e-18
3.2714166318528037 1.7210867955134e-21 1.4945417893153255e-13 1.4945305679249039e-13 1.1221390422187606e-18
3.2744851364798273 1.770284100912793e-21 1.5387052139550573e-13 1.5386939189157236e-13 1.1295039334025043e-18
3.2775565192852394 1.8208938689207588e-21 1.5841790155315913e-13 1.5841676464422291e-13 1.1369089362485011e-18
3.283707930232385 1.772228967177809e-21 1.5447342849143627e-13 1.5447227827046812e-13 1.1502209681691199e-18
3.2898708863219004 1.617887015004374e-21 1.41285136816081e-13 1.4128397441617975e-13 1.1623999012002727e-18
3.29141343181113 1.5814888485874611e-21 1.3817135103009192e-13 1.381701855702517e-13 1.1654598402154401e-18
3.292184975758714 1.5636040062768157e-21 1.3664081263328006e-13 1.3663964564118485e-13 1.1669920952253956e-18
3.295272960557952 1.4507206314110476e-21 1.2689503072062966e-13 1.2689385775626617e-13 1.1729643635115087e-18
3.3076538914384823 1.0596397544498782e-21 9.303529426985507e-14 9.303409728413877e-14 1.1969857162503712e-18
3.310756385682612 9.80039664007256e-22 8.612719656188544e-14 8.612599351433228e-14 1.2030475531667074e-18
3.313861789986515 9.065941478045203e-22 7.974743730675807e-14 7.974622817468388e-14 1.2091320741600951e-18
3.3200813396944477 8.035983487260084e-22 7.08202071051347e-14 7.081898491510716e-14 1.2221900275379482e-18
3.345076488085796 6.198937258300079e-22 5.504181249264624e-14 5.5040532182169065e-14 1.2803104771893729e-18
3.3482140837626964 6.267876718918585e-22 5.57061440390332e-14 5.570485585764927e-14 1.2881813839342044e-18
3.3513546224236106 6.337577452027575e-22 5.6378445614452996e-14 5.6377149522957406e-14 1.2960914955779155e-18
3.3576445397418455 6.846763559846517e-22 6.102242760975733e-14 6.10211149910637e-14 1.3126186936222712e-18
3.3702598118196083 8.724601693496375e-22 7.805099141486519e-14 7.804964412089326e-14 1.3472939719185863e-18
3.382922481734668 9.152472256457717e-22 8.21863891846483e-14 8.218500805935972e-14 1.3811252885550842e-18
3.389271646505754 9.374131505247857e-22 8.4334806587251e-14 8.433340828838195e-14 1.3982988690526756e-18
3.395632727569191 9.613011056859828e-22 8.664621292406339e-14 8.66447969254294e-14 1.41599863395721e-18
3.421196662673239 1.0760084562714203e-21 9.771543218216568e-14 9.771394276800555e-14 1.4894141601240792e-18
3.4276182099114902 1.052914987400758e-21 9.579772201341033e-14 9.579621607603712e-14 1.5059373732318406e-18
3.4340518103208963 9.516843062387094e-22 8.674994015379822e-14 8.674841852074988e-14 1.5216330483538002e-18
3.4469541582030403 8.075075272708483e-22 7.388419061183298e-14 7.388263871455593e-14 1.5518972770476463e-18
3.472904465399547 7.671160132673982e-22 7.071691692328313e-14 7.071529549924358e-14 1.621424039559785e-18
3.4990501388274233 7.053349844270154e-22 6.551111994415154e-14 6.550942704571299e-14 1.6928984385389182e-18
3.5253949054701885 4.854346430947797e-22 4.5426363543180526e-14 4.542460069334632e-14 1.7628498342287288e-18
3.5519380250092896 2.7873463430432406e-22 2.6280023430422836e-14 2.6278189850984425e-14 1.8335794384162172e-18
3.578680990867387 1.9679125498494893e-22 1.8693826809746196e-14 1.869191562807918e-14 1.91118166701339e-18
3.605625307711299 1.6366301962414668e-22 1.566392468051702e-14 1.56619314995951e-14 1.9931809219187663e-18
3.660119384959845 1.3952769373999132e-22 1.3555798361532847e-14 1.3553631720152547e-14 2.1666413803027008e-18
3.715437065384467 1.2244543224477644e-22 1.2075967374879975e-14 1.2073616122611921e-14 2.351252268052354e-18
3.8285932144167436 1.13841773297802e-22 1.1569385982244907e-14 1.1566631756825855e-14 2.754225419052993e-18
3.94519561050918 1.1225661625669615e-22 1.1755738624719737e-14 1.175253543280659e-14 3.203191913143963e-18
4.06534921144712 1.1355122265300036e-22 1.2253470373258816e-14 1.2249770166322474e-14 3.70020693634217e-18
4.189162171576248 1.1651125019366394e-22 1.2955806964121085e-14 1.2951558086249774e-14 4.248877871308268e-18
4.316745939156006 1.206830011059703e-22 1.3828402874254559e-14 1.3823552502148885e-14 4.8503721056703424e-18
4.448215356677963 1.2591290149739915e-22 1.4867072864351452e-14 1.4861572678594304e-14 5.500185757145083e-18
4.58368876423945 1.322171762045104e-22 1.6086902575987718e-14 1.6080700204176112e-14 6.2023718116056e-18
4.723288106065518 1.3973764633221678e-22 1.7519725366021716e-14 1.75127607532359e-14 6.96461278581614e-18
4.867139040275056 1.4875997124546646e-22 1.9218932955669285e-14 1.9211159525297047e-14 7.773430372239006e-18
4.940699165968905 1.5419594350753859e-22 2.022231135272826e-14 2.021411271031278e-14 8.198642415482953e-18
5.015371051989984 1.5981963436083338e-22 2.127661988087631e-14 2.1267982651708363e-14 8.637229167950941e-18
5.091171501069577 1.6667970075886473e-22 2.2525263085749793e-14 2.2516165283029716e-14 9.097802720084448e-18
5.129500256944802 1.7019806691943327e-22 2.3173899120898158e-14 2.31645659477032e-14 9.333173194964546e-18
5.168117569889187 1.7386486525974398e-22 2.3851387393769712e-14 2.3841813660196695e-14 9.573733573017093e-18
5.20702561229733 1.783678343956549e-22 2.465333552731035e-14 2.464350184959766e-14 9.83367771268828e-18
5.246226572918644 1.82983873203121e-22 2.5481752429014562e-14 2.5471654517125163e-14 1.009791188940085e-17
5.265937586045735 1.8533541931105354e-22 2.590619113199291e-14 2.5895959494500466e-14 1.0231637492449764e-17
5.285722656980489 1.8771660335163839e-22 2.6337617865408684e-14 2.6327251430257693e-14 1.0366435150993828e-17
5.305582063971359 1.90127903222018e-22 2.677616207535645e-14 2.676565977080165e-14 1.0502304554806053e-17
5.3255160863122235 1.9271901418590926e-22 2.724304823666497e-14 2.7232408161697764e-14 1.0640074967206612e-17
5.365609099470188 1.9917874643061133e-22 2.8368178935449613e-14 2.8357253619277723e-14 1.092531617189158e-17
5.406003951863644 2.058824007700982e-22 2.9543708918854196e-14 2.953249362998623e-14 1.121528886796768e-17
5.446702915881641 2.128417951352661e-22 3.0772305406806014e-14 3.076079540764338e-14 1.150999916262375e-17
5.487708281020852 2.2036161111875637e-22 3.209936113299282e-14 3.2087550691344e-14 1.1810441648819065e-17
5.529022354014368 2.3082844883679974e-22 3.3877169103638843e-14 3.386504472099535e-14 1.2124382643491492e-17
5.570647458961463 2.4191019848502267e-22 3.5770852101186286e-14 3.575840850069513e-14 1.2443600491157724e-17
5.612585937458331 2.5365122128616285e-22 3.7789347624512704e-14 3.777657951341741e-14 1.2768111095290008e-17
5.654840148729818 2.6655787425121014e-22 4.001117285797541e-14 3.99980736661807e-14 1.3099191794725983e-17
5.67608639626678 2.7535810918666665e-22 4.1487407883220005e-14 4.147413564094248e-14 1.3272242277526082e-17
5.686739436050992 2.798939892964195e-22 4.224996316913324e-14 4.223660384218428e-14 1.3359326948956553e-17
5.6974124697621304 2.845232691520331e-22 4.3029359827949666e-14 4.301591304276107e-14 1.3446785188582932e-17
5.718818669136295 2.940710358522455e-22 4.4640393135094176e-14 4.4626770310890754e-14 1.3622824203429354e-17
5.740305295436557 3.04597730801499e-22 4.6412085903865924e-14 4.6398284452078795e-14 1.3801451787141382e-17
5.7835210386641895 3.319244806047501e-22 5.095666975097453e-14 5.094249795465553e-14 1.4171796318981034e-17
5.827062130521658 3.6340543236384167e-22 5.62096002706742e-14 5.61950488933836e-14 1.4551377290596878e-17
5.8489554468988025 3.8550631279622667e-22 5.98520789931648e-14 5.983732373457836e-14 1.4755258586444684e-17
5.870931020387893 4.092216062908909e-22 6.377272379569082e-14 6.375776264756193e-14 1.4961148128898477e-17
5.892989160043636 4.346812593844953e-22 6.799484559892966e-14 6.797967654308177e-14 1.5169055847879715e-17
5.915130176081913 4.636396146754217e-22 7.279713305767407e-14 7.27817487169327e-14 1.538434074136647e-17
5.95966208400165 5.446419583269988e-22 8.615930049725614e-14 8.614343267703797e-14 1.5867820218182145e-17
6.004529249263818 6.614208182402002e-22 1.054207879557403e-13 1.0540437950269055e-13 1.6408453049739846e-17
6.027089341400364 7.426131878304744e-22 1.18806368089373e-13 1.187896508324491e-13 1.671725692386742e-17
6.049734195844842 8.385600274033773e-22 1.346603947644791e-13 1.3464335098241656e-13 1.704378206252378e-17
6.095279466722835 1.115749496258985e-21 1.8052184152799434e-13 1.8050400778928967e-13 1.783373870468237e-17
6.141167624020661 1.5423570092560139e-21 2.514231690804871e-13 2.514043256289716e-13 1.8843451515559537e-17
6.164241091010745 1.8148051443611193e-21 2.9694707442712087e-13 2.969276049075188e-13 1.9469519602115426e-17
6.187401249150058 2.1251418151013637e-21 3.490323090953903e-13 3.490121944006743e-13 2.0114694715908737e-17
6.1990139391386085 2.276671526093975e-21 3.7462126143795623e-13 3.74600817961521e-13 2.0443476435132008e-17
6.204828454712694 2.3564899257720566e-21 3.8811890687309964e-13 3.8809829709011e-13 2.060978298967765e-17
6.210648424152782 2.4147536841374203e-21 3.9808811840215934e-13 3.980673650563413e-13 2.0753345817956286e-17
6.233982942956859 2.6126850687918088e-21 4.3233670273308115e-13 4.32315440805231e-13 2.1261927850295294e-17
6.239830258556775 2.6379767583715705e-21 4.369313169147668e-13 4.3690997841900216e-13 2.133849576463685e-17
6.245683058788269 2.64015264902438e-21 4.377018807195043e-13 4.3768046544179906e-13 2.1415277705158126e-17
6.257405133728602 2.6346752312049767e-21 4.376135853246804e-13 4.375920321058672e-13 2.155321881311653e-17
6.269149208991335 2.5956957410418735e-21 4.3194835457237897e-13 4.3192673364743537e-13 2.1620924943423383e-17
6.280915325867298 2.498003687134938e-21 4.164716531150868e-13 4.164500516184616e-13 2.160149662513421e-17
6.304513850009849 2.257111249977221e-21 3.7772349683611123e-13 3.7770201331855666e-13 2.148351755463245e-17
6.32820103803542 1.9585508402827217e-21 3.289914036020352e-13 3.2897012225883824e-13 2.1281343196936127e-17
6.3519772230701035 1.684750313985201e-21 2.840625040936652e-13 2.8404139824479465e-13 2.1105848870640626e-17
6.375842739491607 1.4543939589102732e-21 2.4614390804045327e-13 2.461229505693638e-13 2.0957471089498938e-17
6.399797922933955 1.2697723846045629e-21 2.1570567536545755e-13 2.156847650540374e-13 2.0910311420138275e-17
6.42384311029221 1.116263506229093e-21 1.903404471986575e-13 1.9031956387390276e-13 2.088332475473178e-17
6.447978639727206 1.0043890164052754e-21 1.719075607228784e-13 1.7188662468608307e-13 2.0936036795304828e-17
6.472204850670314 9.111819614501368e-22 1.5654053045400366e-13 1.5651952545082896e-13 2.100500317464936e-17
6.496522083828205 8.505891880857627e-22 1.466797665918489e-13 1.4665862733974473e-13 2.1139252104219768e-17
