Dust emission spectrum from A.P. Jones, M. Kohler, N. Ysard, M. Bocchio, and L. Verstraete (2017), A&A, 602A, 46J 
inside the DustPedia framework.

lambda    nu*dP/dnu     j_nu    j_nu(carb.) j_nu(sil)
 (um)   (erg s-1 H-1) (Jy cm2 sr-1 H-1)
0.9927057738263894 7.236992902689848e-22 1.906988735157847e-14 1.906988735157838e-14 8.92547885432315e-29
1.0001793341362166 7.3565772438590225e-22 1.953093835660033e-14 1.953093835660022e-14 1.075499913778366e-28
1.0077091589558085 7.475991676330788e-22 1.999739605578729e-14 1.999739605578716e-14 1.2943121737752435e-28
1.0114953028030835 7.535620470938751e-22 2.0232629118746998e-14 2.023262911874686e-14 1.4192087627479885e-28
1.0152956718711033 7.595189187792278e-22 2.046918560534212e-14 2.0469185605341966e-14 1.555661620564583e-28
1.0229392996569957 7.714064681134713e-22 2.094607107646373e-14 2.094607107646354e-14 1.867421386833728e-28
1.0267826658714554 7.773227313463537e-22 2.118601763155656e-14 2.1186017631556358e-14 2.0450914367258167e-28
1.0306404723013447 7.832303711365593e-22 2.1427235632071212e-14 2.142723563207099e-14 2.2389488494602552e-28
1.03451277320114 7.891288174004569e-22 2.1669714703877275e-14 2.1669714703877032e-14 2.450397483267385e-28
1.0383996230291617 7.950175032128362e-22 2.191344434303315e-14 2.1913444343032883e-14 2.6809563070558196e-28
1.0403485208654093 7.979580096760118e-22 2.2035774808001644e-14 2.2035774808001366e-14 2.8039103591219087e-28
1.0423010764483396 8.008958649156244e-22 2.2158413918270724e-14 2.2158413918270428e-14 2.932268252106982e-28
1.0462171883269815 8.06763342224211e-22 2.2404612673483293e-14 2.240461267348298e-14 3.206109695524768e-28
1.0471985131304309 8.08228445536048e-22 2.2466353149491282e-14 2.2466353149490954e-14 3.2783119805674008e-28
1.048180758391296 8.096928250897913e-22 2.2528169598774064e-14 2.2528169598773726e-14 3.352073071002281e-28
1.0501480137395462 8.1261937833135985e-22 2.2652029730215478e-14 2.2652029730215128e-14 3.504400616699262e-28
1.0521189612883777 8.15542932908009e-22 2.2776191689292428e-14 2.277619168929207e-14 3.6633565516346486e-28
1.0531058218030118 8.170013200173572e-22 2.2838322688315704e-14 2.2838322688315335e-14 3.7454107991426493e-28
1.0540936079674168 8.184515790679335e-22 2.2900322779942518e-14 2.2900322779942136e-14 3.829243713053457e-28
1.058054026499678 8.242443856723662e-22 2.3149055436148163e-14 2.3149055436147744e-14 4.18292614515917e-28
1.0590464539527713 8.256904875580721e-22 2.321142078734386e-14 2.3211420787343433e-14 4.276123540509812e-28
1.06003981227728 8.271357326452008e-22 2.3273858657780235e-14 2.3273858657779796e-14 4.3713098575848e-28
1.0620293250338977 8.300236187635597e-22 2.3398951241737787e-14 2.339895124173733e-14 4.567811736398377e-28
1.0660195594769086 8.3578874003966605e-22 2.3649998756026775e-14 2.364999875602628e-14 4.986514155520379e-28
1.070024785945596 8.415392152634659e-22 2.3902186431527793e-14 2.390218643152725e-14 5.441853480537529e-28
1.0740450607676866 8.472745143502299e-22 2.4155502616450574e-14 2.4155502616449984e-14 5.936871435477626e-28
1.07808044048254 8.52994111453178e-22 2.4409935557197265e-14 2.4409935557196618e-14 6.474847666680555e-28
1.0861967418109137 8.643740123502333e-22 2.49218128292754e-14 2.4921812829274633e-14 7.694089687355839e-28
1.0902777775684922 8.700103058829404e-22 2.5178565909482943e-14 2.5178565909482104e-14 8.383269529506242e-28
1.0943741465085532 8.756284361454168e-22 2.5436368888390533e-14 2.5436368888389625e-14 9.131271692728268e-28
1.1026131145906286 8.86808209467713e-22 2.595507520753193e-14 2.5955075207530852e-14 1.0823122566234574e-27
1.1109141095355224 8.979093857621784e-22 2.6477832287016135e-14 2.6477832287014848e-14 1.2812169449645747e-27
1.1192775983109025 9.08917792362385e-22 2.7004233196664513e-14 2.7004233196663005e-14 1.514757974534581e-27
1.1277040513999907 9.1978230684943e-22 2.75327521246943e-14 2.7532752124692514e-14 1.7886122496084976e-27
1.1361939428280308 9.305553941173702e-22 2.8064941006383793e-14 2.8064941006381698e-14 2.1093245687410446e-27
1.1447477501889525 9.412334606338777e-22 2.8600695191270604e-14 2.8600695191268124e-14 2.4844313452906956e-27
1.1533659546722406 9.518188140217417e-22 2.914008710957066e-14 2.914008710956774e-14 2.922603371029594e-27
1.1707974979042381 9.727455508434039e-22 3.0230857893003284e-14 3.0230857892999264e-14 4.0294737855185546e-27
1.1884924949847024 9.9325634637222e-22 3.1334821517597376e-14 3.133482151759184e-14 5.528297241922412e-27
1.2064549276569216 1.0135115248478597e-21 3.245706357298115e-14 3.2457063572973606e-14 7.547936367944937e-27
1.2246888378427687 1.0332899135621023e-21 3.359057071268677e-14 3.3590570712676515e-14 1.0255871192979422e-26
1.2431983285522175 1.0525452293738346e-21 3.4733665519484297e-14 3.473366551947043e-14 1.3869039050802404e-26
1.2619875648066055 1.0712702484958752e-21 3.588587601900706e-14 3.5885876018988384e-14 1.866700224668147e-26
1.3004222497298317 1.1068181320707204e-21 3.820586966106284e-14 3.8205869661029474e-14 3.334884388169058e-26
1.3400274889804893 1.1397942705587331e-21 4.054241455369793e-14 4.0542414553639425e-14 5.850449058366871e-26
1.3808389325824078 1.170076182623795e-21 4.2887091622859126e-14 4.2887091622758284e-14 1.0083210972550039e-25
1.4228933163050095 1.1978108975725423e-21 4.5240774619168706e-14 4.5240774618997895e-14 1.7081344425777651e-25
1.466228494730424 1.2236652435917574e-21 4.7624860120196993e-14 4.762486011991244e-14 2.8456075391793984e-25
1.5108834753276823 1.2471366478695577e-21 5.0016632201084695e-14 5.0016632200618314e-14 4.663901027308296e-25
1.5568984535646726 1.2678183771265832e-21 5.2394628205291784e-14 5.239462820453894e-14 7.528253308004918e-25
1.6043148490894465 1.285747896679666e-21 5.475387483088834e-14 5.475387482968938e-14 1.1989421327984796e-24
1.6531753430134553 1.3009793906688821e-21 5.708983252925081e-14 5.7089832527369e-14 1.881808957809672e-24
1.7035239163302658 1.3136933863251069e-21 5.940345181585211e-14 5.940345181294048e-14 2.911623098601893e-24
1.755405889504358 1.3249343096096742e-21 6.173640419119675e-14 6.173640418675353e-14 4.4432283249675716e-24
1.8088679632656115 1.3344439882058811e-21 6.407323469293797e-14 6.4073234686248e-14 6.689983937236517e-24
1.8639582606462262 1.3420474665223558e-21 6.64008276482251e-14 6.640082763828266e-14 9.942429930665965e-24
1.9207263702978936 1.3478712228811232e-21 6.872002886532133e-14 6.872002885073075e-14 1.4590559975164226e-23
1.979223391128241 1.3522099643165051e-21 7.104088775068789e-14 7.10408877295365e-14 2.115137903420322e-23
2.039501978296691 1.3554164511788597e-21 7.337807537156641e-14 7.337807534126538e-14 3.030102018468449e-23
2.1016163906111602 1.3584791509493026e-21 7.578370913941074e-14 7.578370909649489e-14 4.2915859940472883e-23
2.1656225393682647 1.3619711683493957e-21 7.829249080181831e-14 7.829249074170331e-14 6.011496197304114e-23
2.231578038680979 1.3659333920348937e-21 8.091164557362875e-14 8.091164549031798e-14 8.331075010214007e-23
2.299542257339062 1.3707089177164852e-21 8.366736007614645e-14 8.366735996187899e-14 1.1426747369086449e-22
2.369576372248914 1.3770565919557878e-21 8.66147651768185e-14 8.661476502164876e-14 1.551697204054082e-22
2.4417434235010123 1.3858724903704097e-21 8.982407091369643e-14 8.9824070705004e-14 2.086924700645738e-22
2.5161083711144245 1.3986913243151494e-21 9.34158686986464e-14 9.341586842055517e-14 2.780912692292571e-22
2.5927381535095444 1.4180246370995852e-21 9.759147187919894e-14 9.759147151190468e-14 3.672942572058406e-22
2.6717017477616296 1.4468709108282573e-21 1.0260941058138623e-13 1.026094101004022e-13 4.80984008299696e-22
2.753070231689431 1.4897447149390997e-21 1.0886758195346778e-13 1.088675813287567e-13 6.247110537076957e-22
2.836916847834745 1.5568745853083283e-21 1.1723834220935666e-13 1.1723834140431017e-13 8.050465348689168e-22
2.9233170693905177 1.6707885497628443e-21 1.2964830575970065e-13 1.296483047301248e-13 1.0295758659898301e-21
2.967498994190263 1.7675315343405075e-21 1.392281922353798e-13 1.3922819107588817e-13 1.1594916241482554e-21
3.0123486681368425 1.8805160059367326e-21 1.5036671283072557e-13 1.503667115264218e-13 1.3043038154807769e-21
3.0578761833420214 2.133334153418969e-21 1.7316025458386588e-13 1.731602531179155e-13 1.4659503837246798e-21
3.1040917844459814 2.4591175306972075e-21 2.0262044893286495e-13 2.0262044728782604e-13 1.6450389742019282e-21
3.127460860933648 2.8037617082231897e-21 2.327568207951577e-13 2.327568190528884e-13 1.7422692221274686e-21
3.1510058709225794 3.26295298822083e-21 2.7291629197424673e-13 2.7291629012961953e-13 1.844627228160758e-21
3.162844764501044 3.690395596609421e-21 3.0982769303639454e-13 3.098276911383154e-13 1.898079100558374e-21
3.1747281389236908 4.187474959147946e-21 3.5288093654280243e-13 3.528809345899022e-13 1.9529002817158595e-21
3.1986289994194426 5.573970989136749e-21 4.732580472206868e-13 4.732580451535387e-13 2.0671481088885084e-21
3.2227097969389145 8.842299216374341e-21 7.564075226711633e-13 7.564075204809387e-13 2.1902243786351345e-21
3.2348180950136065 1.1941702008655399e-20 1.025381615508856e-12 1.0253816132519225e-12 2.25693366123454e-21
3.240889293275058 1.4258911049288635e-20 1.2266480955239184e-12 1.2266480932313722e-12 2.2925457993539892e-21
3.2469718861334385 1.6939566273680417e-20 1.4599912321501026e-12 1.4599912298204084e-12 2.329693943603414e-21
3.2714166318528037 3.1238651286556244e-20 2.7126737542414527e-12 2.7126737517560472e-12 2.4854049398139265e-21
3.2744851364798273 3.213253538991395e-20 2.792913279657343e-12 2.7929132771536055e-12 2.5037373414442316e-21
3.2775565192852394 3.3052094408797256e-20 2.8755346632486375e-12 2.875534660726439e-12 2.522199051651799e-21
3.283707930232385 3.216777624868632e-20 2.8038514075260673e-12 2.8038514049715696e-12 2.5544983310707477e-21
3.2898708863219004 2.936331380122777e-20 2.564208606228766e-12 2.564208603645507e-12 2.5832593907527754e-21
3.29141343181113 2.8701951322725314e-20 2.5076290578988363e-12 2.5076290553083457e-12 2.590490265053359e-21
3.292184975758714 2.8376981190564745e-20 2.479818262419838e-12 2.4798182598257263e-12 2.5941118117094148e-21
3.295272960557952 2.632573712354331e-20 2.3027212467406636e-12 2.3027212441326387e-12 2.6080245792944807e-21
3.3076538914384823 1.921958947432223e-20 1.6874604364175506e-12 1.6874604337536067e-12 2.6639436337388247e-21
3.310756385682612 1.777330499013311e-20 1.5619418158857298e-12 1.5619418132076554e-12 2.6780743011692892e-21
3.313861789986515 1.6438881652120702e-20 1.4460259721733612e-12 1.4460259694810951e-12 2.692265698727207e-21
3.3200813396944477 1.4567500610783577e-20 1.2838172351840216e-12 1.2838172324607106e-12 2.7233111443897214e-21
3.345076488085796 1.1229122378406314e-20 9.970600163465928e-13 9.970600134814888e-13 2.8651040692200117e-21
3.3482140837626964 1.1354304188047878e-20 1.009120844150108e-12 1.0091208412653903e-12 2.8847176374187758e-21
3.3513546224236106 1.148087002186589e-20 1.021326541622443e-12 1.021326538717991e-12 2.9044520051881555e-21
3.3576445397418455 1.2405856513148041e-20 1.1056836918545256e-12 1.1056836889083038e-12 2.9462216405455404e-21
3.3702598118196083 1.5817608585695332e-20 1.4150560395738221e-12 1.4150560365387658e-12 3.0350560485967652e-21
3.382922481734668 1.6594664708560187e-20 1.4901499113140486e-12 1.4901499081933542e-12 3.1206951816313324e-21
3.389271646505754 1.699723389369994e-20 1.5291639893690077e-12 1.5291639862046675e-12 3.1643405118967848e-21
3.395632727569191 1.743102268405113e-20 1.5711332214568737e-12 1.571133218247357e-12 3.2095174627790068e-21
3.421196662673239 1.9513918590353324e-20 1.7721152445506284e-12 1.7721152411523033e-12 3.39832578179138e-21
3.4276182099114902 1.909416170026507e-20 1.73725060097837e-12 1.737250597538027e-12 3.4403429901979804e-21
3.4340518103208963 1.7254806016360106e-20 1.572846562113197e-12 1.5728465586333908e-12 3.479806354482218e-21
3.4469541582030403 1.4635219334333427e-20 1.3390727620811258e-12 1.3390727585258261e-12 3.555299432634396e-21
3.472904465399547 1.3901033532115473e-20 1.2814727061312426e-12 1.281472702396363e-12 3.734879820113084e-21
3.4990501388274233 1.2778139172903232e-20 1.1868264392119418e-12 1.1868264352912049e-12 3.920736923541921e-21
3.5253949054701885 8.782066307398978e-21 8.218147229808065e-13 8.218147188801098e-13 4.100696774427781e-21
3.5519380250092896 5.026199343526068e-21 4.738867017495423e-13 4.738866974664947e-13 4.283047437607179e-21
3.578680990867387 3.536917926000191e-21 3.3598307584344236e-13 3.3598307135502687e-13 4.488415464712676e-21
3.605625307711299 2.934473401563589e-21 2.808537349771037e-13 2.808537302679587e-13 4.709145143615499e-21
3.660119384959845 2.4948404352524663e-21 2.4238595921683996e-13 2.423859540316626e-13 5.185177315319679e-21
3.715437065384467 2.1834154717707733e-21 2.1533554596142836e-13 2.1533554025826899e-13 5.70315935667245e-21
3.8285932144167436 2.0249093732949692e-21 2.0578525298821446e-13 2.057852461093199e-13 6.878894574687257e-21
3.94519561050918 1.993919599124756e-21 2.0880727058810118e-13 2.0880726232569994e-13 8.26240128668094e-21
4.06534921144712 2.0152554688279282e-21 2.1746902063126602e-13 2.1746901074185514e-13 9.889410908669777e-21
4.189162171576248 2.0668562905542737e-21 2.298300900427275e-13 2.298300782354849e-13 1.180724254243967e-20
4.316745939156006 2.1404870451519438e-21 2.4526666503340276e-13 2.4526665096633574e-13 1.4067067011437074e-20
4.448215356677963 2.233364388145264e-21 2.63702850909914e-13 2.6370283419323105e-13 1.6716682987319224e-20
4.58368876423945 2.3457897206281654e-21 2.854129227592096e-13 2.854129029193272e-13 1.983988247812183e-20
4.723288106065518 2.4803440087804663e-21 3.1097522384039534e-13 3.1097520029190333e-13 2.3548491973066215e-20
4.867139040275056 2.6422250403897498e-21 3.413602831453138e-13 3.4136025522551456e-13 2.7919799265516175e-20
4.940699165968905 2.7399770113502267e-21 3.5933933774420744e-13 3.593393073374446e-13 3.040676289061599e-20
5.015371051989984 2.841162466993569e-21 3.782409719043217e-13 3.7824093878750687e-13 3.3116814872529445e-20
5.091171501069577 2.9648037819161572e-21 4.0066657716108007e-13 4.0066654105683965e-13 3.610424033787269e-20
5.129500256944802 3.028241692671019e-21 4.1232059076719953e-13 4.1232055306916856e-13 3.76980310839916e-20
5.168117569889187 3.0943814669430746e-21 4.244980203556357e-13 4.244979809872891e-13 3.9368346530416414e-20
5.20702561229733 3.175693119512191e-21 4.3893243572963495e-13 4.3893239456635067e-13 4.1163284189259554e-20
5.246226572918644 3.2590704635237455e-21 4.538477913189638e-13 4.5384774827879425e-13 4.3040169639798554e-20
5.265937586045735 3.301554363960271e-21 4.614913798094445e-13 4.614913357989118e-13 4.401053270775473e-20
5.285722656980489 3.344579761553383e-21 4.692619731413005e-13 4.692619281384681e-13 4.500283249971428e-20
5.305582063971359 3.388155398277034e-21 4.771619343785705e-13 4.771618883609952e-13 4.601757546196018e-20
5.3255160863122235 3.4349948673025195e-21 4.85576014686055e-13 4.855759676264413e-13 4.705961372692571e-20
5.365609099470188 3.551849658224312e-21 5.058747906691179e-13 5.058747414195344e-13 4.9249583545210424e-20
5.406003951863644 3.67315417564757e-21 5.270902096220681e-13 5.270901580798487e-13 5.154221912959447e-20
5.446702915881641 3.799124122388337e-21 5.492709159786967e-13 5.492708620362869e-13 5.394240978403187e-20
5.487708281020852 3.935283335123569e-21 5.732399590539566e-13 5.732399025902896e-13 5.646366694830449e-20
5.529022354014368 4.1249029346616765e-21 6.053847996545207e-13 6.053847404748263e-13 5.917969436944832e-20
5.570647458961463 4.3257284435815024e-21 6.396381523155533e-13 6.396380902868125e-13 6.202874096476803e-20
5.612585937458331 4.538568674623485e-21 6.761629157289887e-13 6.761628507115935e-13 6.50173951108048e-20
5.654840148729818 4.7726078851238634e-21 7.163834105874685e-13 7.163833424200924e-13 6.81673760807275e-20
5.67608639626678 4.932206672730405e-21 7.431212779616735e-13 7.43121208095982e-13 6.986569134636965e-20
5.686739436050992 5.014478821950299e-21 7.569349598123325e-13 7.56934889081182e-13 7.07311504847785e-20
5.6974124697621304 5.098452165755947e-21 7.710551529220481e-13 7.710550813143834e-13 7.160766460640236e-20
5.718818669136295 5.271666593202668e-21 8.002463367930928e-13 8.002462633986626e-13 7.339443012952087e-20
5.740305295436557 5.4626604456388154e-21 8.323550710621099e-13 8.323549958147628e-13 7.524734731035207e-20
5.7835210386641895 5.958513209736081e-21 9.147441890461017e-13 9.147441097825808e-13 7.926352087855756e-20
5.827062130521658 6.529917117624639e-21 1.0100125047520735e-12 1.0100124212013968e-12 8.35506768091549e-20
5.8489554468988025 6.931034589429377e-21 1.0760831041699741e-12 1.0760830181828858e-12 8.598708814353843e-20
5.870931020387893 7.361537954365511e-21 1.1472153949308631e-12 1.1472153064300353e-12 8.850082775789651e-20
5.892989160043636 7.82379414919955e-21 1.2238339327669843e-12 1.2238338416725464e-12 9.109443790069248e-20
5.915130176081913 8.349617644030065e-21 1.310992864659935e-12 1.3109927708116613e-12 9.384827418707665e-20
5.95966208400165 9.820408577768175e-21 1.5535335108165808e-12 1.553533410460486e-12 1.0035609509526378e-19
6.004529249263818 1.1941047846696154e-20 1.903228078555502e-12 1.903227970267029e-12 1.0828847334516622e-19
6.027089341400364 1.3415471421831737e-20 2.146263306326377e-12 2.1462631931443206e-12 1.1318205732822e-19
6.049734195844842 1.5158050652746968e-20 2.434159771578275e-12 2.434159652994763e-12 1.1858351110845062e-19
6.095279466722835 2.0192389045300345e-20 3.2670122348513333e-12 3.267012102062017e-12 1.3278931559537887e-19
6.141167624020661 2.794117109862124e-20 4.554754666576282e-12 4.554754513761305e-12 1.5281497824807855e-19
6.164241091010745 3.2889663593814264e-20 5.38156364247772e-12 5.381563476673053e-12 1.658046685230036e-19
6.187401249150058 3.8527137124339906e-20 6.327679187236591e-12 6.327679007249733e-12 1.7998685740850043e-19
6.1990139391386085 4.127976232689114e-20 6.792493540467225e-12 6.792493353186067e-12 1.8728115602087865e-19
6.204828454712694 4.272978220443082e-20 7.037686085025728e-12 7.03768589396731e-12 1.9105841917106794e-19
6.210648424152782 4.378819868167174e-20 7.218774211181452e-12 7.218774016951458e-12 1.942299943017213e-19
6.233982942956859 4.738398861209693e-20 7.840913412640728e-12 7.840913207102398e-12 2.0553833095044352e-19
6.239830258556775 4.78435452117081e-20 7.924384909337531e-12 7.924384702177083e-12 2.0716044953737175e-19
6.245683058788269 4.788319541005105e-20 7.93839124930285e-12 7.938391040507362e-12 2.0879548665580092e-19
6.257405133728602 4.7783946385790996e-20 7.936805208923086e-12 7.936804997233176e-12 2.1168991015430322e-19
6.269149208991335 4.707611114731177e-20 7.833910742399185e-12 7.83391052958591e-12 2.1281327384848805e-19
6.280915325867298 4.5301737141747746e-20 7.55278683277206e-12 7.552786621038984e-12 2.1173307761933732e-19
6.304513850009849 4.092630934088698e-20 6.848944054925181e-12 6.848943847398515e-12 2.0752666775766493e-19
6.32820103803542 3.5503059129809927e-20 5.963695715754896e-12 5.9636955149417305e-12 2.0081316519117303e-19
6.3519772230701035 3.0529494412310155e-20 5.1475192255406e-12 5.147519031005684e-12 1.9453491617207732e-19
6.375842739491607 2.6345386465468654e-20 4.458734405295055e-12 4.458734216215678e-12 1.8907937636741057e-19
6.399797922933955 2.299160695528073e-20 3.905755209482259e-12 3.90575502378203e-12 1.8570022815558247e-19
6.42384311029221 2.0203265502489493e-20 3.444973851745575e-12 3.444973668802478e-12 1.8294309759643795e-19
6.447978639727206 1.8171014351995786e-20 3.1100845410395937e-12 3.110084358961672e-12 1.8207792082913002e-19
6.472204850670314 1.6478002872798846e-20 2.830911299456937e-12 2.830911117780107e-12 1.8167683002302282e-19
6.496522083828205 1.5377307353537816e-20 2.651738212784135e-12 2.65173802986897e-12 1.8291516474609577e-19
