Dust emission spectrum from A.P. Jones, M. Kohler, N. Ysard, M. Bocchio, and L. Verstraete (2017), A&A, 602A, 46J 
inside the DustPedia framework.

lambda    nu*dP/dnu     j_nu    j_nu(carb.) j_nu(sil)
 (um)   (erg s-1 H-1) (Jy cm2 sr-1 H-1)
0.9927057738263894 1.1570775615189504e-22 3.048965095295898e-15 3.0489650952869075e-15 8.989992243726574e-27
1.0001793341362166 1.176183021802761e-22 3.1226421382424414e-15 3.1226421382316115e-15 1.0829607763943735e-26
1.0077091589558085 1.1952609606434413e-22 3.197182107048415e-15 3.1971821070353862e-15 1.3028902473141186e-26
1.0114953028030835 1.2047872599400627e-22 3.2347719595705796e-15 3.234771959556296e-15 1.4283853541545645e-26
1.0152956718711033 1.2143038668452526e-22 3.2725730218400327e-15 3.272573021824378e-15 1.5654624918706077e-26
1.0229392996569957 1.23329494342211e-22 3.348777150694429e-15 3.3487771506756433e-15 1.878543692465649e-26
1.0267826658714554 1.2427463701069748e-22 3.387119075115259e-15 3.38711907509469e-15 2.056908392764721e-26
1.0306404723013447 1.2521839257527948e-22 3.425663894118713e-15 3.4256638940961983e-15 2.251479141627246e-26
1.03451277320114 1.2616066996865581e-22 3.464409947765781e-15 3.464409947741144e-15 2.463656514398823e-26
1.0383996230291617 1.271013786303931e-22 3.5033555554238674e-15 3.503355555396918e-15 2.6949554310363006e-26
1.0403485208654093 1.2757111652963916e-22 3.5229026612488595e-15 3.5229026612206767e-15 2.818282286631322e-26
1.0423010764483396 1.2804042852428947e-22 3.5424990161646846e-15 3.542499016135214e-15 2.9470139018692134e-26
1.0462171883269815 1.2897773015535504e-22 3.581838609162647e-15 3.581838609130431e-15 3.2216023933732505e-26
1.0471985131304309 1.2921177196223822e-22 3.591703949555814e-15 3.591703949522875e-15 3.293990724738346e-26
1.048180758391296 1.2944569755722156e-22 3.601581412157518e-15 3.6015814121238386e-15 3.367937339230795e-26
1.0501480137395462 1.2991319458640712e-22 3.621372594093596e-15 3.62137259405839e-15 3.520633854097117e-26
1.0521189612883777 1.30380210215581e-22 3.641211934449165e-15 3.641211934412365e-15 3.679955079381837e-26
1.0531058218030118 1.3061317528278592e-22 3.651139565344192e-15 3.651139565306571e-15 3.7621903121053543e-26
1.0540936079674168 1.3084484038551274e-22 3.66104624335949e-15 3.6610462433210276e-15 3.8462031180305595e-26
1.058054026499678 1.3177018022841321e-22 3.700789789972893e-15 3.700789789930886e-15 4.200588303980158e-26
1.0590464539527713 1.3200117828082027e-22 3.710754743660315e-15 3.710754743617375e-15 4.2939563026920017e-26
1.06003981227728 1.3223203887202427e-22 3.720731267280054e-15 3.720731267236161e-15 4.38931081278752e-26
1.0620293250338977 1.326933422950578e-22 3.740718910011809e-15 3.740718909965948e-15 4.586141037034233e-26
1.0660195594769086 1.3361424061500742e-22 3.780831773568064e-15 3.780831773518008e-15 5.005461890519085e-26
1.070024785945596 1.3453278986940758e-22 3.821126533723563e-15 3.821126533668949e-15 5.461355836762348e-26
1.0740450607676866 1.3544890540501759e-22 3.861601326950595e-15 3.861601326891026e-15 5.956847246987627e-26
1.07808044048254 1.363625032478539e-22 3.9022542735113925e-15 3.902254273446441e-15 6.495195907038052e-26
1.0861967418109137 1.3818019791170806e-22 3.9840404499256e-15 3.9840404498484526e-15 7.714785932283724e-26
1.0902777775684922 1.3908045660013595e-22 4.025063174020237e-15 4.025063173936198e-15 8.403886242538102e-26
1.0943741465085532 1.3997780456096022e-22 4.0662533627543334e-15 4.066253362662818e-15 9.151597127836347e-26
1.1026131145906286 1.417634493875238e-22 4.149128245825389e-15 4.1491282457169696e-15 1.084207631665774e-25
1.1109141095355224 1.4353650229322276e-22 4.232649190495794e-15 4.2326491903675106e-15 1.2828392862625297e-25
1.1192775983109025 1.4529469848616338e-22 4.316751144194886e-15 4.316751144043293e-15 1.5159264125295424e-25
1.1277040513999907 1.4702986664107727e-22 4.4011901979522725e-15 4.4011901977733636e-15 1.7890896487342485e-25
1.1361939428280308 1.4875039462763717e-22 4.486214443859748e-15 4.486214443648867e-15 2.108804125856352e-25
1.1447477501889525 1.5045570888741017e-22 4.571807154813e-15 4.571807154564747e-15 2.4825202081557355e-25
1.1533659546722406 1.5214617929489576e-22 4.6579799145894445e-15 4.6579799142975636e-15 2.918802982541745e-25
1.1707974979042381 1.5548805488179968e-22 4.832237255791767e-15 4.832237255389783e-15 4.0198539575460977e-25
1.1884924949847024 1.5876335807708305e-22 5.008597737180225e-15 5.008597736629333e-15 5.50891711248564e-25
1.2064549276569216 1.6199772411976734e-22 5.187874337415981e-15 5.1878743366647005e-15 7.512811110117435e-25
1.2246888378427687 1.6515580608584649e-22 5.368946033560587e-15 5.368946032540979e-15 1.0196082441518524e-24
1.2431983285522175 1.6823021537966677e-22 5.551544834557213e-15 5.551544833180062e-15 1.3771499517677554e-24
1.2619875648066055 1.71219805401866e-22 5.735595399271965e-15 5.735595397420686e-15 1.8512777369507545e-24
1.3004222497298317 1.7689481634541528e-22 6.106170563330412e-15 6.106170560031526e-15 3.2988858685256243e-24
1.3400274889804893 1.8215865440615577e-22 6.479372525585622e-15 6.479372519813698e-15 5.771922541315103e-24
1.3808389325824078 1.8699182690548087e-22 6.8538576652659086e-15 6.853857655345463e-15 9.920446409362561e-24
1.4228933163050095 1.9141791780083254e-22 7.229767983283492e-15 7.229767966525879e-15 1.675761075140566e-23
1.466228494730424 1.9554357553811747e-22 7.610525412220469e-15 7.610525384386245e-15 2.783422158296798e-23
1.5108834753276823 1.9928856269602144e-22 7.992502472986643e-15 7.992502427506373e-15 4.548027035468769e-23
1.5568984535646726 2.0258797185034718e-22 8.372272918160475e-15 8.372272844980064e-15 7.318041216343416e-23
1.6043148490894465 2.0544788237273013e-22 8.749046111416782e-15 8.749045995248262e-15 1.1616852047835193e-22
1.6531753430134553 2.0787704496049303e-22 9.122101217428571e-15 9.122101035705938e-15 1.817226302359551e-22
1.7035239163302658 2.099043965228558e-22 9.491595097134176e-15 9.49159481693805e-15 2.801961284904277e-22
1.755405889504358 2.116969087506343e-22 9.864191628116495e-15 9.864191202060777e-15 4.260557160416216e-22
1.8088679632656115 2.132134077421811e-22 1.0237426849449866e-14 1.0237426210337366e-14 6.391124966258706e-22
1.8639582606462262 2.144260226488304e-22 1.0609211468573804e-14 1.0609210522404415e-14 9.461693902020847e-22
1.9207263702978936 2.1535504059122263e-22 1.0979687342895732e-14 1.0979685959944135e-14 1.3829515969805312e-21
1.979223391128241 2.160476261650529e-22 1.1350467430516303e-14 1.1350465434053844e-14 1.996462458862306e-21
2.039501978296691 2.1656021110395015e-22 1.1723903364937875e-14 1.1723900517273191e-14 2.8476646889313494e-21
2.1016163906111602 2.1705078117027223e-22 1.210832956633551e-14 1.210832555146036e-14 4.0148751535478334e-21
2.1656225393682647 2.1761095591843145e-22 1.2509298405535698e-14 1.2509292808434205e-14 5.5971014951760576e-21
2.231578038680979 2.1824732041433703e-22 1.292797287168738e-14 1.2927965153762821e-14 7.717924562906923e-21
2.299542257339062 2.1901473914635633e-22 1.336854587089778e-14 1.3368535341093173e-14 1.0529804605471066e-20
2.369576372248914 2.200344863193592e-22 1.3839834524364312e-14 1.383982030544018e-14 1.4218924132092247e-20
2.4417434235010123 2.214497580079605e-22 1.4353065599715777e-14 1.4353046590046056e-14 1.9009669725448363e-20
2.5161083711144245 2.235057693111721e-22 1.492751491082961e-14 1.4927489740532828e-14 2.5170296784351153e-20
2.5927381535095444 2.266037886203351e-22 1.5595354753563644e-14 1.5595321735682177e-14 3.3017881469695237e-20
2.6717017477616296 2.3122287470508563e-22 1.6397898878788623e-14 1.639785595743619e-14 4.2921352437020255e-20
2.753070231689431 2.380842711956553e-22 1.739872519519845e-14 1.739866988920087e-14 5.530599757263337e-20
2.836916847834745 2.488220428340869e-22 1.8737208560210826e-14 1.8737137900619122e-14 7.065959170172865e-20
2.9233170693905177 2.670350847734457e-22 2.072114171729834e-14 2.072105219631355e-14 8.952098479419909e-20
2.967498994190263 2.8249792001468785e-22 2.2252318529963388e-14 2.225221823512525e-14 1.0029483814102376e-19
3.0123486681368425 3.005558222872094e-22 2.4032547915991462e-14 2.4032435699518097e-14 1.1221647336369284e-19
3.0578761833420214 3.409520939452401e-22 2.7674685324772516e-14 2.767455990171315e-14 1.2542305936146097e-19
3.1040917844459814 3.9300573831977405e-22 3.238194113844072e-14 3.23818012137693e-14 1.399246714135423e-19
3.127460860933648 4.480670497901349e-22 3.719669246724569e-14 3.7196544726226604e-14 1.4774101908502395e-19
3.1510058709225794 5.214277997697981e-22 4.3612685245292984e-14 4.3612529318580475e-14 1.5592671251590573e-19
3.162844764501044 5.897132918517658e-22 4.950946422524359e-14 4.950930404758239e-14 1.6017766119496666e-19
3.1747281389236908 6.691237602447488e-22 5.6387446249052595e-14 5.6387281723602043e-14 1.6452545056663276e-19
3.1986289994194426 8.906219879744048e-22 7.561826634225993e-14 7.561809280227082e-14 1.735399891072628e-19
3.2227097969389145 1.4127410358364967e-21 1.2085181929990658e-13 1.2085163616669524e-13 1.8313321136856353e-19
3.2348180950136065 1.9078716818385218e-21 1.6382057983771902e-13 1.638203915739951e-13 1.882637238849266e-19
3.240889293275058 2.278045296319982e-21 1.959728842257932e-13 1.959726932553198e-13 1.9097047337029814e-19
3.2469718861334385 2.7062787613608182e-21 2.3324937601736953e-13 2.3324918224574575e-13 1.937716237956675e-19
3.2714166318528037 4.9905425216166215e-21 4.333642190129191e-13 4.333640136315038e-13 2.0538141524051748e-19
3.2744851364798273 5.133337539822741e-21 4.46182238966263e-13 4.4618203220758423e-13 2.0675867880446467e-19
3.2775565192852394 5.280233936212058e-21 4.593807437993485e-13 4.593805356556323e-13 2.081437161712751e-19
3.283707930232385 5.1389602457940036e-21 4.479290332970547e-13 4.4792882265853756e-13 2.1063851722285653e-19
3.2898708863219004 4.6909464038235485e-21 4.096460372786423e-13 4.0964582435312814e-13 2.1292551421859855e-19
3.29141343181113 4.5852936363649686e-21 4.0060745111930713e-13 4.006072376190474e-13 2.135002597892907e-19
3.292184975758714 4.533379619747439e-21 3.961646764339228e-13 3.9616446264583986e-13 2.1378808308696958e-19
3.295272960557952 4.205694252709366e-21 3.678735173704972e-13 3.6787330245973713e-13 2.149107600034625e-19
3.3076538914384823 3.0704938881987673e-21 2.695862449882026e-13 2.69586025559213e-13 2.1942898964263063e-19
3.310756385682612 2.839452031676391e-21 2.4953484255962406e-13 2.4953462198987783e-13 2.2056974616371953e-19
3.313861789986515 2.626280067580093e-21 2.310174906230379e-13 2.3101726890803537e-13 2.217150025935119e-19
3.3200813396944477 2.3273300518408053e-21 2.0510494643831917e-13 2.0510472226738896e-13 2.2417093023483533e-19
3.345076488085796 1.794031403571929e-21 1.5929624064045482e-13 1.59296005541501e-13 2.350989538062794e-19
3.3482140837626964 1.8140287004893548e-21 1.6122292861215543e-13 1.6122269203323145e-13 2.365789239340499e-19
3.3513546224236106 1.8342470735178406e-21 1.6317275750959165e-13 1.6317251944301765e-13 2.380665739916517e-19
3.3576445397418455 1.982010095441115e-21 1.7664852380790394e-13 1.7664828263364577e-13 2.4117425818609755e-19
3.3702598118196083 2.5270235240816826e-21 2.2606956547975015e-13 2.2606931778402564e-13 2.4769572439613895e-19
3.382922481734668 2.6511517175171946e-21 2.3806527978239e-13 2.3806502571473456e-13 2.5406765543033125e-19
3.389271646505754 2.715458581313371e-21 2.442974841163155e-13 2.4429722681206287e-13 2.5730425267909876e-19
3.395632727569191 2.784752185859592e-21 2.510017198664911e-13 2.5100145922621904e-13 2.60640272001555e-19
3.421196662673239 3.1174726962495183e-21 2.8310668940810085e-13 2.8310641491850566e-13 2.744895951604349e-19
3.4276182099114902 3.05041710711836e-21 2.775371359980944e-13 2.7753685838134454e-13 2.7761674992216e-19
3.4340518103208963 2.7565902992751436e-21 2.5127454758161984e-13 2.512742669895246e-13 2.805920953048388e-19
3.4469541582030403 2.3381269381761837e-21 2.1393065766051725e-13 2.1393037132137198e-13 2.863391452079249e-19
3.472904465399547 2.220845223710835e-21 2.0472956432716907e-13 2.0472926479527462e-13 2.995318944300427e-19
3.4990501388274233 2.0414712774827755e-21 1.8961071359640326e-13 1.8961040047620296e-13 3.131202002880001e-19
3.5253949054701885 1.4031326960530525e-21 1.3130339347821141e-13 1.3130306702069066e-13 3.2645752077292183e-19
3.5519380250092896 8.031733049535746e-22 7.572583624403451e-14 7.572549626802348e-14 3.399760110330155e-19
3.578680990867387 5.652836800330052e-22 5.369809351396837e-14 5.369773869592703e-14 3.5481804134320834e-19
3.605625307711299 4.690582813167528e-22 4.489281455390162e-14 4.489244402939501e-14 3.705245066140856e-19
3.660119384959845 3.9885007665230434e-22 3.875023710816833e-14 3.874983325987796e-14 4.038482903644152e-19
3.715437065384467 3.491249897457862e-22 3.443184370893733e-14 3.443140424852574e-14 4.394604115859573e-19
3.8285932144167436 3.238519649710556e-22 3.291206975542554e-14 3.2911552035109e-14 5.177203165426782e-19
3.94519561050918 3.1895632758649264e-22 3.3401748109289095e-14 3.340114237539104e-14 6.05733898041945e-19
4.06534921144712 3.2242923390460904e-22 3.4793787092862e-14 3.479308293591251e-14 7.041569494989972e-19
4.189162171576248 3.3074929179095664e-22 3.6778628422926535e-14 3.677781444215787e-14 8.13980768672449e-19
4.316745939156006 3.42604109789735e-22 3.9257124973116196e-14 3.9256189196773306e-14 9.357763428933019e-19
4.448215356677963 3.575527741523335e-22 4.2217779774406536e-14 4.221671073082932e-14 1.0690435772117167e-18
4.58368876423945 3.7564782708526787e-22 4.570518120773505e-14 4.5703966210251894e-14 1.2149974831576288e-18
4.723288106065518 3.973067198790525e-22 4.9812665384439887e-14 4.98112897380976e-14 1.375646342267976e-18
4.867139040275056 4.2336572372634436e-22 5.469641726804909e-14 5.469486838808697e-14 1.5488799621353622e-18
4.940699165968905 4.390958737255069e-22 5.75860380642331e-14 5.758439699779179e-14 1.6410664413184365e-18
5.015371051989984 4.553860066550481e-22 6.062506025257273e-14 6.062332328628583e-14 1.7369662869181465e-18
5.091171501069577 4.75275573247389e-22 6.422922093624295e-14 6.422738251489148e-14 1.838421351485468e-18
5.129500256944802 4.854837305831929e-22 6.610269553001381e-14 6.61008049079038e-14 1.890622109996459e-18
5.168117569889187 4.961270230521461e-22 6.8060431908748e-14 6.805848773491884e-14 1.9441738291660554e-18
5.20702561229733 5.091975174687277e-22 7.037937804404841e-14 7.037737616292419e-14 2.0018811242285556e-18
5.246226572918644 5.226018099973539e-22 7.277586657336284e-14 7.277380577026876e-14 2.0608030940907045e-18
5.265937586045735 5.294324680161318e-22 7.400408814944001e-14 7.400199742548909e-14 2.0907239509036945e-18
5.285722656980489 5.363506387313011e-22 7.52527901770687e-14 7.525066922333454e-14 2.1209537341779716e-18
5.305582063971359 5.433577383677196e-22 7.652235479841087e-14 7.652020330419777e-14 2.1514942130940884e-18
5.3255160863122235 5.508872686767161e-22 7.787424866674986e-14 7.787206615335079e-14 2.1825133990828534e-18
5.365609099470188 5.696517546902311e-22 8.113306865085145e-14 8.113082185023143e-14 2.2468006200272956e-18
5.406003951863644 5.891314615522244e-22 8.453917551929936e-14 8.453686306104838e-14 2.3124582509764193e-18
5.446702915881641 6.093610113676315e-22 8.81003805332874e-14 8.809800102918877e-14 2.3795040986306765e-18
5.487708281020852 6.31223025893482e-22 9.19482107647866e-14 9.194576260514833e-14 2.4481596382494698e-18
5.529022354014368 6.6163030658345495e-22 9.710311659230257e-14 9.710059654731112e-14 2.5200449914597276e-18
5.570647458961463 6.938325942567951e-22 1.0259585278988898e-13 1.0259325929629344e-13 2.5934935955397225e-18
5.612585937458331 7.279592478614876e-22 1.0845248421998129e-13 1.084498156916111e-13 2.6685283701814553e-18
5.654840148729818 7.654776881665956e-22 1.1490060155301536e-13 1.1489785611543136e-13 2.7454375839939497e-18
5.67608639626678 7.910412161268325e-22 1.1918388633197882e-13 1.1918110066872025e-13 2.785663258597148e-18
5.686739436050992 8.042184662123498e-22 1.2139667830245634e-13 1.2139387235816982e-13 2.8059442865176164e-18
5.6974124697621304 8.176677924646233e-22 1.2365850345577664e-13 1.2365567711772497e-13 2.8263380516613136e-18
5.718818669136295 8.454089012498631e-22 1.2833424958812966e-13 1.283313821224919e-13 2.8674656377067426e-18
5.740305295436557 8.759917242525361e-22 1.3347638227672656e-13 1.3347347298925454e-13 2.909287472028127e-18
5.7835210386641895 9.553522067936232e-22 1.4666458710352411e-13 1.4666159090516085e-13 2.9961983632818723e-18
5.827062130521658 1.0467867336951606e-21 1.6191134922479516e-13 1.6190826352968686e-13 3.0856951082907307e-18
5.8489554468988025 1.1109452025958534e-21 1.7248065158920352e-13 1.7247751785264335e-13 3.133736560215313e-18
5.870931020387893 1.1797985555162799e-21 1.8385873633957608e-13 1.8385555395866711e-13 3.1823809089410174e-18
5.892989160043636 1.2537247931383622e-21 1.9611340929144649e-13 1.9611017765694324e-13 3.2316345032364616e-18
5.915130176081913 1.3378070587400475e-21 2.100521943725046e-13 2.1004891171538607e-13 3.282657118560077e-18
5.95966208400165 1.5729360750120814e-21 2.4882965749872245e-13 2.4882626076689236e-13 3.3967318301888763e-18
6.004529249263818 1.9118825885586065e-21 3.047260736379081e-13 3.047225493852416e-13 3.5242526664444424e-18
6.027089341400364 2.1475121668024665e-21 3.435679909091305e-13 3.43564394023565e-13 3.5968855654522044e-18
6.049734195844842 2.4259768976574107e-21 3.89576173502612e-13 3.8957249977817605e-13 3.673724435946929e-18
6.095279466722835 3.2303924596985525e-21 5.226588921959674e-13 5.226550334312869e-13 3.858764680605726e-18
6.141167624020661 4.468432159269663e-21 7.284094198441573e-13 7.284053254826609e-13 4.0943614961423946e-18
6.164241091010745 5.2590540277959516e-21 8.60511505965528e-13 8.605072661197935e-13 4.23984573438448e-18
6.187401249150058 6.159717110878986e-21 1.0116690901787803e-12 1.0116646998790511e-12 4.3902997293409564e-18
6.1990139391386085 6.599492853619784e-21 1.085931944655845e-12 1.085927477598035e-12 4.467057810176347e-18
6.204828454712694 6.831152992205416e-21 1.1251054388229664e-12 1.1251009328821708e-12 4.5059407957386196e-18
6.210648424152782 7.000260557751571e-21 1.1540392596007667e-12 1.1540347199139528e-12 4.5396868140470735e-18
6.233982942956859 7.574794237660461e-21 1.2534467332896234e-12 1.2534420731316265e-12 4.66015799666892e-18
6.239830258556775 7.64823718216857e-21 1.2667868787988384e-12 1.2667821998785006e-12 4.678920338264747e-18
6.245683058788269 7.654602925709068e-21 1.2690304471531109e-12 1.2690257494047826e-12 4.697748328464409e-18
6.257405133728602 7.638812624220687e-21 1.2687894661611793e-12 1.268784734242748e-12 4.731918431485374e-18
6.269149208991335 7.525805385559694e-21 1.2523652914033954e-12 1.2523605411469879e-12 4.750256407226881e-18
6.280915325867298 7.242424219435436e-21 1.2074699500097594e-12 1.2074652010940144e-12 4.74891574515164e-18
6.304513850009849 6.543599124656124e-21 1.0950595117027448e-12 1.0950547833701594e-12 4.728332585263089e-18
6.32820103803542 5.6773958182152355e-21 9.536716538690065e-13 9.536669652704635e-13 4.68859854320879e-18
6.3519772230701035 4.883025418564745e-21 8.233175067167274e-13 8.233128518728552e-13 4.6548438722352036e-18
6.375842739491607 4.214746345873691e-21 7.133102627501861e-13 7.133056354892063e-13 4.627260979698994e-18
6.399797922933955 3.6791322550549514e-21 6.250015494569258e-13 6.249969268343338e-13 4.62262259198314e-18
6.42384311029221 3.2338290758192437e-21 5.514186113051427e-13 5.514139886535642e-13 4.622651578549948e-18
6.447978639727206 2.9093215289070073e-21 4.979488616701004e-13 4.979442207443424e-13 4.640925757965473e-18
6.472204850670314 2.638999440512879e-21 4.53378567359086e-13 4.533739043342144e-13 4.663024871695156e-18
6.496522083828205 2.4633091828131332e-21 4.247851031256675e-13 4.2478040293782425e-13 4.700187843253058e-18
