Dust emission spectrum from A.P. Jones, M. Kohler, N. Ysard, M. Bocchio, and L. Verstraete (2017), A&A, 602A, 46J 
inside the DustPedia framework.

lambda    nu*dP/dnu     j_nu    j_nu(carb.) j_nu(sil)
 (um)   (erg s-1 H-1) (Jy cm2 sr-1 H-1)
0.9927057738263894 6.410046227353303e-23 1.6890835892433208e-15 1.6890835892121744e-15 3.114610938650775e-26
1.0001793341362166 6.515850128736785e-23 1.7298896346318742e-15 1.7298896345943581e-15 3.751589312100698e-26
1.0077091589558085 6.621501210039057e-23 1.7711734832483644e-15 1.7711734832032343e-15 4.513007615685593e-26
1.0114953028030835 6.674256440432305e-23 1.791992520369766e-15 1.7919925203202914e-15 4.9474406413739283e-26
1.0152956718711033 6.726957904055053e-23 1.8129285063595694e-15 1.8129285063053506e-15 5.42193470677845e-26
1.0229392996569957 6.832127203435887e-23 1.8551338097616137e-15 1.8551338096965583e-15 6.505551881604094e-26
1.0267826658714554 6.88446739791858e-23 1.8763692581529637e-15 1.8763692580817355e-15 7.122831621810532e-26
1.0306404723013447 6.936730700598206e-23 1.8977170538248333e-15 1.897717053746872e-15 7.796147261203493e-26
1.03451277320114 6.988912072432124e-23 1.919176278455854e-15 1.9191762783705506e-15 8.530336209200507e-26
1.0383996230291617 7.041006502529489e-23 1.9407460023028997e-15 1.9407460022095932e-15 9.330630266561845e-26
1.0403485208654093 7.067019556458433e-23 1.9515720078189364e-15 1.951572007721363e-15 9.75731685830313e-26
1.0423010764483396 7.093009009112968e-23 1.9624252844220453e-15 1.962425284320019e-15 1.0202685740032566e-25
1.0462171883269815 7.144914640459273e-23 1.9842131728898256e-15 1.9842131727782993e-15 1.1152615687411217e-25
1.0471985131304309 7.157875334196152e-23 1.9896770021677158e-15 1.9896770020536855e-15 1.1403028693442223e-25
1.048180758391296 7.170829588949503e-23 1.9951475440806455e-15 1.9951475439640573e-15 1.165882725686001e-25
1.0501480137395462 7.196718475818332e-23 2.0061087050246724e-15 2.0061087049028025e-15 1.218702443060165e-25
1.0521189612883777 7.222580690958899e-23 2.0170965337421118e-15 2.017096533614731e-15 1.27381155666866e-25
1.0531058218030118 7.235481732321989e-23 2.022594854616299e-15 2.0225948544860736e-15 1.3022558366154967e-25
1.0540936079674168 7.248310763869342e-23 2.028081567036261e-15 2.0280815669031294e-15 1.3313144060405698e-25
1.058054026499678 7.299553731838742e-23 2.0500931147942966e-15 2.0500931146489084e-15 1.453883890002083e-25
1.0590464539527713 7.312345809936881e-23 2.055612097930077e-15 2.0556120977814596e-15 1.486175020831128e-25
1.06003981227728 7.32513027322185e-23 2.0611374880828825e-15 2.061137487930967e-15 1.5191525162900683e-25
1.0620293250338977 7.350676057950708e-23 2.0722074262177503e-15 2.0722074260590283e-15 1.5872223932614803e-25
1.0660195594769086 7.401672986100593e-23 2.0944234891880483e-15 2.0944234890148255e-15 1.7322273639224188e-25
1.070024785945596 7.452539796350872e-23 2.11674028221002e-15 2.1167402820210337e-15 1.8898666818061936e-25
1.0740450607676866 7.503271805708338e-23 2.139156774634294e-15 2.1391567744281753e-15 2.0611838176018324e-25
1.07808044048254 7.553864368879972e-23 2.1616719268793e-15 2.161671926654569e-15 2.247303340599483e-25
1.0861967418109137 7.654523280822351e-23 2.2069682079323123e-15 2.206968207665424e-15 2.668889327959394e-25
1.0902777775684922 7.704377040414617e-23 2.2296881288862255e-15 2.2296881285955196e-15 2.907066215513427e-25
1.0943741465085532 7.754069609960147e-23 2.2525007964959426e-15 2.252500796179394e-15 3.1654785318728014e-25
1.1026131145906286 7.852953540115469e-23 2.298400009820522e-15 2.298400009445559e-15 3.7496380423166194e-25
1.1109141095355224 7.951140222434213e-23 2.3446570515738247e-15 2.344657051130234e-15 4.435904757186503e-25
1.1192775983109025 8.048504260848367e-23 2.3912359046179008e-15 2.3912359040937934e-15 5.2410689269203195e-25
1.1277040513999907 8.144593090980428e-23 2.4380014820960337e-15 2.4380014814775837e-15 6.184497238677546e-25
1.1361939428280308 8.239871390530948e-23 2.485091225491012e-15 2.4850912247621625e-15 7.288495512119593e-25
1.1447477501889525 8.334307447454446e-23 2.532495888686872e-15 2.5324958878289996e-15 8.578722845311245e-25
1.1533659546722406 8.427921801732677e-23 2.5802219060730824e-15 2.5802219050646152e-15 1.0084670271900504e-24
1.1707974979042381 8.612988365852904e-23 2.6767331610659434e-15 2.6767331596775324e-15 1.3884111964484895e-24
1.1884924949847024 8.794370215643656e-23 2.7744098698524618e-15 2.7744098679504168e-15 1.902045448781082e-24
1.2064549276569216 8.973487704585869e-23 2.8737025061735616e-15 2.8737025035805762e-15 2.592985188560113e-24
1.2246888378427687 9.148383575358632e-23 2.9739903715453927e-15 2.9739903680276008e-15 3.517791701053364e-24
1.2431983285522175 9.318649075534653e-23 3.0751252397545515e-15 3.0751252350049884e-15 4.7495629546942466e-24
1.2619875648066055 9.484221357588671e-23 3.177065658764594e-15 3.1770656523823076e-15 6.382285294286235e-24
1.3004222497298317 9.798535345954908e-23 3.3823222935143486e-15 3.3823222821504728e-15 1.1363874983636103e-23
1.3400274889804893 1.0090102011862042e-22 3.589043296852867e-15 3.58904327698636e-15 1.9866506052886744e-23
1.3808389325824078 1.0357847412390903e-22 3.796487421824812e-15 3.796487387708525e-15 3.4116286732678276e-23
1.4228933163050095 1.060308376633122e-22 4.00473667348402e-15 4.004736615905559e-15 5.757846311514226e-23
1.466228494730424 1.0831724029819616e-22 4.215690071138755e-15 4.215689975588378e-15 9.55503762116631e-23
1.5108834753276823 1.1039331237628118e-22 4.427342995666197e-15 4.42734283968597e-15 1.5598022832647362e-22
1.5568984535646726 1.1222317943780818e-22 4.637802913052928e-15 4.637802662313233e-15 2.5073969531679683e-22
1.6043148490894465 1.1381028557461316e-22 4.846637623839386e-15 4.84663722620051e-15 3.9763887549289014e-22
1.6531753430134553 1.151595593899181e-22 5.053454348982864e-15 5.053453727585444e-15 6.213974209468528e-22
1.7035239163302658 1.1628710831834118e-22 5.258346968707224e-15 5.258346011579604e-15 9.571276197927992e-22
1.755405889504358 1.1728549169913814e-22 5.465013977511369e-15 5.4650125236996144e-15 1.4538117546215216e-21
1.8088679632656115 1.18131993316484e-22 5.672099390764298e-15 5.6720972123555344e-15 2.178408764788803e-21
1.8639582606462262 1.1881125982674903e-22 5.8784552582686425e-15 5.878452036925899e-15 3.221342743351908e-21
1.9207263702978936 1.193346099208374e-22 6.0841701337480616e-15 6.0841654308453714e-15 4.702902690379296e-21
1.979223391128241 1.197282472610726e-22 6.290148126929199e-15 6.290141345902628e-15 6.781026569256977e-21
2.039501978296691 1.2002349908828747e-22 6.497702868221506e-15 6.49769320811474e-15 9.660106762408215e-21
2.1016163906111602 1.2030794156507382e-22 6.7114626266862966e-15 6.711449024568324e-15 1.3602117973762192e-20
2.1656225393682647 1.2063238734941704e-22 6.934515426197865e-15 6.934496488779077e-15 1.8937418788983167e-20
2.231578038680979 1.2100053161342445e-22 7.167517966261096e-15 7.167491889001778e-15 2.6077259316995996e-20
2.299542257339062 1.2144281287999158e-22 7.41280619288418e-15 7.412770665340255e-15 3.552754392145214e-20
2.369576372248914 1.2202642998759154e-22 7.675276848084731e-15 7.675228943890754e-15 4.790419397531903e-20
2.4417434235010123 1.228307144756867e-22 7.961161567248651e-15 7.961097620197799e-15 6.394705085100553e-20
2.5161083711144245 1.239914855711847e-22 8.281149768008502e-15 8.281065230526624e-15 8.453748187812175e-20
2.5927381535095444 1.257309587149503e-22 8.653072027628726e-15 8.652961314383394e-15 1.1071324533289791e-19
2.6717017477616296 1.2831434808172074e-22 9.099816388086205e-15 9.099672711472467e-15 1.4367661373921362e-19
2.753070231689431 1.3214089810571484e-22 9.656594119561508e-15 9.656409312541429e-15 1.8480702008076506e-19
2.836916847834745 1.3811518379555358e-22 1.0400577756829728e-14 1.0400342078076181e-14 2.356787535454825e-19
2.9233170693905177 1.48229392875631e-22 1.150216743635357e-14 1.1501869417979567e-14 2.9801837400887312e-19
2.967498994190263 1.5680575835108261e-22 1.2351565922960918e-14 1.2351232382285721e-14 3.3354067519630904e-19
3.0123486681368425 1.668190699875606e-22 1.333891076296011e-14 1.333853796216734e-14 3.728007927695734e-19
3.0578761833420214 1.8919865079183423e-22 1.5357034661228633e-14 1.5356618418298913e-14 4.162429297213204e-19
3.1040917844459814 2.180312632045079e-22 1.7964815378048166e-14 1.796435150074091e-14 4.638773072570497e-19
3.127460860933648 2.485200983137475e-22 2.063112133158615e-14 2.0630631806401656e-14 4.895251844983704e-19
3.1510058709225794 2.8913849939966246e-22 2.4183801424053288e-14 2.4183285059015245e-14 5.163650380366004e-19
3.162844764501044 3.269434617304961e-22 2.744858534796619e-14 2.7448055052425227e-14 5.302955409674082e-19
3.1747281389236908 3.7090611178928866e-22 3.1256472545996017e-14 3.1255928008037526e-14 5.445379584874085e-19
3.1986289994194426 4.935253679202086e-22 4.1902774939264894e-14 4.1902200888513537e-14 5.740507513466821e-19
3.2227097969389145 7.825531981427326e-22 6.694289703173521e-14 6.694229159602255e-14 6.05435712654026e-19
3.2348180950136065 1.0566361794591548e-21 9.072871789244452e-14 9.072809567840867e-14 6.222140358572141e-19
3.240889293275058 1.2615475039204462e-21 1.0852685999287232e-13 1.0852622892766789e-13 6.31065204453312e-19
3.2469718861334385 1.4985985310721557e-21 1.2916155470154207e-13 1.291609144770143e-13 6.402245277582213e-19
3.2714166318528037 2.7630418176469953e-21 2.399345270014338e-13 2.399338488335398e-13 6.781678939691834e-19
3.2744851364798273 2.8420855857199915e-21 2.4702994886521274e-13 2.470292662004877e-13 6.8266472496599135e-19
3.2775565192852394 2.923399472235961e-21 2.5433597075469514e-13 2.5433528356822976e-13 6.871864653001857e-19
3.283707930232385 2.8452000212267402e-21 2.4799718894263267e-13 2.4799649361928093e-13 6.953233516824081e-19
3.2898708863219004 2.5972068027039576e-21 2.26806145952468e-13 2.2680544317732393e-13 7.027751440487349e-19
3.29141343181113 2.53872373756906e-21 2.218029479154323e-13 2.218022432678169e-13 7.046476153641195e-19
3.292184975758714 2.5099872191593758e-21 2.1934370335986857e-13 2.1934299777458594e-13 7.055852826402539e-19
3.295272960557952 2.3286020590164212e-21 2.036836200003601e-13 2.0368291075894343e-13 7.092414167192495e-19
3.3076538914384823 1.7002248502800635e-21 1.4927801510509296e-13 1.4927729115397213e-13 7.239511208488568e-19
3.310756385682612 1.5723329400474758e-21 1.381787219044571e-13 1.3817799424042284e-13 7.276640342261255e-19
3.313861789986515 1.4543322769599026e-21 1.2792854703609003e-13 1.27927815644889e-13 7.313912010145356e-19
3.3200813396944477 1.2888505913412401e-21 1.1358493450250143e-13 1.1358419511569804e-13 7.393868033842328e-19
3.345076488085796 9.936570655234063e-22 8.822913283934524e-14 8.822835787106433e-14 7.749682808869366e-19
3.3482140837626964 1.004727985186225e-21 8.929582436408871e-14 8.929504457731171e-14 7.797867769778107e-19
3.3513546224236106 1.015921268391205e-21 9.037532466011185e-14 9.037454003036324e-14 7.846297485921954e-19
3.3576445397418455 1.0977180903725921e-21 9.783516273078983e-14 9.783436798337977e-14 7.947474100788386e-19
3.3702598118196083 1.3994113806475403e-21 1.2519247238324504e-13 1.2519165640665971e-13 8.159765853057655e-19
3.382922481734668 1.468128625429336e-21 1.318334404100748e-13 1.3183260370615746e-13 8.367039173673926e-19
3.389271646505754 1.5037286070321591e-21 1.3528363791651372e-13 1.3528279068775786e-13 8.472287559241665e-19
3.395632727569191 1.5420900241487165e-21 1.3899522198626355e-13 1.389943639098867e-13 8.580763768493026e-19
3.421196662673239 1.726287527368249e-21 1.5676915067377527e-13 1.5676824758499783e-13 9.030887775184475e-19
3.4276182099114902 1.6891724109071653e-21 1.536865473368133e-13 1.5368563410116682e-13 9.132356465018563e-19
3.4340518103208963 1.5265277670199347e-21 1.391492867582019e-13 1.3914836387613506e-13 9.228820667933527e-19
3.4469541582030403 1.2948908179867173e-21 1.1847810303513537e-13 1.184771615369663e-13 9.414981690974553e-19
3.472904465399547 1.22997771851217e-21 1.1338602067115922e-13 1.1338503642427533e-13 9.842468838751815e-19
3.4990501388274233 1.1306950738596921e-21 1.0501832780073632e-13 1.0501729956753419e-13 1.0282332021359399e-18
3.5253949054701885 7.7735923559068625e-22 7.274429985973778e-14 7.274322851645801e-14 1.0713432797571978e-18
3.5519380250092896 4.452626910964206e-22 4.1980839531879925e-14 4.1979724547915876e-14 1.1149839640579119e-18
3.578680990867387 3.13590475623711e-22 2.9788956023192924e-14 2.978779314487193e-14 1.162878320999163e-18
3.605625307711299 2.6033731818693196e-22 2.4916466486887697e-14 2.4915252965517336e-14 1.2135213703617898e-18
3.660119384959845 2.2149875241701353e-22 2.151968791723475e-14 2.151836711659632e-14 1.3208006384334413e-18
3.715437065384467 1.9399804773508624e-22 1.9132719386020617e-14 1.913128418781448e-14 1.4351982061431572e-18
3.8285932144167436 1.800592338750854e-22 1.8298860919170095e-14 1.829717521726591e-14 1.6857019041865753e-18
3.94519561050918 1.7740192232531246e-22 1.8577886096355646e-14 1.8575920063309332e-14 1.9660330463116046e-18
4.06534921144712 1.7937866525409867e-22 1.9357001262792927e-14 1.935472341664393e-14 2.2778461489993862e-18
4.189162171576248 1.8404025559387653e-22 2.0464890910864478e-14 2.0462267104382095e-14 2.6238064823805723e-18
4.316745939156006 1.9066017031521824e-22 2.1846702709006438e-14 2.184369757287423e-14 3.0051361322071648e-18
4.448215356677963 1.9899429963718717e-22 2.3496104982996963e-14 2.3492685415570248e-14 3.4195674267204113e-18
4.58368876423945 2.0907170843219567e-22 2.5437816034898095e-14 2.5433945811643172e-14 3.870223254928637e-18
4.723288106065518 2.211235057282682e-22 2.7723546188268846e-14 2.7719183585082403e-14 4.362603186425805e-18
4.867139040275056 2.356125534167396e-22 3.043978719354832e-14 3.043489817419215e-14 4.889019356171105e-18
4.940699165968905 2.443527645206091e-22 3.2046093896069755e-14 3.2040926553612895e-14 5.167342456863678e-18
5.015371051989984 2.534031627451945e-22 3.3735296616738087e-14 3.372984105367092e-14 5.455563067168915e-18
5.091171501069577 2.644468279910867e-22 3.573761139221655e-14 3.573185211930972e-14 5.7592729068452376e-18
5.129500256944802 2.7011447428646674e-22 3.677835883513373e-14 3.6772443862773025e-14 5.914972360707626e-18
5.168117569889187 2.7602306910997696e-22 3.786580538353114e-14 3.785973100373385e-14 6.074379797297803e-18
5.20702561229733 2.8327582164560556e-22 3.91533254942841e-14 3.9147079107636875e-14 6.246386647237196e-18
5.246226572918644 2.907133199450101e-22 4.048381268240255e-14 4.0477391087410286e-14 6.421594992257142e-18
5.265937586045735 2.945031940325936e-22 4.116566634673342e-14 4.115915594135248e-14 6.51040538093855e-18
5.285722656980489 2.983415010937496e-22 4.1858867616949156e-14 4.1852267594064934e-14 6.600022884227742e-18
5.305582063971359 3.022290241771364e-22 4.256362794783434e-14 4.2556937498131324e-14 6.6904497029940584e-18
5.3255160863122235 3.064058481264092e-22 4.331398920737284e-14 4.330720699663934e-14 6.782210733498589e-18
5.365609099470188 3.16811470435866e-22 4.5122105863129895e-14 4.511513359330959e-14 6.972269820299424e-18
5.406003951863644 3.2761287720572225e-22 4.701178656373973e-14 4.700462066632362e-14 7.1658974161182e-18
5.446702915881641 3.3882921777618788e-22 4.898735308792011e-14 4.89799899690139e-14 7.363118906205634e-18
5.487708281020852 3.5094930459472977e-22 5.1121646871096374e-14 5.111408228152591e-14 7.564589570448535e-18
5.529022354014368 3.678015326606729e-22 5.397980526799224e-14 5.397202998296079e-14 7.775285031461782e-18
5.570647458961463 3.85647020846856e-22 5.702497303696798e-14 5.701698303591525e-14 7.990001052733316e-18
5.612585937458331 4.045573294076961e-22 6.027157085037031e-14 6.026336207747836e-14 8.208772891949671e-18
5.654840148729818 4.2534507701796e-22 6.384562995432579e-14 6.38371975080259e-14 8.432446299898197e-18
5.67608639626678 4.395068625809345e-22 6.62192245916703e-14 6.621067521937377e-14 8.549372296521955e-18
5.686739436050992 4.468065964975233e-22 6.744540064329143e-14 6.743679237925674e-14 8.608264034687747e-18
5.6974124697621304 4.542568820651431e-22 6.869871448812526e-14 6.869004704552517e-14 8.667442600085383e-18
5.718818669136295 4.696236182939863e-22 7.128951984479799e-14 7.12807331815743e-14 8.786663223690176e-18
5.740305295436557 4.865636454141184e-22 7.413854873191684e-14 7.412964098156432e-14 8.907750352502458e-18
5.7835210386641895 5.3051827001238455e-22 8.144456303019832e-14 8.143540400706005e-14 9.159023138282391e-18
5.827062130521658 5.8115571928021415e-22 8.989004502016149e-14 8.988062792216974e-14 9.41709799174008e-18
5.8489554468988025 6.166859480877799e-22 9.574405101489121e-14 9.573449539234067e-14 9.555622550521413e-18
5.870931020387893 6.5481423466800435e-22 1.0204565615063142e-13 1.020359604728176e-13 9.695677813776546e-18
5.892989160043636 6.957497217713503e-22 1.0883237748581125e-13 1.0882254021054341e-13 9.837275267799315e-18
5.915130176081913 7.42307473708166e-22 1.1655142102356658e-13 1.1654143712290558e-13 9.98390066098318e-18
5.95966208400165 8.724990793715277e-22 1.3802445664316042e-13 1.380141443172259e-13 1.0312325934475856e-17
6.004529249263818 1.0601657596055493e-21 1.689748896000506e-13 1.6896421031518619e-13 1.0679284864385661e-17
6.027089341400364 1.1906260354731631e-21 1.904813398755678e-13 1.9047045141043534e-13 1.0888465132444893e-17
6.049734195844842 1.3447976229335051e-21 2.1595469956195237e-13 2.1594358993688106e-13 1.1109625071267712e-17
6.095279466722835 1.79015583201017e-21 2.8963690192116655e-13 2.8962525886563606e-13 1.1643055530451892e-17
6.141167624020661 2.475567994061698e-21 4.035480414754629e-13 4.0353571854738924e-13 1.2322928073731342e-17
6.164241091010745 2.9132803868195696e-21 4.766848333772642e-13 4.766720899496421e-13 1.2743427622249689e-17
6.187401249150058 3.4118986638824926e-21 5.603686589723341e-13 5.603554817126433e-13 1.3177259690629486e-17
6.1990139391386085 3.655364716923618e-21 6.014821749974304e-13 6.014687765567216e-13 1.3398440708925861e-17
6.204828454712694 3.7836135695193394e-21 6.231692088184721e-13 6.231556984457758e-13 1.3510372696345301e-17
6.210648424152782 3.87723411843251e-21 6.391876922895358e-13 6.391740850057398e-13 1.3607283796160154e-17
6.233982942956859 4.195303047290672e-21 6.942220124794643e-13 6.942080605850542e-13 1.3951894410069962e-17
6.239830258556775 4.235961456227974e-21 7.016074768651112e-13 7.015934721687568e-13 1.4004696354525652e-17
6.245683058788269 4.239485517079784e-21 7.028498086255112e-13 7.028357509638234e-13 1.4057661687749402e-17
6.257405133728602 4.230743752690218e-21 7.02716949807131e-13 7.027027964852618e-13 1.415332186925931e-17
6.269149208991335 4.168182182931357e-21 6.93624991175752e-13 6.936107885662721e-13 1.420260947982281e-17
6.280915325867298 4.011300371164928e-21 6.687711892996803e-13 6.687569949836142e-13 1.419431606626944e-17
6.304513850009849 3.624425295001459e-21 6.065410362307226e-13 6.065269108239436e-13 1.412540677893495e-17
6.32820103803542 3.14489294310829e-21 5.282695359503553e-13 5.282555351720143e-13 1.4000778340939938e-17
6.3519772230701035 2.7051288075593055e-21 4.561065557266648e-13 4.560926619438541e-13 1.389378281074063e-17
6.375842739491607 2.3351633253606216e-21 3.9520669299786634e-13 3.951928882741176e-13 1.3804723748775108e-17
6.399797922933955 2.038651506292812e-21 3.4632088816189417e-13 3.4630710534537027e-13 1.3782816523857036e-17
6.42384311029221 1.7921307123592933e-21 3.0558641335615674e-13 3.055726390005489e-13 1.3774355607885948e-17
6.447978639727206 1.6124877801977006e-21 2.759875272046828e-13 2.7597370826338735e-13 1.3818941295465538e-17
6.472204850670314 1.4628393513774912e-21 2.513149488486165e-13 2.5130107438647954e-13 1.3874462136957129e-17
6.496522083828205 1.3655828911541694e-21 2.3548780368005307e-13 2.3547383010723695e-13 1.3973572816118896e-17
