Dust emission spectrum from A.P. Jones, M. Kohler, N. Ysard, M. Bocchio, and L. Verstraete (2017), A&A, 602A, 46J 
inside the DustPedia framework.

lambda    nu*dP/dnu     j_nu    j_nu(carb.) j_nu(sil)
 (um)   (erg s-1 H-1) (Jy cm2 sr-1 H-1)
0.9927057738263894 6.221156426313759e-20 1.63931005379675e-12 1.6393099737558307e-12 8.004091942384904e-20
1.0001793341362166 6.325472501965757e-20 1.679346378309178e-12 1.679346282011516e-12 9.629766245279821e-20
1.0077091589558085 6.430239384437754e-20 1.7200132005394981e-12 1.7200130848386803e-12 1.1570081744985944e-19
1.0114953028030835 6.482787773011776e-20 1.7405844836895737e-12 1.7405843569308344e-12 1.2675873942048262e-19
1.0152956718711033 6.53544402482952e-20 1.761315135804333e-12 1.7613149969775e-12 1.388268327034269e-19
1.0229392996569957 6.641022603739885e-20 1.8032430013002722e-12 1.8032428349466775e-12 1.6635359492693896e-19
1.0267826658714554 6.693825296150857e-20 1.8244095409532315e-12 1.8244093589376703e-12 1.8201556126255035e-19
1.0306404723013447 6.74672739586239e-20 1.8457368736444e-12 1.8457366745591752e-12 1.9908522494562265e-19
1.03451277320114 6.799727577356489e-20 1.8672256470216746e-12 1.8672254293390447e-12 2.176826302966916e-19
1.0383996230291617 6.85282456791547e-20 1.8888765235321332e-12 1.888876285594668e-12 2.379374645809869e-19
1.0403485208654093 6.879408983617901e-20 1.899762961671349e-12 1.8997627129415904e-12 2.4872975853190523e-19
1.0423010764483396 6.906017148882093e-20 1.9106901810228078e-12 1.9106899210330265e-12 2.5998978113975e-19
1.0462171883269815 6.959304156909864e-20 1.9326673133494363e-12 1.932667029358664e-12 2.8399077254738146e-19
1.0471985131304309 6.972640532182294e-20 1.9381872222595198e-12 1.938186931945174e-12 2.9031434565828678e-19
1.048180758391296 6.985982722955253e-20 1.9437174039351096e-12 1.943717107162592e-12 2.9677251709258817e-19
1.0501480137395462 7.012684485202727e-20 1.9548086309930268e-12 1.95480832088943e-12 3.101035969331903e-19
1.0521189612883777 7.03940931434032e-20 1.965941086033427e-12 1.9659407620270054e-12 3.240064212770585e-19
1.0531058218030118 7.052762803143073e-20 1.9715179008390035e-12 1.9715175696590425e-12 3.3117996052184162e-19
1.0540936079674168 7.066064561704275e-20 1.9770889736839268e-12 1.977088635177051e-12 3.385068761829433e-19
1.058054026499678 7.119326196110952e-20 1.999475879321353e-12 1.9994755099266445e-12 3.6939470829104736e-19
1.0590464539527713 7.132655183385417e-20 2.0050983181630047e-12 2.005097940635302e-12 3.775277024135907e-19
1.06003981227728 7.145989574424436e-20 2.0107310657858616e-12 2.01073067995414e-12 3.8583172116213286e-19
1.0620293250338977 7.172674514329608e-20 2.022027535597907e-12 2.022027132631353e-12 4.0296655461434787e-19
1.0660195594769086 7.226108664931917e-20 2.044744715374407e-12 2.0447442759312855e-12 4.394431219930188e-19
1.070024785945596 7.279627859636845e-20 2.067628211463783e-12 2.067627732401621e-12 4.790621617275345e-19
1.0740450607676866 7.333231374464685e-20 2.0906788372923646e-12 2.0906783152126705e-12 5.220796938730214e-19
1.07808044048254 7.386918550875396e-20 2.1138974275677773e-12 2.113896858796465e-12 5.687713122596413e-19
1.0861967418109137 7.494460130488686e-20 2.16081846469057e-12 2.160817790305012e-12 6.743855581784936e-19
1.0902777775684922 7.548128369954439e-20 2.1844689237705104e-12 2.18446818980011e-12 7.3397040064820305e-19
1.0943741465085532 7.601875148448916e-20 2.208289412923119e-12 2.2082886143664386e-12 7.985566809088661e-19
1.1026131145906286 7.709603196915763e-20 2.2564442757728287e-12 2.256443331425021e-12 9.443478075157905e-19
1.1109141095355224 7.81764275485227e-20 2.3052909015655394e-12 2.3052897862719975e-12 1.1152935416293993e-18
1.1192775983109025 7.925909765171889e-20 2.3548126947556475e-12 2.3548113792892915e-12 1.3154663559594564e-18
1.1277040513999907 8.034020310696743e-20 2.404902639808917e-12 2.4049010902570873e-12 1.5495518290794888e-18
1.1361939428280308 8.142432683631298e-20 2.455704349887859e-12 2.4557025269542158e-12 1.8229336432809025e-18
1.1447477501889525 8.251150413590432e-20 2.5072274608416367e-12 2.5072253190526244e-12 2.141789012347568e-18
1.1533659546722406 8.360215699640636e-20 2.5594935732880306e-12 2.5594910600884117e-12 2.51319961880306e-18
1.1707974979042381 8.57972048154169e-20 2.6663942118706366e-12 2.6663907645836877e-12 3.447286947733517e-18
1.1884924949847024 8.80068948810945e-20 2.77640344659184e-12 2.776398741818597e-12 4.704773243249045e-18
1.2064549276569216 9.024606949947751e-20 2.8900731201807628e-12 2.8900667310381512e-12 6.389142611480983e-18
1.2246888378427687 9.250086465408848e-20 3.0070523232307563e-12 3.007043689355954e-12 8.633874802682833e-18
1.2431983285522175 9.476968920740501e-20 3.127370296736548e-12 3.1273586862099563e-12 1.1610526592545938e-17
1.2619875648066055 9.70561409794705e-20 3.2512287604017766e-12 3.251213221927405e-12 1.5538474371527995e-17
1.3004222497298317 1.0166933395523062e-19 3.509488333330285e-12 3.509460895872639e-12 2.7437457646658062e-17
1.3400274889804893 1.0635614136320361e-19 3.783081635745517e-12 3.783034078100197e-12 4.7557645319704193e-17
1.3808389325824078 1.111353586550299e-19 4.073471778982477e-12 4.073390824071501e-12 8.095491097675134e-17
1.4228933163050095 1.1604746969508814e-19 4.383060324663924e-12 4.3829249215517575e-12 1.3540311216574321e-16
1.466228494730424 1.211758373554214e-19 4.7161446598421326e-12 4.715922024186609e-12 2.226356555228582e-16
1.5108834753276823 1.2651208376935398e-19 5.073789126230884e-12 5.073429100636861e-12 3.6002559402192263e-16
1.5568984535646726 1.3205269777913774e-19 5.457289568025311e-12 5.456716369096211e-12 5.731989290980407e-16
1.6043148490894465 1.3782852318889456e-19 5.8694598889093965e-12 5.868559712401194e-12 9.001765082016512e-16
1.6531753430134553 1.4387155567703851e-19 6.3133997957507934e-12 6.312007023360611e-12 1.3927723901848989e-15
1.7035239163302658 1.5021818219078125e-19 6.792664590172964e-12 6.790541035257984e-12 2.1235549149794504e-15
1.755405889504358 1.5697587559420362e-19 7.314420068724599e-12 7.311227839290205e-12 3.1922294343934448e-15
1.8088679632656115 1.6414049732296101e-19 7.881194490395539e-12 7.87646162109577e-12 4.732869299765491e-15
1.8639582606462262 1.7170336966369512e-19 8.495411779437667e-12 8.48848827311484e-12 6.923506322827783e-15
1.9207263702978936 1.7967824218566253e-19 9.160737153417155e-12 9.150740363161753e-12 9.996790255403887e-15
1.979223391128241 1.8808809024966717e-19 9.88156074816521e-12 9.867308158327674e-12 1.4252589837536984e-14
2.039501978296691 1.9694996420139755e-19 1.0662264948184847e-11 1.0642193523029381e-11 2.007142515546558e-14
2.1016163906111602 2.0633770546619876e-19 1.1510693148744077e-11 1.1482761876807315e-11 2.7931271936764984e-14
2.1656225393682647 2.1627931253197513e-19 1.2432749297883303e-11 1.2394327471153059e-11 3.842182673024844e-14
2.231578038680979 2.2673699382769744e-19 1.3430862288011228e-11 1.337860191365377e-11 5.226037435745853e-14
2.299542257339062 2.3770377242754577e-19 1.4509314751002042e-11 1.4439006850072428e-11 7.030790092961707e-14
2.369576372248914 2.4919266771654423e-19 1.5673839785624738e-11 1.558025397646404e-11 9.358580916069488e-14
2.4417434235010123 2.6122270768102564e-19 1.693091332864026e-11 1.6807626302359414e-11 1.232870262808466e-13
2.5161083711144245 2.7385569114505893e-19 1.8290288101207752e-11 1.8129496723225002e-11 1.6079137798274793e-13
2.5927381535095444 2.8720783083549165e-19 1.9766253852823e-11 1.9558581674079307e-11 2.0767217874369763e-13
2.6717017477616296 3.013717289810893e-19 2.13727259600103e-11 2.1107038026808466e-11 2.6568793320183653e-13
2.753070231689431 3.164926391457086e-19 2.312865283853232e-11 2.2791873917652957e-11 3.367789208793588e-13
2.836916847834745 3.3301020270328864e-19 2.5076884465940124e-11 2.4653813364406587e-11 4.2307110153353774e-13
2.9233170693905177 3.5190828937965e-19 2.7307054209428295e-11 2.6780308511803732e-11 5.267456976245657e-13
2.967498994190263 3.6317535942617065e-19 2.860726825799253e-11 2.802265208242835e-11 5.846161755641741e-13
3.0123486681368425 3.751696001653123e-19 2.999869150423684e-11 2.935067879410213e-11 6.480127101347134e-13
3.0578761833420214 3.9392424369982236e-19 3.1974373173794025e-11 3.1256787617219e-11 7.175855565750136e-13
3.1040917844459814 4.1559308752466014e-19 3.424303918640585e-11 3.3450001738125765e-11 7.930374482800901e-13
3.127460860933648 4.349472002086605e-19 3.61075362565241e-11 3.527420205442555e-11 8.333342020985422e-13
3.1510058709225794 4.592600659406006e-19 3.841292065832058e-11 3.7537656931367014e-11 8.752637269535769e-13
3.162844764501044 4.808920190897091e-19 4.037335862070381e-11 3.947642467099219e-11 8.96933949711637e-13
3.1747281389236908 5.05262740199219e-19 4.2578783324345537e-11 4.1659758454174046e-11 9.190248701714968e-13
3.1986289994194426 5.708011493207364e-19 4.846387571900367e-11 4.7499272025360896e-11 9.646036936427687e-13
3.2227097969389145 7.212072227248732e-19 6.169510387792064e-11 6.068227829769176e-11 1.0128255802288909e-12
3.2348180950136065 8.61789575174658e-19 7.399809392168708e-11 7.295955303465426e-11 1.0385408870328064e-12
3.240889293275058 9.666843711610912e-19 8.316073638152376e-11 8.210863117495465e-11 1.052105206569104e-12
3.2469718861334385 1.0882190858440793e-18 9.37916767360988e-11 9.272553650582217e-11 1.0661402302766222e-12
3.2714166318528037 1.724447960185186e-18 1.4974605271011537e-10 1.4862197403502793e-10 1.1240786750874322e-12
3.2744851364798273 1.7642198018389546e-18 1.5334342133291764e-10 1.5221253219527984e-10 1.1308891376377693e-12
3.2775565192852394 1.805042737634728e-18 1.5703885195645475e-10 1.5590111990110448e-10 1.1377320553502775e-12
3.283707930232385 1.7660081511196335e-18 1.539312012723139e-10 1.5278126729748103e-10 1.1499339748328776e-12
3.2898708863219004 1.6416719289529993e-18 1.4336220078298672e-10 1.4220119492316891e-10 1.1610058598178181e-12
3.29141343181113 1.6122856512468577e-18 1.4086200283876993e-10 1.3969821758980386e-10 1.1637852489661055e-12
3.292184975758714 1.5978365934545961e-18 1.396323427852458e-10 1.3846716612771306e-10 1.1651766575327505e-12
3.295272960557952 1.5078161007267498e-18 1.3188919098550286e-10 1.3071860816298427e-10 1.1705828225186305e-12
3.3076538914384823 1.1934730205474093e-18 1.047857191120636e-10 1.035934386110541e-10 1.1922805010095008e-12
3.310756385682612 1.128794554727364e-18 9.919997533106973e-11 9.800222904577103e-11 1.1977462852987101e-12
3.313861789986515 1.0688447339466882e-18 9.401961022745423e-11 9.281638160007109e-11 1.2032286273831509e-12
3.3200813396944477 9.852262151524324e-19 8.682686408343168e-11 8.561182823287131e-11 1.2150358505603552e-12
3.345076488085796 8.40065471975493e-19 7.459137633327395e-11 7.332368121023503e-11 1.2676951230389086e-12
3.3482140837626964 8.461646659580076e-19 7.520341078235148e-11 7.392858030393072e-11 1.27483047842079e-12
3.3513546224236106 8.523169172637146e-19 7.582124767699246e-11 7.453925143606728e-11 1.2819962409251724e-12
3.3576445397418455 8.947250137991323e-19 7.97432128449615e-11 7.84462287997105e-11 1.2969840452509636e-12
3.3702598118196083 1.0476641811713197e-18 9.372488382044944e-11 9.239646493568374e-11 1.328418884765741e-12
3.382922481734668 1.0846765873412188e-18 9.740062537070572e-11 9.604170702200157e-11 1.3589183487041597e-12
3.389271646505754 1.1037372846668573e-18 9.929823405336986e-11 9.79238671928204e-11 1.3743668605494612e-12
3.395632727569191 1.1247258724650578e-18 1.0137639169494963e-10 9.998610413774119e-11 1.3902875572084644e-12
3.421196662673239 1.2264081772302394e-18 1.113736647433613e-10 1.0991753144285396e-10 1.4561333005073154e-12
3.4276182099114902 1.2085858958716948e-18 1.0996118116607004e-10 1.0849041314239412e-10 1.4707680236759382e-12
3.4340518103208963 1.1267405115486746e-18 1.0270703352461338e-10 1.0122245271373021e-10 1.4845808108831474e-12
3.4469541582030403 1.0093551290328435e-18 9.235255923933988e-11 9.084152547101356e-11 1.5110337683263145e-12
3.472904465399547 9.776547578763905e-19 9.012552090774541e-11 8.855346030798523e-11 1.5720605997601665e-12
3.4990501388274233 9.293340542205577e-19 8.631602860828652e-11 8.468164924952825e-11 1.6343793587582697e-12
3.5253949054701885 7.5567303457131335e-19 7.0714932435328e-11 6.902022183811444e-11 1.6947105972135443e-12
3.5519380250092896 5.90379239169714e-19 5.566290775790614e-11 5.390772837888675e-11 1.7551793790193948e-12
3.578680990867387 5.269353238188769e-19 5.0055261267382014e-11 4.823382695466782e-11 1.8214343127142163e-12
3.605625307711299 5.035774921105179e-19 4.819659276321342e-11 4.630548102162727e-11 1.8911117415861593e-12
3.660119384959845 4.911598081817152e-19 4.7718579333846985e-11 4.56815472437878e-11 2.0370320900591795e-12
3.715437065384467 4.83909424765015e-19 4.7724723729811067e-11 4.5534540979060544e-11 2.1901827507505273e-12
3.8285932144167436 4.901935682868282e-19 4.981685046919189e-11 4.729987997878661e-11 2.516970490405263e-12
3.94519561050918 5.016005900002956e-19 5.252862260309708e-11 4.9658847931060803e-11 2.8697746720362733e-12
4.06534921144712 5.14685657325112e-19 5.5540445150881506e-11 5.2293096465700686e-11 3.247348685180822e-12
4.189162171576248 5.283933183784769e-19 5.875623017231346e-11 5.510666557602607e-11 3.6495645962874146e-12
4.316745939156006 5.422313080066921e-19 6.213131020471124e-11 5.8057351480684425e-11 4.073958724026826e-12
4.448215356677963 5.559192325468523e-19 6.563975286630265e-11 6.112621751767892e-11 4.513535348623738e-12
4.58368876423945 5.693633814458708e-19 6.927460947651218e-11 6.43066392063685e-11 4.967970270143664e-12
4.723288106065518 5.825801734173193e-19 7.304148101718511e-11 6.760216496992301e-11 5.439316047262097e-12
4.867139040275056 5.955511521126628e-19 7.694178459632963e-11 7.102850615363108e-11 5.913278442698541e-12
4.940699165968905 6.0220467685261945e-19 7.897724282732121e-11 7.282470159939011e-11 6.152541227931133e-12
5.015371051989984 6.085706882358566e-19 8.101837584613334e-11 7.462595081600644e-11 6.392425030126915e-12
5.091171501069577 6.155241412346776e-19 8.318255404717564e-11 7.65441114600828e-11 6.638442587092815e-12
5.129500256944802 6.188786109290475e-19 8.426553107997591e-11 7.750419890187391e-11 6.761332178102004e-12
5.168117569889187 6.222328210377103e-19 8.536006421721175e-11 7.84745667111622e-11 6.88549750604954e-12
5.20702561229733 6.262144274685863e-19 8.655301806367445e-11 7.953094062357549e-11 7.022077440098973e-12
5.246226572918644 6.301318010557142e-19 8.775015126238405e-11 8.05912483430351e-11 7.158902919348934e-12
5.265937586045735 6.320664300445683e-19 8.835026680663424e-11 8.112288220304382e-11 7.227384603590428e-12
5.285722656980489 6.339850514683359e-19 8.89514071734814e-11 8.165550735911046e-11 7.295899814370908e-12
5.305582063971359 6.358876982792108e-19 8.95535677946598e-11 8.218912862693757e-11 7.364439167722247e-12
5.3255160863122235 6.37897998765426e-19 9.017421567793167e-11 8.274059630925863e-11 7.433619368673013e-12
5.365609099470188 6.428258375246361e-19 9.155494102671248e-11 8.397810435035808e-11 7.576836676354374e-12
5.406003951863644 6.477376596863619e-19 9.294904664980507e-11 8.522879471869068e-11 7.720251931114394e-12
5.446702915881641 6.526370481894382e-19 9.435715646881496e-11 8.649336671036143e-11 7.863789758453532e-12
5.487708281020852 6.57759758443743e-19 9.58137305215895e-11 8.780565468641618e-11 8.008075835173318e-12
5.529022354014368 6.6493583577953045e-19 9.758824731218037e-11 8.942976383495479e-11 8.15848347722556e-12
5.570647458961463 6.722548577586354e-19 9.940518937103427e-11 9.109613678632896e-11 8.309052584705316e-12
5.612585937458331 6.797345895536064e-19 1.0126790072919689e-10 9.28081941383488e-11 8.459706590848042e-12
5.654840148729818 6.877398376374198e-19 1.0323190640053597e-10 9.462068435539951e-11 8.611222045136471e-12
5.67608639626678 6.933464336358273e-19 1.0446449672969487e-10 9.577382736499046e-11 8.690669364704428e-12
5.686739436050992 6.961993200361981e-19 1.0509120150756041e-10 9.636078980599981e-11 8.730411701560541e-12
5.6974124697621304 6.990865245862596e-19 1.0572508078845121e-10 9.695491592201131e-11 8.770164866439889e-12
5.718818669136295 7.049678124646829e-19 1.0701509655586333e-10 9.816539776164522e-11 8.849698794218088e-12
5.740305295436557 7.114270171744918e-19 1.084013716994871e-10 9.94714413283012e-11 8.929930371185907e-12
5.7835210386641895 7.283851641412836e-19 1.1182086417076884e-10 1.0272521681299865e-10 9.09564735777021e-12
5.827062130521658 7.474478336054875e-19 1.1561121603730365e-10 1.0634799018159173e-10 9.263225855711934e-12
5.8489554468988025 7.611673890323606e-19 1.1817562821459395e-10 1.0882137514874583e-10 9.354253065848139e-12
5.870931020387893 7.756411068507688e-19 1.2087520627299546e-10 1.1142975774737872e-10 9.445448525616767e-12
5.892989160043636 7.909297924932877e-19 1.23720882736756e-10 1.141840804881748e-10 9.53680224858122e-12
5.915130176081913 8.082563547236458e-19 1.2690620804850516e-10 1.1727453352876352e-10 9.631674519741669e-12
5.95966208400165 8.573452632151373e-19 1.3562720799212143e-10 1.2577633001158383e-10 9.850877980537634e-12
6.004529249263818 9.277824457930753e-19 1.4787492892534012e-10 1.3777566451767666e-10 1.0099264407663466e-11
6.027089341400364 9.768484557175341e-19 1.5628030729775623e-10 1.4603602012313496e-10 1.0244287174621268e-11
6.049734195844842 1.0342395676892107e-18 1.6608364805716996e-10 1.5568541290655758e-10 1.0398235150612317e-11
6.095279466722835 1.199940921336457e-18 1.9414352914408582e-10 1.833618041984618e-10 1.0781724945624044e-11
6.141167624020661 1.4523643108220898e-18 2.3675325199995593e-10 2.2546751595226686e-10 1.1285736047689059e-11
6.164241091010745 1.6130709323273866e-18 2.639383603723864e-10 2.5233327714817606e-10 1.1605083224210305e-11
6.187401249150058 1.7933375934240067e-18 2.945369371457668e-10 2.826045239953345e-10 1.1932413150432333e-11
6.1990139391386085 1.8807230853060057e-18 3.094688217239726e-10 2.973699605384277e-10 1.2098861185544827e-11
6.204828454712694 1.926521081831416e-18 3.173021230308954e-10 3.051192537523746e-10 1.2182869278520787e-11
6.210648424152782 1.9594908287777086e-18 3.2303502513675593e-10 3.107812439140592e-10 1.2253781222696679e-11
6.233982942956859 2.06938197470275e-18 3.42433074052811e-10 3.2993486462529393e-10 1.2498209427517098e-11
6.239830258556775 2.0821951426431224e-18 3.4487652814280194e-10 3.3234652026220406e-10 1.253000788059781e-11
6.245683058788269 2.0813854653528594e-18 3.450657798229357e-10 3.32503944655756e-10 1.2561835167179604e-11
6.257405133728602 2.0739348175474786e-18 3.4447587334001437e-10 3.318595665847043e-10 1.2616306755310066e-11
6.269149208991335 2.046726294617643e-18 3.4059463951859644e-10 3.2796431045670166e-10 1.263032906189474e-11
6.280915325867298 1.985109954714124e-18 3.3096109053515066e-10 3.183666755826924e-10 1.2594414952458272e-11
6.304513850009849 1.8359200555462176e-18 3.0723791009391474e-10 2.9476037484054355e-10 1.2477535253371114e-11
6.32820103803542 1.6550826988135404e-18 2.780157496863907e-10 2.657030127599787e-10 1.2312736926411929e-11
6.3519772230701035 1.490374220958601e-18 2.5128912559197454e-10 2.3912579765961455e-10 1.2163327932359962e-11
6.375842739491607 1.3513886288878204e-18 2.2871112490395e-10 2.166813512924348e-10 1.2029773611515162e-11
6.399797922933955 1.2411677293648841e-18 2.1084638991250406e-10 1.9889353711070953e-10 1.1952852801794603e-11
6.42384311029221 1.1490508243553394e-18 1.9593119952529812e-10 1.840439086894781e-10 1.1887290835820086e-11
6.447978639727206 1.0820144592265204e-18 1.8519364839157205e-10 1.733279324499564e-10 1.1865715941615617e-11
6.472204850670314 1.025817435729789e-18 1.7623483819032408e-10 1.6438201038471037e-10 1.1852827805613733e-11
6.496522083828205 9.888844835348752e-19 1.7052808484155296e-10 1.5865266173088624e-10 1.1875423110666721e-11
