Dust emission spectrum from A.P. Jones, M. Kohler, N. Ysard, M. Bocchio, and L. Verstraete (2017), A&A, 602A, 46J 
inside the DustPedia framework.

lambda    nu*dP/dnu     j_nu    j_nu(carb.) j_nu(sil)
 (um)   (erg s-1 H-1) (Jy cm2 sr-1 H-1)
0.9927057738263894 4.600487412179502e-25 1.212254563356143e-17 1.2122545633352479e-17 2.089518157167209e-28
1.0001793341362166 4.676014385036627e-25 1.2414326076024397e-17 1.2414326075772618e-17 2.517821880558131e-28
1.0077091589558085 4.751420988714682e-25 1.2709490787681255e-17 1.270949078737825e-17 3.030076958112798e-28
1.0114953028030835 4.789069873028498e-25 1.2858327318689872e-17 1.2858327318357628e-17 3.3224687635374207e-28
1.0152956718711033 4.826677561359398e-25 1.3007991824535918e-17 1.300799182417173e-17 3.6419146164942114e-28
1.0229392996569957 4.901717563534837e-25 1.33096789729599e-17 1.3309678972522727e-17 4.371766418858378e-28
1.0267826658714554 4.939058391899976e-25 1.3461458665031111e-17 1.3461458664552339e-17 4.787704650269754e-28
1.0306404723013447 4.9763415361357125e-25 1.3614033189968309e-17 1.3614033189444154e-17 5.241538649261373e-28
1.03451277320114 5.013563405734164e-25 1.3767395925287337e-17 1.376739592471368e-17 5.73655494762805e-28
1.0383996230291617 5.050720431047721e-25 1.392154016870174e-17 1.3921540168074113e-17 6.276309559407684e-28
1.0403485208654093 5.069273517455024e-25 1.3998903240053958e-17 1.399890323939754e-17 6.564153743513817e-28
1.0423010764483396 5.087809063971537e-25 1.407645913972698e-17 1.407645913904052e-17 6.864648703319756e-28
1.0462171883269815 5.124825778610723e-25 1.4232145981286505e-17 1.423214598053593e-17 7.505731004186059e-28
1.0471985131304309 5.134068309015349e-25 1.427118686072104e-17 1.4271186859953564e-17 7.674761689850157e-28
1.048180758391296 5.143306070965172e-25 1.4310275190132536e-17 1.4310275189347795e-17 7.847441649705641e-28
1.0501480137395462 5.161767071932064e-25 1.4388593761318646e-17 1.438859376049824e-17 8.204051269923665e-28
1.0521189612883777 5.180208347308814e-25 1.446710081688449e-17 1.4467100816026864e-17 8.576178420293718e-28
1.0531058218030118 5.189407187409546e-25 1.450638487396888e-17 1.4506384873092056e-17 8.768273250083265e-28
1.0540936079674168 5.198554197477931e-25 1.4545584877097342e-17 1.454558487620088e-17 8.964532064280492e-28
1.058054026499678 5.235088309059834e-25 1.470284197091623e-17 1.4702841969936976e-17 9.792527792259788e-28
1.0590464539527713 5.244208088518767e-25 1.4742269951419315e-17 1.4742269950418248e-17 1.0010709522648972e-27
1.06003981227728 5.253322262450426e-25 1.4781743188513287e-17 1.478174318748993e-17 1.023354746004136e-27
1.0620293250338977 5.2715335822412695e-25 1.4860824977943642e-17 1.486082497687428e-17 1.0693572331828587e-27
1.0660195594769086 5.307886634873857e-25 1.5019526621756138e-17 1.501952662058876e-17 1.1673784466599593e-27
1.070024785945596 5.344144111351445e-25 1.517893956094279e-17 1.517893955966881e-17 1.2739766198791486e-27
1.0740450607676866 5.380302683159238e-25 1.533905639071625e-17 1.533905638932639e-17 1.3898638419522473e-27
1.07808044048254 5.416359049407551e-25 1.5499869644520742e-17 1.5499869643004937e-17 1.5158079012746534e-27
1.0861967418109137 5.4880879217567075e-25 1.5823370210395564e-17 1.5823370208594324e-17 1.80124112167445e-27
1.0902777775684922 5.523608032378044e-25 1.5985618556579797e-17 1.598561855461722e-17 1.96258301834857e-27
1.0943741465085532 5.559010487767866e-25 1.6148520946139373e-17 1.6148520944001674e-17 2.1376956371355598e-27
1.1026131145906286 5.629449917745499e-25 1.647625658312521e-17 1.6476256580591444e-17 2.533769938139951e-27
1.1109141095355224 5.699381494212728e-25 1.6806514079969483e-17 1.6806514076970064e-17 2.9994199277996177e-27
1.1192775983109025 5.768715582040844e-25 1.7139035249576668e-17 1.7139035246030516e-17 3.546156040272345e-27
1.1277040513999907 5.837127999256868e-25 1.747285168749838e-17 1.747285168331111e-17 4.187268306196875e-27
1.1361939428280308 5.904952261736659e-25 1.780894914142527e-17 1.7808949136487192e-17 4.938078556307391e-27
1.1447477501889525 5.972165934149076e-25 1.8147261509302505e-17 1.8147261503486274e-17 5.81623005928157e-27
1.1533659546722406 6.038784118257088e-25 1.8487835357904976e-17 1.8487835351062958e-17 6.842021740571903e-27
1.1707974979042381 6.170452992102745e-25 1.917645240093671e-17 1.917645239150343e-17 9.433283462738582e-27
1.1884924949847024 6.29945815777357e-25 1.987325807203404e-17 1.9873258059091906e-17 1.2942134575332013e-26
1.2064549276569216 6.426820755081938e-25 2.0581485726189642e-17 2.0581485708519382e-17 1.767025121629572e-26
1.2246888378427687 6.551139833119665e-25 2.129668768898511e-17 2.1296687664975394e-17 2.4009715286956412e-26
1.2431983285522175 6.672125900983697e-25 2.2017808155049396e-17 2.2017808122581012e-17 3.246839121437051e-26
1.2619875648066055 6.789736235545826e-25 2.2744553308809214e-17 2.2744553265108458e-17 4.370075203336338e-26
1.3004222497298317 7.012872128922908e-25 2.4207489084594187e-17 2.420748900652226e-17 7.807192993711952e-26
1.3400274889804893 7.219696281860683e-25 2.5680416823599442e-17 2.568041668663653e-17 1.3696292294197726e-25
1.3808389325824078 7.409465633325375e-25 2.7158097584746872e-17 2.7158097348692427e-17 2.3605443374457224e-25
1.4228933163050095 7.583146785179087e-25 2.864120165441923e-17 2.864120125453473e-17 3.998844973454919e-25
1.466228494730424 7.744997521560128e-25 3.0143409361934273e-17 3.0143408695762384e-17 6.661718899515776e-25
1.5108834753276823 7.891866191303103e-25 3.165046663850969e-17 3.165046554667026e-17 1.0918394303835686e-24
1.5568984535646726 8.021213622076765e-25 3.314895201601679e-17 3.3148950253631345e-17 1.762385446886611e-24
1.6043148490894465 8.133314358530005e-25 3.4635909379843955e-17 3.4635906573112815e-17 2.8067311284782113e-24
1.6531753430134553 8.228549022085656e-25 3.610868004512171e-17 3.6108675639855453e-17 4.4052662691555044e-24
1.7035239163302658 8.308098035357493e-25 3.756810428233348e-17 3.756809746643359e-17 6.815899904749233e-24
1.755405889504358 8.378609478899048e-25 3.904082018239005e-17 3.9040809781405575e-17 1.0400984467877452e-23
1.8088679632656115 8.438485828175543e-25 4.051733064110482e-17 4.051731498139671e-17 1.5659708096735152e-23
1.8639582606462262 8.48666001273369e-25 4.1989666004501665e-17 4.198964273285441e-17 2.327164726123952e-23
1.9207263702978936 8.52397084700929e-25 4.3458715692552333e-17 4.345868154390754e-17 3.4148644787850674e-23
1.979223391128241 8.552323037767319e-25 4.493123382955937e-17 4.4931184330711025e-17 4.9498848336281595e-23
2.039501978296691 8.573987711658433e-25 4.641693082548662e-17 4.64168599244225e-17 7.090106410383219e-23
2.1016163906111602 8.595255473031168e-25 4.794923354487546e-17 4.794913314530196e-17 1.0039957350516245e-22
2.1656225393682647 8.619792238029545e-25 4.955060872010951e-17 4.955046811902033e-17 1.4060108917451254e-22
2.231578038680979 8.6478983772198e-25 5.122619393702421e-17 5.122599914756658e-17 1.9478945763478652e-22
2.299542257339062 8.681786502522752e-25 5.299317367985802e-17 5.299290662365811e-17 2.670561999279248e-22
2.369576372248914 8.726298843618285e-25 5.4887092485376025e-17 5.488673003445398e-17 3.6245092203550177e-22
2.4417434235010123 8.787149242641746e-25 5.695311236673197e-17 5.695262523679041e-17 4.871299415568193e-22
2.5161083711144245 8.874095122046965e-25 5.926835251847562e-17 5.926770397457707e-17 6.485438985637642e-22
2.5927381535095444 9.003082612502391e-25 6.196112963179976e-17 6.196027401381093e-17 8.556179888422762e-22
2.6717017477616296 9.19314834136683e-25 6.519610876376713e-17 6.51949898709191e-17 1.1188928480210688e-21
2.753070231689431 9.472927985215534e-25 6.922627436955932e-17 6.922482365163388e-17 1.4507179254749115e-21
2.836916847834745 9.90723639137701e-25 7.460510829594031e-17 7.460324279497865e-17 1.8655009616422156e-21
2.9233170693905177 1.0638755967759693e-24 8.255363533624463e-17 8.255125579057785e-17 2.3795456667797275e-21
2.967498994190263 1.1256760455439113e-24 8.86693322403589e-17 8.86666565648031e-17 2.6756755558079137e-21
3.0123486681368425 1.1977956038079298e-24 9.57761524066241e-17 9.577314764938262e-17 3.0047572414964273e-21
3.0578761833420214 1.358446309488025e-24 1.1026350860809683e-16 1.1026013778378152e-16 3.3708243153036376e-21
3.1040917844459814 1.5653630755049918e-24 1.2897901997056093e-16 1.289752451443027e-16 3.774826258243366e-21
3.127460860933648 1.7838737530648353e-24 1.4808989731385727e-16 1.4808590391511616e-16 3.993398741072202e-21
3.1510058709225794 2.074935531809248e-24 1.7354945458033266e-16 1.7354523167381762e-16 4.222906514995152e-21
3.162844764501044 2.345692217521175e-24 1.969329274606025e-16 1.9692858513066883e-16 4.342329933646895e-21
3.1747281389236908 2.6605570956089725e-24 2.242066851225132e-16 2.2420222048243584e-16 4.4646400774516994e-21
3.1986289994194426 3.538746485578029e-24 3.004572959991483e-16 3.004525772506223e-16 4.7187485261006945e-21
3.2227097969389145 5.6083120862923505e-24 4.797586405697977e-16 4.797536507292417e-16 4.9898405557977275e-21
3.2348180950136065 7.570765212829554e-24 6.500684290181428e-16 6.500632940074193e-16 5.1350107233935654e-21
3.240889293275058 9.037897275906825e-24 7.775011319384728e-16 7.774959203243419e-16 5.2116141310243254e-21
3.2469718861334385 1.0735140082038246e-23 9.252427212396209e-16 9.252374303391736e-16 5.2909004470063514e-21
3.2714166318528037 1.9788143436039453e-23 1.718344907137861e-15 1.7183392870709488e-15 5.6200669121945564e-21
3.2744851364798273 2.035406108525084e-23 1.7691454101003648e-15 1.7691397508454376e-15 5.659254927854598e-21
3.2775565192852394 2.0936229367632524e-23 1.821453506689961e-15 1.821447808011457e-15 5.698678504610793e-21
3.283707930232385 2.037636927073486e-23 1.7760727760083833e-15 1.7760670060508598e-15 5.76995752341681e-21
3.2898708863219004 1.8600886944630398e-23 1.6243587052124618e-15 1.624352869665199e-15 5.835547262721887e-21
3.29141343181113 1.8182185104842354e-23 1.588539231787284e-15 1.588533379749004e-15 5.852038279776239e-21
3.292184975758714 1.7976450012028495e-23 1.5709327477063599e-15 1.5709268874084934e-15 5.8602978673145725e-21
3.295272960557952 1.6677849191366896e-23 1.4588171834532132e-15 1.458811290892427e-15 5.8925607865195726e-21
3.3076538914384823 1.2179129380775527e-23 1.069315190500136e-15 1.0693091679517984e-15 6.0225483373414666e-21
3.310756385682612 1.1263527289406182e-23 9.898538441477454e-16 9.89847788749153e-16 6.055398592228634e-21
3.313861789986515 1.0418741072443419e-23 9.16471722768255e-16 9.164656343772246e-16 6.088391030483274e-21
3.3200813396944477 9.234050976312391e-24 8.137863941589376e-16 8.137802351216464e-16 6.159037291232779e-21
3.345076488085796 7.120953266044198e-24 6.322860808337738e-16 6.32279607627305e-16 6.473206468829997e-21
3.3482140837626964 7.200248135439187e-24 6.399265297272123e-16 6.399200139722962e-16 6.515754915850296e-21
3.3513546224236106 7.28041907428465e-24 6.476586896759198e-16 6.476521311351622e-16 6.558540757599522e-21
3.3576445397418455 7.866088556407929e-24 7.010725802193522e-16 7.010659323345621e-16 6.64788479041568e-21
3.3702598118196083 1.0026088112320187e-23 8.969419403555374e-16 8.969351049204367e-16 6.835435100469257e-21
3.382922481734668 1.051813706769078e-23 9.444963965149207e-16 9.444893773205507e-16 7.019194369367918e-21
3.389271646505754 1.0773046095841143e-23 9.692020624413887e-16 9.691949497964459e-16 7.112644942988159e-21
3.395632727569191 1.1047718655216613e-23 9.957785102535165e-16 9.957713012728842e-16 7.208980631922698e-21
3.421196662673239 1.236651224851659e-23 1.123038654489002e-15 1.1230310449193629e-15 7.609569639334403e-21
3.4276182099114902 1.2100874373652693e-23 1.1009779642590992e-15 1.1009702636851968e-15 7.700573902686781e-21
3.4340518103208963 1.0936616051744157e-23 9.969175510769652e-16 9.969097636532714e-16 7.787423694134168e-21
3.4469541582030403 9.278535086278196e-24 8.4895438341000235e-16 8.489464276832455e-16 7.955726756446958e-21
3.472904465399547 8.814204267627773e-24 8.125411804190937e-16 8.125328389056169e-16 8.34151347667643e-21
3.4990501388274233 8.103846209236926e-24 7.526807158921127e-16 7.526719755893763e-16 8.74030273663982e-21
3.5253949054701885 5.5748240411622935e-24 5.216850243085268e-16 5.216758904264946e-16 9.133882032334384e-21
3.5519380250092896 3.197932689482206e-24 3.0151167334573214e-16 3.015021387127446e-16 9.534632987620076e-21
3.578680990867387 2.2558462498621988e-24 2.142900054556016e-16 2.142800302860984e-16 9.975169503204045e-21
3.605625307711299 1.8751349229957258e-24 1.7946615104050427e-16 1.7945570837310402e-16 1.0442667400309024e-20
3.660119384959845 1.5981349277398186e-24 1.552666302600437e-16 1.5525519023062633e-16 1.1440029417382866e-20
3.715437065384467 1.4023963913959842e-24 1.3830890020701258e-16 1.3829638606051172e-16 1.251414650083199e-20
3.8285932144167436 1.3050622567008623e-24 1.3262942539672636e-16 1.3261452090006145e-16 1.490449666490189e-20
3.94519561050918 1.2888747850347994e-24 1.3497355967165216e-16 1.3495591938584326e-16 1.76402858089217e-20
4.06534921144712 1.3063378512033203e-24 1.4096873449000695e-16 1.4094797673194702e-16 2.0757758059928058e-20
4.189162171576248 1.3436032316381417e-24 1.4940586489749707e-16 1.4938155869951168e-16 2.430619798535859e-20
4.316745939156006 1.3955933421749328e-24 1.5991338305612986e-16 1.5988505690868714e-16 2.83261474426443e-20
4.448215356677963 1.4607076650531211e-24 1.72471978896539e-16 1.7243915043627317e-16 3.28284602658492e-20
4.58368876423945 1.5393274790244176e-24 1.8729042548377938e-16 1.8725254447780238e-16 3.788100597699151e-20
4.723288106065518 1.6333120019616164e-24 2.0477787097804687e-16 2.0473428787061086e-16 4.358310743597729e-20
4.867139040275056 1.74621431747705e-24 2.2560084956217007e-16 2.2555093975943407e-16 4.9909802736011153e-20
4.940699165968905 1.814016909702447e-24 2.379025927184873e-16 2.378492435844185e-16 5.3349134068893987e-20
5.015371051989984 1.8845072881629646e-24 2.5088247381706343e-16 2.508254932161615e-16 5.698060090191946e-20
5.091171501069577 1.969805906308734e-24 2.6620155943079493e-16 2.6614068654293703e-16 6.087288785783183e-20
5.129500256944802 2.013701552138537e-24 2.7418241272355047e-16 2.7411951361001367e-16 6.289911353674116e-20
5.168117569889187 2.0594677636637085e-24 2.825249562799219e-16 2.824599646877677e-16 6.499159215415349e-20
5.20702561229733 2.1150367714474423e-24 2.923324788674074e-16 2.9226523933660824e-16 6.723953079907079e-20
5.246226572918644 2.1720829095575582e-24 3.024773603693469e-16 3.024078078007863e-16 6.955256856071082e-20
5.265937586045735 2.201174891910577e-24 3.076803002726327e-16 3.0760956625461416e-16 7.073401801868527e-20
5.285722656980489 2.230654392681377e-24 3.1297243789450154e-16 3.129005055241821e-16 7.193237031925045e-20
5.305582063971359 2.260527754111894e-24 3.1835546752577893e-16 3.1828231968463564e-16 7.314784114331855e-20
5.3255160863122235 2.292522495563806e-24 3.2407441058221633e-16 3.2400002454520274e-16 7.438603701358009e-20
5.365609099470188 2.3713941119241915e-24 3.3774754434943155e-16 3.376705864879229e-16 7.695786150872265e-20
5.406003951863644 2.4532810483852475e-24 3.520408782806552e-16 3.5196127282694194e-16 7.960545371334098e-20
5.446702915881641 2.5383268124228063e-24 3.6698698131406983e-16 3.669046504681106e-16 8.233084595908547e-20
5.487708281020852 2.6300565855653944e-24 3.8311181204231e-16 3.8302666903993236e-16 8.514300237768009e-20
5.529022354014368 2.756034547568082e-24 4.044850142776238e-16 4.04396915746463e-16 8.809853116083303e-20
5.570647458961463 2.889340650651718e-24 4.272419175862357e-16 4.271507744933936e-16 9.114309284202163e-20
5.612585937458331 3.030494388955251e-24 4.514876977831153e-16 4.513934185847279e-16 9.427919838738239e-20
5.654840148729818 3.1853540451270712e-24 4.781316315319914e-16 4.780341128623258e-16 9.751866966547546e-20
5.67608639626678 3.289993647461968e-24 4.956938032027518e-16 4.955945881097172e-16 9.921509303468378e-20
5.686739436050992 3.343904448449859e-24 5.047619641395229e-16 5.046618910713129e-16 1.0007306821011538e-19
5.6974124697621304 3.398909419562603e-24 5.140278925967829e-16 5.13926954980883e-16 1.0093761590004879e-19
5.718818669136295 3.512306231859262e-24 5.331729816458955e-16 5.330702950241518e-16 1.0268662174360459e-19
5.740305295436557 3.637080684582432e-24 5.5418830838939595e-16 5.540838371474145e-16 1.0447124198144919e-19
5.7835210386641895 3.959335082216728e-24 6.0783263063447e-16 6.077244381908902e-16 1.0819244357984202e-19
5.827062130521658 4.329837706652139e-24 6.697160390385655e-16 6.696039858600468e-16 1.1205317851911073e-19
5.8489554468988025 4.5887451633051794e-24 7.1242915842682585e-16 7.12315036443314e-16 1.1412198351156871e-19
5.870931020387893 4.866350285282331e-24 7.583676127203046e-16 7.582513871727282e-16 1.1622554757621468e-19
5.892989160043636 5.1641511690870445e-24 8.078003222149732e-16 8.076819577721798e-16 1.1836444279327144e-19
5.915130176081913 5.502452560396801e-24 8.639528601609369e-16 8.638322789203006e-16 1.2058124063600597e-19
5.95966208400165 6.4461813841025445e-24 1.0197497097703461e-15 1.019624211647132e-15 1.2549812321401838e-19
6.004529249263818 7.80372668934755e-24 1.2437997019372592e-15 1.243668722079467e-15 1.3097985779253785e-19
6.027089341400364 8.74627058685502e-24 1.3992650006484465e-15 1.3991309208372346e-15 1.3407981121186904e-19
6.049734195844842 9.859325001166942e-24 1.5832624420216809e-15 1.5831250847746663e-15 1.373572470147393e-19
6.095279466722835 1.3071889084674644e-23 2.1149563568948386e-15 2.114811195563092e-15 1.4516133174623756e-19
6.141167624020661 1.8012068289799626e-23 2.936188744848416e-15 2.9360337601114387e-15 1.5498473697712306e-19
6.164241091010745 2.1166874974499503e-23 3.4634250503268117e-15 3.4632640571465917e-15 1.6099318021917294e-19
6.187401249150058 2.4759122989770138e-23 4.0664269117889644e-15 4.066259686444768e-15 1.6722534419678295e-19
6.1990139391386085 2.651355095232054e-23 4.3627461358024025e-15 4.362575725514534e-15 1.7041028786835882e-19
6.204828454712694 2.743756778021332e-23 4.519025817869358e-15 4.5188537923192745e-15 1.7202555008402969e-19
6.210648424152782 2.8112645913998944e-23 4.634555643801683e-15 4.634382199901194e-15 1.7344390049007116e-19
6.233982942956859 3.0407205197410215e-23 5.031663016490447e-15 5.0314844404755075e-15 1.7857601493922485e-19
6.239830258556775 3.070126650413542e-23 5.085088320825016e-15 5.0849088959907464e-15 1.7942483427063065e-19
6.245683058788269 3.072816923185978e-23 5.094318114076604e-15 5.094137836608837e-15 1.8027746776819102e-19
6.257405133728602 3.0668383916445396e-23 5.09394906925638e-15 5.093767217670828e-15 1.8185158555279285e-19
6.269149208991335 3.022139336459029e-23 5.02912607603219e-15 5.028943257701415e-15 1.828183307735174e-19
6.280915325867298 2.9095677733633065e-23 4.850883554190455e-15 4.850700526946595e-15 1.8302724386033467e-19
6.304513850009849 2.6317772356986213e-23 4.404231738120087e-15 4.404048982531261e-15 1.8275558882559532e-19
6.32820103803542 2.2873093784026155e-23 3.842152613021519e-15 3.841970864149335e-15 1.817488721840225e-19
6.3519772230701035 1.971421899899542e-23 3.3239764780686313e-15 3.3237954994734974e-15 1.8097859513324017e-19
6.375842739491607 1.7056499416712912e-23 2.8866686348622537e-15 2.8864881866949107e-15 1.804481673429732e-19
6.399797922933955 1.4928286768387418e-23 2.5359790608669226e-15 2.5357982345081948e-15 1.8082635872751723e-19
6.42384311029221 1.3159010162641356e-23 2.243817759043348e-15 2.24363636648466e-15 1.8139255868817454e-19
6.447978639727206 1.1871577695203599e-23 2.0318959389049152e-15 2.031713250471177e-15 1.8268843373776515e-19
6.472204850670314 1.079962996663085e-23 1.855370140331583e-15 1.8551859949146508e-15 1.8414541693268437e-19
6.496522083828205 1.010526813914982e-23 1.7426019431710585e-15 1.7424157307128346e-15 1.8621245822330868e-19
6.520930681187647 9.52112974122222e-24 1.6480390568677856e-15 1.6478506589116353e-15 1.8839795615030609e-19
6.57002334288761 8.929742420369506e-24 1.557310735329368e-15 1.5571170435219173e-15 1.9369180745100703e-19
