Dust emission spectrum from A.P. Jones, M. Kohler, N. Ysard, M. Bocchio, and L. Verstraete (2017), A&A, 602A, 46J 
inside the DustPedia framework.

lambda    nu*dP/dnu     j_nu    j_nu(carb.) j_nu(sil)
 (um)   (erg s-1 H-1) (Jy cm2 sr-1 H-1)
0.9927057738263894 7.258857700566671e-25 1.9127502335879632e-17 1.912750230354877e-17 3.2330866031592964e-26
1.0001793341362166 7.378429404182167e-25 1.9588953542478533e-17 1.9588953503535585e-17 3.894294788149284e-26
1.0077091589558085 7.497839586170163e-25 2.0055836637982202e-17 2.0055836591135445e-17 4.6846764329830274e-26
1.0114953028030835 7.557469696824636e-25 2.0291292806174683e-17 2.029129275481834e-17 5.13563471412315e-26
1.0152956718711033 7.617042184538236e-25 2.0528079865296156e-17 2.052807980901438e-17 5.628177903736335e-26
1.0229392996569957 7.735932886716299e-25 2.1005450017056077e-17 2.1005449949525935e-17 6.753014437049991e-26
1.0267826658714554 7.795106787090638e-25 2.124565038065037e-17 2.124565030671262e-17 7.3937746789401e-26
1.0306404723013447 7.85419740435355e-25 2.1487131332722914e-17 2.148713125179589e-17 8.092702351215676e-26
1.03451277320114 7.913199165108599e-25 2.1729882944554086e-17 2.1729882856005892e-17 8.854818871925097e-26
1.0383996230291617 7.972106528892565e-25 2.197389516729294e-17 2.1973895070437394e-17 9.68555505258245e-26
1.0403485208654093 8.001523089800199e-25 2.2096370835283963e-17 2.2096370733999245e-17 1.0128472235710385e-25
1.0423010764483396 8.030913989268246e-25 2.221915783458117e-17 2.2219157728673346e-17 1.059078235833056e-25
1.0462171883269815 8.089616074894243e-25 2.2465660665184174e-17 2.2465660549415714e-17 1.1576846379569272e-25
1.0471985131304309 8.104274493749857e-25 2.252747893279615e-17 2.2527478814428298e-17 1.1836784763845461e-25
1.048180758391296 8.11892590223649e-25 2.2589373898080433e-17 2.258937377705729e-17 1.2102313564960252e-25
1.0501480137395462 8.148207350571575e-25 2.2713393265628544e-17 2.2713393139122508e-17 1.2650602657837927e-25
1.0521189612883777 8.177459746314824e-25 2.283771745154069e-17 2.2837717319314118e-17 1.3222656568986804e-25
1.0531058218030118 8.19205237537371e-25 2.2899930642020648e-17 2.2899930506841455e-17 1.351791919485642e-25
1.0540936079674168 8.206563890590203e-25 2.2962013491715386e-17 2.2962013353519802e-17 1.3819558383069091e-25
1.058054026499678 8.264530107367007e-25 2.3211085078012505e-17 2.321108492709373e-17 1.5091877026871716e-25
1.0590464539527713 8.279001287572278e-25 2.327353717651813e-17 2.3273537022247407e-17 1.5427071452558588e-25
1.06003981227728 8.293464153553879e-25 2.333606261645767e-17 2.3336062458763767e-17 1.5769390608535714e-25
1.0620293250338977 8.322364614880049e-25 2.3461332838892892e-17 2.346133267413306e-17 1.6475982255597397e-25
1.0660195594769086 8.380062168370362e-25 2.3712745860632216e-17 2.3712745680820327e-17 1.798118992762408e-25
1.070024785945596 8.437617565129746e-25 2.3965313133568515e-17 2.3965312937393048e-17 1.961754700979612e-25
1.0740450607676866 8.495025645392845e-25 2.4219023554776647e-17 2.4219023340817808e-17 2.139588513139743e-25
1.07808044048254 8.55228129320611e-25 2.4473865930743182e-17 2.44738656974644e-17 2.332787775655396e-25
1.0861967418109137 8.666213871059075e-25 2.4986609609625e-17 2.4986609332583954e-17 2.770410334174111e-25
1.0902777775684922 8.722650719369467e-25 2.524382005109181e-17 2.52438197493271e-17 3.0176471542678333e-25
1.0943741465085532 8.778911118659909e-25 2.5502097971558144e-17 2.5502097642969234e-17 3.2858891320081375e-25
1.1026131145906286 8.890883196866543e-25 2.6021809402797902e-17 2.6021809013570973e-17 3.8922692945482163e-25
1.1109141095355224 9.002091856769642e-25 2.6545649504881285e-17 2.654564904441722e-17 4.60464068398076e-25
1.1192775983109025 9.112396482934941e-25 2.7073216265914124e-17 2.707321572187089e-17 5.440432229572056e-25
1.1277040513999907 9.221286544650982e-25 2.7602987665016706e-17 2.7602987023041973e-17 6.419747301540513e-25
1.1361939428280308 9.329288714147409e-25 2.813652352662041e-17 2.813652277004639e-17 7.565740203302422e-25
1.1447477501889525 9.436368375735775e-25 2.867372516115267e-17 2.867372427064806e-17 8.905046070933018e-25
1.1533659546722406 9.542549798701632e-25 2.9214670721483526e-17 2.921466967465576e-17 1.04682777378291e-24
1.1707974979042381 9.752563773221722e-25 3.0308889027052495e-17 3.0308887585827977e-17 1.4412245146863702e-24
1.1884924949847024 9.958551162802373e-25 3.141680638638824e-17 3.141680441199153e-17 1.9743967318608573e-24
1.2064549276569216 1.0162126454326032e-24 3.25435652460139e-17 3.2543562554394986e-17 2.6916189017114227e-24
1.2246888378427687 1.0361090749419494e-24 3.368221705359972e-17 3.3682213401995887e-17 3.651603825632004e-24
1.2431983285522175 1.0554991859912529e-24 3.483114516999729e-17 3.4831140239767254e-17 4.9302300216081445e-24
1.2619875648066055 1.0743773868011064e-24 3.5989960287334297e-17 3.5989953662275354e-17 6.625058950023452e-24
1.3004222497298317 1.1102924154008467e-24 3.8325797237446214e-17 3.8325785441304524e-17 1.1796141691786065e-23
1.3400274889804893 1.1437273005764635e-24 4.068231219799194e-17 4.068229157579039e-17 2.0622201543535122e-23
1.3808389325824078 1.1745735567449844e-24 4.305193498849811e-17 4.305189957447318e-17 3.541402492240325e-23
1.4228933163050095 1.2029936618609706e-24 4.5436525276933006e-17 4.543646550826177e-17 5.976867124298804e-23
1.466228494730424 1.2296717990966477e-24 4.785863432210613e-17 4.7858535137120895e-17 9.918498524151324e-23
1.5108834753276823 1.2541250458509135e-24 5.02969031177524e-17 5.029674120424435e-17 1.6191350805990227e-22
1.5568984535646726 1.2759681093324965e-24 5.273142896209205e-17 5.2731168684594206e-17 2.6027749781882848e-22
1.6043148490894465 1.2952623614605934e-24 5.5159050538383656e-17 5.5158637773859526e-17 4.1276452413532893e-22
1.6531753430134553 1.3120890525762968e-24 5.757734888984804e-17 5.757670385530882e-17 6.450345392350984e-22
1.7035239163302658 1.3266578189707661e-24 5.998968606046577e-17 5.998869252501532e-17 9.935354504566177e-22
1.755405889504358 1.3400474917441299e-24 6.244061534649759e-17 6.243910623374789e-17 1.509112749690012e-21
1.8088679632656115 1.3520363107859926e-24 6.491792883029537e-17 6.491566755791376e-17 2.2612723816389373e-21
1.8639582606462262 1.3624875358641875e-24 6.741214621581775e-17 6.74088023378132e-17 3.3438780045481713e-21
1.9207263702978936 1.3715707673772386e-24 6.992832929804865e-17 6.992344750388788e-17 4.881794160772712e-21
1.979223391128241 1.3796287215552615e-24 7.248138361054972e-17 7.247434464415898e-17 7.038966390750962e-21
2.039501978296691 1.3870651943963684e-24 7.509144093032874e-17 7.508141336875788e-17 1.0027561570863827e-20
2.1016163906111602 1.3949296315912794e-24 7.781712468431104e-17 7.780300516531771e-17 1.4119518993347453e-20
2.1656225393682647 1.4038594967698278e-24 8.0700428387997e-17 8.068077062538304e-17 1.9657762613949952e-20
2.231578038680979 1.413958405479583e-24 8.375642767586336e-17 8.372935849170494e-17 2.7069184158444553e-20
2.299542257339062 1.4256421068983967e-24 8.702045339888553e-17 8.698357447001369e-17 3.687892887182617e-20
2.369576372248914 1.439746513952673e-24 9.055786592113968e-17 9.050813957927361e-17 4.972634186607899e-20
2.4417434235010123 1.4572512089165765e-24 9.445041794126896e-17 9.438403854251706e-17 6.63793987518506e-20
2.5161083711144245 1.4797831842453236e-24 9.883183604474782e-17 9.874408306529281e-17 8.775297945499347e-20
2.5927381535095444 1.5099507651824693e-24 1.039180235547143e-16 1.0380309925883357e-16 1.1492429588076822e-19
2.6717017477616296 1.5508356870395596e-24 1.0998240034048001e-16 1.0983325902025488e-16 1.4914132022514827e-19
2.753070231689431 1.607022738604288e-24 1.1743802675832318e-16 1.1724619085178501e-16 1.91835906538178e-19
2.836916847834745 1.6887834973433727e-24 1.2717156503640013e-16 1.2692692288529582e-16 2.44642151104353e-19
2.9233170693905177 1.8185836219162394e-24 1.4111677117804472e-16 1.4080741900261511e-16 3.09352175429575e-19
2.967498994190263 1.923540590344661e-24 1.5151700203469734e-16 1.5117077696744977e-16 3.4622506724755134e-19
3.0123486681368425 2.045060586908979e-24 1.635237546622208e-16 1.6313677685640375e-16 3.869778058170354e-19
3.0578761833420214 2.3058460473711513e-24 1.8716284458020114e-16 1.8673077312876966e-16 4.320714514314104e-19
3.1040917844459814 2.63931601188238e-24 2.1746800977490746e-16 2.1698649319802043e-16 4.8151657688706165e-19
3.127460860933648 2.986545496096224e-24 2.479307827026356e-16 2.4742264334944917e-16 5.081393531864628e-19
3.1510058709225794 3.447376242842455e-24 2.883416171281346e-16 2.8780561776526694e-16 5.359993628675311e-19
3.162844764501044 3.87424650778554e-24 3.252629227241467e-16 3.247124634098856e-16 5.504593142610781e-19
3.1747281389236908 4.369972624250971e-24 3.6826012032460435e-16 3.676948773046326e-16 5.652430199717877e-19
3.1986289994194426 5.750022526584956e-24 4.882057042833658e-16 4.876098268937642e-16 5.958773896016595e-19
3.2227097969389145 8.995737455136245e-24 7.695332759650571e-16 7.689048211124236e-16 6.284548526335171e-19
3.2348180950136065 1.2070876347616293e-23 1.0364732498730368e-15 1.0358273793375708e-15 6.458705354664029e-19
3.240889293275058 1.436937076234701e-23 1.2361505881186759e-15 1.2354955302603078e-15 6.550578583678955e-19
3.2469718861334385 1.7028435288120466e-23 1.467650695196325e-15 1.4669861302103718e-15 6.645649859534296e-19
3.2714166318528037 3.120411536167686e-23 2.7096747548243728e-15 2.7089708059390476e-15 7.039488853253414e-19
3.2744851364798273 3.2090752221877245e-23 2.789281547412756e-15 2.788572930936348e-15 7.086164764085298e-19
3.2775565192852394 3.3002791385800156e-23 2.871245296593756e-15 2.8705319866746907e-15 7.133099190649002e-19
3.283707930232385 3.2128225326024874e-23 2.8004040162822358e-15 2.799682260301549e-15 7.217559806877637e-19
3.2898708863219004 2.935074797848197e-23 2.56311127126694e-15 2.5623817801746594e-15 7.294910922808603e-19
3.29141343181113 2.8695713417470507e-23 2.5070840652500265e-15 2.5063526304944905e-15 7.314347555365361e-19
3.292184975758714 2.837384725699411e-23 2.479544393058982e-15 2.47881198498576e-15 7.324080732220478e-19
3.295272960557952 2.6342531096864017e-23 2.3041902213415e-15 2.3034540180839484e-15 7.362032575510713e-19
3.3076538914384823 1.9303845182030712e-23 1.694858001984202e-15 1.6941065295575877e-15 7.514724266142856e-19
3.310756385682612 1.787087638661559e-23 1.5705165207189025e-15 1.5697611941627802e-15 7.553265561224609e-19
3.313861789986515 1.6548577617665217e-23 1.4556752426393687e-15 1.4549160471581457e-15 7.591954812229385e-19
3.3200813396944477 1.4694867299617152e-23 1.2950419163892394e-15 1.2942744213235455e-15 7.67495065694251e-19
3.345076488085796 1.1393541638702018e-23 1.0116591866854413e-15 1.0108547580687855e-15 8.044286166559061e-19
3.3482140837626964 1.1518658129837322e-23 1.0237279029122417e-15 1.0229184727752905e-15 8.094301369514256e-19
3.3513546224236106 1.1645146638262921e-23 1.0359404226414486e-15 1.0351259655812334e-15 8.144570602153413e-19
3.3576445397418455 1.2564287558102192e-23 1.1198040085375066e-15 1.1189790496174925e-15 8.249589200141605e-19
3.3702598118196083 1.5949998040951424e-23 1.4268997071687731e-15 1.4260527131500721e-15 8.469940187016095e-19
3.382922481734668 1.6724968001090632e-23 1.5018507466860344e-15 1.5009822382110504e-15 8.68508474984579e-19
3.389271646505754 1.7126370232399938e-23 1.54078179966061e-15 1.5399023666826608e-15 8.794329779494431e-19
3.395632727569191 1.7559133289828447e-23 1.5826803826536678e-15 1.5817896901672757e-15 8.906924863919786e-19
3.421196662673239 1.96369194969067e-23 1.7832853117305004e-15 1.7823478978902178e-15 9.37413840282621e-19
3.4276182099114902 1.922299022410131e-23 1.7489718503304461e-15 1.7480239042268337e-15 9.479461036121164e-19
3.4340518103208963 1.740086009675508e-23 1.5861599924707464e-15 1.5852020334454086e-15 9.579590253382986e-19
3.4469541582030403 1.4805958705948057e-23 1.3546948335185954e-15 1.3537175509225076e-15 9.772825960875462e-19
3.472904465399547 1.408503626295609e-23 1.2984350763666005e-15 1.2974134216751385e-15 1.0216546914615537e-18
3.4990501388274233 1.2979104258639279e-23 1.20549196428431e-15 1.2044246529502732e-15 1.0673113340366772e-18
3.5253949054701885 9.0250131738489e-24 8.445493852757591e-16 8.43437326194752e-16 1.112059081007316e-18
3.5519380250092896 5.3067990772316794e-24 5.003425729216289e-16 4.99185215179609e-16 1.1573577420199271e-18
3.578680990867387 3.8374959735589505e-24 3.645359399648935e-16 3.633288691942004e-16 1.2070707706930628e-18
3.605625307711299 3.2484928305201565e-24 3.1090803004443566e-16 3.096483937040495e-16 1.2596363403860794e-18
3.660119384959845 2.8303473367476674e-24 2.7498209682696123e-16 2.7361110966639434e-16 1.3709871605668657e-18
3.715437065384467 2.5397034888339038e-24 2.5047383075684657e-16 2.489841053932307e-16 1.4897253636158133e-18
3.8285932144167436 2.421881629918461e-24 2.461283109719101e-16 2.4437858156828166e-16 1.7497294036283467e-18
3.94519561050918 2.434009981501696e-24 2.5489442053965396e-16 2.528537361438638e-16 2.040684395790159e-18
4.06534921144712 2.5017968986154516e-24 2.6997238304316233e-16 2.676080789798972e-16 2.3643040632650154e-18
4.189162171576248 2.603701823712982e-24 2.8952618879365417e-16 2.868028385713356e-16 2.723350222318665e-18
4.316745939156006 2.7318948260979375e-24 3.130328374267201e-16 3.0991375221602265e-16 3.1190852106974426e-18
4.448215356677963 2.883975214329895e-24 3.4052324377031195e-16 3.3697409662228174e-16 3.549147148030284e-18
4.58368876423945 3.060699786539979e-24 3.7239623998818526e-16 3.6837947236790793e-16 4.016767620277509e-18
4.723288106065518 3.265169171888568e-24 4.0937334116167635e-16 4.0484569855177005e-16 4.52764260990642e-18
4.867139040275056 3.503043698538454e-24 4.525731043057194e-16 4.474993286915608e-16 5.073775614158488e-18
4.940699165968905 3.6413206565273985e-24 4.775477121926876e-16 4.721852138896038e-16 5.362498303083893e-18
5.015371051989984 3.784728958591336e-24 5.038569868223092e-16 4.981955178074933e-16 5.661469014815842e-18
5.091171501069577 3.952604140108338e-24 5.341589151192965e-16 5.281824275436889e-16 5.976487575607556e-18
5.129500256944802 4.038835697914431e-24 5.499214692823552e-16 5.437834937852884e-16 6.137975497066781e-18
5.168117569889187 4.128263636887824e-24 5.663295750980134e-16 5.600262715334953e-16 6.303303564518066e-18
5.20702561229733 4.233597916359979e-24 5.851520834649271e-16 5.786703838779705e-16 6.48169958695655e-18
5.246226572918644 4.3414764213390766e-24 6.045802037546965e-16 5.979167948432454e-16 6.663408911451288e-18
5.265937586045735 4.396393186169823e-24 6.14527987125632e-16 6.077724753714994e-16 6.7555117541326605e-18
5.285722656980489 4.451974500305832e-24 6.246352269434212e-16 6.177867772415841e-16 6.848449701837139e-18
5.305582063971359 4.508230264111934e-24 6.349047256042575e-16 6.279625006414639e-16 6.942224962793625e-18
5.3255160863122235 4.567923861556515e-24 6.457285526676166e-16 6.386911707203948e-16 7.037381947221847e-18
5.365609099470188 4.711225764814545e-24 6.709997823393232e-16 6.6376531273362105e-16 7.234469605702261e-18
5.406003951863644 4.8594772277485406e-24 6.9732517290159145e-16 6.898899243385204e-16 7.43524856307129e-18
5.446702915881641 5.01290108331926e-24 7.247567284046534e-16 7.171169839755798e-16 7.639744429073667e-18
5.487708281020852 5.177132603386935e-24 7.541361139347906e-16 7.462874783084369e-16 7.848635626353673e-18
5.529022354014368 5.3962165711030214e-24 7.919671176595936e-16 7.839000397325174e-16 8.06707792707625e-18
5.570647458961463 5.6269887209999486e-24 8.320533097590529e-16 8.237636335340759e-16 8.289676224976874e-18
5.612585937458331 5.870255196324929e-24 8.745596143148799e-16 8.660431482125738e-16 8.516466102305897e-18
5.654840148729818 6.135359178699015e-24 9.2093665337886e-16 9.121883309674502e-16 8.748322411409691e-18
5.67608639626678 6.3113529328711154e-24 9.509132460067738e-16 9.420437292358095e-16 8.869516770964507e-18
5.686739436050992 6.4018578619026745e-24 9.663596548083287e-16 9.574290980438707e-16 8.930556764458126e-18
5.6974124697621304 6.494086861799336e-24 9.821214312739011e-16 9.731295382975967e-16 8.99189297630387e-18
5.718818669136295 6.683879152326836e-24 1.014622171689309e-15 1.0055067145988901e-15 9.115457090418685e-18
5.740305295436557 6.89176062568567e-24 1.0501095505424228e-15 1.0408686012149887e-15 9.240949327434016e-18
5.7835210386641895 7.423262229328515e-24 1.1396107970270714e-15 1.1301094637939638e-15 9.50133323310799e-18
5.827062130521658 8.030881889216619e-24 1.2421736732925565e-15 1.2324049342774732e-15 9.768739015083368e-18
5.8489554468988025 8.452028438599194e-24 1.3122261736525985e-15 1.3023139267625532e-15 9.912246890045532e-18
5.870931020387893 8.902474762428498e-24 1.3873535888495889e-15 1.3772962566616237e-15 1.0057332187965308e-17
5.892989160043636 9.384552152987519e-24 1.4679748916735782e-15 1.4577708852647503e-15 1.0204006408828299e-17
5.915130176081913 9.930704056039003e-24 1.5592429154914883e-15 1.5488870390411462e-15 1.0355876450341977e-17
5.95966208400165 1.1447064658512466e-23 1.810861371668591e-15 1.800165388775614e-15 1.0695982892977663e-17
6.004529249263818 1.3618551124054825e-23 2.170597523877778e-15 2.1595216529503056e-15 1.1075870927473067e-17
6.027089341400364 1.5122377588701402e-23 2.4193413039681752e-15 2.4080489530780204e-15 1.1292350890154163e-17
6.049734195844842 1.689512335456544e-23 2.713108073569009e-15 2.701586886889213e-15 1.1521186679795932e-17
6.095279466722835 2.200270970779603e-23 3.5599116901911224e-15 3.5478387837896845e-15 1.2072906401437306e-17
6.141167624020661 2.984169852906907e-23 4.864564021103145e-15 4.851788294927737e-15 1.2775726175405883e-17
6.164241091010745 3.484644408396488e-23 5.701741400212065e-15 5.688531098080343e-15 1.3210302131717791e-17
6.187401249150058 4.0537990326553006e-23 6.657940787395647e-15 6.644282271527021e-15 1.3658515868624687e-17
6.1990139391386085 4.3318030171057985e-23 7.127886003621652e-15 7.113998985659806e-15 1.3887017961847017e-17
6.204828454712694 4.4781566785381046e-23 7.37561937300131e-15 7.36161673364194e-15 1.4002639359371536e-17
6.210648424152782 4.585181118114212e-23 7.558974382495735e-15 7.544871618002101e-15 1.4102764493631845e-17
6.233982942956859 4.9490072120515234e-23 8.189419710084053e-15 8.174960904715662e-15 1.445880536839025e-17
6.239830258556775 4.9957085985261546e-23 8.274453252665856e-15 8.259939868754904e-15 1.451338391095033e-17
6.245683058788269 5.0001658502339935e-23 8.289604002123168e-15 8.275035872144499e-15 1.4568129978670156e-17
6.257405133728602 4.9911124605411324e-23 8.290124690689679e-15 8.27545767090665e-15 1.4667019783029444e-17
6.269149208991335 4.9208277304851186e-23 8.188723384290099e-15 8.174005332997791e-15 1.471805129230916e-17
6.280915325867298 4.743201698061591e-23 7.907950906652484e-15 7.893241249175559e-15 1.470965747692497e-17
6.304513850009849 4.304650434068689e-23 7.203754864231522e-15 7.189115984743522e-15 1.4638879487997004e-17
6.32820103803542 3.760864003913274e-23 6.3173847824404296e-15 6.302874115936735e-15 1.45106665036981e-17
6.3519772230701035 3.2623381794132544e-23 5.500565542275591e-15 5.486164846658941e-15 1.440069561664765e-17
6.375842739491607 2.8427929786684203e-23 4.8111872937350044e-15 4.7968780828199524e-15 1.4309210915052882e-17
6.399797922933955 2.507427923729229e-23 4.259554234097311e-15 4.2452671124796e-15 1.4287121617710354e-17
6.42384311029221 2.2285976649502125e-23 3.800108789773957e-15 3.7858298993711984e-15 1.4278890402756557e-17
6.447978639727206 2.026180742240491e-23 3.467937057185889e-15 3.4536116244753213e-15 1.4325432710568558e-17
6.472204850670314 1.8577298858472108e-23 3.191569127509469e-15 3.177185874141576e-15 1.4383253367894025e-17
6.496522083828205 1.7491412956390514e-23 3.0163049398487253e-15 3.0018188717104107e-15 1.4486068138315043e-17
6.520930681187647 1.6579407041660385e-23 2.869776075633815e-15 2.8551796178448293e-15 1.459645778898634e-17
6.57002334288761 1.5668590669888328e-23 2.73253844389041e-15 2.7176565145885813e-15 1.4881929301828303e-17
