Dust emission spectrum from A.P. Jones, M. Kohler, N. Ysard, M. Bocchio, and L. Verstraete (2017), A&A, 602A, 46J 
inside the DustPedia framework.

lambda    nu*dP/dnu     j_nu    j_nu(carb.) j_nu(sil)
 (um)   (erg s-1 H-1) (Jy cm2 sr-1 H-1)
0.9927057738263894 2.3975407287758197e-23 6.317655997919068e-16 6.31765599782691e-16 9.215885804662465e-27
1.0001793341362166 2.4371284993774442e-23 6.470319675932013e-16 6.470319675820995e-16 1.1101725758599775e-26
1.0077091589558085 2.4766592438939303e-23 6.624771393496428e-16 6.624771393362864e-16 1.3356282641549906e-26
1.0114953028030835 2.496398362885168e-23 6.702660040230325e-16 6.702660040083895e-16 1.4642767148244038e-26
1.0152956718711033 2.5161173986482418e-23 6.780986327574545e-16 6.780986327414065e-16 1.6047982206691498e-26
1.0229392996569957 2.5554681591972006e-23 6.938886295196431e-16 6.938886295003858e-16 1.925746283142059e-26
1.0267826658714554 2.5750521374047465e-23 7.01833328490764e-16 7.018333284696781e-16 2.1085927934587017e-26
1.0306404723013447 2.5946073739603767e-23 7.098200685691393e-16 7.098200685460588e-16 2.3080525653729637e-26
1.03451277320114 2.6141319818922492e-23 7.17848505805353e-16 7.178485057800972e-16 2.5255613668027632e-26
1.0383996230291617 2.6336240847312943e-23 7.259182919621918e-16 7.259182919345651e-16 2.7626721834400766e-26
1.0403485208654093 2.6433573633049746e-23 7.299685809095582e-16 7.299685808806674e-16 2.889097900726423e-26
1.0423010764483396 2.653081816870998e-23 7.340290745970915e-16 7.340290745668809e-16 3.0210641842691084e-26
1.0462171883269815 2.6725033239192686e-23 7.42180497144693e-16 7.421804971116676e-16 3.302552322675637e-26
1.0471985131304309 2.677352824294913e-23 7.442246605970838e-16 7.442246605633162e-16 3.376759571955114e-26
1.048180758391296 2.68219991668782e-23 7.462713358520869e-16 7.462713358175614e-16 3.452564259693233e-26
1.0501480137395462 2.6918867630423045e-23 7.503721989994614e-16 7.503721989633704e-16 3.609097614297624e-26
1.0521189612883777 2.7015636344895884e-23 7.544830408934094e-16 7.544830408556852e-16 3.7724221399119236e-26
1.0531058218030118 2.706390824137537e-23 7.565401113554703e-16 7.565401113169029e-16 3.856723715859183e-26
1.0540936079674168 2.711191077671972e-23 7.58592840244676e-16 7.585928402052476e-16 3.9428475304905314e-26
1.058054026499678 2.730364728818952e-23 7.66827964703389e-16 7.668279646603278e-16 4.306137432865545e-26
1.0590464539527713 2.735151160655768e-23 7.688927687023628e-16 7.688927686583442e-16 4.401851510320804e-26
1.06003981227728 2.7399347442109666e-23 7.709599700689131e-16 7.709599700239172e-16 4.4996020146789206e-26
1.0620293250338977 2.7494932550873586e-23 7.751015412201486e-16 7.751015411731347e-16 4.701378036324507e-26
1.0660195594769086 2.7685748751169783e-23 7.834131906272874e-16 7.834131905759751e-16 5.131235259385702e-26
1.070024785945596 2.7876078210490776e-23 7.917625302326498e-16 7.917625301766638e-16 5.598584555548525e-26
1.0740450607676866 2.8065903388170846e-23 8.001491739025374e-16 8.001491738414719e-16 6.106526290093831e-26
1.07808044048254 2.825520688429313e-23 8.085727321445066e-16 8.085727320779227e-16 6.658402158238202e-26
1.0861967418109137 2.863184520536239e-23 8.255193665814463e-16 8.255193665023598e-16 7.908637096873747e-26
1.0902777775684922 2.8818384744120085e-23 8.340195452607608e-16 8.340195451746102e-16 8.615052585907513e-26
1.0943741465085532 2.900432116212266e-23 8.425544237517003e-16 8.425544236578848e-16 9.381551371111723e-26
1.1026131145906286 2.937431855537702e-23 8.597266456660707e-16 8.597266455549259e-16 1.1114507611447516e-25
1.1109141095355224 2.974170682514119e-23 8.770327359672672e-16 8.770327358357597e-16 1.315073478086724e-25
1.1192775983109025 3.010601669220623e-23 8.944592153553892e-16 8.944592151999878e-16 1.554017437099895e-25
1.1277040513999907 3.0465555004898904e-23 9.119555443116764e-16 9.119555441282718e-16 1.8340445074960166e-25
1.1361939428280308 3.0822059785604093e-23 9.29573129172694e-16 9.295731289565148e-16 2.1617925223300427e-25
1.1447477501889525 3.1175412189996133e-23 9.473085040005096e-16 9.4730850374602e-16 2.544899052843498e-25
1.1533659546722406 3.152568885933108e-23 9.651640690610941e-16 9.651640687618796e-16 2.9921444028145775e-25
1.1707974979042381 3.221814765584306e-23 1.0012713422488669e-15 1.001271341836781e-15 4.1208617337814975e-25
1.1884924949847024 3.2896812262401697e-23 1.0378144015945413e-15 1.0378144010298072e-15 5.647340914164496e-25
1.2064549276569216 3.3566994479457415e-23 1.0749617020262317e-15 1.074961701256073e-15 7.701587207837371e-25
1.2246888378427687 3.422137020466061e-23 1.1124809607227397e-15 1.1124809596775116e-15 1.0452281702637771e-24
1.2431983285522175 3.4858408487670433e-23 1.1503166487891316e-15 1.150316647377378e-15 1.4117539089363052e-24
1.2619875648066055 3.547787176390944e-23 1.1884531557984245e-15 1.1884531539006295e-15 1.8977952098187617e-24
1.3004222497298317 3.665377288329347e-23 1.2652388217975381e-15 1.2652388184157603e-15 3.3817777171234185e-24
1.3400274889804893 3.7744477018763674e-23 1.3425688073138882e-15 1.3425688013969327e-15 5.916954939670466e-24
1.3808389325824078 3.874594548651401e-23 1.4201647198460273e-15 1.4201647096763074e-15 1.01697197017893e-23
1.4228933163050095 3.966306549326934e-23 1.4980560039341717e-15 1.498055986755488e-15 1.7178683012958964e-23
1.466228494730424 4.051793592435282e-23 1.576951736483403e-15 1.5769517079497842e-15 2.8533618340917664e-23
1.5108834753276823 4.129393190569463e-23 1.6561003221194655e-15 1.656100275496402e-15 4.6623063356529993e-23
1.5568984535646726 4.1977605323903686e-23 1.7347918783755054e-15 1.7347918033562722e-15 7.501923287052541e-23
1.6043148490894465 4.257021736518338e-23 1.8128626608344215e-15 1.812862541746908e-15 1.1908751307012205e-22
1.6531753430134553 4.307358318139908e-23 1.890163416805959e-15 1.8901632305171434e-15 1.8628881571573474e-22
1.7035239163302658 4.349370121105407e-23 1.9667267956729454e-15 1.9667265084362656e-15 2.8723667975111664e-22
1.755405889504358 4.386517231446567e-23 2.0439337922497806e-15 2.0439333554884665e-15 4.367613140270808e-22
1.8088679632656115 4.417946904928157e-23 2.121274114179813e-15 2.121273459008193e-15 6.55171620347828e-22
1.8639582606462262 4.44308214631758e-23 2.198315180230067e-15 2.198314210286065e-15 9.699440016819152e-22
1.9207263702978936 4.462343946035119e-23 2.275086815215512e-15 2.275085397514178e-15 1.4177013333956999e-21
1.979223391128241 4.476710359343e-23 2.3519237878947333e-15 2.3519217412667117e-15 2.0466280209540803e-21
2.039501978296691 4.4873516328920015e-23 2.4293140757638644e-15 2.4293111565452636e-15 2.919218601270149e-21
2.1016163906111602 4.497542490159689e-23 2.508985520154832e-15 2.5089814043970063e-15 4.115757826253234e-21
2.1656225393682647 4.5091827563466846e-23 2.5920897422729e-15 2.592084004531775e-15 5.737741125710468e-21
2.231578038680979 4.522410582837897e-23 2.6788691480181647e-15 2.6788612361635727e-15 7.911854592575885e-21
2.299542257339062 4.5383648921294264e-23 2.7701943474571697e-15 2.7701835530677914e-15 1.079438937860575e-20
2.369576372248914 4.559561164567536e-23 2.867894623106657e-15 2.867880046900414e-15 1.457620624288795e-20
2.4417434235010123 4.5889697737432554e-23 2.974299217580636e-15 2.9742797302506546e-15 1.9487329980327146e-20
2.5161083711144245 4.6316759155862843e-23 3.0934061122953157e-15 3.093380309538812e-15 2.5802756503590392e-20
2.5927381535095444 4.695999548541289e-23 3.2318867803565063e-15 3.231852932827289e-15 3.3847529217717857e-20
2.6717017477616296 4.791874201536979e-23 3.3983086101191484e-15 3.3982646102722163e-15 4.399984693171224e-20
2.753070231689431 4.9342539780401e-23 3.605854707499095e-15 3.605798011815258e-15 5.669568383643543e-20
2.836916847834745 5.1570105979699623e-23 3.883417321905508e-15 3.883344886834322e-15 7.243507118503054e-20
2.9233170693905177 5.534732797843735e-23 4.294790805065915e-15 4.294699034667163e-15 9.177039875200987e-20
2.967498994190263 5.855334001427999e-23 4.612237757089558e-15 4.612134942120418e-15 1.0281496913968781e-19
3.0123486681368425 6.2297346422027e-23 4.9813174522229074e-15 4.981202416060931e-15 1.1503616197704855e-19
3.0578761833420214 7.067034366672721e-23 5.736229685934474e-15 5.736101111341636e-15 1.285745928371884e-19
3.1040917844459814 8.145919648005814e-23 6.711878856729659e-15 6.711735416139494e-15 1.4344059016313258e-19
3.127460860933648 9.286992466421865e-23 7.70968101494901e-15 7.70952956160805e-15 1.5145334096391127e-19
3.1510058709225794 1.0807253620421726e-22 9.039283113052122e-15 9.039123268333962e-15 1.5984471815821586e-19
3.162844764501044 1.2222268682396551e-22 1.0261223249391054e-14 1.0261059046909673e-14 1.6420248138265513e-19
3.1747281389236908 1.3867803891335067e-22 1.1686478540666876e-14 1.1686309881148241e-14 1.6865951863760502e-19
3.1986289994194426 1.8457600504496203e-22 1.5671427045748357e-14 1.5671249145180835e-14 1.779005675195046e-19
3.2227097969389145 2.9276481063682227e-22 2.504433515764842e-14 2.5044147422807582e-14 1.8773484083832613e-19
3.2348180950136065 3.953604126929683e-22 3.3947865922423074e-14 3.3947672928154177e-14 1.9299426889881068e-19
3.240889293275058 4.720635098460086e-22 4.061010012036167e-14 4.0609904351330174e-14 1.9576903148844705e-19
3.2469718861334385 5.607970213629352e-22 4.833410259611618e-14 4.8333903955549144e-14 1.9864056705177298e-19
3.2714166318528037 1.034114543487114e-21 8.979950367460705e-14 8.979929313252671e-14 2.1054208034243767e-19
3.2744851364798273 1.063702969879053e-21 9.24555163212758e-14 9.245530436732508e-14 2.119539507183123e-19
3.2775565192852394 1.094141232221994e-21 9.519036829649461e-14 9.519015492270439e-14 2.1337379023114643e-19
3.283707930232385 1.0648690284759124e-21 9.281756069305649e-14 9.281734476177776e-14 2.1593127871093575e-19
3.2898708863219004 9.720381785824662e-22 8.488512842851799e-14 8.488491015277641e-14 2.182757415955475e-19
3.29141343181113 9.501463727026194e-22 8.301228814222767e-14 8.301206927729874e-14 2.1886492892770914e-19
3.292184975758714 9.393895184143899e-22 8.20917231345361e-14 8.20915039745517e-14 2.1915998442624747e-19
3.295272960557952 8.714912327674446e-22 7.622963674764912e-14 7.622941643677803e-14 2.2031087109860806e-19
3.3076538914384823 6.362713749022913e-22 5.586398051878672e-14 5.5863755576155405e-14 2.24942631312069e-19
3.310756385682612 5.883982683416182e-22 5.1709226856104414e-14 5.1709000744052557e-14 2.2611205187932425e-19
3.313861789986515 5.442279229357163e-22 4.787233876371908e-14 4.787211147763365e-14 2.2728608542550306e-19
3.3200813396944477 4.82284149983039e-22 4.2503152774606033e-14 4.250292297088231e-14 2.29803723714095e-19
3.345076488085796 3.7178413847527882e-22 3.301158244551749e-14 3.301134143917929e-14 2.410063381963674e-19
3.3482140837626964 3.7592812945563873e-22 3.3410846235331236e-14 3.3410603711835364e-14 2.425234958670387e-19
3.3513546224236106 3.8011793270764346e-22 3.3814905393195554e-14 3.381466134466911e-14 2.4404852644286866e-19
3.3576445397418455 4.107363052306643e-22 3.660726156753582e-14 3.66070143332377e-14 2.4723429811836184e-19
3.3702598118196083 5.236686085474377e-22 4.684781667504492e-14 4.6847562755414245e-14 2.5391963067942686e-19
3.382922481734668 5.493906571424706e-22 4.933359325996594e-14 4.9333332808295266e-14 2.604516706605824e-19
3.389271646505754 5.627164240354093e-22 5.06250427124139e-14 5.062477894281928e-14 2.637695946177628e-19
3.395632727569191 5.77075516051256e-22 5.201430409399141e-14 5.201403690455257e-14 2.6718943884948146e-19
3.421196662673239 6.4602169737123225e-22 5.866709410112924e-14 5.866681271437216e-14 2.8138675707221637e-19
3.4276182099114902 6.321283020509539e-22 5.751314406320397e-14 5.751285947071542e-14 2.8459248855632034e-19
3.4340518103208963 5.712462677696198e-22 5.207144766099061e-14 5.2071160018394506e-14 2.8764259611290156e-19
3.4469541582030403 4.845396412459502e-22 4.433372817439662e-14 4.433343464034317e-14 2.935340534339574e-19
3.472904465399547 4.60242346279393e-22 4.242763702427322e-14 4.2427329965973397e-14 3.0705829983866703e-19
3.4990501388274233 4.230793898563844e-22 3.929537775202755e-14 3.9295056763985427e-14 3.20988042119941e-19
3.5253949054701885 2.908159080761206e-22 2.721418702254976e-14 2.7213852362057295e-14 3.3466049246215307e-19
3.5519380250092896 1.6650507229027872e-22 1.569864904658851e-14 1.5698300527923636e-14 3.4851866487330323e-19
3.578680990867387 1.1721821374002525e-22 1.113493069990044e-14 1.113456696626622e-14 3.637336342236412e-19
3.605625307711299 9.728566904932599e-23 9.311055093459344e-15 9.31067525869996e-15 3.798347593867147e-19
3.660119384959845 8.27514933005123e-23 8.039712599191068e-15 8.039298603313708e-15 4.139958773606053e-19
3.715437065384467 7.246353223166442e-23 7.14658958734227e-15 7.146139084509893e-15 4.505028323770072e-19
3.8285932144167436 6.726480085188816e-23 6.835912877416111e-15 6.835382148224509e-15 5.307291916008622e-19
3.94519561050918 6.63001910817655e-23 6.943089352915691e-15 6.942468398605496e-15 6.209543101956658e-19
4.06534921144712 6.70847020262233e-23 7.239203502803521e-15 7.238481652343674e-15 7.21850459845581e-19
4.189162171576248 6.889275478151042e-23 7.660730021282682e-15 7.65989558743581e-15 8.344338468713832e-19
4.316745939156006 7.145736449290664e-23 8.187907290047345e-15 8.186948000241413e-15 9.592898059314087e-19
4.448215356677963 7.469311357499676e-23 8.819334228492008e-15 8.81823832281593e-15 1.0959056760773206e-18
4.58368876423945 7.861798015750257e-23 9.565472685322219e-15 9.564227158323511e-15 1.2455269987075606e-18
4.723288106065518 8.332680141961559e-23 1.0447168066864164e-14 1.044575785434626e-14 1.4102125179017974e-18
4.867139040275056 8.900259902553678e-23 1.1498624053439629e-14 1.1497036254421654e-14 1.5877990179724967e-18
4.940699165968905 9.242437418026142e-23 1.2121164984881263e-14 1.2119482682993672e-14 1.6823018875915402e-18
5.015371051989984 9.598027325070834e-23 1.2777752859872786e-14 1.2775972248442563e-14 1.78061143022195e-18
5.091171501069577 1.0030213160554227e-22 1.355493135750772e-14 1.3553046741728658e-14 1.8846157790587977e-18
5.129500256944802 1.0252558835952822e-22 1.3959721664048788e-14 1.3957783535850993e-14 1.938128197791946e-18
5.168117569889187 1.0484485498555613e-22 1.4382982144024406e-14 1.4380989118501334e-14 1.9930255230765985e-18
5.20702561229733 1.0767330098057093e-22 1.4882201297117695e-14 1.4880149114275354e-14 2.0521828423460425e-18
5.246226572918644 1.105770349970935e-22 1.5398606340585184e-14 1.5396493755227366e-14 2.1125853578225448e-18
5.265937586045735 1.1205790374100553e-22 1.5663457546087178e-14 1.5661314288044428e-14 2.143258042747117e-18
5.285722656980489 1.1355852982951329e-22 1.5932853624059733e-14 1.5930679376643137e-14 2.1742474165977835e-18
5.305582063971359 1.1507923869251058e-22 1.620688123374019e-14 1.6204675678447178e-14 2.2055552930096945e-18
5.3255160863122235 1.1670998582143674e-22 1.6498298244545293e-14 1.6496060890640217e-14 2.2373539050747416e-18
5.365609099470188 1.2074526761709613e-22 1.7197233232732617e-14 1.7194929976247117e-14 2.3032564855065012e-18
5.406003951863644 1.2493601334269135e-22 1.7928065720392743e-14 1.79256951564822e-14 2.370563910543942e-18
5.446702915881641 1.2928967846325823e-22 1.869248222178671e-14 1.8690042927352394e-14 2.4392944343204893e-18
5.487708281020852 1.3398968645992762e-22 1.9517843021468135e-14 1.9515333346370976e-14 2.5096750971542988e-18
5.529022354014368 1.404707479946936e-22 2.0615965267328917e-14 2.061338190059908e-14 2.5833667298335006e-18
5.570647458961463 1.473324593157043e-22 2.1785801693732216e-14 2.1783143032838678e-14 2.6586608935393082e-18
5.612585937458331 1.5460195227176476e-22 2.3032835750610862e-14 2.303010016952699e-14 2.735581083871991e-18
5.654840148729818 1.625840973478284e-22 2.4404382880136708e-14 2.4401568457323888e-14 2.814422812830871e-18
5.67608639626678 1.6799080835865606e-22 2.5310687989518213e-14 2.5307832330271197e-14 2.8556592470243785e-18
5.686739436050992 1.7077708330511356e-22 2.5778779665510118e-14 2.5775903215629213e-14 2.8764498809035836e-18
5.6974124697621304 1.7362039032170019e-22 2.625716438197379e-14 2.6254267025889e-14 2.8973560847796295e-18
5.718818669136295 1.794835594018062e-22 2.7245854491458163e-14 2.7242914974365215e-14 2.939517092947417e-18
5.740305295436557 1.859389537520323e-22 2.8331841710397295e-14 2.8328859320603366e-14 2.982389793924034e-18
5.7835210386641895 2.0263390600204832e-22 3.1108127395977985e-14 3.110505591146326e-14 3.071484514727034e-18
5.827062130521658 2.218444121763087e-22 3.43137020533811e-14 3.431053882331648e-14 3.163230064615155e-18
5.8489554468988025 2.3528245309978726e-22 3.652895815503206e-14 3.6525745676367124e-14 3.2124786649280294e-18
5.870931020387893 2.49696958099672e-22 3.891254737462533e-14 3.890928502931416e-14 3.262345311165806e-18
5.892989160043636 2.651663268322149e-22 4.14785387263348e-14 4.1475225889823185e-14 3.3128365116240427e-18
5.915130176081913 2.827464087263052e-22 4.439467052882847e-14 4.439130538764476e-14 3.365141183700461e-18
5.95966208400165 3.3181740474845363e-22 5.2491650797085656e-14 5.248816871480936e-14 3.482082276314242e-18
6.004529249263818 4.02450811873469e-22 6.41447631086219e-14 6.414115030126454e-14 3.612807357358273e-18
6.027089341400364 4.515072845919257e-22 7.223402644514726e-14 7.223033917982767e-14 3.6872653195866854e-18
6.049734195844842 5.094560736901246e-22 8.181114500616777e-14 8.180737897123006e-14 3.7660349376953995e-18
6.095279466722835 6.767453710053663e-22 1.094935028239325e-13 1.0948954709920217e-13 3.955724730279177e-18
6.141167624020661 9.340651562888923e-22 1.5226411285613841e-13 1.5225991561469829e-13 4.197241440089823e-18
6.164241091010745 1.0983754775401897e-21 1.7972143493833422e-13 1.7971708855704062e-13 4.346381293570006e-18
6.187401249150058 1.2855121326311882e-21 2.111319182720058e-13 2.1112741765622586e-13 4.5006157799614404e-18
6.1990139391386085 1.3768975585935113e-21 2.2656544624867944e-13 2.26560866946101e-13 4.579302578390843e-18
6.204828454712694 1.4250322605952277e-21 2.347058466884452e-13 2.347012275258597e-13 4.6191625854933305e-18
6.210648424152782 1.4601870148231207e-21 2.407214885164751e-13 2.4071683475992747e-13 4.653756547608235e-18
6.233982942956859 1.5796578181751158e-21 2.6139547422459854e-13 2.613906969697617e-13 4.7772548367831045e-18
6.239830258556775 1.594955447288306e-21 2.6417442147376995e-13 2.64169624985146e-13 4.7964886239641634e-18
6.245683058788269 1.5963294688040366e-21 2.646500046130636e-13 2.646451888233542e-13 4.81578970931632e-18
6.257405133728602 1.5931574729778244e-21 2.6461984592225146e-13 2.646149951038392e-13 4.8508184122158696e-18
6.269149208991335 1.5698060993625388e-21 2.6123060222195524e-13 2.6122573260478477e-13 4.8696171704061606e-18
6.280915325867298 1.5110861867077053e-21 2.5193099810806476e-13 2.519261298652435e-13 4.868242821212846e-18
6.304513850009849 1.3662223802799484e-21 2.286348512685432e-13 2.286300041260795e-13 4.847142463627514e-18
6.32820103803542 1.1866150549894569e-21 1.9932398202128592e-13 1.9931917561127063e-13 4.806410015344748e-18
6.3519772230701035 1.0219137866631559e-21 1.7230291444238638e-13 1.722981426352032e-13 4.771807183147244e-18
6.375842739491607 8.833609351780396e-22 1.4950138610167757e-13 1.494966425704685e-13 4.743531209054676e-18
6.399797922933955 7.723772315335209e-22 1.3120946272329395e-13 1.3120472394702242e-13 4.73877627152546e-18
6.42384311029221 6.801227911591556e-22 1.159716101949359e-13 1.1596687138894947e-13 4.738805986444266e-18
6.447978639727206 6.12962620776275e-22 1.0491244650313236e-13 1.0490768896378707e-13 4.7575393452839126e-18
6.472204850670314 5.570435745809868e-22 9.569976178207511e-14 9.56949815883267e-14 4.7801937484241546e-18
6.496522083828205 5.207863230911316e-22 8.98069448627089e-14 8.980212657218654e-14 4.81829052234279e-18
