Dust emission spectrum from A.P. Jones, M. Kohler, N. Ysard, M. Bocchio, and L. Verstraete (2017), A&A, 602A, 46J 
inside the DustPedia framework.

lambda    nu*dP/dnu     j_nu    j_nu(carb.) j_nu(sil)
 (um)   (erg s-1 H-1) (Jy cm2 sr-1 H-1)
0.9927057738263894 3.298080043559466e-23 8.69062824198592e-16 8.690628029226028e-16 2.1275989201504953e-23
1.0001793341362166 3.353600878590847e-23 8.903457390741664e-16 8.90345713466042e-16 2.560812402597252e-23
1.0077091589558085 3.409316126087492e-23 9.11951856080924e-16 9.119518252994252e-16 3.0781498967129556e-23
1.0114953028030835 3.437243658404782e-23 9.228765753194245e-16 9.228765415884094e-16 3.373101522788334e-23
1.0152956718711033 3.4652162387024994e-23 9.338826538600611e-16 9.338826169091894e-16 3.695087187648871e-23
1.0229392996569957 3.521264776555447e-23 9.561322770491624e-16 9.561322327508069e-16 4.429835585821324e-23
1.0267826658714554 3.5492767848800155e-23 9.67359341383232e-16 9.67359292902622e-16 4.848061006267935e-23
1.0306404723013447 3.5773279798738177e-23 9.786679932588185e-16 9.78667940218738e-16 5.304008044466182e-23
1.03451277320114 3.605417309340688e-23 9.900584386108659e-16 9.90058380601794e-16 5.800907184475885e-23
1.0383996230291617 3.633543745822992e-23 1.00153088856903e-15 1.0015308251465327e-15 6.342249739919938e-23
1.0403485208654093 3.6476205650408335e-23 1.0072979327434882e-15 1.0072978664359434e-15 6.63075447017965e-23
1.0423010764483396 3.6617062872594375e-23 1.0130855597409896e-15 1.0130854904229143e-15 6.931807535181045e-23
1.0462171883269815 3.68990395763845e-23 1.0247226744998436e-15 1.0247225987633039e-15 7.573653958560294e-23
1.0471985131304309 3.6969587522869906e-23 1.027644861631856e-15 1.0276447842039206e-15 7.742793532613138e-23
1.048180758391296 3.7040156684605146e-23 1.0305722193640695e-15 1.030572140208606e-15 7.915546307213337e-23
1.0501480137395462 3.7181358076468527e-23 1.036442461275538e-15 1.0364423785536733e-15 8.272186474322094e-23
1.0521189612883777 3.732264260810545e-23 1.0423334297828417e-15 1.0423333433410542e-15 8.644178727291351e-23
1.0531058218030118 3.739322090020752e-23 1.0452840458767767e-15 1.0452839575153778e-15 8.836139892094656e-23
1.0540936079674168 3.74635089790467e-23 1.0482311599501898e-15 1.0482310696279926e-15 9.032219728503383e-23
1.058054026499678 3.7744849540102293e-23 1.0600710537083532e-15 1.0600709551184854e-15 9.858986790473881e-23
1.0590464539527713 3.781523107303196e-23 1.0630439054743887e-15 1.0630438047071684e-15 1.0076722048173283e-22
1.06003981227728 3.788563089954275e-23 1.066021916254237e-15 1.0660218132637059e-15 1.0299053097921033e-22
1.0620293250338977 3.802648491561112e-23 1.0719934304526394e-15 1.0719933228739095e-15 1.0757872976546973e-22
1.0660195594769086 3.830840684177163e-23 1.0839985402414833e-15 1.0839984228931227e-15 1.173483606194788e-22
1.070024785945596 3.859060735673726e-23 1.096086640784578e-15 1.0960865128216133e-15 1.2796296468586367e-22
1.0740450607676866 3.887307880671775e-23 1.108257997757991e-15 1.1082578582662839e-15 1.3949170719618326e-22
1.07808044048254 3.915581385201254e-23 1.1205128851228921e-15 1.120512733113821e-15 1.5200907118272673e-22
1.0861967418109137 3.972160878565361e-23 1.1452617562415234e-15 1.1452615759050105e-15 1.8033651278955915e-22
1.0902777775684922 4.000365925271158e-23 1.1577274019676026e-15 1.1577272056418536e-15 1.963257488230338e-22
1.0943741465085532 4.028592989331017e-23 1.1702769479358239e-15 1.1702767342731057e-15 2.136627185032509e-22
1.1026131145906286 4.0851109662488546e-23 1.195629012317604e-15 1.1956287595005362e-15 2.528170680267546e-22
1.1109141095355224 4.141710757658829e-23 1.2213205982865921e-15 1.2213202995291978e-15 2.9875739445526223e-22
1.1192775983109025 4.198343910538836e-23 1.247341167184297e-15 1.247340814596089e-15 3.5258820810956446e-22
1.1277040513999907 4.254800785348138e-23 1.2736315374907726e-15 1.2736311219093851e-15 4.155813875902105e-22
1.1361939428280308 4.31132416513636e-23 1.300267121321824e-15 1.3002666321223253e-15 4.891994989387604e-22
1.1447477501889525 4.367912482419785e-23 1.3272513011564943e-15 1.3272507260343575e-15 5.751221366962436e-22
1.1533659546722406 4.4245858516470857e-23 1.3545941227615283e-15 1.3545934474850512e-15 6.752764773614081e-22
1.1707974979042381 4.538359580317953e-23 1.410425402830023e-15 1.4104244753957525e-15 9.274342706035806e-22
1.1884924949847024 4.6524673662679783e-23 1.4677402774310713e-15 1.4677390100530778e-15 1.267377993394683e-21
1.2064549276569216 4.767688163449965e-23 1.5268218863172215e-15 1.5268201629338423e-15 1.723383379066456e-21
1.2246888378427687 4.883234847868841e-23 1.587460046895503e-15 1.5874577149074455e-15 2.3319880572905053e-21
1.2431983285522175 4.9989991971763026e-23 1.6496542020354595e-15 1.6496510617961506e-15 3.140239308513162e-21
1.2619875648066055 5.1151331440621597e-23 1.7134895147723802e-15 1.7134853063639474e-15 4.2084084322434545e-21
1.3004222497298317 5.347706144981698e-23 1.8459560612599442e-15 1.845948609227896e-15 7.452032048657297e-21
1.3400274889804893 5.58153921492065e-23 1.9853501859428242e-15 1.9853372319901672e-15 1.295395265723563e-20
1.3808389325824078 5.817382105990136e-23 2.1322594467765244e-15 2.1322373308993817e-15 2.211587714293133e-20
1.4228933163050095 6.057174551948141e-23 2.287767370367025e-15 2.287730268554831e-15 3.7101812193855414e-20
1.466228494730424 6.305189293372572e-23 2.4539698230443e-15 2.4539086313901562e-15 6.119165414407744e-20
1.5108834753276823 6.560740667150522e-23 2.6311964569089358e-15 2.631097194092867e-15 9.926281606855821e-20
1.5568984535646726 6.823452495657117e-23 2.8199012022266156e-15 2.8197426634041106e-15 1.5853882250566895e-19
1.6043148490894465 7.094844871680008e-23 3.0213562787209557e-15 3.021106503790809e-15 2.4977493014611665e-19
1.6531753430134553 7.376525299564483e-23 3.2369812851793303e-15 3.236593569590622e-15 3.8771558870849926e-19
1.7035239163302658 7.670418536433612e-23 3.468460317145044e-15 3.4678672136100375e-15 5.931035350078789e-19
1.755405889504358 7.982313261914551e-23 3.719424535571772e-15 3.71852995994366e-15 8.945756281136602e-19
1.8088679632656115 8.312015646649286e-23 3.9910084949700024e-15 3.98967765534846e-15 1.330839621542179e-18
1.8639582606462262 8.659188210732285e-23 4.284328820681091e-15 4.282375255061994e-15 1.95356561909694e-18
1.9207263702978936 9.024716324920492e-23 4.601172247184107e-15 4.598341597170354e-15 2.8306500137524965e-18
1.979223391128241 9.410003430555438e-23 4.943721870749397e-15 4.939671764139215e-15 4.050106610181831e-18
2.039501978296691 9.816202074694261e-23 5.3141897095388916e-15 5.308465414129288e-15 5.724295409604993e-18
2.1016163906111602 1.0247477231633227e-22 5.7166268130957006e-15 5.708631591670625e-15 7.995221425075011e-18
2.1656225393682647 1.070555938911195e-22 6.154057659063063e-15 6.143018413680647e-15 1.1039245382416466e-17
2.231578038680979 1.118872702738319e-22 6.627690053839632e-15 6.612617669733274e-15 1.5072384106358565e-17
2.299542257339062 1.1696795828836684e-22 7.139663393879418e-15 7.119307555219453e-15 2.035583865996627e-17
2.369576372248914 1.2230733757016714e-22 7.69294550777766e-15 7.665743639406265e-15 2.7201868371398007e-17
2.4417434235010123 1.2791807371853004e-22 8.290894151283474e-15 8.254915941717523e-15 3.597820956594988e-17
2.5161083711144245 1.3383660240815212e-22 8.938685941842494e-15 8.891572033655299e-15 4.711390818719428e-17
2.5927381535095444 1.4013137300525434e-22 9.644139170958147e-15 9.583036377736475e-15 6.110279322166837e-17
2.6717017477616296 1.4686306251759142e-22 1.041525693019899e-14 1.0336754285436077e-14 7.850264476291223e-17
2.753070231689431 1.541277093495735e-22 1.1263346572503798e-14 1.1163410599100723e-14 9.993597340307443e-17
2.836916847834745 1.6219991906479044e-22 1.2214246283609198e-14 1.2088153312563587e-14 1.2609297104561033e-16
2.9233170693905177 1.7170008853652953e-22 1.3323424786883643e-14 1.3165728021149369e-14 1.5769676573427421e-16
2.967498994190263 1.7759615220769565e-22 1.3989222109727512e-14 1.3813775790035647e-14 1.7544631969186304e-16
3.0123486681368425 1.8393991467389055e-22 1.470789944917257e-14 1.451296201633082e-14 1.9493743284174863e-16
3.0578761833420214 1.9444662590416762e-22 1.5783006703651083e-14 1.5566632586714094e-14 2.1637411693699108e-16
3.1040917844459814 2.0683321652869878e-22 1.704214567385541e-14 1.6802451724201996e-14 2.396939496534116e-16
3.127460860933648 2.183351875851656e-22 1.8125293594312886e-14 1.7873116805830355e-14 2.5217678848252727e-16
3.1510058709225794 2.329835112601552e-22 1.9486948237931043e-14 1.9221762173626453e-14 2.6518606430458923e-16
3.162844764501044 2.4619357298265563e-22 2.066921682534089e-14 2.0397299324869112e-14 2.719175004717909e-16
3.1747281389236908 2.6117968682237526e-22 2.2009763256133983e-14 2.173097808223278e-14 2.7878517390120725e-16
3.1986289994194426 3.018377421240316e-22 2.5627535682105046e-14 2.533456392006461e-14 2.929717620404417e-16
3.2227097969389145 3.95894400560255e-22 3.386647470746369e-14 3.3558472653455324e-14 3.080020540083723e-16
3.2348180950136065 4.841603737440043e-22 4.157272940114986e-14 4.1256706919601403e-14 3.160224815484573e-16
3.240889293275058 5.500770053714583e-22 4.732134934413958e-14 4.700109628523875e-14 3.202530589008287e-16
3.2469718861334385 6.264497026750073e-22 5.399259098561524e-14 5.366796051575593e-14 3.246304698593195e-16
3.2714166318528037 1.0280071401865785e-21 8.926915450914678e-14 8.892643621405441e-14 3.427182950923643e-16
3.2744851364798273 1.053139875809128e-21 9.153738753547749e-14 9.119253808703016e-14 3.448494484473202e-16
3.2775565192852394 1.0789507208060578e-21 9.386879267745087e-14 9.352180146656297e-14 3.46991210887936e-16
3.283707930232385 1.0543361151536538e-21 9.189947659499354e-14 9.154865610813357e-14 3.5082048685999376e-16
3.2898708863219004 9.758421158200146e-22 8.521731466158777e-14 8.486301013433346e-14 3.543045272542959e-16
3.29141343181113 9.572963616123422e-22 8.363696761966374e-14 8.328178825314228e-14 3.5517936652145266e-16
3.292184975758714 9.481784100539751e-22 8.285977008949266e-14 8.25041527282867e-14 3.556173612059973e-16
3.295272960557952 8.912037383618854e-22 7.795389636650775e-14 7.759657544270188e-14 3.5732092380586416e-16
3.3076538914384823 6.925109374666688e-22 6.080175699500167e-14 6.043759416350337e-14 3.6416283149829147e-16
3.310756385682612 6.517037547337942e-22 5.727259767688413e-14 5.690671037459593e-14 3.65887302288173e-16
3.313861789986515 6.139090418332101e-22 5.400175254186847e-14 5.363413516165161e-14 3.6761738021687426e-16
3.3200813396944477 5.611241700474208e-22 4.94512339372718e-14 4.907989496332987e-14 3.7133897394194516e-16
3.345076488085796 4.688962447179837e-22 4.163439329171519e-14 4.124646849688352e-14 3.879247948316679e-16
3.3482140837626964 4.726710519376753e-22 4.200893361997138e-14 4.1618761986194813e-14 3.9017163377657306e-16
3.3513546224236106 4.764808901428389e-22 4.238725625775171e-14 4.199482770775762e-14 3.9242854999408504e-16
3.3576445397418455 5.031079527423349e-22 4.4839971992256977e-14 4.444282463154136e-14 3.9714736071561343e-16
3.3702598118196083 5.996310322224775e-22 5.364347645001496e-14 5.323643128508821e-14 4.0704516492675097e-16
3.382922481734668 6.22722704596295e-22 5.591858584215565e-14 5.5501920294624546e-14 4.16665547531091e-16
3.389271646505754 6.346328488655016e-22 5.709503705279312e-14 5.667349531314066e-14 4.2154173965244615e-16
3.395632727569191 6.476970512107879e-22 5.837972751466923e-14 5.795316055519423e-14 4.2656695947498e-16
3.421196662673239 7.1093616877960535e-22 6.456216452699396e-14 6.411479565305957e-14 4.473688739343919e-16
3.4276182099114902 6.995747696972531e-22 6.364964894316288e-14 6.319763789368549e-14 4.520110494774001e-16
3.4340518103208963 6.477830340414491e-22 5.904808881197021e-14 5.859168713295463e-14 4.564016790155649e-16
3.4469541582030403 5.735822223364083e-22 5.2480821311833565e-14 5.201599250539297e-14 4.648288064405919e-16
3.472904465399547 5.533723442800664e-22 5.10128656178308e-14 5.0528624303581976e-14 4.84241314248831e-16
3.4990501388274233 5.225213028631303e-22 4.853148716712054e-14 4.8027381248911796e-14 5.0410591820875895e-16
3.5253949054701885 4.118340703726956e-22 3.853891448897923e-14 3.801551087890211e-14 5.234036100771023e-16
3.5519380250092896 3.065901447850507e-22 2.890633310997502e-14 2.836353422617568e-14 5.427988837993437e-16
3.578680990867387 2.657627517660158e-22 2.5245648514083837e-14 2.4681592068782823e-14 5.640564453010181e-16
3.605625307711299 2.5028306712215963e-22 2.3954190269821215e-14 2.3367746411503956e-14 5.864438583172565e-16
3.660119384959845 2.4106203571617205e-22 2.342035664173274e-14 2.278688307456657e-14 6.334735671661793e-16
3.715437065384467 2.351651609325128e-22 2.319275418500204e-14 2.250970958394449e-14 6.83044601057553e-16
3.8285932144167436 2.3659333633917883e-22 2.404424623441719e-14 2.325469094710789e-14 7.895552873093025e-16
3.94519561050918 2.413829223994783e-22 2.5278105102602434e-14 2.4372452953096298e-14 9.056521495061368e-16
4.06534921144712 2.473773504621191e-22 2.6694833961990326e-14 2.5663652169281577e-14 1.0311817927087515e-15
4.189162171576248 2.5393337945974975e-22 2.8236859878844037e-14 2.7070506984722502e-14 1.166352894121528e-15
4.316745939156006 2.6077569237458805e-22 2.988085563767173e-14 2.8570225064583237e-14 1.3106305730884948e-15
4.448215356677963 2.6777479542021707e-22 3.1617311231855e-14 3.01553356183905e-14 1.4619756134645035e-15
4.58368876423945 2.749025821232725e-22 3.34474777290977e-14 3.182694683848516e-14 1.6205308906125363e-15
4.723288106065518 2.821984764309373e-22 3.538087219549737e-14 3.359362914412892e-14 1.7872430513684394e-15
4.867139040275056 2.897227648943523e-22 3.7430515397504057e-14 3.547288479374682e-14 1.9576306037572306e-15
4.940699165968905 2.9374962029200327e-22 3.852433563532865e-14 3.6479628683506705e-14 2.044706951821944e-15
5.015371051989984 2.9769949950206873e-22 3.963242135401175e-14 3.7499660659598936e-14 2.13276069441282e-15
5.091171501069577 3.021425923646952e-22 4.0831855057570667e-14 3.860815814282604e-14 2.223696914744628e-15
5.129500256944802 3.043308228597873e-22 4.1437202642678053e-14 3.916776626525518e-14 2.2694363774228805e-15
5.168117569889187 3.0654787611927343e-22 4.205330465781585e-14 3.973750234785711e-14 2.3158023099587405e-15
5.20702561229733 3.091866360637609e-22 4.2734621437025066e-14 4.0368174880817604e-14 2.366446556207467e-15
5.246226572918644 3.1181830490196637e-22 4.3422825789280335e-14 4.1005423220242105e-14 2.4174025690382347e-15
5.265937586045735 3.1313163908006547e-22 4.37695510207238e-14 4.132656021387312e-14 2.442990806850673e-15
5.285722656980489 3.1444339950708753e-22 4.4118047890543344e-14 4.164939897317205e-14 2.4686489173712896e-15
5.305582063971359 3.157536613245212e-22 4.4468334569701836e-14 4.197396041134394e-14 2.4943741583578898e-15
5.3255160863122235 3.1714414031952733e-22 4.483197026094089e-14 4.2311598792668536e-14 2.5203714682723466e-15
5.365609099470188 3.2055519275502146e-22 4.5655308258152684e-14 4.3081146859826043e-14 2.574161398326649e-15
5.406003951863644 3.2399888208057674e-22 4.6493185558447e-14 4.3864918356407155e-14 2.6282672020398307e-15
5.446702915881641 3.2747830642128616e-22 4.734625759426185e-14 4.4663590602479446e-14 2.682666991782397e-15
5.487708281020852 3.311528190452202e-22 4.823795703241877e-14 4.550038170515912e-14 2.737575327259662e-15
5.529022354014368 3.362618889353918e-22 4.935093976491337e-14 4.655612572475083e-14 2.7948140401625493e-15
5.570647458961463 3.415270482272654e-22 5.050102727045051e-14 4.764864804401788e-14 2.852379226432638e-15
5.612585937458331 3.4696207713905903e-22 5.1690941912473055e-14 4.878069330516078e-14 2.9102486073122714e-15
5.654840148729818 3.5281790890749323e-22 5.295907457373885e-14 4.999038316406687e-14 2.968691409671989e-15
5.67608639626678 3.5686848359254483e-22 5.376833964760181e-14 5.0769057896786266e-14 2.9992817508155546e-15
5.686739436050992 3.5893578633052976e-22 5.4181312684383384e-14 5.116670162588705e-14 3.014611058496339e-15
5.6974124697621304 3.6103205443601115e-22 5.4600027006754325e-14 5.157006435010934e-14 3.0299626566449773e-15
5.718818669136295 3.653144629270048e-22 5.545524466813196e-14 5.2394513356024084e-14 3.060731312107876e-15
5.740305295436557 3.700169973260318e-22 5.638013330105149e-14 5.328831332040571e-14 3.0918199806458016e-15
5.7835210386641895 3.822897350964553e-22 5.868868648978714e-14 5.553261021422141e-14 3.156076275565722e-15
5.827062130521658 3.961441826218601e-22 6.127345430663205e-14 5.805215264106585e-14 3.2213016655662035e-15
5.8489554468988025 4.0602706515710514e-22 6.303804417851751e-14 5.97814722399737e-14 3.256571938543818e-15
5.870931020387893 4.164847020469178e-22 6.490459804775927e-14 6.161260919498774e-14 3.2919888527715554e-15
5.892989160043636 4.275625483063386e-22 6.688130400914949e-14 6.355375427911389e-14 3.327549730035595e-15
5.915130176081913 4.401124732138996e-22 6.910308191702648e-14 6.573865480557994e-14 3.3644271114465436e-15
5.95966208400165 4.754854746684076e-22 7.521913298761909e-14 7.177036723881609e-14 3.4487657488030237e-15
6.004529249263818 5.262058615016475e-22 8.386950488499343e-14 8.03256596883337e-14 3.5438451966597167e-15
6.027089341400364 5.614897800567104e-22 8.982948671127965e-14 8.623054978984387e-14 3.59893692143578e-15
6.049734195844842 6.028247433391201e-22 9.680477873862791e-14 9.31474517295425e-14 3.65732700908542e-15
6.095279466722835 7.221345045769109e-22 1.1683720318424478e-13 1.130358196310968e-13 3.801383553148017e-15
6.141167624020661 9.042553055049468e-22 1.4740474040933292e-13 1.4341572948540372e-13 3.98901092392916e-15
6.164241091010745 1.0203755240280045e-21 1.6695871048118664e-13 1.6285161984024584e-13 4.1070906409408335e-15
6.187401249150058 1.1510748301928565e-21 1.890519978802609e-13 1.848237094026489e-13 4.228288477612043e-15
6.1990139391386085 1.2146039395487255e-21 1.9986039038398938e-13 1.955704427847329e-13 4.289947599256459e-15
6.204828454712694 1.247935167113006e-21 2.0553757841748985e-13 2.0121649297103042e-13 4.3210854464594055e-15
6.210648424152782 1.2720685474694275e-21 2.0970891477138914e-13 2.0536137191259868e-13 4.347542858790491e-15
6.233982942956859 1.3530334104809434e-21 2.23894571283149e-13 2.1945509052282949e-13 4.439480760319547e-15
6.239830258556775 1.36279856473254e-21 2.2572199307234047e-13 2.2126998406480905e-13 4.452009007531436e-15
6.245683058788269 1.3627292984611885e-21 2.2592223107570964e-13 2.214576758234754e-13 4.4645552522342254e-15
6.257405133728602 1.3583967662073887e-21 2.2562662453147674e-13 2.2114024337928394e-13 4.486381152192734e-15
6.269149208991335 1.339832903504361e-21 2.2296088440563708e-13 2.1846713174522568e-13 4.493752660411391e-15
6.280915325867298 1.296412991928425e-21 2.1614029821051316e-13 2.116570403516289e-13 4.483257858884267e-15
6.304513850009849 1.1906446126326174e-21 1.9925222851873523e-13 1.9480611541851104e-13 4.446113100224109e-15
6.32820103803542 1.0615373053501546e-21 1.7831380267496987e-13 1.7392202211536603e-13 4.3917805596038305e-15
6.3519772230701035 9.436927727066438e-22 1.5911422000334347e-13 1.547712940085054e-13 4.342925994838058e-15
6.375842739491607 8.442904591460899e-22 1.4288903763819067e-13 1.3858934321458265e-13 4.299694423608044e-15
6.399797922933955 7.652929751052762e-22 1.3000600741441793e-13 1.2572917766525713e-13 4.276829749160777e-15
6.42384311029221 6.993335505991866e-22 1.192473461859779e-13 1.149893194061254e-13 4.258026779852465e-15
6.447978639727206 6.513789556422422e-22 1.1148764626224334e-13 1.0723255273244907e-13 4.255093529794262e-15
6.472204850670314 6.112425446577902e-22 1.0501111328466713e-13 1.0075580916853904e-13 4.255304116128034e-15
6.496522083828205 5.850194195623318e-22 1.0088361469326566e-13 9.661525288984567e-14 4.268361803420008e-15
