Dust emission spectrum from A.P. Jones, M. Kohler, N. Ysard, M. Bocchio, and L. Verstraete (2017), A&A, 602A, 46J 
inside the DustPedia framework.

lambda    nu*dP/dnu     j_nu    j_nu(carb.) j_nu(sil)
 (um)   (erg s-1 H-1) (Jy cm2 sr-1 H-1)
0.9927057738263894 3.1180077161442943e-20 8.216127431342931e-13 8.216127221501775e-13 2.0984115635549878e-20
1.0001793341362166 3.1703370529246785e-20 8.416911220772665e-13 8.416910968290955e-13 2.524817098589795e-20
1.0077091589558085 3.222887708831768e-20 8.620844531018719e-13 8.620844227638361e-13 3.033803577940474e-20
1.0114953028030835 3.249243872083298e-20 8.723999096524711e-13 8.723998764134801e-13 3.323899073921654e-20
1.0152956718711033 3.2756528167688994e-20 8.827949354161378e-13 8.827948990110139e-13 3.640512375171103e-20
1.0229392996569957 3.32860006056164e-20 9.038178487685412e-13 9.038178051410255e-13 4.3627515801233234e-20
1.0267826658714554 3.355078324309235e-20 9.144303346301736e-13 9.144302868929903e-13 4.773718317062677e-20
1.0306404723013447 3.3816049563288776e-20 9.251230402198657e-13 9.251229880033922e-13 5.221647374152097e-20
1.03451277320114 3.4081792476348785e-20 9.358962735540846e-13 9.358962164571512e-13 5.709693337688565e-20
1.0383996230291617 3.434800515093826e-20 9.467503496810417e-13 9.467502872683975e-13 6.241264442176596e-20
1.0403485208654093 3.448128558623492e-20 9.52207804239185e-13 9.522077389940751e-13 6.524511012294054e-20
1.0423010764483396 3.461468102046073e-20 9.576855909739076e-13 9.576855227734913e-13 6.820041613885525e-20
1.0462171883269815 3.4881813789219857e-20 9.687023274278196e-13 9.687022529278312e-13 7.4499988337316e-20
1.0471985131304309 3.494866766042694e-20 9.71469284581543e-13 9.714692084217391e-13 7.615980371922918e-20
1.048180758391296 3.501554961898625e-20 9.742413616217142e-13 9.742412837667415e-13 7.785497288983588e-20
1.0501480137395462 3.5149397438525547e-20 9.798008969606107e-13 9.798008156063619e-13 8.135424902415763e-20
1.0521189612883777 3.5283356539775674e-20 9.853809769720934e-13 9.85380891968386e-13 8.500370779692682e-20
1.0531058218030118 3.535028948948586e-20 9.881762718193666e-13 9.88176184932581e-13 8.688678545693645e-20
1.0540936079674168 3.541696133099843e-20 9.909686377393953e-13 9.909685489292433e-13 8.881015175633088e-20
1.058054026499678 3.568391108687027e-20 1.0021892175276437e-12 1.002189120608923e-12 9.691872056991328e-20
1.0590464539527713 3.575071372724657e-20 1.0050071694844703e-12 1.0050070704306265e-12 9.905384373188491e-20
1.06003981227728 3.5817542293896736e-20 1.0078302555631403e-12 1.0078301543292432e-12 1.0123389727743065e-19
1.0620293250338977 3.5951276906961094e-20 1.0134918530117475e-12 1.0134917472793442e-12 1.0573240356468074e-19
1.0660195594769086 3.621905402613242e-20 1.0248769116246351e-12 1.0248767963154019e-12 1.1530923313936395e-19
1.070024785945596 3.648723798875441e-20 1.0363447703452418e-12 1.0363446446335136e-12 1.2571172803189562e-19
1.0740450607676866 3.675582465436123e-20 1.047895816020281e-12 1.047895679013065e-12 1.370072159783e-19
1.07808044048254 3.702481020322309e-20 1.059530445689067e-12 1.0595302964208897e-12 1.492681776800319e-19
1.0861967418109137 3.7563555230687684e-20 1.0830403034861611e-12 1.0830401264817087e-12 1.7700445244893127e-19
1.0902777775684922 3.783237870428548e-20 1.0948893757662431e-12 1.0948891831122824e-12 1.9265396102186204e-19
1.0943741465085532 3.810157315519806e-20 1.1068229742171887e-12 1.1068227645990848e-12 2.0961810377959123e-19
1.1026131145906286 3.864106710961763e-20 1.1309455553319715e-12 1.1309453074169623e-12 2.4791500918149078e-19
1.1109141095355224 3.9182024912669034e-20 1.155411782919174e-12 1.1554114900939413e-12 2.928252326195323e-19
1.1192775983109025 3.972401980450932e-20 1.180213109836668e-12 1.1802127644161312e-12 3.4542053682912366e-19
1.1277040513999907 4.026511913948254e-20 1.205295575141063e-12 1.2052951682068268e-12 4.069342357284361e-19
1.1361939428280308 4.080761905792716e-20 1.2307310544988984e-12 1.2307305757152865e-12 4.787836118099827e-19
1.1447477501889525 4.135153211998185e-20 1.2565241412679425e-12 1.2565235786728286e-12 5.625951140487762e-19
1.1533659546722406 4.189706597797724e-20 1.28268545887957e-12 1.2826847986459323e-12 6.60233638126143e-19
1.1707974979042381 4.29946477692919e-20 1.336181991011167e-12 1.336181085169213e-12 9.05841954404428e-19
1.1884924949847024 4.409901304451431e-20 1.3912165856267441e-12 1.3912153490531986e-12 1.2365735449522363e-18
1.2064549276569216 4.5217578498201495e-20 1.4480642636527497e-12 1.4480625839520336e-12 1.6797007159105872e-18
1.2246888378427687 4.6343315783767997e-20 1.5065456513831264e-12 1.5065433809703258e-12 2.2704128002680486e-18
1.2431983285522175 4.7475378071088157e-20 1.5666727246611835e-12 1.5666696707081122e-12 3.0539530711578154e-18
1.2619875648066055 4.861549933625495e-20 1.6285431096705027e-12 1.6285390214747843e-12 4.088195718284038e-18
1.3004222497298317 5.091332295596792e-20 1.7574592649906292e-12 1.75745204233103e-12 7.222659599295466e-18
1.3400274889804893 5.324406364995375e-20 1.8938881838401647e-12 1.8938756579427735e-12 1.2525897391117005e-17
1.3808389325824078 5.56164371596401e-20 2.0385230223674882e-12 2.038501688390941e-12 2.1333976547408683e-17
1.4228933163050095 5.804992819525523e-20 2.192519473201252e-12 2.1924837704264466e-12 3.570277480579921e-17
1.466228494730424 6.05853956861935e-20 2.3579741354853566e-12 2.3579153977571207e-12 5.873772823494915e-17
1.5108834753276823 6.321733314067662e-20 2.5353421422039556e-12 2.535247101611757e-12 9.504059219869124e-17
1.5568984535646726 6.594240950316866e-20 2.72517585421832e-12 2.72502444998527e-12 1.514042330505078e-16
1.6043148490894465 6.877419997351343e-20 2.928765387576147e-12 2.9285274739301275e-12 2.379136460202304e-16
1.6531753430134553 7.172641370616141e-20 3.147512539997426e-12 3.1471442123554464e-12 3.683276419799545e-16
1.7035239163302658 7.48144707571949e-20 3.3830099588045457e-12 3.3824480268267687e-12 5.619319777773227e-16
1.755405889504358 7.808885973953242e-20 3.638614663944878e-12 3.6377694161965137e-12 8.45247748365212e-16
1.8088679632656115 8.154323080063685e-20 3.915292519496539e-12 3.9140385478646414e-12 1.2539716318958726e-15
1.8639582606462262 8.516816869315827e-20 4.2138873859385646e-12 4.212051836158356e-12 1.8355497802091306e-15
1.9207263702978936 8.896455151176469e-20 4.535779415789214e-12 4.533127368946179e-12 2.6520468430349194e-15
1.979223391128241 9.293680975725003e-20 4.8826096864395405e-12 4.878826143762606e-12 3.78354267693534e-15
2.039501978296691 9.708533990153633e-20 5.255901522054794e-12 5.250569755879152e-12 5.331766175643565e-15
2.1016163906111602 1.0143779499175228e-19 5.658778308100081e-12 5.65135366601835e-12 7.424642081732569e-15
2.1656225393682647 1.0599758054311432e-19 6.09323808942615e-12 6.0830179045974356e-12 1.0220184828716415e-14
2.231578038680979 1.107340579724428e-19 6.559379032566378e-12 6.545468194126626e-12 1.3910838439753244e-14
2.299542257339062 1.156308278965744e-19 7.058045649577273e-12 7.039317743808535e-12 1.872790576873986e-14
2.369576372248914 1.2068063092003862e-19 7.590628133651202e-12 7.565681969736313e-12 2.4946163914888607e-14
2.4417434235010123 1.258784955987521e-19 8.158700741761364e-12 8.125813731350086e-12 3.2887010411278175e-14
2.5161083711144245 1.312403091220129e-19 8.765284571214907e-12 8.722361800113853e-12 4.2922771101053796e-14
2.5927381535095444 1.368094619052843e-19 9.415518182848222e-12 9.360039489151818e-12 5.547869369640348e-14
2.6717017477616296 1.426182197739662e-19 1.0114220529042287e-11 1.0043189558617795e-11 7.103097042449362e-14
2.753070231689431 1.4872694199490042e-19 1.086866923168133e-11 1.0778563144232974e-11 9.010608744835318e-14
2.836916847834745 1.553468201323358e-19 1.1698182905467166e-11 1.1584900779888065e-11 1.1328212557909924e-13
2.9233170693905177 1.6297202870301022e-19 1.2646152866301179e-11 1.2504998388546657e-11 1.4115447775452443e-13
2.967498994190263 1.6765764147429354e-19 1.320636711900182e-11 1.3049637300689295e-11 1.5672981831252942e-13
3.0123486681368425 1.7265547135474916e-19 1.3805591442930044e-11 1.3631791916264244e-11 1.7379952666579815e-13
3.0578761833420214 1.8104200782963474e-19 1.4694969428915833e-11 1.4502430212482424e-11 1.9253921643340858e-13
3.1040917844459814 1.908714515575225e-19 1.5726966572471155e-11 1.551409313078143e-11 2.1287344168972927e-13
3.127460860933648 2.0012916624338968e-19 1.6613904222522793e-11 1.6390166497691762e-11 2.237377248310288e-13
3.1510058709225794 2.1191912910619252e-19 1.772510456720055e-11 1.749005920562451e-11 2.350453615760448e-13
3.162844764501044 2.2266164701732673e-19 1.8693590596749145e-11 1.8452699962782365e-11 2.408906339667723e-13
3.1747281389236908 2.3481139491328822e-19 1.9787692047424965e-11 1.9540841818912728e-11 2.468502285122353e-13
3.1986289994194426 2.677299398488776e-19 2.2731612482793854e-11 2.2472463623954635e-11 2.591488588392194e-13
3.2227097969389145 3.441743617124113e-19 2.944212471658034e-11 2.916996087178752e-11 2.7216384479281906e-13
3.2348180950136065 4.1594357686922494e-19 3.5715252021995533e-11 3.543614689491837e-11 2.7910512707716035e-13
3.240889293275058 4.695812224416335e-19 4.039655694679151e-11 4.011379044381381e-11 2.827665029777076e-13
3.2469718861334385 5.317566028448752e-19 4.583116032892171e-11 4.554460539561043e-11 2.865549333112803e-13
3.2714166318528037 8.576642033585455e-19 7.447706858600461e-11 7.417487190140895e-11 3.0219668459567074e-13
3.2744851364798273 8.77999744444482e-19 7.631446183871499e-11 7.601042575826267e-11 3.040360804523178e-13
3.2775565192852394 8.98876371345321e-19 7.820231092800761e-11 7.789642661786635e-11 3.0588431014128436e-13
3.283707930232385 8.786730858293136e-19 7.658809702639627e-11 7.627891548929286e-11 3.0918153710341726e-13
3.2898708863219004 8.146773931952043e-19 7.114329115141668e-11 7.083111630884784e-11 3.121748425688221e-13
3.29141343181113 7.995506630323831e-19 6.985505805296265e-11 6.954213176179248e-11 3.129262911701716e-13
3.292184975758714 7.92112687096392e-19 6.922144022878674e-11 6.890813774458893e-11 3.133024841978142e-13
3.295272960557952 7.457974310173783e-19 6.5235156839444e-11 6.49203924254677e-11 3.147644139762951e-13
3.3076538914384823 5.840523271402532e-19 5.127920115897964e-11 5.0958568581599915e-11 3.206325773797267e-13
3.310756385682612 5.5076525445720375e-19 4.840198725848838e-11 4.807987631110962e-11 3.2211094737876594e-13
3.313861789986515 5.199088007131602e-19 4.573313713805751e-11 4.5409543284953035e-11 3.2359385310448476e-13
3.3200813396944477 4.768049859958443e-19 4.202028029365669e-11 4.169349341865266e-11 3.2678687500403137e-13
3.345076488085796 4.014697066341797e-19 3.5647433411991e-11 3.5306407849346674e-11 3.410255626443247e-13
3.3482140837626964 4.044939749249499e-19 3.594965351197589e-11 3.560669869197868e-11 3.429548199972166e-13
3.3513546224236106 4.0754535417508124e-19 3.625482096227773e-11 3.590992858837232e-11 3.448923739053962e-13
3.3576445397418455 4.290978777731649e-19 3.82437540818197e-11 3.789480941627861e-11 3.4894466554107186e-13
3.3702598118196083 5.071959014465327e-19 4.537415499319331e-11 4.5016711113315166e-11 3.574438798781388e-13
3.382922481734668 5.257656923096088e-19 4.7212143994870124e-11 4.684645122190538e-11 3.656927729647554e-13
3.389271646505754 5.353352670462768e-19 4.816168429086743e-11 4.779181281735933e-11 3.6987147350809203e-13
3.395632727569191 5.458815624405152e-19 4.920265857469196e-11 4.8828480688331893e-11 3.7417788636007955e-13
3.421196662673239 5.971178972922746e-19 5.422599892923389e-11 5.3834007621712887e-11 3.9199130752100035e-13
3.4276182099114902 5.877771308190721e-19 5.3477926383256705e-11 5.30819730653134e-11 3.95953317943315e-13
3.4340518103208963 5.455908404872687e-19 4.973284990669936e-11 4.933315571075811e-11 3.9969419594124474e-13
3.4469541582030403 4.849975101826312e-19 4.437562162386985e-11 4.39687604431682e-11 4.068611807016697e-13
3.472904465399547 4.67943718630527e-19 4.3137591319752893e-11 4.2714200428264744e-11 4.2339089148813827e-13
3.4990501388274233 4.423368366986049e-19 4.1083998673650627e-11 4.064372205573805e-11 4.4027661791257493e-13
3.5253949054701885 3.5234887478768675e-19 3.297236467940123e-11 3.251573093687302e-11 4.566337425282196e-13
3.5519380250092896 2.6666533241746297e-19 2.514208972093894e-11 2.4669053628109135e-11 4.730360928298033e-13
3.578680990867387 2.332033178539069e-19 2.215272439698884e-11 2.166171565889947e-11 4.910087380893675e-13
3.605625307711299 2.2029191633735203e-19 2.1083785409553423e-11 2.0573871032739972e-11 5.099143768134457e-13
3.660119384959845 2.1204156210031384e-19 2.0600875589993664e-11 2.0051347271958613e-11 5.495283180350556e-13
3.715437065384467 2.0640812525564543e-19 2.035664165499034e-11 1.9765505891826596e-11 5.911357631637447e-13
3.8285932144167436 2.0570664128588582e-19 2.0905327308297994e-11 2.02253044005499e-11 6.800229077480965e-13
3.94519561050918 2.0751967568821674e-19 2.173187780129408e-11 2.0955732829459592e-11 7.761449718344857e-13
4.06534921144712 2.1010868461560368e-19 2.267312039403789e-11 2.179392309979498e-11 8.791972942429069e-13
4.189162171576248 2.1296279695070583e-19 2.3681016925374164e-11 2.269183860865955e-11 9.891783167146168e-13
4.316745939156006 2.1586739243012717e-19 2.4735059971846622e-11 2.3629607081351445e-11 1.105452890495177e-12
4.448215356677963 2.1872688473282826e-19 2.5826015396704422e-11 2.459986705541678e-11 1.2261483412876348e-12
4.58368876423945 2.2152716654776553e-19 2.6953275273980166e-11 2.560206821229758e-11 1.3512070616825904e-12
4.723288106065518 2.243073419814611e-19 2.812272234609327e-11 2.664150131254064e-11 1.48122103355263e-12
4.867139040275056 2.271191012906105e-19 2.93424820138847e-11 2.7730161042196367e-11 1.6123209716883306e-12
4.940699165968905 2.2867680776692017e-19 2.9990241640724914e-11 2.8311600684792488e-11 1.6786409559324099e-12
5.015371051989984 2.3013966169601564e-19 3.0638251182356543e-11 2.8893020826265562e-11 1.745230356090987e-12
5.091171501069577 2.3194706240916937e-19 3.1345560250866344e-11 2.953195763932443e-11 1.8136026115419023e-12
5.129500256944802 2.328113563502883e-19 3.16992254019839e-11 2.985142940041247e-11 1.847796001571433e-12
5.168117569889187 2.336889820117171e-19 3.205826796167359e-11 3.017590483269059e-11 1.8823631289830005e-12
5.20702561229733 2.348810571001254e-19 3.2464381985229695e-11 3.054404594932901e-11 1.9203360359006802e-12
5.246226572918644 2.3605725018821864e-19 3.287258217391118e-11 3.091417699578109e-11 1.9584051781300878e-12
5.265937586045735 2.366395814682528e-19 3.307748864032566e-11 3.1100019023858725e-11 1.9774696164669234e-12
5.285722656980489 2.372181770954212e-19 3.328294667341965e-11 3.1286396054818206e-11 1.996550618601443e-12
5.305582063971359 2.3779312195207636e-19 3.348896751024833e-11 3.147332185387536e-11 2.015645656372966e-12
5.3255160863122235 2.38426407923864e-19 3.370431381357442e-11 3.166939084787416e-11 2.0349229657002657e-12
5.365609099470188 2.40161434026474e-19 3.420516825187793e-11 3.213034280384563e-11 2.0748254480323023e-12
5.406003951863644 2.41907879825668e-19 3.4713292442744277e-11 3.259847915996138e-11 2.1148132827828905e-12
5.446702915881641 2.4366814500931873e-19 3.5229126738812465e-11 3.307426057002349e-11 2.1548661687889753e-12
5.487708281020852 2.4556187412720336e-19 3.577020170657442e-11 3.3575046166871157e-11 2.195155539703255e-12
5.529022354014368 2.485152835734962e-19 3.647294919184978e-11 3.4235797072177047e-11 2.2371521196727263e-12
5.570647458961463 2.51565469442894e-19 3.7198560695507e-11 3.491933421861527e-11 2.2792264768917275e-12
5.612585937458331 2.547222537355064e-19 3.7948911679990744e-11 3.56275537158971e-11 2.3213579640936375e-12
5.654840148729818 2.581714296508951e-19 3.8752341223345844e-11 3.638858146421191e-11 2.3637597591339374e-12
5.67608639626678 2.607200727238343e-19 3.928193737379229e-11 3.689595220358159e-11 2.3859851702107006e-12
5.686739436050992 2.620226067637782e-19 3.955228017964273e-11 3.715517379354182e-11 2.397106386100915e-12
5.6974124697621304 2.6334462099019104e-19 3.9826445440168966e-11 3.741821260211049e-11 2.4082328380584872e-12
5.718818669136295 2.6604918241014385e-19 4.038663672415025e-11 3.7956136591493226e-11 2.430500132657032e-12
5.740305295436557 2.6905596961686323e-19 4.099652594898564e-11 3.8543557303985775e-11 2.452968644999864e-12
5.7835210386641895 2.7715419556355685e-19 4.2548397718957125e-11 4.0049017009046733e-11 2.4993807099103974e-12
5.827062130521658 2.8636784864017006e-19 4.429384062239594e-11 4.174749714800848e-11 2.5463434743874556e-12
5.8489554468988025 2.9312294323764404e-19 4.550902792256469e-11 4.293719626895472e-11 2.571831653609969e-12
5.870931020387893 3.0028006083621658e-19 4.67953722058579e-11 4.419799546999933e-11 2.597376735858569e-12
5.892989160043636 3.0787122276054747e-19 4.8158635331090574e-11 4.5535659281171195e-11 2.6229760499193878e-12
5.915130176081913 3.165175033780712e-19 4.969714855928967e-11 4.704759477092493e-11 2.649553788364741e-12
5.95966208400165 3.412256113762577e-19 5.397997627328513e-11 5.1269127726891285e-11 2.710848546393844e-12
6.004529249263818 3.769548358944405e-19 6.008107807892919e-11 5.730083977965183e-11 2.7802382992773577e-12
6.027089341400364 4.0195081361580277e-19 6.430577466012292e-11 6.148507734199194e-11 2.8206973181309734e-12
6.049734195844842 4.312680794877419e-19 6.925530425408895e-11 6.639167046048368e-11 2.8636337936052595e-12
6.095279466722835 5.161638290092256e-19 8.351233431456351e-11 8.054192392113193e-11 2.9704103934315525e-12
6.141167624020661 6.45924033212677e-19 1.0529356461635172e-10 1.0218303976205823e-10 3.110524854293515e-12
6.164241091010745 7.286081041434899e-19 1.1921833349522855e-10 1.1601913341556087e-10 3.199200079667654e-12
6.187401249150058 8.215778448546011e-19 1.349355653601584e-10 1.3164545353175043e-10 3.2901118284079666e-12
6.1990139391386085 8.666689129768061e-19 1.4260845172753823e-10 1.3927210775540683e-10 3.33634397213142e-12
6.204828454712694 8.903196795122663e-19 1.4663754637809313e-10 1.4327786640901524e-10 3.359679969077879e-12
6.210648424152782 9.073491426213675e-19 1.4958250826687503e-10 1.4620310848979505e-10 3.379399777079978e-12
6.233982942956859 9.641908955577364e-19 1.5955046307339904e-10 1.5610299830042744e-10 3.4474647729715616e-12
6.239830258556775 9.708649856436994e-19 1.6080555500632929e-10 1.573491644830775e-10 3.4563905232518066e-12
6.245683058788269 9.704861772681814e-19 1.608935851340021e-10 1.574282599918549e-10 3.4653251421471925e-12
6.257405133728602 9.667232617290525e-19 1.6057054302990357e-10 1.5708988249238517e-10 3.4806605375183896e-12
6.269149208991335 9.527703040868506e-19 1.5855000207788265e-10 1.5506517493037236e-10 3.4848271475102746e-12
6.280915325867298 9.21044533453943e-19 1.5355819585684094e-10 1.5008299310002558e-10 3.4752027568153074e-12
6.304513850009849 8.441794859610474e-19 1.4127191444273545e-10 1.3782840733374447e-10 3.4435071089909436e-12
6.32820103803542 7.508312352998047e-19 1.261223435659578e-10 1.2272377180534452e-10 3.398571760613247e-12
6.3519772230701035 6.65740014101022e-19 1.1224914096235006e-10 1.0889125877549478e-10 3.3578821868552594e-12
6.375842739491607 5.940026379550605e-19 1.005299353705699e-10 9.720837114257641e-11 3.3215642279934897e-12
6.399797922933955 5.369385328619634e-19 9.12137405609093e-11 8.791284187007496e-11 3.300898690834327e-12
6.42384311029221 4.89286962818022e-19 8.343110635755362e-11 8.01477373877805e-11 3.283368969773149e-12
6.447978639727206 4.545189860832435e-19 7.779381188322194e-11 7.451580940880758e-11 3.278002474414351e-12
6.472204850670314 4.2538259414194753e-19 7.308048200043812e-11 6.980544349716011e-11 3.2750385032779977e-12
6.496522083828205 4.0615831076396987e-19 7.003992885951418e-11 6.675803720230392e-11 3.281891657210262e-12
