Dust emission spectrum from A.P. Jones, M. Kohler, N. Ysard, M. Bocchio, and L. Verstraete (2017), A&A, 602A, 46J 
inside the DustPedia framework.

lambda    nu*dP/dnu     j_nu    j_nu(carb.) j_nu(sil)
 (um)   (erg s-1 H-1) (Jy cm2 sr-1 H-1)
0.9927057738263894 8.659600315046859e-23 2.2818538685627107e-15 2.281853822397895e-15 4.616481533267394e-23
1.0001793341362166 8.805377940918468e-23 2.3377351731636707e-15 2.3377351175989532e-15 5.556471689652903e-23
1.0077091589558085 8.951665928734648e-23 2.3944650647853815e-15 2.3944649979954336e-15 6.678994814398162e-23
1.0114953028030835 9.024993437588937e-23 2.4231494370776767e-15 2.4231493638878442e-15 7.318983264330192e-23
1.0152956718711033 9.09843919731732e-23 2.4520474216514233e-15 2.4520473414751196e-15 8.017630392662231e-23
1.0229392996569957 9.245602053428167e-23 2.5104668648865773e-15 2.5104667687676424e-15 9.611893474691334e-23
1.0267826658714554 9.319151237268938e-23 2.5399450506478227e-15 2.5399449454541984e-15 1.0519362411598957e-22
1.0306404723013447 9.392803273877933e-23 2.569637445277024e-15 2.569637330190224e-15 1.1508680023135105e-22
1.03451277320114 9.466555398151137e-23 2.599544588704127e-15 2.5995444628355692e-15 1.2586855840026836e-22
1.0383996230291617 9.54040490979777e-23 2.6296670344487347e-15 2.629666896834081e-15 1.376146534311987e-22
1.0403485208654093 9.577365360191026e-23 2.6448091725630235e-15 2.6448090286883703e-15 1.4387465265797982e-22
1.0423010764483396 9.614349175059847e-23 2.6600053503610574e-15 2.660005199954131e-15 1.5040692667800135e-22
1.0462171883269815 9.688385628419835e-23 2.6905601193734355e-15 2.690559955039673e-15 1.6433376285309422e-22
1.0471985131304309 9.706908852138351e-23 2.698232702233402e-15 2.6982325342296347e-15 1.6800376716059978e-22
1.048180758391296 9.725437642989203e-23 2.7059188602698246e-15 2.705918688517653e-15 1.717521709890155e-22
1.0501480137395462 9.762511774295533e-23 2.721331940262283e-15 2.721331760771705e-15 1.7949057849564518e-22
1.0521189612883777 9.7996077215943e-23 2.7367994368001975e-15 2.7367992492381003e-15 1.8756209681654007e-22
1.0531058218030118 9.818138892746913e-23 2.744546657849866e-15 2.744546466122581e-15 1.917272858661579e-22
1.0540936079674168 9.836593860471459e-23 2.7522846826995997e-15 2.752284486717757e-15 1.9598184218903363e-22
1.058054026499678 9.910463121430423e-23 2.7833718273828504e-15 2.78337161346175e-15 2.139211015003261e-22
1.0590464539527713 9.928942608313899e-23 2.79117742456434e-15 2.7911772059188007e-15 2.1864553892502356e-22
1.06003981227728 9.947426894558648e-23 2.7989965662850625e-15 2.7989963428153663e-15 2.234696962213613e-22
1.0620293250338977 9.984409728968098e-23 2.8146755242179105e-15 2.814675290792703e-15 2.3342520746322086e-22
1.0660195594769086 1.0058431509527689e-22 2.846196428497238e-15 2.846196173873805e-15 2.546234323716927e-22
1.070024785945596 1.0132526368622163e-22 2.8779352155247393e-15 2.8779349378696532e-15 2.7765508706530604e-22
1.0740450607676866 1.0206692292425359e-22 2.909892581438765e-15 2.9098922787685175e-15 3.026702468290271e-22
1.07808044048254 1.0280927349344782e-22 2.9420692440443473e-15 2.942068914213821e-15 3.2983052555532806e-22
1.0861967418109137 1.0429482503160449e-22 3.007050271481907e-15 3.0070498801862677e-15 3.9129563997332275e-22
1.0902777775684922 1.0503537551051716e-22 3.0397802270111072e-15 3.039779801021891e-15 4.259892150548366e-22
1.0943741465085532 1.057765031062589e-22 3.072730443267562e-15 3.0727299796604488e-15 4.6360711362280445e-22
1.1026131145906286 1.0726043156262636e-22 3.1392949887905355e-15 3.1392944402259946e-15 5.485645413646675e-22
1.1109141095355224 1.0874650351467593e-22 3.206750845372759e-15 3.206750197126521e-15 6.482462372805874e-22
1.1192775983109025 1.102334461955113e-22 3.2750703222549764e-15 3.2750695572062e-15 7.650487768956506e-22
1.1277040513999907 1.1171575457884284e-22 3.344098007036336e-15 3.344097105304442e-15 9.017318927968522e-22
1.1361939428280308 1.1319980261590922e-22 3.414031880781378e-15 3.414030819312306e-15 1.0614690727398482e-21
1.1447477501889525 1.1468554838977544e-22 3.4848807968755115e-15 3.484879548970797e-15 1.247904714692978e-21
1.1533659546722406 1.1617351919292455e-22 3.556671100882308e-15 3.556669635661886e-15 1.4652204219807964e-21
1.1707974979042381 1.191606438232891e-22 3.703258767657471e-15 3.703256755303007e-15 2.012354463527313e-21
1.1884924949847024 1.2215649462838471e-22 3.8537402457847866e-15 3.8537374958176526e-15 2.7499671327912584e-21
1.2064549276569216 1.2518151366266833e-22 4.008858555132014e-15 4.0088548157206674e-15 3.739411347152538e-21
1.2246888378427687 1.282150212204258e-22 4.16806133516419e-15 4.168056275197436e-15 5.059966754222743e-21
1.2431983285522175 1.3125416052198284e-22 4.33134651355875e-15 4.3313396998418215e-15 6.813716927796684e-21
1.2619875648066055 1.3430290261375033e-22 4.498936957277388e-15 4.498927825838361e-15 9.131439026357677e-21
1.3004222497298317 1.404080021057985e-22 4.846694928812041e-15 4.8466787593319685e-15 1.616948007075965e-20
1.3400274889804893 1.4654546239119122e-22 5.212613399358961e-15 5.212585291766567e-15 2.8107592393738515e-20
1.3808389325824078 1.5273465413232033e-22 5.598221041530763e-15 5.598173054319707e-15 4.798721105532947e-20
1.4228933163050095 1.5902607589189731e-22 6.006342797996152e-15 6.006262294180689e-15 8.050381546140898e-20
1.466228494730424 1.6553133127965299e-22 6.442453554179356e-15 6.44232078002786e-15 1.327741514957324e-19
1.5108834753276823 1.7223164190267322e-22 6.907379958042856e-15 6.907164576772926e-15 2.1538126992854593e-19
1.5568984535646726 1.7911611447101886e-22 7.40226075958553e-15 7.401916760752164e-15 3.439988333663974e-19
1.6043148490894465 1.8622334050405363e-22 7.930364500599463e-15 7.929822536913745e-15 5.419636857172013e-19
1.6531753430134553 1.9359385093964123e-22 8.4953232988222e-15 8.494482030367661e-15 8.412684545384496e-19
1.7035239163302658 2.0127606681720112e-22 9.101433607964355e-15 9.100146687064581e-15 1.2869208997745718e-18
1.755405889504358 2.094193381288795e-22 9.758066351218751e-15 9.756125293706363e-15 1.941057512383805e-18
1.8088679632656115 2.180153499158552e-22 1.0467991766819979e-14 1.046510410012754e-14 2.887666692440065e-18
1.8639582606462262 2.2705134160666855e-22 1.1233877621624002e-14 1.1229638758970346e-14 4.2388626536570986e-18
1.9207263702978936 2.3654590577046843e-22 1.2060084966999722e-14 1.2053942999455055e-14 6.1419675446663366e-18
1.979223391128241 2.465303906329941e-22 1.2951936659440568e-14 1.2943148705002081e-14 8.7879544384926e-18
2.039501978296691 2.5702867543477106e-22 1.3914741482075846e-14 1.390232085909135e-14 1.2420622984495358e-17
2.1016163906111602 2.681427508176516e-22 1.4958530811169405e-14 1.4941182714348303e-14 1.7348096821101872e-17
2.1656225393682647 2.79909687718394e-22 1.609052170876075e-14 1.6066568663867527e-14 2.3953044893220814e-17
2.231578038680979 2.922750307101941e-22 1.731303578398834e-14 1.7280331601714927e-14 3.2704182273412424e-17
2.299542257339062 3.052237271801657e-22 1.8630697703718077e-14 1.8586529438554052e-14 4.416826516402707e-17
2.369576372248914 3.1877007012652953e-22 2.0050152572301675e-14 1.999112973589318e-14 5.902283640849307e-17
2.4417434235010123 3.3293546461057743e-22 2.1578910751646378e-14 2.1500844938354142e-14 7.806581329223616e-17
2.5161083711144245 3.478029318263599e-22 2.3229080246425323e-14 2.3126852103213605e-14 1.0222814321171626e-16
2.5927381535095444 3.6353912146148755e-22 2.5019535641964928e-14 2.4886954301625212e-14 1.325813403397173e-16
2.6717017477616296 3.8029011952574354e-22 2.696947234368255e-14 2.679913666319865e-14 1.7033568048389476e-16
2.753070231689431 3.982951229145538e-22 2.9106615717941514e-14 2.888977382572446e-14 2.1684189221705398e-16
2.836916847834745 4.1826213888248266e-22 3.1496666612879845e-14 3.1223069053305175e-14 2.7359755957467065e-16
2.9233170693905177 4.418089342855554e-22 3.428308136762824e-14 3.39409096359295e-14 3.4217173169874306e-16
2.967498994190263 4.56538022659726e-22 3.596143115225652e-14 3.558074629325127e-14 3.8068485900524967e-16
3.0123486681368425 4.723936706446854e-22 3.777276194014568e-14 3.734978510445862e-14 4.2297683568707053e-16
3.0578761833420214 4.991220392504387e-22 4.051315601285951e-14 4.0043665684745417e-14 4.694903281140987e-16
3.1040917844459814 5.307375890345023e-22 4.3730438750208106e-14 4.321034885839117e-14 5.200898918169347e-16
3.127460860933648 5.604629423152192e-22 4.65273394112585e-14 4.5980164153684145e-14 5.471752575743536e-16
3.1510058709225794 5.984359822009746e-22 5.0053718161385585e-14 4.94783152707621e-14 5.754028906234825e-16
3.162844764501044 6.328691243024552e-22 5.313261834496637e-14 5.2542609529107677e-14 5.900088158587035e-16
3.1747281389236908 6.71962267809129e-22 5.6626648923092264e-14 5.602173857327283e-14 6.049103498194223e-16
3.1986289994194426 7.781931146683496e-22 6.607249203956912e-14 6.543679951480847e-14 6.356925247606531e-16
3.2227097969389145 1.0245963498570473e-21 8.764828782293443e-14 8.697998244776649e-14 6.683053751679379e-16
3.2348180950136065 1.256052785069683e-21 1.0785174784847666e-13 1.0716603968405315e-13 6.857081644234864e-16
3.240889293275058 1.4289673066776406e-21 1.2292944526009353e-13 1.222345575543395e-13 6.948877057540019e-16
3.2469718861334385 1.629332105647455e-21 1.4042925008074074e-13 1.397248642328971e-13 7.043858478436611e-16
3.2714166318528037 2.6830196129863292e-21 2.3298563114968017e-13 2.3224199819075064e-13 7.436329589295291e-16
3.2744851364798273 2.748934020577953e-21 2.389333501950771e-13 2.381850930421726e-13 7.482571529045003e-16
3.2775565192852394 2.816628665115573e-21 2.450469026218148e-13 2.4429399825525455e-13 7.529043665602815e-16
3.283707930232385 2.751868547107284e-21 2.3986210422141235e-13 2.3910089106053783e-13 7.612131608745492e-16
3.2898708863219004 2.5456556189052368e-21 2.2230433835497427e-13 2.215355654947649e-13 7.687728602093829e-16
3.29141343181113 2.4969320854056334e-21 2.181516992541737e-13 2.173810281605693e-13 7.706710936043877e-16
3.292184975758714 2.4729770862685307e-21 2.1610944800264898e-13 2.153378265445968e-13 7.716214580521789e-16
3.295272960557952 2.3233249334753523e-21 2.032220280210696e-13 2.0244671015895907e-13 7.753178621105589e-16
3.3076538914384823 1.8014000876298625e-21 1.5816109819076656e-13 1.5737093470140207e-13 7.901634893644855e-16
3.310756385682612 1.6941975933157125e-21 1.4888835063832203e-13 1.480944453781375e-13 7.93905260184516e-16
3.313861789986515 1.5949046532860128e-21 1.4029382293741392e-13 1.3949616373999371e-13 7.976591974202045e-16
3.3200813396944477 1.4561837247069165e-21 1.2833181293909316e-13 1.2752607859717866e-13 8.057343419144957e-16
3.345076488085796 1.2134470845170678e-21 1.0774480223413723e-13 1.0690307984244217e-13 8.417223916950763e-16
3.3482140837626964 1.223277718727039e-21 1.0871956781387601e-13 1.0787297021266697e-13 8.46597601209023e-16
3.3513546224236106 1.233200062371227e-21 1.0970422558842714e-13 1.0885273091195568e-13 8.51494676471469e-16
3.3576445397418455 1.302941347841327e-21 1.1612587959761439e-13 1.1526414600705598e-13 8.617335905584242e-16
3.3702598118196083 1.5560141673882277e-21 1.392022841693267e-13 1.383190742422615e-13 8.832099270652038e-16
3.382922481734668 1.6163097295772819e-21 1.451396483439161e-13 1.4423556403201484e-13 9.040843119012148e-16
3.389271646505754 1.64741248771907e-21 1.4821022453486079e-13 1.4729555982142441e-13 9.146647134363439e-16
3.395632727569191 1.6815391794616598e-21 1.5156437553436422e-13 1.5063880705786818e-13 9.255684764960172e-16
3.421196662673239 1.846849984965698e-21 1.6771777526907035e-13 1.667470706284933e-13 9.707046405770225e-16
3.4276182099114902 1.816873774961984e-21 1.653052439275577e-13 1.643244666565307e-13 9.807772710270169e-16
3.4340518103208963 1.6807758684796643e-21 1.5320963584954456e-13 1.5221933175464568e-13 9.903040948989345e-16
3.4469541582030403 1.4857133048374841e-21 1.3593771116926134e-13 1.3492912182437112e-13 1.008589344890214e-15
3.472904465399547 1.4320347522105523e-21 1.3201273451715581e-13 1.3096202375409678e-13 1.0507107630590134e-15
3.4990501388274233 1.3504143663840872e-21 1.2542573313921237e-13 1.2433191999605804e-13 1.093813143154314e-15
3.5253949054701885 1.0592326098814149e-21 9.912165581447872e-14 9.798597038172078e-14 1.1356854327579336e-15
3.5519380250092896 7.823414972639401e-22 7.376174449939706e-14 7.258397504313105e-14 1.1777694562660213e-15
3.578680990867387 6.744958365111364e-22 6.407250338740118e-14 6.284860910037625e-14 1.2238942870249287e-15
3.605625307711299 6.331643726970792e-22 6.059914492039951e-14 5.932667424156115e-14 1.2724706788383733e-15
3.660119384959845 6.075255915555273e-22 5.902408473793357e-14 5.764956861229611e-14 1.3745161256374529e-15
3.715437065384467 5.905704012661369e-22 5.824397666384883e-14 5.676190090355603e-14 1.4820757602928001e-15
3.8285932144167436 5.912405170413144e-22 6.0085938156456e-14 5.837275463824892e-14 1.7131835182070867e-15
3.94519561050918 6.005795520515238e-22 6.289389857542432e-14 6.092880713635588e-14 1.965091439068442e-15
4.06534921144712 6.129426385529312e-22 6.614349265940709e-14 6.390602597412377e-14 2.237466685283327e-15
4.189162171576248 6.266587045872583e-22 6.968313528113028e-14 6.715237323477422e-14 2.5307620463560595e-15
4.316745939156006 6.41027409159697e-22 7.345181331309614e-14 7.06079963792303e-14 2.843816933865859e-15
4.448215356677963 6.557385231851345e-22 7.742584189720207e-14 7.425363525725476e-14 3.1722066399473184e-15
4.58368876423945 6.707397869896299e-22 8.160910644809882e-14 7.809286527136756e-14 3.5162411767312585e-15
4.723288106065518 6.8615483170340855e-22 8.602724123056197e-14 8.21492666442996e-14 3.877974586262362e-15
4.867139040275056 7.02181666540518e-22 9.071783396404505e-14 8.647015107343467e-14 4.247682890610366e-15
4.940699165968905 7.108981876911246e-22 9.323205373996974e-14 8.879543187734831e-14 4.436621862621443e-15
5.015371051989984 7.194261261959344e-22 9.577644374334449e-14 9.114876215007743e-14 4.627681593267061e-15
5.091171501069577 7.292523055365452e-22 9.8551893021842e-14 9.372689727415845e-14 4.824995747683546e-15
5.129500256944802 7.340856005444014e-22 9.995193224593261e-14 9.502769063814082e-14 4.9242416077917995e-15
5.168117569889187 7.3899812367241e-22 1.0137833486165928e-13 9.635348807433986e-14 5.0248467873194224e-15
5.20702561229733 7.450051368480151e-22 1.0297182600503281e-13 9.783709091810993e-14 5.134735086922882e-15
5.246226572918644 7.509996206443832e-22 1.045818195481154e-13 9.933651968791021e-14 5.245299860205215e-15
5.265937586045735 7.539927268178382e-22 1.0539312866199918e-13 1.0009230723416615e-13 5.30082142783302e-15
5.285722656980489 7.569833973344454e-22 1.0620871618961905e-13 1.0085222158378472e-13 5.35649460583434e-15
5.305582063971359 7.599718869816277e-22 1.0702863742610284e-13 1.0161632398203319e-13 5.412313444069648e-15
5.3255160863122235 7.631710496113649e-22 1.0788300160840488e-13 1.0241427898871567e-13 5.46872261968919e-15
5.365609099470188 7.712159689027172e-22 1.0984099958340759e-13 1.0425556313367292e-13 5.585436449734688e-15
5.406003951863644 7.793540965271449e-22 1.1183573965715412e-13 1.0613290399212615e-13 5.702835665027965e-15
5.446702915881641 7.875940195988775e-22 1.138690062836014e-13 1.080481335099898e-13 5.82087277361158e-15
5.487708281020852 7.963516864853216e-22 1.1600196714655641e-13 1.1006195381766794e-13 5.940013328888474e-15
5.529022354014368 8.088596805323898e-22 1.1871100081725513e-13 1.1264679046109733e-13 6.064210356157825e-15
5.570647458961463 8.217862235024521e-22 1.2151613964104374e-13 1.1532702387303503e-13 6.18911576800874e-15
5.612585937458331 8.351679379418608e-22 1.2442459914721535e-13 1.1810991792340465e-13 6.314681223810697e-15
5.654840148729818 8.496599808792267e-22 1.2753662768718038e-13 1.2109513679295167e-13 6.4414908942287215e-15
5.67608639626678 8.598395517394616e-22 1.295495320711892e-13 1.2304166600462509e-13 6.507866066564131e-15
5.686739436050992 8.65040539370164e-22 1.3057776274534706e-13 1.2403663502163698e-13 6.541127723710069e-15
5.6974124697621304 8.703181786925007e-22 1.3162098898756383e-13 1.2504655124066844e-13 6.574437746895414e-15
5.718818669136295 8.811112540161094e-22 1.3375391650199e-13 1.2711271667489107e-13 6.641199827098903e-15
5.740305295436557 8.930049045254896e-22 1.3606871013894843e-13 1.2936005386465926e-13 6.708656274289171e-15
5.7835210386641895 9.242908030770423e-22 1.418960756387965e-13 1.3504799553039812e-13 6.848080108398379e-15
5.827062130521658 9.597293503784544e-22 1.4844578079613286e-13 1.4145617410319563e-13 6.989606692937201e-15
5.8489554468988025 9.851693606760405e-22 1.5295322654805874e-13 1.4588709012842711e-13 7.066136419631621e-15
5.870931020387893 1.0121205637193042e-21 1.5772795024935333e-13 1.5058496591964375e-13 7.142984329709569e-15
5.892989160043636 1.0407023672285483e-21 1.6279145982586098e-13 1.5557131521390019e-13 7.220144611960801e-15
5.915130176081913 1.073136001753516e-21 1.684955768141621e-13 1.6119541535848769e-13 7.3001614556744e-15
5.95966208400165 1.1648476995738523e-21 1.8427236728034876e-13 1.7678920715974291e-13 7.483160120605846e-15
6.004529249263818 1.2967000524562905e-21 2.0667499041820083e-13 1.9898552613421788e-13 7.689464283982951e-15
6.027089341400364 1.3885689516630057e-21 2.221490766555169e-13 2.1434007389665697e-13 7.809002758859858e-15
6.049734195844842 1.4962819908282469e-21 2.4028085882871274e-13 2.323451607802438e-13 7.935698048468938e-15
6.095279466722835 1.807519110364193e-21 2.924461803424798e-13 2.8419790722682467e-13 8.248273115655123e-15
6.141167624020661 2.2831019310765894e-21 3.7217370517993625e-13 3.635183166610239e-13 8.655388518912326e-15
6.164241091010745 2.5864142835026025e-21 4.2320144238570086e-13 4.142898435313371e-13 8.911598854363743e-15
6.187401249150058 2.9279967399763254e-21 4.808928307351417e-13 4.717182558237939e-13 9.174574911347744e-15
6.1990139391386085 3.0940342647413286e-21 5.091164912921267e-13 4.998081279144787e-13 9.30836337764796e-15
6.204828454712694 3.181164103991224e-21 5.239444994531442e-13 5.145685729200366e-13 9.375926533107703e-15
6.210648424152782 3.2442319564859096e-21 5.348330985895018e-13 5.253997645467889e-13 9.433334042712877e-15
6.233982942956859 3.455825040460765e-21 5.718561418143426e-13 5.622233201611612e-13 9.632821653181409e-15
6.239830258556775 3.481341658876662e-21 5.766188768782795e-13 5.669588713318604e-13 9.660005546419047e-15
6.245683058788269 3.4811211109932204e-21 5.771231666688498e-13 5.674359381780903e-13 9.6872284907596e-15
6.257405133728602 3.46971365581746e-21 5.763115753275748e-13 5.665769888206258e-13 9.734586506949173e-15
6.269149208991335 3.421087612167421e-21 5.693013790324001e-13 5.59550797766645e-13 9.75058126575519e-15
6.280915325867298 3.3074425251186196e-21 5.514227473375546e-13 5.416949377779638e-13 9.727809559590832e-15
6.304513850009849 3.0306493727141826e-21 5.07173706549609e-13 4.975264939910733e-13 9.647212558535692e-15
6.32820103803542 2.6927179145801654e-21 4.5231455216868144e-13 4.4278523080103384e-13 9.529321367647477e-15
6.3519772230701035 2.38421196604317e-21 4.0199738545367195e-13 3.9257406912011303e-13 9.42331633355907e-15
6.375842739491607 2.1240257450946288e-21 3.5947343872897774e-13 3.501439266121568e-13 9.329512116820995e-15
6.399797922933955 1.917069019778049e-21 3.256667672467933e-13 3.163868670875411e-13 9.279900159252172e-15
6.42384311029221 1.7442806040285218e-21 2.974272188941333e-13 2.8818811757142886e-13 9.239101322704414e-15
6.447978639727206 1.6185289138425054e-21 2.7702150560539873e-13 2.677887688726543e-13 9.232736732744387e-15
6.472204850670314 1.513260517801427e-21 2.599772758832199e-13 2.5074408221852665e-13 9.233193664693265e-15
6.496522083828205 1.444348024026956e-21 2.490704490594949e-13 2.3980892271814923e-13 9.261526341345648e-15
