Dust emission spectrum from A.P. Jones, M. Kohler, N. Ysard, M. Bocchio, and L. Verstraete (2017), A&A, 602A, 46J 
inside the DustPedia framework.

lambda    nu*dP/dnu     j_nu    j_nu(carb.) j_nu(sil)
 (um)   (erg s-1 H-1) (Jy cm2 sr-1 H-1)
0.9927057738263894 7.362759301837123e-25 1.9401288956720406e-17 1.9401288867356483e-17 8.936392256864811e-26
1.0001793341362166 7.485380341785471e-25 1.987289702601287e-17 1.987289691841382e-17 1.075990485336957e-25
1.0077091589558085 7.608034631578461e-25 2.0350595388636236e-17 2.0350595259250765e-17 1.293854713124351e-25
1.0114953028030835 7.66936198479093e-25 2.059171599924827e-17 2.0591715857437192e-17 1.4181108079159745e-25
1.0152956718711033 7.730682997182308e-25 2.0834344110838877e-17 2.0834343955459977e-17 1.5537889867130434e-25
1.0229392996569957 7.853226818692129e-25 2.1323939313887106e-17 2.132393912753569e-17 1.8635140977662205e-25
1.0267826658714554 7.914304167791199e-25 2.157052416953128e-17 2.157052396554354e-17 2.0398774101096772e-25
1.0306404723013447 7.975352952126127e-25 2.181858278888753e-17 2.181858256566784e-17 2.2321969721331626e-25
1.03451277320114 8.036368491475358e-25 2.206810961981716e-17 2.206810937563271e-17 2.441844479866422e-25
1.0383996230291617 8.097346144304736e-25 2.2319099056614454e-17 2.2319098789584156e-17 2.6703028914032545e-25
1.0403485208654093 8.12781932367697e-25 2.2445140486701744e-17 2.2445140207493532e-17 2.7920820993929797e-25
1.0423010764483396 8.158281308998651e-25 2.2571545443742362e-17 2.2571545151824874e-17 2.9191748694553668e-25
1.0462171883269815 8.21916942507351e-25 2.2825443079605277e-17 2.2825442760586093e-17 3.1901918165240823e-25
1.0471985131304309 8.234383572327133e-25 2.2889143573952553e-17 2.288914324779034e-17 3.2616221369592373e-25
1.048180758391296 8.249594426269287e-25 2.2952934322406274e-17 2.2952933988947947e-17 3.3345832841004124e-25
1.0501480137395462 8.280005974373225e-25 2.3080786220358087e-17 2.308078587183573e-17 3.485223540571818e-25
1.0521189612883777 8.31040351142266e-25 2.3208998049509386e-17 2.3208997685272425e-17 3.6423696334440674e-25
1.0531058218030118 8.325574545031444e-25 2.327317635435592e-17 2.327317598200884e-17 3.723470759440461e-25
1.0540936079674168 8.340668782868208e-25 2.333723976020559e-17 2.333723937957385e-17 3.8063173969500123e-25
1.058054026499678 8.40100423329479e-25 2.3594375175175253e-17 2.3594374759605347e-17 4.155699164075534e-25
1.0590464539527713 8.416077380521358e-25 2.3658879011172898e-17 2.3658878586400183e-17 4.247727103503775e-25
1.06003981227728 8.431146106186107e-25 2.3723470653472567e-17 2.3723470219302174e-17 4.341703987147461e-25
1.0620293250338977 8.461270023512617e-25 2.385291698304638e-17 2.385291652948015e-17 4.535662300624267e-25
1.0660195594769086 8.521461847585155e-25 2.4112859199964077e-17 2.4112858705089716e-17 4.948743634999431e-25
1.070024785945596 8.581575448555313e-25 2.4374195822041783e-17 2.4374195282273983e-17 5.397677977192582e-25
1.0740450607676866 8.641606619516043e-25 2.463692082938902e-17 2.463692024084777e-17 5.885412522283389e-25
1.07808044048254 8.701551204661682e-25 2.4901028190169764e-17 2.490102754865754e-17 6.415122218843941e-25
1.0861967418109137 8.821062956336423e-25 2.5433073740305367e-17 2.543307297886477e-17 7.614406003335264e-25
1.0902777775684922 8.88039171427021e-25 2.5700330969396977e-17 2.5700330140234567e-17 8.29162419079707e-25
1.0943741465085532 8.939613757036554e-25 2.596892744195318e-17 2.5968926539339194e-17 9.026139869406868e-25
1.1026131145906286 9.057722316867303e-25 2.6510113622464222e-17 2.651011255389054e-17 1.0685736784913497e-24
1.1109141095355224 9.175358458553815e-25 2.7056583469458152e-17 2.705658220604562e-17 1.263412543696119e-24
1.1192775983109025 9.292389441449469e-25 2.760798100111098e-17 2.7607979509257172e-17 1.491853809744246e-24
1.1277040513999907 9.408311374982633e-25 2.8162827559341544e-17 2.816282580000087e-17 1.759340667787355e-24
1.1361939428280308 9.523661140649657e-25 2.872273803008126e-17 2.87227359579442e-17 2.0721370606420743e-24
1.1447477501889525 9.638412763241249e-25 2.928766529225037e-17 2.9287662854808237e-17 2.437442131273063e-24
1.1533659546722406 9.75259657086542e-25 2.9857732315535725e-17 2.9857729452012985e-17 2.8635227327180147e-24
1.1707974979042381 9.9796198246016e-25 3.101453082793868e-17 3.101452689062095e-17 3.937317730398144e-24
1.1884924949847024 1.0204055939426707e-24 3.219131423477387e-17 3.2191308847950576e-17 5.386823288725082e-24
1.2064549276569216 1.0427572802212234e-24 3.339364033419323e-17 3.339363300040977e-17 7.333783448900388e-24
1.2246888378427687 1.0648077121870868e-24 3.461516296847591e-17 3.461515303269869e-17 9.935777218862946e-24
1.2431983285522175 1.0865171326453279e-24 3.585472777159702e-17 3.585471437554087e-17 1.339605614344292e-23
1.2619875648066055 1.10789166257039e-24 3.711263605174759e-17 3.7112618076304224e-17 1.7975443367914798e-23
1.3004222497298317 1.1493637894210094e-24 3.9674488390978554e-17 3.9674456478774745e-17 3.1912203822708145e-23
1.3400274889804893 1.189172228872996e-24 4.229878560021208e-17 4.229872997949599e-17 5.56207160853024e-23
1.3808389325824078 1.2272903231350472e-24 4.4984175661205147e-17 4.498408044280068e-17 9.521840446191721e-23
1.4228933163050095 1.263965680242256e-24 4.7739410771841837e-17 4.7739250586222494e-17 1.601856193369995e-22
1.466228494730424 1.299976623574192e-24 5.059488710778638e-17 5.0594622159684296e-17 2.6494810209015273e-22
1.5108834753276823 1.3349389577815582e-24 5.3537959113236755e-17 5.3537528067267657e-17 4.31045969087372e-22
1.5568984535646726 1.3685599874002901e-24 5.655793685448189e-17 5.655724635033914e-17 6.905041427363663e-22
1.6043148490894465 1.400994939831615e-24 5.966169711212045e-17 5.966060594348056e-17 1.091168639916976e-21
1.6531753430134553 1.4324212017644075e-24 6.285778783784866e-17 6.285608883392901e-17 1.6990039196453283e-21
1.7035239163302658 1.4631308431313324e-24 6.616081305195047e-17 6.615820583784815e-17 2.6072141023603658e-21
1.755405889504358 1.494298531146504e-24 6.962806943111756e-17 6.962412435143462e-17 3.945079682916274e-21
1.8088679632656115 1.5257685877995898e-24 7.325967195118634e-17 7.325378371636396e-17 5.888234822396927e-21
1.8639582606462262 1.557434952919729e-24 7.70576097059543e-17 7.704893735532978e-17 8.672350624515586e-21
1.9207263702978936 1.5894916404264992e-24 8.103883335220489e-17 8.102622454073637e-17 1.2608811468512655e-20
1.979223391128241 1.6222885197776687e-24 8.52299714349533e-17 8.521186786675877e-17 1.8103568194521336e-20
2.039501978296691 1.6561983020758087e-24 8.966147912273068e-17 8.963580111581992e-17 2.567800691078493e-20
2.1016163906111602 1.6922558715386338e-24 9.440367683856332e-17 9.436768166031013e-17 3.599517825321735e-20
2.1656225393682647 1.7310299844240122e-24 9.950772254410974e-17 9.94578384406003e-17 4.988410350945974e-20
2.231578038680979 1.7724633329329883e-24 1.0499261956900977e-16 1.0492425210420153e-16 6.836746480826306e-20
2.299542257339062 1.8168163192347696e-24 1.108975240541009e-16 1.1080483284375314e-16 9.269121034773377e-20
2.369576372248914 1.8647165861125625e-24 1.172878370946746e-16 1.1716348036229436e-16 1.2435673238021507e-19
2.4417434235010123 1.9169022498040113e-24 1.242422840610677e-16 1.2407713659861396e-16 1.6514746245373733e-19
2.5161083711144245 1.9747240352485542e-24 1.318879712671155e-16 1.31670808199963e-16 2.1716306715252666e-19
2.5927381535095444 2.040439637304253e-24 1.4042739616462422e-16 1.4014455200562244e-16 2.828441590017953e-19
2.6717017477616296 2.116568284258961e-24 1.501031104279676e-16 1.4973813252907424e-16 3.6497789889332306e-19
2.753070231689431 2.206923847178904e-24 1.612776070882947e-16 1.6081089467419826e-16 4.66712414096471e-19
2.836916847834745 2.3205759488826152e-24 1.7474784403653356e-16 1.7415626206125853e-16 5.915819752750753e-19
2.9233170693905177 2.4776307178886327e-24 1.9225689864707705e-16 1.9151353226556832e-16 7.4336638150870555e-19
2.967498994190263 2.5923635633769928e-24 2.0420008669351092e-16 2.0337093427248545e-16 8.291524210254587e-19
3.0123486681368425 2.7217194655553742e-24 2.1762963356384738e-16 2.1670602458425376e-16 9.236089795936083e-19
3.0578761833420214 2.9784508090244642e-24 2.4175739160676563e-16 2.4072963760142216e-16 1.0277540053435269e-18
3.1040917844459814 3.2993402087062666e-24 2.718510953320638e-16 2.7070966744372323e-16 1.1414278883406117e-18
3.127460860933648 3.624517521723449e-24 3.008926089540337e-16 2.9969018202450567e-16 1.202426929528026e-18
3.1510058709225794 4.051846516608603e-24 3.3890004880657157e-16 3.376339398922873e-16 1.2661089142842637e-18
3.162844764501044 4.445773768548201e-24 3.732455760939357e-16 3.7194647345851605e-16 1.299102635419579e-18
3.1747281389236908 4.900590840441889e-24 4.1297562427456046e-16 4.1164283030483873e-16 1.3327939697218872e-18
3.1986289994194426 6.1591721443587624e-24 5.229445555450783e-16 5.215420737625677e-16 1.4024817825104225e-18
3.2227097969389145 9.110026527459287e-24 7.793100446480449e-16 7.778336156423702e-16 1.476429005674364e-18
3.2348180950136065 1.190022448540746e-23 1.0218201223678905e-15 1.0203042043618637e-15 1.51591800602699e-18
3.240889293275058 1.3985668709242623e-23 1.2031419389264498e-15 1.2016051909782182e-15 1.5367479482321153e-18
3.2469718861334385 1.6399419930281543e-23 1.4134369749336368e-15 1.411878673498064e-15 1.5583014355722292e-18
3.2714166318528037 2.9224819003654136e-23 2.5377984073783287e-15 2.5361509507966543e-15 1.6474565816743153e-18
3.2744851364798273 3.002737601393962e-23 2.609935886009178e-15 2.60827789855815e-15 1.6579874510282654e-18
3.2775565192852394 3.085261191299161e-23 2.6841795230970843e-15 2.6825109498805015e-15 1.6685732165827353e-18
3.283707930232385 3.006296863305601e-23 2.6203893071299407e-15 2.6187017542976083e-15 1.6875528323320625e-18
3.2898708863219004 2.755153482585393e-23 2.4059914760817015e-15 2.404286605670184e-15 1.7048704115177153e-18
3.29141343181113 2.6958945766040453e-23 2.355346332139999e-15 2.3536371120024018e-15 1.7092201375971618e-18
3.292184975758714 2.666771906682669e-23 2.3304486236536993e-15 2.3287372255984434e-15 1.7113980552554376e-18
3.295272960557952 2.4834245717768604e-23 2.172259982416291e-15 2.1705401041794292e-15 1.7198782368628507e-18
3.3076538914384823 1.8470204477548667e-23 1.6216651947767357e-15 1.6199112328456801e-15 1.7539619310553512e-18
3.310756385682612 1.7171554771452376e-23 1.5090592017744202e-15 1.5072966439674303e-15 1.762557806990248e-18
3.313861789986515 1.5972018991843404e-23 1.404958973427018e-15 1.4031877896804772e-15 1.7711837465405195e-18
3.3200813396944477 1.4291837955900182e-23 1.2595233994127767e-15 1.2577336829043083e-15 1.7897165084685665e-18
3.345076488085796 1.1312527629666029e-23 1.0044657635084832e-15 1.002593510510917e-15 1.8722529975662708e-18
3.3482140837626964 1.1427402481661524e-23 1.0156175004432327e-15 1.0137340686331416e-15 1.883431810091079e-18
3.3513546224236106 1.154349130339448e-23 1.0268972672533187e-15 1.0250026037179594e-15 1.8946635353590936e-18
3.3576445397418455 1.23798429816735e-23 1.1033652112652604e-15 1.101447072779863e-15 1.91813848539736e-18
3.3702598118196083 1.5449039376242998e-23 1.3820835404118348e-15 1.3801161570183205e-15 1.9673833935149393e-18
3.382922481734668 1.6159296017009282e-23 1.451055140283885e-15 1.4490398001355719e-15 2.015340148313273e-18
3.389271646505754 1.6526822177294996e-23 1.486843182265781e-15 1.4848035164294313e-15 2.039665836349165e-18
3.395632727569191 1.6924920210576266e-23 1.525516023662427e-15 1.523451288074236e-15 2.0647355881912425e-18
3.421196662673239 1.88411415753545e-23 1.7110184228670505e-15 1.7088498074811223e-15 2.168615385928149e-18
3.4276182099114902 1.8469212255832314e-23 1.6803906133567702e-15 1.6781987154114712e-15 2.1918979452988237e-18
3.4340518103208963 1.6817510998260945e-23 1.5329853219929452e-15 1.5307713542231416e-15 2.2139677698037093e-18
3.4469541582030403 1.446130989798498e-23 1.3231606405089692e-15 1.3209042134787171e-15 2.2564270302515023e-18
3.472904465399547 1.3808668603556715e-23 1.2729580057905554e-15 1.2706039126945176e-15 2.3540930960382327e-18
3.4990501388274233 1.2809115406127529e-23 1.1897034944764318e-15 1.18724923012912e-15 2.4542643473122067e-18
3.5253949054701885 9.235341306833205e-24 8.642316275059208e-16 8.616796845846235e-16 2.551942921297483e-18
3.5519380250092896 5.86363011345489e-24 5.528424451217791e-16 5.501920314417747e-16 2.6504136800044674e-18
3.578680990867387 4.534895104247572e-24 4.3078410006406933e-16 4.280257106116502e-16 2.758389452419055e-18
3.605625307711299 4.007116363811244e-24 3.835146696727936e-16 3.8064237904842117e-16 2.872290624372439e-18
3.660119384959845 3.641721558028521e-24 3.5381107367456254e-16 3.506986766070935e-16 3.1123970674689856e-18
3.715437065384467 3.388896984040675e-24 3.342240593695169e-16 3.308573602649561e-16 3.366699104560812e-18
3.8285932144167436 3.3031664172800656e-24 3.3569054783724084e-16 3.3177313718614646e-16 3.917410651094348e-18
3.94519561050918 3.3309471998548644e-24 3.4882348996422834e-16 3.442992395816742e-16 4.524250382554228e-18
4.06534921144712 3.4043354611596205e-24 3.673665746552977e-16 3.6217846544194456e-16 5.1881092133532115e-18
4.189162171576248 3.503375418486931e-24 3.89568007976211e-16 3.8365618411671856e-16 5.911823859492589e-18
4.316745939156006 3.6203812077430746e-24 4.148396165180782e-16 4.081450330758235e-16 6.694583442254756e-18
4.448215356677963 3.752566982180057e-24 4.4308157535058246e-16 4.355538301962992e-16 7.527745154283396e-18
4.58368876423945 3.899991927924787e-24 4.74513160791013e-16 4.660990744216996e-16 8.414086369313497e-18
4.723288106065518 4.0648177562964524e-24 5.096299574413526e-16 5.002691108174677e-16 9.36084662388486e-18
4.867139040275056 4.251287367131761e-24 5.492418840910412e-16 5.388951867273604e-16 1.0346697363680845e-17
4.940699165968905 4.358646985731237e-24 5.716227964050065e-16 5.607651346952003e-16 1.0857661709806132e-17
5.015371051989984 4.467979117315761e-24 5.948173620532178e-16 5.834378836878882e-16 1.1379478365329676e-17
5.091171501069577 4.5970918023448616e-24 6.212556286441163e-16 6.093328034433044e-16 1.1922825200811977e-17
5.129500256944802 4.662567681398838e-24 6.348478278795277e-16 6.226495333671316e-16 1.2198294512396077e-17
5.168117569889187 4.7301945261508164e-24 6.489045496487347e-16 6.364258954974959e-16 1.2478654151238734e-17
5.20702561229733 4.81179029043092e-24 6.650676727616163e-16 6.522846763958656e-16 1.2782996365750663e-17
5.246226572918644 4.8947861099795066e-24 6.816323518795734e-16 6.68541584262579e-16 1.3090767616994512e-17
5.265937586045735 4.936823826168146e-24 6.900694001238911e-16 6.768234836417748e-16 1.3245916482116391e-17
5.285722656980489 4.979229599662993e-24 6.986118655385908e-16 6.852099704257694e-16 1.3401895112821533e-17
5.305582063971359 5.022009764172521e-24 7.072615071785715e-16 6.937028131575015e-16 1.3558694021070196e-17
5.3255160863122235 5.067727262556426e-24 7.163815093559209e-16 7.026641050510888e-16 1.3717404304832083e-17
5.365609099470188 5.180479203094958e-24 7.378335471951094e-16 7.237877516314596e-16 1.4045795563649755e-17
5.406003951863644 5.296559140613955e-24 7.600455451096624e-16 7.45667693112248e-16 1.4377851997414333e-17
5.446702915881641 5.416134437726352e-24 7.830555222300864e-16 7.6834202092209e-16 1.4713501307996444e-17
5.487708281020852 5.5443730862199206e-24 8.076308438982495e-16 7.92576892880982e-16 1.5053951017267562e-17
5.529022354014368 5.721676990135616e-24 8.397327969234338e-16 8.243236524799497e-16 1.5409144443484112e-17
5.570647458961463 5.907866505635643e-24 8.735862329496984e-16 8.578179238143276e-16 1.5768309135371178e-17
5.612585937458331 6.103590363507431e-24 9.093222450681358e-16 8.931908705093958e-16 1.613137455874014e-17
5.654840148729818 6.317310054131762e-24 9.48248050384295e-16 9.317481763953107e-16 1.6499873988984275e-17
5.67608639626678 6.463048408501216e-24 9.737687634640015e-16 9.57076223789878e-16 1.669253967412359e-17
5.686739436050992 6.5379328572923594e-24 9.869001585822971e-16 9.701108698510435e-16 1.6789288731253373e-17
5.6974124697621304 6.614203702409956e-24 1.000287083494314e-15 9.834007695992457e-16 1.6886313895068778e-17
5.718818669136295 6.771038180294803e-24 1.0278530336219939e-15 1.0107718452444401e-15 1.708118837755382e-17
5.740305295436557 6.943607548188767e-24 1.0580095562802626e-15 1.0407310642942705e-15 1.7278491985992487e-17
5.7835210386641895 7.391344436416904e-24 1.1347108136645499e-15 1.1170239891655499e-15 1.7686824499000234e-17
5.827062130521658 7.903597386562222e-24 1.2224859901219538e-15 1.2043827262561598e-15 1.8103263865793997e-17
5.8489554468988025 8.264299355610168e-24 1.2830801505359479e-15 1.2647525867339565e-15 1.832756380199141e-17
5.870931020387893 8.649576833485277e-24 1.3479422050832733e-15 1.3293887835071477e-15 1.85534215761256e-17
5.892989160043636 9.061385741401615e-24 1.4174237124263801e-15 1.3986428801874494e-15 1.8780832238930787e-17
5.915130176081913 9.528978916499206e-24 1.4961671180185642e-15 1.4771507002185656e-15 1.9016417799998604e-17
5.95966208400165 1.0838562674813729e-23 1.7145997736313748e-15 1.6950499228150768e-15 1.9549850816298296e-17
6.004529249263818 1.272202367127396e-23 2.0277041829219016e-15 2.00755578188175e-15 2.0148401040151194e-17
6.027089341400364 1.4031270834534714e-23 2.2447814755344244e-15 2.224288931714297e-15 2.0492543820126908e-17
6.049734195844842 1.5573974784512744e-23 2.5009510637283234e-15 2.480094285753334e-15 2.085677797499022e-17
6.095279466722835 2.0029204428197743e-23 3.2406099037840345e-15 3.2188637223816304e-15 2.174618140240402e-17
6.141167624020661 2.686934741444975e-23 4.380034218746952e-15 4.357140959432975e-15 2.2893259313977676e-17
6.164241091010745 3.123810939200239e-23 5.111328465985259e-15 5.087718794235705e-15 2.3609671749553974e-17
6.187401249150058 3.619694872794267e-23 5.944970122438004e-15 5.920623767464556e-15 2.4346354973448443e-17
6.1990139391386085 3.861659659105445e-23 6.3542755121119546e-15 6.329554094476104e-15 2.4721417635851522e-17
6.204828454712694 3.9889631487941335e-23 6.569907216385925e-15 6.544996248946736e-15 2.4910967439188367e-17
6.210648424152782 4.08180335996062e-23 6.7291228497898556e-15 6.704049554309133e-15 2.507329548072207e-17
6.233982942956859 4.396413195134662e-23 7.275009174816812e-15 7.249366369073757e-15 2.56428057430548e-17
6.239830258556775 4.436187461359315e-23 7.347711549850898e-15 7.321987050756872e-15 2.5724499094026838e-17
6.245683058788269 4.438958333944801e-23 7.359197249148206e-15 7.333390885569152e-15 2.580636357905358e-17
6.257405133728602 4.42875872898762e-23 7.356067886378001e-15 7.330116661581985e-15 2.5951224796017123e-17
6.269149208991335 4.3649619291680524e-23 7.263710046072003e-15 7.237698025407847e-15 2.6012020664157082e-17
6.280915325867298 4.2072717274951974e-23 7.014438851625446e-15 6.9884701187017855e-15 2.596873292365914e-17
6.304513850009849 3.819324404053096e-23 6.391570506172398e-15 6.365782682847351e-15 2.5787823325047434e-17
6.32820103803542 3.3400619928977925e-23 5.610534383690718e-15 5.585027845794403e-15 2.550653789631535e-17
6.3519772230701035 2.900961676795297e-23 4.891255584579571e-15 4.865998505022282e-15 2.525707955728936e-17
6.375842739491607 2.5311140503903714e-23 4.2836970013681344e-15 4.258656871822593e-15 2.504012954554144e-17
6.399797922933955 2.2354833640047674e-23 3.797581792197063e-15 3.772638988611094e-15 2.4942803585968663e-17
6.42384311029221 1.9892832291148803e-23 3.392040117065392e-15 3.3671708562932957e-15 2.4869260772095554e-17
6.447978639727206 1.8101005781541602e-23 3.0981021294640988e-15 3.0732127705410888e-15 2.4889358923010078e-17
6.472204850670314 1.660592696155123e-23 2.8528885834225606e-15 2.8279603849303336e-15 2.4928198492227127e-17
6.496522083828205 1.5634314276527085e-23 2.696057745649811e-15 2.671014506928725e-15 2.5043238721085575e-17
