Dust emission spectrum from A.P. Jones, M. Kohler, N. Ysard, M. Bocchio, and L. Verstraete (2017), A&A, 602A, 46J 
inside the DustPedia framework.

lambda    nu*dP/dnu     j_nu    j_nu(carb.) j_nu(sil)
 (um)   (erg s-1 H-1) (Jy cm2 sr-1 H-1)
0.9927057738263894 1.4371194037391601e-24 3.7868912556052454e-17 3.7868912556002405e-17 5.0056681206281327e-29
1.0001793341362166 1.4607060782914946e-24 3.8780209092533393e-17 3.878020909247306e-17 6.032288039255488e-29
1.0077091589558085 1.4842548605343527e-24 3.970206706864648e-17 3.970206706857389e-17 7.260306159203873e-29
1.0114953028030835 1.4960121423550512e-24 4.016690987841273e-17 4.0166909878333104e-17 7.961325557855287e-29
1.0152956718711033 1.5077564812439366e-24 4.0634336418959704e-17 4.0634336418872424e-17 8.727264657327556e-29
1.0229392996569957 1.531190151954122e-24 4.1576547618077e-17 4.157654761797223e-17 1.047744022384151e-28
1.0267826658714554 1.5428509058592297e-24 4.205057330277954e-17 4.205057330266479e-17 1.1474967262463803e-28
1.0306404723013447 1.5544935648849857e-24 4.2527079044438006e-17 4.252707904431236e-17 1.256346412539659e-28
1.03451277320114 1.5661170070582745e-24 4.3006044117916054e-17 4.3006044117778545e-17 1.3750829840386123e-28
1.0383996230291617 1.5777201169308555e-24 4.3487447548676615e-17 4.348744754852615e-17 1.5045612111478318e-28
1.0403485208654093 1.5835137005134941e-24 4.3729057026532514e-17 4.372905702637515e-17 1.5736145211998908e-28
1.0423010764483396 1.5893017857924947e-24 4.3971268117793363e-17 4.397126811762879e-17 1.645705729512881e-28
1.0462171883269815 1.600860911879329e-24 4.445748436696791e-17 4.4457484366787966e-17 1.7995163951690468e-28
1.0471985131304309 1.603747042657435e-24 4.457941021724062e-17 4.4579410217056603e-17 1.8400729400226487e-28
1.048180758391296 1.6066316790305673e-24 4.4701484101640574e-17 4.470148410145244e-17 1.8815059597303375e-28
1.0501480137395462 1.6123964005773666e-24 4.4946074603549016e-17 4.49460746033523e-17 1.9670740206505233e-28
1.0521189612883777 1.6181549408427531e-24 4.519125312531816e-17 4.519125312511253e-17 2.0563693365210684e-28
1.0531058218030118 1.6210273943261345e-24 4.5313937457816245e-17 4.5313937457606e-17 2.1024657252683787e-28
1.0540936079674168 1.6238836515343445e-24 4.5436359008015967e-17 4.5436359007801014e-17 2.1495623080047916e-28
1.058054026499678 1.635291785528674e-24 4.592747109414754e-17 4.592747109391271e-17 2.348268899146219e-28
1.0590464539527713 1.638139512118467e-24 4.6050603824452624e-17 4.6050603824212564e-17 2.4006320958741187e-28
1.06003981227728 1.6409854827753945e-24 4.6173877730375165e-17 4.617387773012976e-17 2.454113955046881e-28
1.0620293250338977 1.646672090206693e-24 4.642084764680968e-17 4.642084764655322e-17 2.5645251680997393e-28
1.0660195594769086 1.6580235087571343e-24 4.6916465897480724e-17 4.6916465897200734e-17 2.79980313030374e-28
1.070024785945596 1.6693449926678363e-24 4.7414302874515454e-17 4.741430287420988e-17 3.055691246415525e-28
1.0740450607676866 1.6806355018971513e-24 4.791433540817601e-17 4.791433540784265e-17 3.333903036041761e-28
1.07808044048254 1.6918940050405363e-24 4.841654013565232e-17 4.841654013528869e-17 3.6362862807036267e-28
1.0861967418109137 1.7142908626708072e-24 4.9426793730476026e-17 4.942679373004387e-17 4.321689823870753e-28
1.0902777775684922 1.7253816114611504e-24 4.993347128123522e-17 4.993347128076429e-17 4.709170413490455e-28
1.0943741465085532 1.7364355272596854e-24 5.044218848889592e-17 5.0442188488382946e-17 5.129763350318366e-28
1.1026131145906286 1.7584289494958626e-24 5.146564402990921e-17 5.1465644029301093e-17 6.081212258086786e-28
1.1109141095355224 1.780263406365035e-24 5.249696310996172e-17 5.249696310924172e-17 7.200016934763658e-28
1.1192775983109025 1.8019108963304844e-24 5.353533889753453e-17 5.3535338896683137e-17 8.513909478769679e-28
1.1277040513999907 1.823270152203037e-24 5.457774604178991e-17 5.457774604078441e-17 1.0054918301705888e-27
1.1361939428280308 1.8444453547900285e-24 5.56272634589143e-17 5.562726345772828e-17 1.1859978150775416e-27
1.1447477501889525 1.865429494365988e-24 5.668368433612331e-17 5.668368433472617e-17 1.3971631687377864e-27
1.1533659546722406 1.8862272889873442e-24 5.774715386985933e-17 5.774715386821543e-17 1.6438838767491876e-27
1.1707974979042381 1.9273322551674286e-24 5.98973775496073e-17 5.989737754733994e-17 2.267337272119382e-27
1.1884924949847024 1.967603804441386e-24 6.207311360728174e-17 6.207311360416979e-17 3.1119394879515956e-27
1.2064549276569216 2.0073609133346767e-24 6.428445970340729e-17 6.428445969915674e-17 4.250550266180715e-27
1.2246888378427687 2.046165934608457e-24 6.651751905659662e-17 6.651751905081869e-17 5.777921074296337e-27
1.2431983285522175 2.0839284519754107e-24 6.87689913910031e-17 6.876899138318622e-17 7.816860272997644e-27
1.2619875648066055 2.120635085211997e-24 7.103795504105909e-17 7.103795503053337e-17 1.0525727108557485e-26
1.3004222497298317 2.1902692042109287e-24 7.560513991776179e-17 7.560513989894026e-17 1.8821527462947826e-26
1.3400274889804893 2.254802290844668e-24 8.020318365632787e-17 8.020318362327743e-17 3.305043486657001e-26
1.3808389325824078 2.314002074288662e-24 8.481569016554537e-17 8.481569010852662e-17 5.701874600908928e-26
1.4228933163050095 2.3681702346621693e-24 8.944471624302162e-17 8.944471614633006e-17 9.669153383790319e-26
1.466228494730424 2.4186362677423882e-24 9.413294570234247e-17 9.413294554109023e-17 1.6125223970173194e-25
1.5108834753276823 2.464415234294329e-24 9.883580165414382e-17 9.88358013895612e-17 2.645826049474711e-25
1.5568984535646726 2.5047134744109775e-24 1.0351130226553339e-16 1.0351130183796718e-16 4.275662052643548e-25
1.6043148490894465 2.5396159887617923e-24 1.0815014072842777e-16 1.0815014004668874e-16 6.817390335815182e-25
1.6531753430134553 2.5692406969430795e-24 1.1274392366846308e-16 1.1274392259713483e-16 1.0713282388892979e-24
1.7035239163302658 2.5939551539076353e-24 1.1729517070088983e-16 1.1729516904120385e-16 1.659685990171312e-24
1.755405889504358 2.615834179936267e-24 1.218869456835703e-16 1.218869431475677e-16 2.5360025956133723e-24
1.8088679632656115 2.6343771816895662e-24 1.2648943599277865e-16 1.2648943216935293e-16 3.823425693889632e-24
1.8639582606462262 2.649249157928324e-24 1.3107758191939763e-16 1.3107757622939936e-16 5.689998302204084e-24
1.9207263702978936 2.660709985567803e-24 1.3565395855817168e-16 1.3565395019640487e-16 8.36176682823818e-24
1.979223391128241 2.6693521292533267e-24 1.4023942286004245e-16 1.402394107210094e-16 1.2139033041887338e-23
2.039501978296691 2.6758822404005208e-24 1.4486402946546136e-16 1.4486401205009812e-16 1.741536326483869e-23
2.1016163906111602 2.6822615346786716e-24 1.496318348631792e-16 1.496318101612768e-16 2.470190244156032e-23
2.1656225393682647 2.6896313080068376e-24 1.546126227456138e-16 1.5461258809302467e-16 3.4652589093161207e-23
2.231578038680979 2.6980818377491835e-24 1.598220254791385e-16 1.5982197738496156e-16 4.8094176989333507e-23
2.299542257339062 2.7082998717583674e-24 1.6531321685867759e-16 1.6531315079795153e-16 6.60607259884071e-23
2.369576372248914 2.7217928218952927e-24 1.7119662874100666e-16 1.7119653890730614e-16 8.983370056104707e-23
2.4417434235010123 2.74033960818594e-24 1.7761263103470333e-16 1.7761251005223638e-16 1.2098246688983408e-22
2.5161083711144245 2.766980816721118e-24 1.8480125827123054e-16 1.848010968557491e-16 1.6141548146855272e-22
2.5927381535095444 2.8066886416415565e-24 1.9316228257125332e-16 1.9316206914031813e-16 2.134309352615932e-22
2.6717017477616296 2.8654002220875775e-24 2.0320888730831575e-16 2.0320860754941955e-16 2.797588961566416e-22
2.753070231689431 2.95204946563396e-24 2.1572990587433223e-16 2.1572954225600314e-16 3.636183290918024e-22
2.836916847834745 3.0868680223320465e-24 2.324524357789635e-16 2.324519669889318e-16 4.687900317311338e-22
2.9233170693905177 3.3144075883130124e-24 2.571883368980899e-16 2.5718773730654607e-16 5.995915437762659e-22
2.967498994190263 3.506920020862675e-24 2.762395608409603e-16 2.762388856452491e-16 6.751957111678084e-22
3.0123486681368425 3.7316292229781336e-24 2.983823684514677e-16 2.9838160909102273e-16 7.593604450566723e-22
3.0578761833420214 4.232829456284482e-24 3.4357384898452926e-16 3.435729958384911e-16 8.531460380129482e-22
3.1040917844459814 4.878523415055883e-24 4.0196883318865236e-16 4.0196787632490366e-16 9.568637486063743e-22
3.127460860933648 5.5607297633220996e-24 4.616290240414506e-16 4.616280109786858e-16 1.0130627649061786e-21
3.1510058709225794 6.46956339846355e-24 5.411200405813149e-16 5.411189684438102e-16 1.072137504392111e-21
3.162844764501044 7.315118073819898e-24 6.141417898890701e-16 6.141406869867221e-16 1.1029023482619926e-21
3.1747281389236908 8.298472273456335e-24 6.993170577257867e-16 6.993159232973561e-16 1.1344284306477623e-21
3.1986289994194426 1.1041338769026851e-23 9.374649481878585e-16 9.374637482062875e-16 1.199981570591451e-21
3.2227097969389145 1.750572345437756e-23 1.4975133261913844e-15 1.49751205619846e-15 1.269992924420233e-21
3.2348180950136065 2.3635730082984465e-23 2.029496555738518e-15 2.0294952482297275e-15 1.30750879103902e-21
3.240889293275058 2.821856148508801e-23 2.4275517663625973e-15 2.4275504390532317e-15 1.327309366445641e-21
3.2469718861334385 3.352017084859461e-23 2.8890441908869902e-15 2.889042843080537e-15 1.3478064530230674e-21
3.2714166318528037 6.179925118809135e-23 5.366467495408671e-15 5.3664660624402976e-15 1.4329683732500186e-21
3.2744851364798273 6.356696721879976e-23 5.52514841230536e-15 5.525146969185372e-15 1.4431199888506871e-21
3.2775565192852394 6.53854483356489e-23 5.688538851297964e-15 5.688537397963741e-15 1.4533342243667603e-21
3.283707930232385 6.36363918116482e-23 5.5467616216789855e-15 5.546760149856653e-15 1.4718223336160275e-21
3.2898708863219004 5.80900225113809e-23 5.0728244321483004e-15 5.072822943294277e-15 1.4888540241761883e-21
3.29141343181113 5.678205770956161e-23 4.960928832983098e-15 4.960927339846054e-15 1.4931370427338976e-21
3.292184975758714 5.613937118971227e-23 4.9059283995756125e-15 4.905926904293284e-15 1.4952823284484493e-21
3.295272960557952 5.2082713350291575e-23 4.555692782952085e-15 4.555691279286808e-15 1.5036652759403736e-21
3.3076538914384823 3.802946204244016e-23 3.3389481445791276e-15 3.3389466071246503e-15 1.537454476998782e-21
3.310756385682612 3.5169312783338826e-23 3.090726249437418e-15 3.090724703440533e-15 1.5459968846682794e-21
3.313861789986515 3.2530392361500826e-23 2.861495887322221e-15 2.8614943327446403e-15 1.5545775807723547e-21
3.3200813396944477 2.8829635845312723e-23 2.5407229675963403e-15 2.5407213946512787e-15 1.57294506125198e-21
3.345076488085796 2.2228265034400604e-23 1.9736995957204377e-15 1.9736979410872358e-15 1.6546332013375278e-21
3.3482140837626964 2.247587387641246e-23 1.9975572649402633e-15 1.9975555992411155e-15 1.6656991466546791e-21
3.3513546224236106 2.2726218965335276e-23 2.0217013672146756e-15 2.0216996903860454e-15 1.6768286297184872e-21
3.3576445397418455 2.4555490009074927e-23 2.188531265032445e-15 2.1885295649636546e-15 1.7000687904144443e-21
3.3702598118196083 3.1302358669308635e-23 2.8003342887096747e-15 2.800332539841642e-15 1.7488680327097352e-21
3.382922481734668 3.2838947765703133e-23 2.9488366267181412e-15 2.9488348299930842e-15 1.7967250563072462e-21
3.389271646505754 3.3634991560928445e-23 3.0259875341696724e-15 3.0259857130948738e-15 1.8210747990062216e-21
3.395632727569191 3.4492732464378945e-23 3.108978678755005e-15 3.108976832575869e-15 1.8461791347850962e-21
3.421196662673239 3.8611020769867146e-23 3.5063781883238673e-15 3.5063762376796495e-15 1.950644216846415e-21
3.4276182099114902 3.778104543879533e-23 3.4374456927966175e-15 3.4374437183692035e-15 1.9744274141436316e-21
3.4340518103208963 3.4144165510360936e-23 3.112381170108566e-15 3.112379172960632e-15 1.997147934066502e-21
3.4469541582030403 2.8964678992925355e-23 2.6501695544022555e-15 2.6501675131748952e-15 2.041227360863687e-21
3.472904465399547 2.751362084951127e-23 2.5363548749117073e-15 2.5363527326590807e-15 2.142252625947732e-21
3.4990501388274233 2.5294025940757258e-23 2.3492950213174792e-15 2.34929277448261e-15 2.2468348681300706e-21
3.5253949054701885 1.7393581772407847e-23 1.6276695125715767e-15 1.627667162316871e-15 2.3502547051587138e-21
3.5519380250092896 9.968583234288105e-24 9.39871005334724e-16 9.398685495899658e-16 2.4557447581073343e-21
3.578680990867387 7.025218022466139e-24 6.673477895282184e-16 6.673452177293612e-16 2.571798857539145e-21
3.605625307711299 5.835256651748216e-24 5.58483039689587e-16 5.584803445783175e-16 2.6951112694830433e-21
3.660119384959845 4.9683014553514e-24 4.826948036105191e-16 4.826918448132232e-16 2.9587972959216515e-21
3.715437065384467 4.3550498752275076e-24 4.2950920459073344e-16 4.2950596090402123e-16 3.2436867122323333e-21
3.8285932144167436 4.0466509132653895e-24 4.1124856891064505e-16 4.112446878974866e-16 3.881013158504438e-21
3.94519561050918 3.990745718507805e-24 4.179189178232394e-16 4.1791430204505503e-16 4.615778184444474e-21
4.06534921144712 4.038741600986545e-24 4.3582622359045876e-16 4.358207639576174e-16 5.459632841373205e-21
4.189162171576248 4.147093632721549e-24 4.611481249953828e-16 4.61141696871154e-16 6.428124228927047e-21
4.316745939156006 4.2995957065836066e-24 4.926670788941124e-16 4.926595438237453e-16 7.53507036697565e-21
4.448215356677963 4.490835859059918e-24 5.302521278160305e-16 5.302433408976148e-16 8.786918415808167e-21
4.58368876423945 4.7215154480762216e-24 5.744681682411554e-16 5.744579621942058e-16 1.0206046949451917e-20
4.723288106065518 4.9968674822852826e-24 6.264864786108761e-16 6.264746542825617e-16 1.1824328314502734e-20
4.867139040275056 5.327322323894938e-24 6.882594135974421e-16 6.882457724859541e-16 1.3641111488315808e-20
4.940699165968905 5.526258561649572e-24 7.247513696357019e-16 7.247367321738867e-16 1.4637461815298625e-20
5.015371051989984 5.732311044229622e-24 7.631365421075716e-16 7.631208461811413e-16 1.5695926430347024e-20
5.091171501069577 5.983166393821323e-24 8.085711486944485e-16 8.085543120977132e-16 1.6836596735041768e-20
5.129500256944802 6.111929594670075e-24 8.321906495445871e-16 8.321732162949682e-16 1.7433249618859366e-20
5.168117569889187 6.2461374825484565e-24 8.568668810023392e-16 8.5684882986962015e-16 1.805113271906106e-20
5.20702561229733 6.410499945331807e-24 8.860353470430406e-16 8.860166325242811e-16 1.8714518759462565e-20
5.246226572918644 6.57904958826588e-24 9.161775291547494e-16 9.16158129866178e-16 1.9399288571142547e-20
5.265937586045735 6.664936295777097e-24 9.31625019129091e-16 9.316052692344594e-16 1.9749894631270674e-20
5.285722656980489 6.751920554450473e-24 9.47329646102734e-16 9.473095400106809e-16 2.010609205334245e-20
5.305582063971359 6.840020051908934e-24 9.632961937981956e-16 9.632757258326582e-16 2.0467965537533787e-20
5.3255160863122235 6.934615566405137e-24 9.80287633663684e-16 9.802667965798764e-16 2.0837083807541973e-20
5.365609099470188 7.169828694797016e-24 1.02116810651472e-15 1.0211465018201302e-15 2.160469459004091e-20
5.406003951863644 7.413956851005983e-24 1.0638878423982216e-15 1.063865444887719e-15 2.2397510502542738e-20
5.446702915881641 7.667429712346974e-24 1.1085439710918211e-15 1.1085207547636563e-15 2.3216328164992176e-20
5.487708281020852 7.94120898445798e-24 1.1567701548855986e-15 1.1567460909762134e-15 2.406390938464871e-20
5.529022354014368 8.321132544193485e-24 1.2212377449745874e-15 1.221212788463176e-15 2.4956511411333212e-20
5.570647458961463 8.723344303528587e-24 1.2899061753635252e-15 1.2898802962458817e-15 2.5879117643734855e-20
5.612585937458331 9.149445600870288e-24 1.3630984255849006e-15 1.3630715928675614e-15 2.6832717339179046e-20
5.654840148729818 9.617660094186275e-24 1.4436409413855172e-15 1.4436131203959717e-15 2.782098954550544e-20
5.67608639626678 9.936275390735945e-24 1.4970698019138794e-15 1.4970414627707236e-15 2.833914315529985e-20
5.686739436050992 1.0100485487815287e-23 1.5246670388431228e-15 1.5246384372986312e-15 2.860154449211959e-20
5.6974124697621304 1.026806802417488e-23 1.5528726176487066e-15 1.5528437514614387e-15 2.886618726811066e-20
5.718818669136295 1.061367484715422e-23 1.6111706357340226e-15 1.611141233460573e-15 2.940227344950997e-20
5.740305295436557 1.0994558941318947e-23 1.6752600642062988e-15 1.6752301140538063e-15 2.9950152492084227e-20
5.7835210386641895 1.1982247050331729e-23 1.8395009753601302e-15 1.8394698804165204e-15 3.109494361033204e-20
5.827062130521658 1.311963733382866e-23 2.029275031564162e-15 2.0292427448768964e-15 3.2286687265248706e-20
5.8489554468988025 1.3917368435426275e-23 2.160751736935668e-15 2.1607188111185057e-15 3.292581716156746e-20
5.870931020387893 1.4773243263525442e-23 2.3022488249109093e-15 2.3022152480121808e-15 3.357689872788303e-20
5.892989160043636 1.5691936637849012e-23 2.454605037147339e-15 2.4545707969889738e-15 3.424015836486062e-20
5.915130176081913 1.6736618171609347e-23 2.627855302716261e-15 2.627820374554831e-15 3.492816143019294e-20
5.95966208400165 1.96572180834562e-23 3.1096615563646034e-15 3.109625103753665e-15 3.645261093917426e-20
6.004529249263818 2.38659596115025e-23 3.803884302067393e-15 3.803846147427528e-15 3.815463986340686e-20
6.027089341400364 2.679139213501753e-23 4.286199124632628e-15 4.286160007563152e-15 3.9117069475807884e-20
6.049734195844842 3.0247978734691756e-23 4.857380061215108e-15 4.857339925540677e-15 4.013567443180669e-20
6.095279466722835 4.023239919223847e-23 6.509370441684207e-15 6.509327882821538e-15 4.255886266645039e-20
6.141167624020661 5.559688335061857e-23 9.06297602897621e-15 9.062930420866317e-15 4.5608109889155043e-20
6.164241091010745 6.540968929017728e-23 1.0702645368984138e-14 1.0702597898225967e-14 4.7470758169965044e-20
6.187401249150058 7.658652965071786e-23 1.2578536217978289e-14 1.2578486809525689e-14 4.9408452595643884e-20
6.1990139391386085 8.204446192812418e-23 1.3500234649240117e-14 1.3500184249609422e-14 5.039963069278252e-20
6.204828454712694 8.491936494221243e-23 1.3986400168008789e-14 1.3986349265090882e-14 5.090291790712411e-20
6.210648424152782 8.701849166994779e-23 1.43455739782659e-14 1.434552263225427e-14 5.1346011628831543e-20
6.233982942956859 9.415094109533425e-23 1.557972214814112e-14 1.5579669191919535e-14 5.295622158525937e-20
6.239830258556775 9.506321983632458e-23 1.574543737029875e-14 1.5745384143502483e-14 5.322679626478752e-20
6.245683058788269 9.514331588043002e-23 1.5773485034716846e-14 1.5773431536000995e-14 5.3498715845908786e-20
6.257405133728602 9.494965564837942e-23 1.577092263270244e-14 1.577086862977014e-14 5.4002932299656154e-20
6.269149208991335 9.35498408666753e-23 1.5567579510165874e-14 1.5567525188265543e-14 5.432190033527378e-20
6.280915325867298 9.003606473248472e-23 1.5010974127953455e-14 1.5010919718559476e-14 5.440939397807042e-20
6.304513850009849 8.136939507831245e-23 1.3617021511336412e-14 1.3616967137627562e-14 5.437370884903993e-20
6.32820103803542 7.062569966121054e-23 1.1863489874259979e-14 1.1863435762011554e-14 5.4112248422922845e-20
6.3519772230701035 6.077261164399788e-23 1.0246752946476977e-14 1.0246699023630188e-14 5.392284679226558e-20
6.375842739491607 5.2482533857500056e-23 8.882226104149707e-15 8.882172296298228e-15 5.3807851479764637e-20
6.399797922933955 4.5839444615447385e-23 7.787087259920107e-15 7.787033288780197e-15 5.3971139909389425e-20
6.42384311029221 4.0315776029700596e-23 6.8744725558368585e-15 6.8744183623038025e-15 5.4193533055315426e-20
6.447978639727206 3.629151199199072e-23 6.211522825903581e-15 6.2114681844827166e-15 5.464142086792295e-20
6.472204850670314 3.293900637603206e-23 5.658902117120147e-15 5.658846976584801e-15 5.514053534516699e-20
6.496522083828205 3.0761283411634933e-23 5.304626409652161e-15 5.304570580194962e-15 5.582945719712668e-20
6.520930681187647 2.892696465395487e-23 5.007049461782864e-15 5.006992904840987e-15 5.655694187738976e-20
