Dust emission spectrum from A.P. Jones, M. Kohler, N. Ysard, M. Bocchio, and L. Verstraete (2017), A&A, 602A, 46J 
inside the DustPedia framework.

lambda    nu*dP/dnu     j_nu    j_nu(carb.) j_nu(sil)
 (um)   (erg s-1 H-1) (Jy cm2 sr-1 H-1)
0.9927057738263894 1.478367715630901e-22 3.895582900297325e-15 3.895582900295098e-15 2.226995931129176e-27
1.0001793341362166 1.502785913966855e-22 3.989738444377081e-15 3.989738444374397e-15 2.6829637075201625e-27
1.0077091589558085 1.5271691259157795e-22 4.084997305681466e-15 4.084997305678237e-15 3.2281552528782603e-27
1.0114953028030835 1.5393446088554076e-22 4.133035717101904e-15 4.133035717098364e-15 3.539281766832569e-27
1.0152956718711033 1.551507750949867e-22 4.1813441820994305e-15 4.181344182095551e-15 3.8791464642931215e-27
1.0229392996569957 1.5757803237961182e-22 4.278730867249015e-15 4.278730867244359e-15 4.655475311058525e-27
1.0267826658714554 1.5878603111930568e-22 4.327730965890886e-15 4.327730965885789e-15 5.097803134984423e-27
1.0306404723013447 1.5999226165614961e-22 4.376990494941611e-15 4.37699049493603e-15 5.580356652683042e-27
1.03451277320114 1.6119660758233192e-22 4.42650733380754e-15 4.426507333801433e-15 6.1066162485802066e-27
1.0383996230291617 1.623989531365713e-22 4.476279335415322e-15 4.476279335408642e-15 6.680346849741925e-27
1.0403485208654093 1.6299933978106932e-22 4.5012603441714216e-15 4.5012603441644354e-15 6.98627345546958e-27
1.0423010764483396 1.6359918322631102e-22 4.526304326719831e-15 4.526304326712526e-15 7.305619727188259e-27
1.0462171883269815 1.647971834494245e-22 4.576580109212757e-15 4.57658010920477e-15 7.986835846122552e-27
1.0471985131304309 1.6509632174950407e-22 4.5891879809382005e-15 4.589187980930033e-15 8.166430143036008e-27
1.048180758391296 1.6539531180435178e-22 4.6018113532837e-15 4.601811353275351e-15 8.34989419027546e-27
1.0501480137395462 1.6599284011542772e-22 4.6271044594316034e-15 4.627104459422876e-15 8.728750865638827e-27
1.0521189612883777 1.665897542859358e-22 4.652459145908121e-15 4.652459145898998e-15 9.124060139771135e-27
1.0531058218030118 1.6688751824990783e-22 4.665146678542205e-15 4.665146678532877e-15 9.32810908252601e-27
1.0540936079674168 1.6718362146546856e-22 4.677807451283783e-15 4.677807451274246e-15 9.5365727505604e-27
1.058054026499678 1.6836634932948217e-22 4.728599941910092e-15 4.728599941899677e-15 1.0415965523069383e-26
1.0590464539527713 1.6866160139599172e-22 4.741335233554192e-15 4.741335233543544e-15 1.0647666294307456e-26
1.06003981227728 1.689566780537681e-22 4.754085320115439e-15 4.754085320104555e-15 1.088430165848644e-26
1.0620293250338977 1.695462982707548e-22 4.779629731939737e-15 4.779629731928366e-15 1.1372778255374194e-26
1.0660195594769086 1.7072335838477462e-22 4.830894483255434e-15 4.8308944832430205e-15 1.2413478899324891e-26
1.070024785945596 1.718974205985475e-22 4.882391835963207e-15 4.882391835949661e-15 1.3545044557288354e-26
1.0740450607676866 1.7306837668853083e-22 4.934119408903387e-15 4.934119408888611e-15 1.477499891735974e-26
1.07808044048254 1.7423611929807388e-22 4.986074800160654e-15 4.986074800144542e-15 1.6111452229838355e-26
1.0861967418109137 1.765594748503162e-22 5.090599812794742e-15 5.090599812775602e-15 1.9139491033242233e-26
1.0902777775684922 1.7771018347546771e-22 5.143028234455664e-15 5.143028234434813e-15 2.0850635117269046e-26
1.0943741465085532 1.7885717614234565e-22 5.195670815260057e-15 5.195670815237349e-15 2.2707483724935706e-26
1.1026131145906286 1.8113960585297062e-22 5.301588373655799e-15 5.3015883736288924e-15 2.69061567855205e-26
1.1109141095355224 1.8340595834826135e-22 5.408332157551306e-15 5.408332157519466e-15 3.1840506766714506e-26
1.1192775983109025 1.8565333921797267e-22 5.5158190411820504e-15 5.51581904114442e-15 3.763186314325192e-26
1.1277040513999907 1.878713067805873e-22 5.623737358734687e-15 5.623737358690267e-15 4.4420241175428766e-26
1.1361939428280308 1.9007057818066147e-22 5.732404107709368e-15 5.732404107657001e-15 5.236698078409907e-26
1.1447477501889525 1.922504199657603e-22 5.8417979085990934e-15 5.841797908537438e-15 6.165776838072696e-26
1.1533659546722406 1.944113041453188e-22 5.9519335554449544e-15 5.9519335553724494e-15 7.25061265022045e-26
1.1707974979042381 1.9868318198126157e-22 6.1746497169763525e-15 6.174649716876462e-15 9.989264073775927e-26
1.1884924949847024 2.0287002623289812e-22 6.400055822946567e-15 6.400055822809622e-15 1.3694530006481588e-25
1.2064549276569216 2.070045888524141e-22 6.629190626411672e-15 6.629190626224843e-15 1.8682940277078738e-25
1.2246888378427687 2.1104169855976106e-22 6.860621598791131e-15 6.860621598537476e-15 2.5365412318663798e-25
1.2431983285522175 2.1497190828559946e-22 7.0940061767410115e-15 7.094006176398275e-15 3.4273582164641474e-25
1.2619875648066055 2.1879374733304603e-22 7.329247966656173e-15 7.329247966195255e-15 4.60917505154407e-25
1.3004222497298317 2.26048764746939e-22 7.802898590763224e-15 7.802898589941215e-15 8.220085178152623e-25
1.3400274889804893 2.327783510067974e-22 8.279912129245504e-15 8.279912127806041e-15 1.439463403422274e-24
1.3808389325824078 2.3895754254243715e-22 8.758569889022156e-15 8.758569886545899e-15 2.476257424830837e-24
1.4228933163050095 2.44616420572452e-22 9.239051317443757e-15 9.239051313257034e-15 4.186723523150221e-24
1.466228494730424 2.498912179918397e-22 9.725727166356847e-15 9.725727159396161e-15 6.960686036643522e-24
1.5108834753276823 2.546793412104019e-22 1.021395928048099e-14 1.0213959269096333e-14 1.1384660455857891e-23
1.5568984535646726 2.5889777928398832e-22 1.0699366039719344e-14 1.069936602138233e-14 1.8337013395878986e-23
1.6043148490894465 2.6255423648145197e-22 1.1180933554508867e-14 1.1180933525370206e-14 2.9138664630517395e-23
1.6531753430134553 2.656598294993792e-22 1.1657736690257052e-14 1.165773664462699e-14 4.5630058412245894e-23
1.7035239163302658 2.6825147369827695e-22 1.2129971619133485e-14 1.2129971548700006e-14 7.04334788314398e-23
1.755405889504358 2.705424934413429e-22 1.2606150059552345e-14 1.2606149952333001e-14 1.072193420843253e-22
1.8088679632656115 2.7248020615254686e-22 1.3083118026905668e-14 1.3083117865882195e-14 1.6102347132317197e-22
1.8639582606462262 2.7402892855879826e-22 1.3558199772926919e-14 1.3558199534254643e-14 2.3867227322254385e-22
1.9207263702978936 2.752145260463274e-22 1.4031570563271361e-14 1.4031570213987783e-14 3.4928357663635855e-22
1.979223391128241 2.7609721467976228e-22 1.450528523967567e-14 1.450528473479563e-14 5.048800417789214e-22
2.039501978296691 2.767490601590599e-22 1.4982342421548437e-14 1.4982341700456647e-14 7.210917899962318e-22
2.1016163906111602 2.7737192328085634e-22 1.5473386649082132e-14 1.547338563103416e-14 1.0180479752220882e-21
2.1656225393682647 2.780828494659605e-22 1.598550647760252e-14 1.5985505056337945e-14 1.4212645740541412e-21
2.231578038680979 2.7889021369356515e-22 1.6520180453829095e-14 1.6520178491146132e-14 1.9626829600891666e-21
2.299542257339062 2.798640957776863e-22 1.708275898053217e-14 1.708275629870043e-14 2.681831742800732e-21
2.369576372248914 2.811594635508423e-22 1.7684502623170578e-14 1.7684498996026493e-14 3.6271440851422596e-21
2.4417434235010123 2.829593081205427e-22 1.8339751409248976e-14 1.8339746552043876e-14 4.857205107617662e-21
2.5161083711144245 2.8557702013119978e-22 1.907313282935326e-14 1.907312638702586e-14 6.442327404352411e-21
2.5927381535095444 2.8952545419208632e-22 1.9925757622161104e-14 1.9925749156184095e-14 8.465977010405369e-21
2.6717017477616296 2.9541692006121033e-22 2.0950421918356867e-14 2.0950410892619055e-14 1.1025737812557339e-20
2.753070231689431 3.0417330938110084e-22 2.2228380711831038e-14 2.2228366477134385e-14 1.423469665565428e-20
2.836916847834745 3.178832615994216e-22 2.393777055499865e-14 2.3937752331711603e-14 1.8223287048734893e-20
2.9233170693905177 3.4114685121485266e-22 2.6471998076321687e-14 2.6471974939553862e-14 2.313676783239819e-20
2.967498994190263 3.6090279521121542e-22 2.8428258717715727e-14 2.8428232766696654e-14 2.5951019075685322e-20
3.0123486681368425 3.839754331285314e-22 3.070280896573972e-14 3.070277989643083e-14 2.9069308888618914e-20
3.0578761833420214 4.356003044867612e-22 3.5357170605857486e-14 3.535713807759258e-14 3.2528264921941943e-20
3.1040917844459814 5.02124900901009e-22 4.137287932394484e-14 4.137284299137995e-14 3.6332564893169516e-20
3.127460860933648 5.724984662706059e-22 4.752647934681139e-14 4.7526440961245754e-14 3.8385565637800314e-20
3.1510058709225794 6.66261714481485e-22 5.5726722774464e-14 5.572668223703625e-14 4.0537427762877595e-20
3.162844764501044 7.535404003002186e-22 6.326359267533219e-14 6.326355101965156e-14 4.1655680654573547e-20
3.1747281389236908 8.55038672236579e-22 7.205460340246492e-14 7.205456060254888e-14 4.279991604724739e-20
3.1986289994194426 1.1381473608683748e-21 9.663440992134854e-14 9.663436474739637e-14 4.5173952189038516e-20
3.2227097969389145 1.8055025313131593e-21 1.544502921093282e-13 1.5445024440650358e-13 4.7702824636202724e-20
3.2348180950136065 2.4383642418720358e-21 2.093716510190574e-13 2.0937160196288683e-13 4.9056170609251865e-20
3.240889293275058 2.9115102268199485e-21 2.504678276259584e-13 2.504677778555676e-13 4.9770390805270374e-20
3.2469718861334385 3.4588668673901444e-21 2.981136127086281e-13 2.9811356219894787e-13 5.0509680259869855e-20
3.2714166318528037 6.378562613200519e-21 5.538958526695826e-13 5.538957990935675e-13 5.3576014999756065e-20
3.2744851364798273 6.561080936920915e-21 5.702796201816349e-13 5.702795662415558e-13 5.3940078967105943e-20
3.2775565192852394 6.748841676355143e-21 5.871497260388727e-13 5.871496717326254e-13 5.430624714101137e-20
3.283707930232385 6.5682705601677485e-21 5.725125203794737e-13 5.725124654133851e-13 5.496608874679002e-20
3.2898708863219004 5.995630416869256e-21 5.23580111522027e-13 5.235800559507822e-13 5.557124482610318e-20
3.29141343181113 5.8605876659838696e-21 5.120272054795346e-13 5.120271497561866e-13 5.572334789073856e-20
3.292184975758714 5.794232454008432e-21 5.063485562351977e-13 5.06348500435676e-13 5.579952184160467e-20
3.295272960557952 5.375391985489209e-21 4.701873788550338e-13 4.701873227583642e-13 5.60966694631775e-20
3.3076538914384823 3.9244028059966266e-21 3.445585807403859e-13 3.445585234474971e-13 5.729288888434296e-20
3.310756385682612 3.629090069634987e-21 3.1892928954549444e-13 3.189292319504992e-13 5.759499507273534e-20
3.313861789986515 3.356618308488926e-21 2.952607942232762e-13 2.952607363249483e-13 5.789832784905771e-20
3.3200813396944477 2.9745066267538275e-21 2.621398807952576e-13 2.621398222464549e-13 5.854880272562794e-20
3.345076488085796 2.2928522914909826e-21 2.0358771293031154e-13 2.0358765148599665e-13 6.144431484798406e-20
3.3482140837626964 2.3184122551393788e-21 2.0605033062765252e-13 2.0605026879101809e-13 6.183663440412599e-20
3.3513546224236106 2.3442548076335457e-21 2.085425277702985e-13 2.0854246553925705e-13 6.223104145304051e-20
3.3576445397418455 2.533122684849154e-21 2.2576695443285736e-13 2.2576689137775337e-13 6.305510388731138e-20
3.3702598118196083 3.2297508059781744e-21 2.889361156939344e-13 2.889360509088504e-13 6.478508395055382e-20
3.382922481734668 3.388409935990012e-21 3.042688029126952e-13 3.042687364364905e-13 6.647620456430536e-20
3.389271646505754 3.4706063291757965e-21 3.12234699660095e-13 3.1223463232454035e-13 6.733555483498408e-20
3.395632727569191 3.559176618517132e-21 3.2080393260581693e-13 3.208038643843942e-13 6.822142279743149e-20
3.421196662673239 3.984456604759585e-21 3.6183999937539215e-13 3.618399274740767e-13 7.190131551833975e-20
3.4276182099114902 3.898747033820726e-21 3.5472102592876163e-13 3.5472095319536636e-13 7.273339528156162e-20
3.4340518103208963 3.523180326534967e-21 3.2115238264871174e-13 3.2115230912317416e-13 7.352553775047292e-20
3.4469541582030403 2.9883044662869577e-21 2.7341968877930003e-13 2.7341961372259767e-13 7.505670224933045e-20
3.472904465399547 2.8383954476696944e-21 2.616586951605138e-13 2.616586165876241e-13 7.857288972724898e-20
3.4990501388274233 2.60911975341414e-21 2.4233358742785484e-13 2.423335052292742e-13 8.219858063371589e-20
3.5253949054701885 1.7931946118061538e-21 1.6780489711294534e-13 1.678048113512128e-13 8.576173252436798e-20
3.5519380250092896 1.0263237598454695e-21 9.676519935621143e-14 9.67651099782875e-14 8.93779239312401e-20
3.578680990867387 7.222485432253482e-22 6.860868477960966e-14 6.860859142778928e-14 9.335182039562095e-20
3.605625307711299 5.992483020800265e-22 5.735309228844483e-14 5.73529947264698e-14 9.756197504249461e-20
3.660119384959845 5.094988788890584e-22 4.950030981317322e-14 4.950020330133784e-14 1.065118353754691e-19
3.715437065384467 4.459309634385843e-22 4.397916416488345e-14 4.3979048063686376e-14 1.1610119707215997e-19
3.8285932144167436 4.1361105411131806e-22 4.2034007314865105e-14 4.2033870049010693e-14 1.372658544150788e-19
3.94519561050918 4.0734097399806385e-22 4.2657566040561594e-14 4.265740482747896e-14 1.6121308263085136e-19
4.06534921144712 4.1177229935890754e-22 4.4434921552028854e-14 4.4434733381888517e-14 1.8817014034572567e-19
4.189162171576248 4.2240559010389454e-22 4.6970616801855606e-14 4.697039833807246e-14 2.184637831468436e-19
4.316745939156006 4.375653754545739e-22 5.013821532576195e-14 5.0137963005334576e-14 2.5232042735997204e-19
4.448215356677963 4.566905154260023e-22 5.392339536736704e-14 5.392310567913738e-14 2.896882296489948e-19
4.58368876423945 4.798510770068828e-22 5.838362116320232e-14 5.838329017010208e-14 3.3099310023597176e-19
4.723288106065518 5.075840547995975e-22 6.363877933881034e-14 6.363840244115488e-14 3.768976554797019e-19
4.867139040275056 5.409624217307977e-22 6.98892345012976e-14 6.988880753777458e-14 4.2696352302439554e-19
4.940699165968905 5.611129718237189e-22 7.35881953971061e-14 7.358774155890285e-14 4.538382032497801e-19
5.015371051989984 5.819863558649379e-22 7.74792316295606e-14 7.747874966230797e-14 4.819672526409861e-19
5.091171501069577 6.074684020898052e-22 8.209389332387051e-14 8.209338143609373e-14 5.118877768014554e-19
5.129500256944802 6.205492245295782e-22 8.449299918081532e-14 8.449247182233928e-14 5.273584760689189e-19
5.168117569889187 6.34188469479429e-22 8.700018168488493e-14 8.69996384105071e-14 5.432743778099049e-19
5.20702561229733 6.509325591492712e-22 8.996946585537903e-14 8.996890545097249e-14 5.604044065543152e-19
5.246226572918644 6.681057804882404e-22 9.303828690901553e-14 9.303770895657051e-14 5.779524450349017e-19
5.265937586045735 6.768576142403189e-22 9.461118003691073e-14 9.461059315124195e-14 5.868856687756136e-19
5.285722656980489 6.857219641125525e-22 9.621036568024107e-14 9.620976975388208e-14 5.95926358996792e-19
5.305582063971359 6.9470065390509525e-22 9.783633536997203e-14 9.783573029444381e-14 6.0507552819421075e-19
5.3255160863122235 7.043478131344234e-22 9.956766087491518e-14 9.95670464942053e-14 6.1438070993331555e-19
5.365609099470188 7.283806779776343e-22 1.0374015188007032e-13 1.0373951819042005e-13 6.336896502627666e-19
5.406003951863644 7.533307568733157e-22 1.0810144294721958e-13 1.0810078946836356e-13 6.5347885603944295e-19
5.446702915881641 7.792424294219659e-22 1.1266154755401741e-13 1.1266087379589224e-13 6.737581251694227e-19
5.487708281020852 8.072440274292123e-22 1.1758861912176456e-13 1.1758792452529321e-13 6.945964713544598e-19
5.529022354014368 8.4617204480024005e-22 1.2418709044281176e-13 1.241863739725099e-13 7.164703018629331e-19
5.570647458961463 8.873982709002775e-22 1.3121808217270162e-13 1.312173432691346e-13 7.389035670568608e-19
5.612585937458331 9.310882218203334e-22 1.3871495002093013e-13 1.38714188112176e-13 7.619087541433709e-19
5.654840148729818 9.791178253421151e-22 1.4696865612444198e-13 1.4696787054653525e-13 7.855779067570244e-19
5.67608639626678 1.0118320057889805e-21 1.5244979440575246e-13 1.5244899642220732e-13 7.979835451499449e-19
5.686739436050992 1.0286950743074426e-21 1.5528139461305043e-13 1.5528059036531013e-13 8.042477402796101e-19
5.6974124697621304 1.0459062280151172e-21 1.5817572870466385e-13 1.5817491815148044e-13 8.105531834310351e-19
5.718818669136295 1.081406332074995e-21 1.6415898853385616e-13 1.641581652450388e-13 8.2328881744538255e-19
5.740305295436557 1.1205401732366861e-21 1.7073865469104785e-13 1.7073781842333145e-13 8.362677163944539e-19
5.7835210386641895 1.2220701053969304e-21 1.8761081635133494e-13 1.8760995301298884e-13 8.633383461110859e-19
5.827062130521658 1.3390400614053829e-21 2.0711552413629947e-13 2.0711463279669202e-13 8.913396074075235e-19
5.8489554468988025 1.4211009047575306e-21 2.2063411359430847e-13 2.2063320717146643e-13 9.064228420220634e-19
5.870931020387893 1.509165091375299e-21 2.351869184198493e-13 2.3518599668595494e-13 9.217338944003134e-19
5.892989160043636 1.6037159036098252e-21 2.5086063154621367e-13 2.508596942699059e-13 9.372763077296147e-19
5.915130176081913 1.7112513389914765e-21 2.686875484246435e-13 2.686865950161832e-13 9.534084602977164e-19
5.95966208400165 2.0119316372249513e-21 3.1827629116948287e-13 3.1827530161943354e-13 9.895500493839167e-19
6.004529249263818 2.445336904206923e-21 3.8975087591683003e-13 3.8974984570049056e-13 1.0302163394051529e-18
6.027089341400364 2.7466154992049444e-21 4.3941505126220787e-13 4.39413997759729e-13 1.0535024788544022e-18
6.049734195844842 3.1026565330365816e-21 4.982409605798167e-13 4.982398823456482e-13 1.0782341685961155e-18
6.095279466722835 4.131130509030682e-21 6.683931201252322e-13 6.683919819711996e-13 1.138154032681551e-18
6.141167624020661 5.713961638675335e-21 9.314460495064428e-13 9.314448344113012e-13 1.2150951413288309e-18
6.164241091010745 6.7247622189546056e-21 1.1003376717006102e-12 1.1003364089281336e-12 1.26277247639402e-18
6.187401249150058 7.876242367438358e-21 1.2935904046341634e-12 1.293589092176252e-12 1.312457911528476e-18
6.1990139391386085 8.438490877015521e-21 1.3885349997783354e-12 1.3885336619348578e-12 1.3378434779264453e-18
6.204828454712694 8.734665064805198e-21 1.4386179290557122e-12 1.4386165783113993e-12 1.3507443129469994e-18
6.210648424152782 8.950872878897626e-21 1.4756106040232029e-12 1.475609242098143e-12 1.3619250600101659e-18
6.233982942956859 9.685442190086791e-21 1.6027083367190423e-12 1.6027069347479317e-12 1.4019711102173554e-18
6.239830258556775 9.779353260144042e-21 1.6197662412943816e-12 1.6197648330503276e-12 1.4082440539516703e-18
6.245683058788269 9.787512579784763e-21 1.622638246057733e-12 1.6226368315138914e-12 1.4145438419946412e-18
6.257405133728602 9.767369035084392e-21 1.6223378623701049e-12 1.6223364363729722e-12 1.425997132748558e-18
6.269149208991335 9.622943086442743e-21 1.6013488663598875e-12 1.6013474341678566e-12 1.432192031307492e-18
6.280915325867298 9.26070926418124e-21 1.5439620510309603e-12 1.5439606191867136e-12 1.431844246845556e-18
6.304513850009849 8.36740790635772e-21 1.400270621962236e-12 1.4002691967858562e-12 1.4251763798321474e-18
6.32820103803542 7.260126583937988e-21 1.2195339462484512e-12 1.2195325342707283e-12 1.4119777230129365e-18
6.3519772230701035 6.244673934147265e-21 1.0529024391669552e-12 1.0529010384977388e-12 1.4006692164365403e-18
6.375842739491607 5.3904107115356106e-21 9.12281538541753e-13 9.122801470667797e-13 1.391474973347184e-18
6.399797922933955 4.705753317861836e-21 7.994013020284285e-13 7.993999122988601e-13 1.3897295681902015e-18
6.42384311029221 4.1365464265561154e-21 7.05346087456083e-13 7.053446978606181e-13 1.3895954648514952e-18
6.447978639727206 3.7217702419965225e-21 6.370046201445682e-13 6.370032246357798e-13 1.3955087884195623e-18
6.472204850670314 3.3762642052500227e-21 5.800402246786866e-13 5.800388219437933e-13 1.4027348933016439e-18
6.496522083828205 3.1517412975697154e-21 5.435017095923922e-13 5.435002945885589e-13 1.415003833446199e-18
