Dust emission spectrum from A.P. Jones, M. Kohler, N. Ysard, M. Bocchio, and L. Verstraete (2017), A&A, 602A, 46J 
inside the DustPedia framework.

lambda    nu*dP/dnu     j_nu    j_nu(carb.) j_nu(sil)
 (um)   (erg s-1 H-1) (Jy cm2 sr-1 H-1)
0.9927057738263894 1.7353737187829752e-22 4.572808316252597e-15 4.572808168452396e-15 1.4780020064160459e-22
1.0001793341362166 1.7645916362687379e-22 4.6848050839548396e-15 4.684804906044266e-15 1.7791057128806452e-22
1.0077091589558085 1.7939012921972753e-22 4.798474393522082e-15 4.798474179650009e-15 2.1387207328556014e-22
1.0114953028030835 1.8085887789424165e-22 4.8559380257789025e-15 4.85593779140219e-15 2.343767148088609e-22
1.0152956718711033 1.823297128654349e-22 4.9138219493070404e-15 4.913821692544986e-15 2.5676205557266213e-22
1.0229392996569957 1.8527594498005213e-22 5.030814846292294e-15 5.030814538443809e-15 3.078484854043258e-22
1.0267826658714554 1.8674796803439214e-22 5.089836671290021e-15 5.0898363343600884e-15 3.3692993283951e-22
1.0306404723013447 1.882217413675397e-22 5.1492788737349126e-15 5.149278505098585e-15 3.6863632731521996e-22
1.03451277320114 1.8969720260685322e-22 5.209142246452872e-15 5.209141843260197e-15 4.0319267536429006e-22
1.0383996230291617 1.9117429062933863e-22 5.2694276045433566e-15 5.269427163701187e-15 4.408421706694384e-22
1.0403485208654093 1.919134259335391e-22 5.29972878926376e-15 5.299728328355605e-15 4.6090815585224085e-22
1.0423010764483396 1.9265294559618654e-22 5.330135786809345e-15 5.330135304961775e-15 4.81847568238774e-22
1.0462171883269815 1.9413310898709567e-22 5.3912676572087184e-15 5.391267130716063e-15 5.264926545330942e-22
1.0471985131304309 1.9450337879653792e-22 5.406616929838556e-15 5.406616391580544e-15 5.382580123616783e-22
1.048180758391296 1.9487373842290432e-22 5.421992752685532e-15 5.421992202410632e-15 5.502748997151875e-22
1.0501480137395462 1.9561472363436823e-22 5.452824106326868e-15 5.452823531243048e-15 5.75083819637189e-22
1.0521189612883777 1.9635605769242404e-22 5.483761833861505e-15 5.4837612328999856e-15 6.0096152058733565e-22
1.0531058218030118 1.967263509713999e-22 5.499256579761988e-15 5.499255965446332e-15 6.143156545019833e-22
1.0540936079674168 1.9709508284461172e-22 5.514731880194082e-15 5.5147312522375544e-15 6.279565267061275e-22
1.058054026499678 1.9857077281337105e-22 5.576896740528955e-15 5.5768960550535434e-15 6.854754121514344e-22
1.0590464539527713 1.9893988183130694e-22 5.5925039444591634e-15 5.592503243835104e-15 7.006240590495115e-22
1.06003981227728 1.9930906384268794e-22 5.608137574052768e-15 5.608136857960059e-15 7.160927092944657e-22
1.0620293250338977 2.000476436592665e-22 5.6394841715234544e-15 5.63948342350762e-15 7.480158359170935e-22
1.0660195594769086 2.0152564449657352e-22 5.702495156162625e-15 5.702494340169582e-15 8.159930417674412e-22
1.070024785945596 2.030047259769914e-22 5.765930712170242e-15 5.765929822315682e-15 8.898545575403321e-22
1.0740450607676866 2.0448484032188208e-22 5.829791893608088e-15 5.829790923525556e-15 9.700825330441559e-22
1.07808044048254 2.0596594135419193e-22 5.894079792494873e-15 5.8940787352986406e-15 1.0571962336738893e-21
1.0861967418109137 2.0892860951831969e-22 6.023873493071387e-15 6.023872238711664e-15 1.2543597246030423e-21
1.0902777775684922 2.1040482288265978e-22 6.089228673271529e-15 6.089227307612712e-15 1.3656588164085522e-21
1.0943741465085532 2.118817629053954e-22 6.15501102923192e-15 6.15500954288413e-15 1.48634779023228e-21
1.1026131145906286 2.148376757699392e-22 6.2878624402530965e-15 6.287860681308246e-15 1.7589448509141434e-21
1.1109141095355224 2.177960719887878e-22 6.4224385648836625e-15 6.422436486051242e-15 2.0788324211628054e-21
1.1192775983109025 2.2075432757036156e-22 6.55868043400139e-15 6.558677980284803e-15 2.4537165884594508e-21
1.1277040513999907 2.2370129760946103e-22 6.6962718582300556e-15 6.696268965757247e-15 2.8924728101647936e-21
1.1361939428280308 2.266497506556285e-22 6.835607983654882e-15 6.835604578345861e-15 3.405309021782297e-21
1.1447477501889525 2.29599538614569e-22 6.976703118426407e-15 6.9766991144762864e-15 4.003950118910219e-21
1.1533659546722406 2.325516788887737e-22 7.119607303896995e-15 7.119602602045155e-15 4.701851843841644e-21
1.1707974979042381 2.384720005355629e-22 7.411201370594983e-15 7.411194911228106e-15 6.4593668747581076e-21
1.1884924949847024 2.444005468857026e-22 7.710242721768397e-15 7.710233892291575e-15 8.82947682377299e-21
1.2064549276569216 2.503781719519784e-22 8.018202107323903e-15 8.018190097543226e-15 1.2009780677161179e-20
1.2246888378427687 2.563624790730399e-22 8.33392629537661e-15 8.333910039661363e-15 1.6255715249020556e-20
1.2431983285522175 2.623473743953845e-22 8.657381837724123e-15 8.657359941399662e-15 2.1896324458040753e-20
1.2619875648066055 2.6834013018156096e-22 8.98897421648762e-15 8.988944863178214e-15 2.935330940667201e-20
1.3004222497298317 2.803046321459112e-22 9.675737983369591e-15 9.675685974062446e-15 5.200930714592941e-20
1.3400274889804893 2.922827583489824e-22 1.0396480366648889e-14 1.0396389901146934e-14 9.046550195075041e-20
1.3808389325824078 3.043102965026325e-22 1.1153960538383165e-14 1.1153805989459785e-14 1.5454892337817956e-19
1.4228933163050095 3.164869171614515e-22 1.195356739384616e-14 1.1953307949282931e-14 2.59444563229117e-19
1.466228494730424 3.290367653811131e-22 1.2806059506668125e-14 1.2805631317564686e-14 4.2818910343701493e-19
1.5108834753276823 3.4192247899127385e-22 1.3712860497046661e-14 1.3712165424419592e-14 6.9507262707297175e-19
1.5568984535646726 3.551253932415365e-22 1.467612655001813e-14 1.4675015624619454e-14 1.1109253986721923e-18
1.6043148490894465 3.6872973441141783e-22 1.5702441961232697e-14 1.5700690471102647e-14 1.751490130048478e-18
1.6531753430134553 3.8282694734377834e-22 1.6799287112691217e-14 1.6796566371527544e-14 2.7207411636703863e-18
1.7035239163302658 3.9752958309993673e-22 1.7975754221547723e-14 1.797158912195361e-14 4.1650995941137204e-18
1.755405889504358 4.1315821806128662e-22 1.92514470794107e-14 1.9245160147921603e-14 6.2869314890958516e-18
1.8088679632656115 4.297219120974806e-22 2.0633067532147306e-14 2.0623707439049208e-14 9.360093098099131e-18
1.8639582606462262 4.472288793471576e-22 2.2127658281559592e-14 2.2113907691943168e-14 1.3750589616419662e-17
1.9207263702978936 4.657574509600917e-22 2.3746234010249256e-14 2.3726294033832012e-14 1.9939976417239583e-17
1.979223391128241 4.854197652495706e-22 2.5502438204920928e-14 2.5473884892206006e-14 2.8553312714922465e-17
2.039501978296691 5.063225206053224e-22 2.7410743057593418e-14 2.737035338514996e-14 4.038967244346324e-17
2.1016163906111602 5.287373583983247e-22 2.9495983175007427e-14 2.9439522777179576e-14 5.646039782786283e-17
2.1656225393682647 5.52815694764686e-22 3.1778439003168174e-14 3.170041555553696e-14 7.802344763121495e-17
2.231578038680979 5.785359735463854e-22 3.42698245142422e-14 3.4163202360970085e-14 1.0662215327210925e-16
2.299542257339062 6.059626429965534e-22 3.6987644852232995e-14 3.684351897361886e-14 1.4412587861415033e-16
2.369576372248914 6.352296676712817e-22 3.995497993336139e-14 3.976220647840976e-14 1.9277345495162e-16
2.4417434235010123 6.664922642557257e-22 4.319809277110005e-14 4.294288612572658e-14 2.5520664537346526e-16
2.5161083711144245 7.0003865880671795e-22 4.675421824546209e-14 4.641970426081118e-14 3.345139846509192e-16
2.5927381535095444 7.363349360757637e-22 5.067613659709854e-14 5.024187829452817e-14 4.342583025703648e-16
2.6717017477616296 7.758193244911683e-22 5.501967245862836e-14 5.4461198589874126e-14 5.584738687542299e-16
2.753070231689431 8.191303186483615e-22 5.986041514479626e-14 5.914873975895023e-14 7.116753858460157e-16
2.836916847834745 8.678894610334847e-22 6.535524607615516e-14 6.44563635083049e-14 8.988825678502671e-16
2.9233170693905177 9.256366321210882e-22 7.182669591591858e-14 7.070131607313812e-14 1.1253798427804657e-15
2.967498994190263 9.612489674253328e-22 7.571743610938723e-14 7.446466594796233e-14 1.252770161424893e-15
3.0123486681368425 9.996783759662206e-22 7.993463007357998e-14 7.854188715556536e-14 1.3927429180145997e-15
3.0578761833420214 1.0615245220949998e-21 8.616271210883632e-14 8.46159401793092e-14 1.5467719295271169e-15
3.1040917844459814 1.1342749529309927e-21 9.345925817178064e-14 9.174480080158748e-14 1.7144573701931724e-15
3.127460860933648 1.200255327177921e-21 9.964028443537972e-14 9.783601733952684e-14 1.804267095852872e-15
3.1510058709225794 1.2839071840769319e-21 1.0738713955803355e-13 1.054892389575748e-13 1.8979006004587485e-15
3.162844764501044 1.3584004857060606e-21 1.140447081316984e-13 1.1209834448655575e-13 1.9463636451426545e-15
3.1747281389236908 1.442921397464607e-21 1.2159582064666627e-13 1.1960000334601514e-13 1.995817300651135e-15
3.1986289994194426 1.6718110481340289e-21 1.419451291554738e-13 1.398471253209013e-13 2.0980038345725426e-15
3.2227097969389145 2.1982857176296405e-21 1.8805062044455945e-13 1.858443155036007e-13 2.2063049409587483e-15
3.2348180950136065 2.6915091354710267e-21 2.311080935938439e-13 2.288439878374878e-13 2.264105756356054e-15
3.240889293275058 3.059504248989508e-21 2.631992756878545e-13 2.6090468136446193e-13 2.2945943233926467e-15
3.2469718861334385 3.4856954316485016e-21 3.0042591917241493e-13 2.9809977796039796e-13 2.3261412120169676e-15
3.2714166318528037 5.728823545730799e-21 4.974743990267058e-13 4.95017872820095e-13 2.4565262066110713e-15
3.2744851364798273 5.869470770810553e-21 5.101658696220708e-13 5.076939724532701e-13 2.4718971688006966e-15
3.2775565192852394 6.0139287051405684e-21 5.232122430745226e-13 5.207248976236126e-13 2.4873454509099815e-15
3.283707930232385 5.8775425204029536e-21 5.123063447476925e-13 5.097913616079421e-13 2.514983139750313e-15
3.2898708863219004 5.440614007688041e-21 4.751122218739196e-13 4.725720765917419e-13 2.5401452821776337e-15
3.29141343181113 5.3374086611673675e-21 4.663181573312401e-13 4.637716934398121e-13 2.546463891427907e-15
3.292184975758714 5.286672293743801e-21 4.61993698815781e-13 4.594440714033105e-13 2.549627412470488e-15
3.295272960557952 4.969062817890449e-21 4.3464562733600997e-13 4.320836924819818e-13 2.56193485402812e-15
3.3076538914384823 3.862293652868555e-21 3.3910546017383873e-13 3.364940875540264e-13 2.611372619812297e-15
3.310756385682612 3.635245272237422e-21 3.19470216983319e-13 3.168463821187172e-13 2.6238348646018215e-15
3.313861789986515 3.425059820405772e-21 3.012811675005425e-13 2.986448291896233e-13 2.6363383109193575e-15
3.3200813396944477 3.1316838958207e-21 2.7599173447960443e-13 2.7332850735299284e-13 2.663227126611566e-15
3.345076488085796 2.620277951680708e-21 2.326606024313515e-13 2.2987756112502855e-13 2.7830413063229195e-15
3.3482140837626964 2.6417076412612467e-21 2.3478340907525617e-13 2.319841376571666e-13 2.7992714180895713e-15
3.3513546224236106 2.6633373004310286e-21 2.3692778239302766e-13 2.341122071763158e-13 2.8155752167118688e-15
3.3576445397418455 2.8126015706944345e-21 2.5067577438972987e-13 2.478261137090923e-13 2.849660680637591e-15
3.3702598118196083 3.352956362947627e-21 2.999581843305516e-13 2.9703702703320996e-13 2.9211572973415703e-15
3.382922481734668 3.483288017439045e-21 3.1278856315732324e-13 3.0979788324676224e-13 2.9906799105609932e-15
3.389271646505754 3.5505203646069915e-21 3.1942420272811125e-13 3.163982786710507e-13 3.0259240570605182e-15
3.395632727569191 3.624080805198069e-21 3.2665402676003787e-13 3.235917813018686e-13 3.062245458169311e-15
3.421196662673239 3.979194967897235e-21 3.6136217495217906e-13 3.5814954393922643e-13 3.2126310129526745e-15
3.4276182099114902 3.9165864657252875e-21 3.563441170224588e-13 3.5309789307577467e-13 3.2462239466842084e-15
3.4340518103208963 3.6284777308093125e-21 3.307506742873032e-13 3.2747266179818253e-13 3.2780124891207606e-15
3.4469541582030403 3.2164498906597806e-21 2.942942186781716e-13 2.909551606986021e-13 3.3390579795695145e-15
3.472904465399547 3.1075756543738947e-21 2.8647318734379424e-13 2.8299355422813463e-13 3.479633115659633e-15
3.4990501388274233 2.9391434400235128e-21 2.729860033652851e-13 2.693624477570891e-13 3.623555608195962e-15
3.5253949054701885 2.3241502558074445e-21 2.1749105868546607e-13 2.137275704593037e-13 3.763488226162361e-15
3.5519380250092896 1.7400534890561607e-21 1.6405799938251706e-13 1.6015377583354728e-13 3.904223548969738e-15
3.578680990867387 1.5156316758839616e-21 1.4397467030995425e-13 1.399161842185402e-13 4.058486091414023e-15
3.605625307711299 1.4327299908763506e-21 1.371242857191784e-13 1.3290327977026748e-13 4.22100594891091e-15
3.660119384959845 1.3885222167098746e-21 1.3490172943948526e-13 1.3033905268834114e-13 4.562676751144122e-15
3.715437065384467 1.3633043793718744e-21 1.3445351864506215e-13 1.295303260320392e-13 4.9231926130229345e-15
3.8285932144167436 1.3876049037715658e-21 1.4101797835310958e-13 1.3531882297949736e-13 5.699155373612243e-15
3.94519561050918 1.4319685081387087e-21 1.4995862214494973e-13 1.434116402097625e-13 6.546981935187183e-15
4.06534921144712 1.4842949409559653e-21 1.601723315631889e-13 1.5270628015311725e-13 7.46605141007168e-15
4.189162171576248 1.5409194265547903e-21 1.7134701245179572e-13 1.6288862048720996e-13 8.458391964585767e-15
4.316745939156006 1.6002171507997912e-21 1.8336010245652204e-13 1.738394392068089e-13 9.52066324971316e-15
4.448215356677963 1.661344263079024e-21 1.9616199704903396e-13 1.8552346290900083e-13 1.0638534140033083e-14
4.58368876423945 1.724054960598492e-21 2.0976627230260077e-13 1.979526723840508e-13 1.1813599918549952e-14
4.723288106065518 1.788486958919814e-21 2.2423306219493999e-13 2.111796748644125e-13 1.3053387330527508e-14
4.867139040275056 1.8548275253391025e-21 2.3963305152163756e-13 2.2530734349602602e-13 1.4325708025611445e-14
4.940699165968905 1.8897119043524983e-21 2.4782975237545716e-13 2.328518122844784e-13 1.4977940090978765e-14
5.015371051989984 1.924278895322369e-21 2.56177226060531e-13 2.405383049494214e-13 1.563892111110955e-14
5.091171501069577 1.9617947649619557e-21 2.651189256989624e-13 2.48796165525168e-13 1.632276017379435e-14
5.129500256944802 1.9804013142266384e-21 2.6964830509213096e-13 2.5298098491087057e-13 1.6667320181260382e-14
5.168117569889187 1.9992010760692287e-21 2.742573623033714e-13 2.5724046298178115e-13 1.7016899321590236e-14
5.20702561229733 2.020483919821572e-21 2.7926373705028214e-13 2.618655802908463e-13 1.7398156759435757e-14
5.246226572918644 2.041752632734478e-21 2.843279803727604e-13 2.6654579451116026e-13 1.7782185861600146e-14
5.265937586045735 2.0523819091840835e-21 2.8688201215295884e-13 2.6890681835106513e-13 1.7975193801893696e-14
5.285722656980489 2.0630079640167406e-21 2.89450770147304e-13 2.7128193107370606e-13 1.8168839073597965e-14
5.305582063971359 2.0736309521140413e-21 2.9203434907418295e-13 2.7367124633713676e-13 1.836310273704612e-14
5.3255160863122235 2.0847219794045777e-21 2.9469941865812597e-13 2.7613993219185573e-13 1.855948646627026e-14
5.365609099470188 2.1105594333395934e-21 3.005979740902567e-13 2.816321783720935e-13 1.8965795718163286e-14
5.406003951863644 2.1366139274697757e-21 3.065997856495989e-13 2.8722482700253123e-13 1.937495864706769e-14
5.446702915881641 2.1629015648925576e-21 3.127086363720695e-13 2.929218116298144e-13 1.9786824742255127e-14
5.487708281020852 2.1903413889729807e-21 3.1905992560244256e-13 2.988569431730082e-13 2.0202982429434342e-14
5.529022354014368 2.226104733255503e-21 3.267107103606055e-13 3.0607385859382377e-13 2.0636851766781745e-14
5.570647458961463 2.2628121837757982e-21 3.345982123346396e-13 3.1352450000484947e-13 2.1073712329790148e-14
5.612585937458331 2.3005431093598903e-21 3.427384376229722e-13 3.212250263175474e-13 2.1513411305424784e-14
5.654840148729818 2.3407522953840108e-21 3.513542602011024e-13 3.293963130379348e-13 2.1957947163167616e-14
5.67608639626678 2.3673853554763373e-21 3.5668708704281166e-13 3.3449653455585287e-13 2.2190552486958725e-14
5.686739436050992 2.380951609111509e-21 3.594043517880455e-13 3.370971842767844e-13 2.2307167511261025e-14
5.6974124697621304 2.394689940532307e-21 3.6215658365880875e-13 3.397325960676438e-13 2.2423987591164984e-14
5.718818669136295 2.422700279422508e-21 3.677692793120327e-13 3.4511104602639693e-13 2.2658233285635762e-14
5.740305295436557 2.4531665082297418e-21 3.7379324664320603e-13 3.508982288418918e-13 2.2895017801314157e-14
5.7835210386641895 2.5308195376646074e-21 3.885285446410181e-13 3.65144005503235e-13 2.3384539137783043e-14
5.827062130521658 2.6177698521881025e-21 4.0490257956516915e-13 3.810206370541349e-13 2.388194251103425e-14
5.8489554468988025 2.6784990535271307e-21 4.1585242994337844e-13 3.917017813569513e-13 2.4150648586427115e-14
5.870931020387893 2.74261043708263e-21 4.274059218635708e-13 4.0298528829698083e-13 2.4420633566589997e-14
5.892989160043636 2.810371121392141e-21 4.396112009644312e-13 4.1491932110942463e-13 2.4691879855006617e-14
5.915130176081913 2.8867590029707383e-21 4.532567377613249e-13 4.282836488512548e-13 2.4973088910070184e-14
5.95966208400165 3.099653570358522e-21 4.903477951391504e-13 4.647330908360165e-13 2.561470430313388e-14
6.004529249263818 3.4024341014928116e-21 5.42298146739907e-13 5.159609377769998e-13 2.6337208962907254e-14
6.027089341400364 3.611958958124843e-21 5.778563221538824e-13 5.511012243395255e-13 2.675509781435682e-14
6.049734195844842 3.8569473818714785e-21 6.19368965912798e-13 5.921711134505191e-13 2.7197852462278892e-14
6.095279466722835 4.561682676444274e-21 7.380539807359459e-13 7.097663436715793e-13 2.8287637064366198e-14
6.141167624020661 5.634737343169382e-21 9.185315145934885e-13 8.888276234359791e-13 2.9703891157509657e-14
6.164241091010745 6.318634243434828e-21 1.033885075096327e-12 1.0032914007706428e-12 3.0593674325684166e-14
6.187401249150058 7.088002319609358e-21 1.1641302236428563e-12 1.1326229220134502e-12 3.1507301629406535e-14
6.1990139391386085 7.462248823744637e-21 1.2278965302962766e-12 1.1959243552060737e-12 3.197217509020286e-14
6.204828454712694 7.658562078261222e-21 1.2613814765453166e-12 1.2291745034789717e-12 3.220697306634536e-14
6.210648424152782 7.801074989073779e-21 1.2860588159838977e-12 1.2536519977402584e-12 3.2406818243639333e-14
6.233982942956859 8.280106274219537e-21 1.370158955488266e-12 1.3370562370821563e-12 3.3102718406109376e-14
6.239830258556775 8.338492622109983e-21 1.381114731545865e-12 1.3479160879114177e-12 3.319864363444689e-14
6.245683058788269 8.339324629556206e-21 1.3825481172977161e-12 1.3492533971355584e-12 3.3294720162158164e-14
6.257405133728602 8.316399697979205e-21 1.381335143596158e-12 1.3478726313995538e-12 3.34625121966044e-14
6.269149208991335 8.210040352316748e-21 1.3662284701105284e-12 1.3327061074627133e-12 3.3522362647815355e-14
6.280915325867298 7.95793751595726e-21 1.3267616095709377e-12 1.2933128631233322e-12 3.3448746447606125e-14
6.304513850009849 7.342340328419994e-21 1.2287274115706927e-12 1.1955466467478225e-12 3.3180764822870395e-14
6.32820103803542 6.589616382980716e-21 1.1069036853405587e-12 1.0741193753373761e-12 3.278431000318226e-14
6.3519772230701035 5.902466865030245e-21 9.952035646423423e-13 9.627748249252008e-13 3.2428739717141484e-14
6.375842739491607 5.322672716863544e-21 9.008174543922985e-13 8.687023609096644e-13 3.211509348263425e-14
6.399797922933955 4.862824185453514e-21 8.26084098082977e-13 7.941302640306836e-13 3.195383405229353e-14
6.42384311029221 4.478935880159949e-21 7.637288629847873e-13 7.319059297720582e-13 3.1822933212728806e-14
6.447978639727206 4.2008207550560505e-21 7.189971587107974e-13 6.871862778625583e-13 3.181088084823937e-14
6.472204850670314 3.9683138370600075e-21 6.817540067109097e-13 6.49931596413592e-13 3.1822410297317667e-14
6.496522083828205 3.817647968705714e-21 6.58333918210044e-13 6.264036668054716e-13 3.193025140457254e-14
6.520930681187647 3.6903104722038665e-21 6.387661921913331e-13 6.06713511815283e-13 3.205268037605001e-14
