Dust emission spectrum from A.P. Jones, M. Kohler, N. Ysard, M. Bocchio, and L. Verstraete (2017), A&A, 602A, 46J 
inside the DustPedia framework.

lambda    nu*dP/dnu     j_nu    j_nu(carb.) j_nu(sil)
 (um)   (erg s-1 H-1) (Jy cm2 sr-1 H-1)
0.9927057738263894 9.377030299071026e-21 2.470900744274037e-13 2.470900659985252e-13 8.428878523208456e-21
1.0001793341362166 9.534549337943293e-21 2.5313225050791504e-13 2.5313224036540896e-13 1.0142506109782725e-20
1.0077091589558085 9.692717038633134e-21 2.5926874971235345e-13 2.592687375241307e-13 1.2188222691401198e-20
1.0114953028030835 9.772037307886156e-21 2.623725642068983e-13 2.623725508526327e-13 1.3354265645844232e-20
1.0152956718711033 9.851511674241483e-21 2.6550019488304366e-13 2.655001802560773e-13 1.4626966362394122e-20
1.0229392996569957 1.0010834990202833e-20 2.7182512709848616e-13 2.718251095680691e-13 1.7530417075650693e-20
1.0267826658714554 1.009050316450137e-20 2.7501778776510503e-13 2.750177685824395e-13 1.9182665510729862e-20
1.0306404723013447 1.0170311601263221e-20 2.78234439269285e-13 2.7823441828566657e-13 2.098361849389868e-20
1.03451277320114 1.0250258026916887e-20 2.8147516880212764e-13 2.8147514585614977e-13 2.2945977880156605e-20
1.0383996230291617 1.03303402446363e-20 2.8474006557165073e-13 2.8474004048818287e-13 2.5083467849506793e-20
1.0403485208654093 1.0370431610463615e-20 2.8638160512072843e-13 2.8638157889825447e-13 2.6222473954801637e-20
1.0423010764483396 1.041055613623338e-20 2.8802922089047755e-13 2.8802919347956583e-13 2.741091175413115e-20
1.0462171883269815 1.0490903664036517e-20 2.9134272826471916e-13 2.913426983204048e-13 2.994431429738553e-20
1.0471985131304309 1.0511010883172177e-20 2.921749212908148e-13 2.9217489067897374e-13 3.0611841053488387e-20
1.048180758391296 1.0531126177218088e-20 2.9300864381520066e-13 2.930086125216046e-13 3.1293596050625744e-20
1.0501480137395462 1.0571380872753873e-20 2.9468068348402914e-13 2.9468065078307966e-13 3.270094938040144e-20
1.0521189612883777 1.061166751940729e-20 2.963588596166783e-13 2.9635882544793117e-13 3.4168747235719224e-20
1.0531058218030118 1.0631796174314802e-20 2.971995097636357e-13 2.971994748375054e-13 3.4926130282549746e-20
1.0540936079674168 1.0651845656511695e-20 2.980392609347019e-13 2.980392252349732e-13 3.569972867841974e-20
1.058054026499678 1.0732118570623761e-20 3.0141352741641605e-13 3.014134884552116e-13 3.896120432124385e-20
1.0590464539527713 1.0752205414843845e-20 3.0226091742197116e-13 3.022608776019335e-13 3.9820037786469934e-20
1.06003981227728 1.0772299654316063e-20 3.0310983999206574e-13 3.031097992951084e-13 4.069695726409348e-20
1.0620293250338977 1.0812510219806465e-20 3.0481228933090506e-13 3.0481224682439706e-13 4.250650789043642e-20
1.0660195594769086 1.0893019022598314e-20 3.0823565093925477e-13 3.082356045802348e-13 4.635902001704877e-20
1.070024785945596 1.097364348986771e-20 3.116837192736423e-13 3.116836687297116e-13 5.0543930772431397e-20
1.0740450607676866 1.1054382226552955e-20 3.151566042341354e-13 3.1515654914576534e-13 5.508836997291892e-20
1.07808044048254 1.1135233933379748e-20 3.186544186864952e-13 3.186543586649491e-13 6.002154610373748e-20
1.0861967418109137 1.1297148238785691e-20 3.257217476333805e-13 3.257216764511382e-13 7.11822423346962e-20
1.0902777775684922 1.1377928381898378e-20 3.292833633577103e-13 3.2928328587773596e-13 7.747997439260822e-20
1.0943741465085532 1.1458812468187664e-20 3.3287016379548623e-13 3.328700794883084e-13 8.430717778795215e-20
1.1026131145906286 1.162088948801207e-20 3.401198336005616e-13 3.4011973387933793e-13 9.972122360953089e-20
1.1109141095355224 1.1783374406352767e-20 3.474718231636385e-13 3.474717053642641e-13 1.177993743538097e-19
1.1192775983109025 1.1946137378271783e-20 3.5492349503223594e-13 3.5492335605840953e-13 1.3897382642921886e-19
1.1277040513999907 1.2108594690316947e-20 3.6245852274418826e-13 3.624583590021828e-13 1.6374200540797002e-19
1.1361939428280308 1.2271437103505517e-20 3.700985030558998e-13 3.7009831038027374e-13 1.9267562614499484e-19
1.1447477501889525 1.2434667168677013e-20 3.7784475411310147e-13 3.7784452768221257e-13 2.264308888985763e-19
1.1533659546722406 1.259834663934615e-20 3.85700422285126e-13 3.857001565248039e-13 2.6576032203140763e-19
1.1707974979042381 1.2927550071373236e-20 4.0176069556270103e-13 4.0176033084897334e-13 3.647137277739419e-19
1.1884924949847024 1.3258626120744675e-20 4.1827740097458953e-13 4.1827690297516776e-13 4.97999421805347e-19
1.2064549276569216 1.359380567224833e-20 4.353330022262426e-13 4.353323255952119e-13 6.766310307363963e-19
1.2246888378427687 1.393095662228759e-20 4.5287269078543927e-13 4.52871775961078e-13 9.148243614919112e-19
1.2431983285522175 1.4269818948443204e-20 4.708995913398292e-13 4.708983604764788e-13 1.2308633503339162e-18
1.2619875648066055 1.4610903725247855e-20 4.894423982613867e-13 4.894407501167094e-13 1.6481446773502848e-18
1.3004222497298317 1.5297728214343965e-20 5.280569529287805e-13 5.280540395453384e-13 2.913383442019521e-18
1.3400274889804893 1.5993588054576833e-20 5.688909778357344e-13 5.688859224794296e-13 5.055356304930424e-18
1.3808389325824078 1.6701102905157663e-20 6.121496541277683e-13 6.121410389874615e-13 8.615140306670452e-18
1.4228933163050095 1.7426186670282656e-20 6.581791710356968e-13 6.581647450647221e-13 1.442597097464283e-17
1.466228494730424 1.8181257412659202e-20 7.076116982334318e-13 7.075879507559243e-13 2.3747477507303387e-17
1.5108834753276823 1.8964803739877432e-20 7.605867528980013e-13 7.605483051165217e-13 3.8447781479515e-17
1.5568984535646726 1.9776062826325458e-20 8.172775200641853e-13 8.172162334179057e-13 6.128664627978718e-17
1.6043148490894465 2.0619480830642983e-20 8.780854126959602e-13 8.779890485883051e-13 9.636410765528087e-17
1.6531753430134553 2.1499659505152442e-20 9.434522709495115e-13 9.433029907623686e-13 1.4928018714265764e-16
1.7035239163302658 2.2421877733821503e-20 1.0138872186210207e-12 1.0136593274662583e-12 2.278911547623434e-16
1.755405889504358 2.3402156440253424e-20 1.0904427324904368e-12 1.0900997218718073e-12 3.4301061862960944e-16
1.8088679632656115 2.4439547159866018e-20 1.1734631463015195e-12 1.172953938485804e-12 5.092078157152824e-16
1.8639582606462262 2.553240121564722e-20 1.2632731813567951e-12 1.262527314479985e-12 7.458668768107104e-16
1.9207263702978936 2.6682381880144276e-20 1.360377773389676e-12 1.3592994023155355e-12 1.0783710741404828e-15
1.979223391128241 2.789245388277838e-20 1.4653824018959058e-12 1.4638428947851032e-12 1.5395071108024701e-15
2.039501978296691 2.9164617097954544e-20 1.578882615549857e-12 1.5767116425055625e-12 2.1709730442948464e-15
2.1016163906111602 3.050932342376626e-20 1.7019839360590964e-12 1.6989586705416343e-12 3.0252655174623133e-15
2.1656225393682647 3.1929963616154787e-20 1.835484069570907e-12 1.8313167589989246e-12 4.1673105719824865e-15
2.231578038680979 3.341989084518782e-20 1.9796414517305546e-12 1.973965166554218e-12 5.676285176336433e-15
2.299542257339062 3.497691283267802e-20 2.1349725842587364e-12 2.1273250983675477e-12 7.647485891188748e-15
2.369576372248914 3.6601813478936973e-20 2.3021983976862017e-12 2.2920041125760597e-12 1.0194285110141863e-14
2.4417434235010123 3.8296182667878486e-20 2.4821324123144864e-12 2.4686829138425695e-12 1.3449498471916191e-14
2.5161083711144245 4.006807555294274e-20 2.676068707792872e-12 2.65850146947558e-12 1.7567238317292213e-14
2.5927381535095444 4.193399138950919e-20 2.8859864874015266e-12 2.863262653470122e-12 2.2723833931404617e-14
2.6717017477616296 4.3907214175761023e-20 3.113818470693064e-12 3.0847013414744945e-12 2.911712921856959e-14
2.753070231689431 4.600961989631253e-20 3.362291548666088e-12 3.3253252141296383e-12 3.6966334536450346e-14
2.836916847834745 4.8309354613440326e-20 3.6378708352812013e-12 3.591358158086859e-12 4.651267719434103e-14
2.9233170693905177 5.0961550896151806e-20 3.954467328322702e-12 3.8964617223102335e-12 5.800560601246716e-14
2.967498994190263 5.2570903710414e-20 4.141002152197595e-12 4.0765667323357454e-12 6.443541986184989e-14
3.0123486681368425 5.42890379474333e-20 4.340970325765315e-12 4.269485058503198e-12 7.148526726211839e-14
3.0578761833420214 5.706638985511291e-20 4.632012561021807e-12 4.552784631140545e-12 7.922792988126242e-14
3.1040917844459814 6.030386299341756e-20 4.968772594064661e-12 4.8811383575294444e-12 8.763423653521578e-14
3.127460860933648 6.326876788260604e-20 5.2523141409597635e-12 5.160186628328126e-12 9.212751263163809e-14
3.1510058709225794 6.702098162793887e-20 5.605694552266495e-12 5.5088890149799685e-12 9.680553728652636e-14
3.162844764501044 7.039506225938674e-20 5.9100275756391976e-12 5.8108032901561635e-12 9.922428548303446e-14
3.1747281389236908 7.420700539908201e-20 6.253467260994235e-12 6.1517765493962614e-12 1.0169071159797528e-13
3.1986289994194426 8.450335408490629e-20 7.174757890875678e-12 7.067976159450054e-12 1.0678173142562349e-13
3.2227097969389145 1.0826649970701847e-19 9.261572451655098e-12 9.149401762937219e-12 1.1217068871788019e-13
3.2348180950136065 1.305300167483974e-19 1.1208040474369543e-11 1.1092995348435815e-11 1.1504512593372645e-13
3.240889293275058 1.4715414309530524e-19 1.2659195975930824e-11 1.2542634651378873e-11 1.1656132455195166e-13
3.2469718861334385 1.6641878351530737e-19 1.4343340370818436e-11 1.4225210233174644e-11 1.1813013764379223e-13
3.2714166318528037 2.6741317429659774e-19 2.3221383432931962e-11 2.3096774794995912e-11 1.2460863793604336e-13
3.2744851364798273 2.7372560509551917e-19 2.3791831804641304e-11 2.366646099093079e-11 1.2537081371051712e-13
3.2775565192852394 2.8020604970690537e-19 2.4377947092203585e-11 2.425181041217667e-11 1.2613668002691727e-13
3.283707930232385 2.739932979078134e-19 2.3882176002853322e-11 2.3754672338070666e-11 1.2750366478265918e-13
3.2898708863219004 2.542277775818703e-19 2.220093616240912e-11 2.2072190883957855e-11 1.2874527845126803e-13
3.29141343181113 2.4955640034666434e-19 2.1803217281552765e-11 2.1674160288938432e-11 1.2905699261433402e-13
3.292184975758714 2.472595277951292e-19 2.1607608239439512e-11 2.1478395192952076e-11 1.2921304648743638e-13
3.295272960557952 2.329419483006645e-19 2.037551203568762e-11 2.0245692426137963e-11 1.2981960954965746e-13
3.3076538914384823 1.8295737286961446e-19 1.6063471526321738e-11 1.5931216873568437e-11 1.322546527533054e-13
3.310756385682612 1.7267584503749127e-19 1.5174984230968404e-11 1.504211605342238e-11 1.328681775460227e-13
3.313861789986515 1.6314718812785246e-19 1.4351041409772167e-11 1.4217557799770634e-11 1.334836100015273e-13
3.3200813396944477 1.4984627805270022e-19 1.3205781796901262e-11 1.3070973324843148e-11 1.3480847205810795e-13
3.345076488085796 1.266726278174331e-19 1.1247558634251948e-11 1.1106843020187515e-11 1.4071561406443481e-13
3.3482140837626964 1.27627012010452e-19 1.134293004338525e-11 1.1201414085303858e-11 1.4151595808139317e-13
3.3513546224236106 1.2858991147259151e-19 1.1439227978516357e-11 1.1296908201385928e-11 1.423197771304328e-13
3.3576445397418455 1.3529845313928655e-19 1.2058602564901976e-11 1.1914601759212924e-11 1.4400080568905063e-13
3.3702598118196083 1.5955657382875334e-19 1.427405996468199e-11 1.412653334991788e-11 1.4752661476410945e-13
3.382922481734668 1.6538140308498263e-19 1.4850741938338452e-11 1.4699792219877494e-11 1.5094971846096025e-13
3.389271646505754 1.6838285287662588e-19 1.5148641046917246e-11 1.4995957044442736e-11 1.5268400247451136e-13
3.395632727569191 1.7168595026639622e-19 1.547479485341576e-11 1.5320323565380318e-11 1.5447128803544196e-13
3.421196662673239 1.8770024928514593e-19 1.7045601149970655e-11 1.688373557390214e-11 1.6186557606851204e-13
3.4276182099114902 1.8484487916072982e-19 1.6817804439421618e-11 1.665429299642639e-11 1.635114429952237e-13
3.4340518103208963 1.7181693126396866e-19 1.5661820213750506e-11 1.5496754154636612e-11 1.6506605911389986e-13
3.4469541582030403 1.531274118164709e-19 1.4010637053479785e-11 1.3842591338258881e-11 1.680457152209042e-13
3.472904465399547 1.4800522660698495e-19 1.3643924951582899e-11 1.3469008996843417e-11 1.7491595473948143e-13
3.4990501388274233 1.4023071322884386e-19 1.302455042925678e-11 1.2842613562904469e-11 1.8193686635231333e-13
3.5253949054701885 1.1249098980870418e-19 1.0526765386591265e-11 1.0338023003413625e-11 1.8874238317764183e-13
3.5519380250092896 8.608668847558467e-20 8.116537780934031e-12 7.92096754685236e-12 1.9557023408167183e-13
3.578680990867387 7.586934344181298e-20 7.2070700833676754e-12 7.004017948294154e-12 2.0305213507351987e-13
3.605625307711299 7.202298066631053e-20 6.893203773303553e-12 6.682279281755564e-12 2.109244915479886e-13
3.660119384959845 6.978356966685185e-20 6.779815347013722e-12 6.552386043020024e-12 2.2742930399369673e-13
3.715437065384467 6.836504789078998e-20 6.742383711471654e-12 6.497605333790595e-12 2.447783776810586e-13
3.8285932144167436 6.88290357080974e-20 6.9948812094626005e-12 6.712991857324231e-12 2.818893521383703e-13
3.94519561050918 7.010505179229705e-20 7.341542018852041e-12 7.01945002461972e-12 3.220919942323236e-13
4.06534921144712 7.164988659921616e-20 7.73183891972519e-12 7.366564028355535e-12 3.6527489136965684e-13
4.189162171576248 7.330047151750859e-20 8.150858889432304e-12 7.739406084017573e-12 4.114528054147314e-13
4.316745939156006 7.498471930326743e-20 8.592087522152095e-12 8.131710622010866e-12 4.603769001412287e-13
4.448215356677963 7.666604993919528e-20 9.052287232786602e-12 8.541007553148605e-12 5.112796796379957e-13
4.58368876423945 7.83349214590995e-20 9.531032850535155e-12 8.966881099601032e-12 5.641517509341194e-13
4.723288106065518 7.999878838472731e-20 1.0029915623330336e-11 9.410659109145813e-12 6.19256514184522e-13
4.867139040275056 8.166549493284581e-20 1.055071239101053e-11 9.875724223519132e-12 6.749881674914002e-13
4.940699165968905 8.254287775288853e-20 1.0825237914170498e-11 1.0121992852567386e-11 7.03245061603114e-13
5.015371051989984 8.338671560279437e-20 1.1101185771641268e-11 1.0369524299536387e-11 7.316614721048827e-13
5.091171501069577 8.433651026409041e-20 1.13973211661867e-11 1.0636445349414054e-11 7.608758167726447e-13
5.129500256944802 8.47971426053104e-20 1.1545844580045021e-11 1.0770339880062761e-11 7.755046999822614e-13
5.168117569889187 8.526095980324219e-20 1.1696395236574617e-11 1.0906092986967005e-11 7.903022496076175e-13
5.20702561229733 8.58255056238236e-20 1.1862480665946395e-11 1.1055945139002954e-11 8.065355269434379e-13
5.246226572918644 8.63836726781156e-20 1.2029515621025924e-11 1.1206692739049143e-11 8.22822881976781e-13
5.265937586045735 8.666039307432764e-20 1.2113392652643762e-11 1.1282408370022629e-11 8.309842826211322e-13
5.285722656980489 8.693555562136407e-20 1.2197511578575475e-11 1.135835545691074e-11 8.391561216647368e-13
5.305582063971359 8.720917487449252e-20 1.228187426109001e-11 1.1434536902885004e-11 8.47337358205003e-13
5.3255160863122235 8.75010382842826e-20 1.2369277711421959e-11 1.1513679245738277e-11 8.555984656836826e-13
5.365609099470188 8.82332403827945e-20 1.2566683926317606e-11 1.169398782373904e-11 8.726961025785645e-13
5.406003951863644 8.896751197026903e-20 1.276665837901989e-11 1.1876814046921208e-11 8.898443320986807e-13
5.446702915881641 8.97045207625394e-20 1.2969327323713479e-11 1.2062292523055878e-11 9.070348006575992e-13
5.487708281020852 9.048236508706354e-20 1.3180272636197563e-11 1.2255932943945716e-11 9.243396922518447e-13
5.529022354014368 9.159670753519926e-20 1.3443044677306669e-11 1.2500667347157437e-11 9.423773301492332e-13
5.570647458961463 9.274011365387734e-20 1.3713323828988722e-11 1.2752860223607353e-11 9.60463605381368e-13
5.612585937458331 9.391561893070152e-20 1.3991692817988218e-11 1.3013102804538118e-11 9.785900134501e-13
5.654840148729818 9.518249707054731e-20 1.4287191305233477e-11 1.329034480719668e-11 9.968464980368007e-13
5.67608639626678 9.607847196012565e-20 1.4475864781247788e-11 1.3469452379119965e-11 1.0064124021278217e-12
5.686739436050992 9.653526264126548e-20 1.4571985991441382e-11 1.3560785439047758e-11 1.011200552393629e-12
5.6974124697621304 9.699813406039981e-20 1.466933662601219e-11 1.36533446378918e-11 1.0159919881203884e-12
5.718818669136295 9.794277939580646e-20 1.4867850430429308e-11 1.3842266256918048e-11 1.0255841735112622e-12
5.740305295436557 9.898343678436743e-20 1.508227838404282e-11 1.4047012548155765e-11 1.0352658358870569e-12
5.7835210386641895 1.0172914207426194e-19 1.5617342496954558e-11 1.4562075683639368e-11 1.0552668133151893e-12
5.827062130521658 1.0482861651406149e-19 1.6214327322668483e-11 1.5138808347682396e-11 1.0755189749860878e-12
5.8489554468988025 1.0706484352436668e-19 1.662243459914088e-11 1.55359337630902e-11 1.086500836050678e-12
5.870931020387893 1.0942841939334804e-19 1.7053225582645246e-11 1.5955713769299272e-11 1.0975118133459762e-12
5.892989160043636 1.119295100076905e-19 1.7508529725236712e-11 1.6399978906941732e-11 1.1085508182949764e-12
5.915130176081913 1.1476731622817944e-19 1.8019882955825072e-11 1.6899874513698928e-11 1.1200084421261436e-12
5.95966208400165 1.2281418556171612e-19 1.9428514746902e-11 1.8282133536429888e-11 1.1463812104721153e-12
6.004529249263818 1.34381522265579e-19 2.1418445826397446e-11 2.024223818546385e-11 1.176207640933592e-12
6.027089341400364 1.4244543659506207e-19 2.2789017553277958e-11 2.1595443979457527e-11 1.1935735738204303e-12
6.049734195844842 1.5188786865307481e-19 2.4390955548039314e-11 2.3178958264300827e-11 1.2119972837384837e-12
6.095279466722835 1.7916938817066693e-19 2.8988574950254983e-11 2.7730842851070925e-11 1.2577320991840644e-12
6.141167624020661 2.207871166281412e-19 3.59910164907716e-11 3.467337073146991e-11 1.3176457593016903e-12
6.164241091010745 2.472998941984111e-19 4.0464388320987826e-11 3.910887191187291e-11 1.355516409114919e-12
6.187401249150058 2.7708484645656206e-19 4.550828706434475e-11 4.4113935409057815e-11 1.3943516552869335e-12
6.1990139391386085 2.91535842123268e-19 4.797157766450995e-11 4.655747516290302e-11 1.4141025016069367e-12
6.204828454712694 2.9911321081186215e-19 4.9264582522485385e-11 4.7840509629616365e-11 1.4240728928690279e-12
6.210648424152782 3.0457702913423407e-19 5.021153802686022e-11 4.877902967728627e-11 1.4325083495739468e-12
6.233982942956859 3.2282777504926497e-19 5.3420252399573735e-11 5.1958585229450924e-11 1.4616671701227956e-12
6.239830258556775 3.249800124347564e-19 5.3826836932311965e-11 5.236131307155821e-11 1.4655238607537632e-12
6.245683058788269 3.248812381500988e-19 5.386094966945462e-11 5.2391564918510946e-11 1.4693847509436681e-12
6.257405133728602 3.237225467856246e-19 5.3769581416113526e-11 5.2293549534454016e-11 1.4760318816595039e-12
6.269149208991335 3.1930550653391837e-19 5.3135460359412386e-11 5.1657521942579064e-11 1.4779384168333255e-12
6.280915325867298 3.092068228984658e-19 5.1551515856522306e-11 5.007752575219186e-11 1.473990104330455e-12
6.304513850009849 2.8471227243131647e-19 4.764608529419971e-11 4.6185278263476786e-11 1.4608070307229412e-12
6.32820103803542 2.549510391402245e-19 4.282589886940695e-11 4.13838983942478e-11 1.4420004751591626e-12
6.3519772230701035 2.2782315418772e-19 3.8412823034885283e-11 3.698782847119842e-11 1.424994563686868e-12
6.375842739491607 2.04940551959048e-19 3.4684459507081715e-11 3.327461803927694e-11 1.4098414678047727e-12
6.399797922933955 1.8676862106876358e-19 3.1727774231961436e-11 3.032643497495563e-11 1.4013392570058051e-12
6.42384311029221 1.715891671047359e-19 2.9258646026592976e-11 2.7864478072769565e-11 1.3941679538234085e-12
6.447978639727206 1.605380050944157e-19 2.7477099418978742e-11 2.6084931596741566e-11 1.3921678222371718e-12
6.472204850670314 1.5127888635469022e-19 2.5989624595690675e-11 2.4598435108152497e-11 1.3911894875381815e-12
