Dust emission spectrum from A.P. Jones, M. Kohler, N. Ysard, M. Bocchio, and L. Verstraete (2017), A&A, 602A, 46J 
inside the DustPedia framework.

lambda    nu*dP/dnu     j_nu    j_nu(carb.) j_nu(sil)
 (um)   (erg s-1 H-1) (Jy cm2 sr-1 H-1)
0.9927057738263894 6.550742663919568e-25 1.7261578994183377e-17 1.726157899418197e-17 1.4060550552120079e-30
1.0001793341362166 6.658318585465261e-25 1.7677135105171795e-17 1.7677135105170097e-17 1.694582970833321e-30
1.0077091589558085 6.765721179983761e-25 1.8097506243555287e-17 1.8097506243553244e-17 2.039761716014851e-30
1.0114953028030835 6.819344205127622e-25 1.8309475997035675e-17 1.8309475997033438e-17 2.2368297026626227e-30
1.0152956718711033 6.872908013140895e-25 1.852262350430232e-17 1.852262350429987e-17 2.4521637884929333e-30
1.0229392996569957 6.979784125522893e-25 1.8952272301931278e-17 1.8952272301928335e-17 2.9442607849241917e-30
1.0267826658714554 7.032966085616052e-25 1.9168427409028186e-17 1.9168427409024954e-17 3.2247675341780735e-30
1.0306404723013447 7.0860652473188655e-25 1.9385712729474754e-17 1.9385712729471226e-17 3.530879738377557e-30
1.03451277320114 7.13907647201578e-25 1.9604118742914773e-17 1.9604118742910912e-17 3.864823522089616e-30
1.0383996230291617 7.191994650626676e-25 1.9823635813676913e-17 1.9823635813672682e-17 4.229008107954109e-30
1.0403485208654093 7.2184172593799195e-25 1.9933807953437485e-17 1.9933807953433063e-17 4.423247107452358e-30
1.0423010764483396 7.244814704586377e-25 2.0044254193060618e-17 2.0044254193055992e-17 4.62603995074997e-30
1.0462171883269815 7.2975315868022455e-25 2.0265964021624538e-17 2.026596402161948e-17 5.058737885135826e-30
1.0471985131304309 7.310694098387661e-25 2.03215608519378e-17 2.0321560851932623e-17 5.172837051366823e-30
1.048180758391296 7.323849770126278e-25 2.0377225118556563e-17 2.0377225118551272e-17 5.2894045654683235e-30
1.0501480137395462 7.3501402825898115e-25 2.048875533147663e-17 2.0488755331471107e-17 5.530149353685338e-30
1.0521189612883777 7.376402502570992e-25 2.0600553397828777e-17 2.0600553397822996e-17 5.78139175109454e-30
1.0531058218030118 7.389502500473281e-25 2.0656495709008058e-17 2.0656495709002148e-17 5.9110933505005705e-30
1.0540936079674168 7.402528656454712e-25 2.0712318230681372e-17 2.071231823067533e-17 6.0436119968668454e-30
1.058054026499678 7.454555956827556e-25 2.0936257752693256e-17 2.093625775268665e-17 6.60275681260807e-30
1.0590464539527713 7.467543069786907e-25 2.0992404181990365e-17 2.0992404181983617e-17 6.750110924317871e-30
1.06003981227728 7.48052214589525e-25 2.1048614905462106e-17 2.1048614905455197e-17 6.900616433984442e-30
1.0620293250338977 7.5064558847206225e-25 2.116122858123959e-17 2.116122858123238e-17 7.211339784737536e-30
1.0660195594769086 7.558223597138138e-25 2.138722025156808e-17 2.1387220251560208e-17 7.873513434671172e-30
1.070024785945596 7.609854288774298e-25 2.1614222204736893e-17 2.1614222204728302e-17 8.593759342720276e-30
1.0740450607676866 7.661343192802692e-25 2.1842223789912468e-17 2.1842223789903088e-17 9.376912541898757e-30
1.07808044048254 7.712685581643549e-25 2.2071214266662355e-17 2.207121426665212e-17 1.0228187584992227e-29
1.0861967418109137 7.814820713824695e-25 2.2531855000445036e-17 2.2531855000432877e-17 1.2158029727116978e-29
1.0902777775684922 7.865396399181393e-25 2.2762879968417832e-17 2.2762879968404584e-17 1.3249188249428283e-29
1.0943741465085532 7.9158034593097005e-25 2.2994833028191086e-17 2.2994833028176658e-17 1.4433708963520636e-29
1.1026131145906286 8.016093772784475e-25 2.346147842588555e-17 2.3461478425868433e-17 1.7113692276974267e-29
1.1109141095355224 8.115656236969027e-25 2.3931700475448323e-17 2.393170047542806e-17 2.0265712820739124e-29
1.1192775983109025 8.21436300057667e-25 2.4405130573259236e-17 2.4405130573235265e-17 2.3968122090434351e-29
1.1277040513999907 8.311752250760897e-25 2.488038884178407e-17 2.4880388841755762e-17 2.831143547908678e-29
1.1361939428280308 8.408298643745049e-25 2.5358877815606737e-17 2.5358877815573343e-17 3.340006283782184e-29
1.1447477501889525 8.503970011888002e-25 2.5840502319362658e-17 2.584050231932331e-17 3.935430162834822e-29
1.1533659546722406 8.598787609382876e-25 2.632532749750734e-17 2.632532749746103e-17 4.631263530787111e-29
1.1707974979042381 8.78617218076768e-25 2.730554998580568e-17 2.7305549985741786e-17 6.390217790322054e-29
1.1884924949847024 8.969737912335627e-25 2.8297341121376035e-17 2.8297341121288287e-17 8.774203695787342e-29
1.2064549276569216 9.150936662863096e-25 2.9305294092581404e-17 2.93052940924615e-17 1.1989591599253963e-28
1.2246888378427687 9.327772276460372e-25 3.032306714038683e-17 3.032306714022378e-17 1.630492742807495e-28
1.2431983285522175 9.499830752047115e-25 3.1349146300307965e-17 3.134914630008728e-17 2.2068502548744974e-28
1.2619875648066055 9.667049653210256e-25 3.2383102752248614e-17 3.238310275195132e-17 2.972972540282188e-28
1.3004222497298317 9.984174539222414e-25 3.4464024401658494e-17 3.4464024401126376e-17 5.321142552038939e-28
1.3400274889804893 1.0277922243660423e-24 3.655850841826829e-17 3.6558508417332974e-17 9.353140313454645e-28
1.3808389325824078 1.0547221997433181e-24 3.865899356708716e-17 3.8658993565471887e-17 1.6152765121272442e-27
1.4228933163050095 1.0793436576265971e-24 4.076632066904099e-17 4.076632066629888e-17 2.74211258424195e-27
1.466228494730424 1.1022613680463958e-24 4.2899840249626414e-17 4.289984024504827e-17 4.578140285642783e-27
1.5108834753276823 1.1230252945828798e-24 4.503912478846639e-17 4.5039124780945835e-17 7.520564349017545e-27
1.5568984535646726 1.1412725464343375e-24 4.716491875347175e-17 4.7164918741303814e-17 1.2167940855559051e-26
1.6043148490894465 1.1570407165091359e-24 4.927284946729051e-17 4.927284944786497e-17 1.9425547201287974e-26
1.6531753430134553 1.170382342741669e-24 5.135894728352387e-17 5.135894725295781e-17 3.05660550925172e-26
1.7035239163302658 1.1814637001088899e-24 5.3424202871208017e-17 5.342420282379188e-17 4.741614256203425e-26
1.755405889504358 1.191228540116394e-24 5.550627386076254e-17 5.5506273788209397e-17 7.25531530180914e-26
1.8088679632656115 1.1994472810567724e-24 5.759137724789985e-17 5.759137713835557e-17 1.095442889457077e-25
1.8639582606462262 1.2059657176924086e-24 5.966787596392946e-17 5.966787580065987e-17 1.632695835464281e-25
1.9207263702978936 1.2109006156371138e-24 6.173670291865624e-17 6.173670267834477e-17 2.4031148058683346e-25
1.979223391128241 1.2145200682794168e-24 6.380709070222512e-17 6.380709035278491e-17 3.4944023731111443e-25
2.039501978296691 1.2171441456654094e-24 6.589243828420355e-17 6.589243778201728e-17 5.021862569061423e-25
2.1016163906111602 1.2196638267958408e-24 6.803979923664364e-17 6.803979852306881e-17 7.135748448594655e-25
2.1656225393682647 1.2225965171282e-24 7.028058214154425e-17 7.028058113864437e-17 1.0028998678160008e-24
2.231578038680979 1.2259813036698786e-24 7.262152408080125e-17 7.262152268614941e-17 1.3946518508514691e-24
2.299542257339062 1.2301287302475191e-24 7.508641848270234e-17 7.508641656310646e-17 1.919595860190198e-24
2.369576372248914 1.2357229005718037e-24 7.772509095260204e-17 7.772508833656407e-17 2.616037972137629e-24
2.4417434235010123 1.2435714203594675e-24 8.060095587780926e-17 8.060095234667382e-17 3.531135407025792e-24
2.5161083711144245 1.2550557369065264e-24 8.382272763845811e-17 8.38227229158995e-17 4.722558584353741e-24
2.5927381535095444 1.2724360761799698e-24 8.7571757427706e-17 8.757175116751662e-17 6.2601893903969536e-24
2.6717017477616296 1.298412401815497e-24 9.208100753479341e-17 9.208099930716667e-17 8.227626746159357e-24
2.753070231689431 1.3370488529280958e-24 9.770887193776018e-17 9.770886121355476e-17 1.0724205448815776e-23
2.836916847834745 1.3975507585088523e-24 1.0524067617723885e-16 1.0524066230966463e-16 1.3867574250653795e-23
2.9233170693905177 1.5001911102364336e-24 1.1641044331164784e-16 1.1641042551806428e-16 1.7793583547086132e-23
2.967498994190263 1.5873252452983923e-24 1.2503337004108074e-16 1.2503334996920464e-16 2.007187612652719e-23
3.0123486681368425 1.6890911866252932e-24 1.3506031780765384e-16 1.3506029519397724e-16 2.2613676596449707e-23
3.0578761833420214 1.9166739614298548e-24 1.5557419853029446e-16 1.5557417307806243e-16 2.5452232027254937e-23
3.1040917844459814 2.2099886307534537e-24 1.8209332531285542e-16 1.8209329671339777e-16 2.8599457673146864e-23
3.127460860933648 2.5201785108828426e-24 2.0921490450096068e-16 2.0921487419285506e-16 3.0308105582151124e-23
3.1510058709225794 2.9334942335390587e-24 2.4536006851323104e-16 2.453600364065386e-16 3.210669248111558e-23
3.162844764501044 3.318137301024859e-24 2.785746942953947e-16 2.7857466125091163e-16 3.3044483113746313e-23
3.1747281389236908 3.7655002928285944e-24 3.1732088737216606e-16 3.1732085336599207e-16 3.40061738892432e-23
3.1986289994194426 5.013448586673242e-24 4.256668885780741e-16 4.256668525698754e-16 3.6008198752964433e-23
3.2227097969389145 7.954966947719933e-24 6.8050138257174765e-16 6.805013444210692e-16 3.815067849471287e-23
3.2348180950136065 1.0744457115313089e-23 9.225794435902071e-16 9.225794042894799e-16 3.930072759331187e-23
3.240889293275058 1.2829913680513167e-23 1.1037160641185766e-15 1.1037160242101215e-15 3.9908454854599485e-23
3.2469718861334385 1.5242427036841118e-23 1.3137178054583493e-15 1.3137177649202674e-15 4.053808172534695e-23
3.2714166318528037 2.811143913610761e-23 2.4411157331652445e-15 2.441115690006846e-15 4.3158399327094617e-23
3.2744851364798273 2.8915817141509336e-23 2.5133208041844825e-15 2.513320760713609e-15 4.347087299269211e-23
3.2775565192852394 2.974329904468624e-23 2.5876692213368793e-15 2.5876691775515243e-15 4.378535461608786e-23
3.283707930232385 2.8947144266210043e-23 2.523130308020211e-15 2.523130263666537e-15 4.435367437128647e-23
3.2898708863219004 2.6422913249710497e-23 2.3074323972831272e-15 2.3074323524066676e-15 4.487646017839584e-23
3.29141343181113 2.582764570775189e-23 2.2565070278895977e-15 2.2565069828816444e-15 4.500795312357233e-23
3.292184975758714 2.553515365741029e-23 2.2314755733917636e-15 2.2314755283179436e-15 4.507381948226013e-23
3.295272960557952 2.3688908001664184e-23 2.072076899937342e-15 2.072076854606375e-15 4.5330966861793306e-23
3.3076538914384823 1.729326837237912e-23 1.5183314000399462e-15 1.51833135367221e-15 4.6367735995314346e-23
3.310756385682612 1.5991666812114363e-23 1.4053690697042607e-15 1.405369023074306e-15 4.66299549601945e-23
3.313861789986515 1.4790763412831828e-23 1.3010512817012204e-15 1.3010512348078273e-15 4.6893393118540014e-23
3.3200813396944477 1.3106603719626284e-23 1.1550700562543615e-15 1.1550700087963087e-15 4.7458052555857914e-23
3.345076488085796 1.01020471688099e-23 8.969843747216479e-16 8.969843247466217e-16 4.9975025988794295e-23
3.3482140837626964 1.021465441289319e-23 9.078337618161522e-16 9.07833711499471e-16 5.0316681122130017e-23
3.3513546224236106 1.0328506569231816e-23 9.188134587698963e-16 9.188134081095223e-16 5.0660374350543615e-23
3.3576445397418455 1.1160767128998046e-23 9.947139232217182e-16 9.947138718428444e-16 5.137887387908964e-23
3.3702598118196083 1.4230687969583596e-23 1.2730888395393038e-15 1.2730887866496142e-15 5.2889689588833876e-23
3.382922481734668 1.492956994911786e-23 1.3406295171579347e-15 1.3406294627871617e-15 5.437077368231762e-23
3.389271646505754 1.529163598245699e-23 1.3757190863614414e-15 1.3757190312365497e-15 5.51248911596827e-23
3.395632727569191 1.568173997835144e-23 1.4134628298533217e-15 1.413462773950578e-15 5.59027431958138e-23
3.421196662673239 1.755471652357139e-23 1.5941944525977655e-15 1.5941943934543229e-15 5.914344255515386e-23
3.4276182099114902 1.7176867916576966e-23 1.5628088092804394e-15 1.5628087493987707e-15 5.988166867757278e-23
3.4340518103208963 1.5521860408079982e-23 1.4148814398320055e-15 1.4148813792452494e-15 6.058675591042854e-23
3.4469541582030403 1.3164904249320922e-23 1.2045439356221733e-15 1.2045438736672449e-15 6.195492875487246e-23
3.472904465399547 1.2504162035575032e-23 1.1527015113381559e-15 1.1527014462384924e-15 6.509966339824935e-23
3.4990501388274233 1.1493719132830522e-23 1.0675302222913674e-15 1.0675301539308077e-15 6.836055957723656e-23
3.5253949054701885 7.898452287012573e-24 7.391272339585465e-16 7.391271623714692e-16 7.158707734696924e-23
3.5519380250092896 4.519855858038459e-24 4.2614696285535096e-16 4.2614688797216486e-16 7.488318606141623e-23
3.578680990867387 3.18033032136464e-24 3.021096858695378e-16 3.0210960734995014e-16 7.85195877645145e-23
3.605625307711299 2.638531240656368e-24 2.5252958619330467e-16 2.525295038005905e-16 8.239271421442137e-23
3.660119384959845 2.2432665100046077e-24 2.1794432105693212e-16 2.1794423035407097e-16 9.070286117499573e-23
3.715437065384467 1.9634613032240788e-24 1.9364294939295126e-16 1.9364284967317373e-16 9.971977750179913e-23
3.8285932144167436 1.8214360457380136e-24 1.8510689042054686e-16 1.8510677038266514e-16 1.2003788177363312e-22
3.94519561050918 1.79416892293185e-24 1.8788897803895482e-16 1.8788883434002062e-16 1.436989342161371e-22
4.06534921144712 1.8140353137826017e-24 1.9575507382608556e-16 1.9575490265543519e-16 1.7117065036373237e-22
4.189162171576248 1.861201549766296e-24 2.0696171365438197e-16 2.0696151058584357e-16 2.0306853837554755e-22
4.316745939156006 1.9282708635108124e-24 2.209499772706191e-16 2.2094973728291442e-16 2.3998770471027407e-22
4.448215356677963 2.0127521035496203e-24 2.376542183166747e-16 2.376539359902851e-16 2.823263895839624e-22
4.58368876423945 2.1149300909419228e-24 2.5732416396022625e-16 2.5732383292882943e-16 3.3103139684447227e-22
4.723288106065518 2.2371416626731355e-24 2.804835244021298e-16 2.804831369879435e-16 3.874141863818441e-22
4.867139040275056 2.3840781922033566e-24 3.080091946335727e-16 3.080087428178203e-16 4.518157523496259e-22
4.940699165968905 2.4727207621279704e-24 3.242895241123036e-16 3.242890365182693e-16 4.875940342134677e-22
5.015371051989984 2.564506254688053e-24 3.4141002124892454e-16 3.4140949530245065e-16 5.259464739242017e-22
5.091171501069577 2.6765179038364027e-24 3.617073324654868e-16 3.6170676485420086e-16 5.676112859539989e-22
5.129500256944802 2.734001882163862e-24 3.7225736437771993e-16 3.722567748190508e-16 5.895586691110872e-22
5.168117569889187 2.7939300114597263e-24 3.832810439006779e-16 3.832804315186125e-16 6.1238206542822e-22
5.20702561229733 2.867500241738041e-24 3.963351678498238e-16 3.963345309701292e-16 6.368796944806203e-22
5.246226572918644 2.9429451490190657e-24 4.098251850655117e-16 4.0982452278035643e-16 6.622851553332237e-22
5.265937586045735 2.9813893075435205e-24 4.167386974773256e-16 4.167380221385922e-16 6.753387334888024e-22
5.285722656980489 3.0203249031684906e-24 4.2376732643098364e-16 4.237666377990556e-16 6.8863192806095315e-22
5.305582063971359 3.0597598721620097e-24 4.3091321610490506e-16 4.3091251393577085e-16 7.021691340751765e-22
5.3255160863122235 3.1021313254671947e-24 4.385219263037894e-16 4.38521210297712e-16 7.160060772495961e-22
5.365609099470188 3.2077044939851403e-24 4.568596634336043e-16 4.568589185821453e-16 7.44851458992486e-22
5.406003951863644 3.317296601932655e-24 4.760253661236523e-16 4.760245913352808e-16 7.747883714096368e-22
5.446702915881641 3.431102161628073e-24 4.960629256696074e-16 4.960621198112451e-16 8.058583623111568e-22
5.487708281020852 3.554083886838416e-24 5.177118718699851e-16 5.177110336928327e-16 8.381771523364797e-22
5.529022354014368 3.7251116058059895e-24 5.467100629742582e-16 5.467091906041747e-16 8.723700834997749e-22
5.570647458961463 3.906229450688311e-24 5.77607545398797e-16 5.776066375056311e-16 9.078931657864522e-22
5.612585937458331 4.0981647588339766e-24 6.105508655106667e-16 6.105499207116506e-16 9.44799016242116e-22
5.654840148729818 4.3091695463905666e-24 6.46819862588148e-16 6.468188793399508e-16 9.832481970745584e-22
5.67608639626678 4.452934367833002e-24 6.709107094799942e-16 6.709097059829686e-16 1.0034970254859671e-21
5.686739436050992 4.5270402217137356e-24 6.833561632151736e-16 6.833551494427987e-16 1.0137723747569242e-21
5.6974124697621304 4.602675711308902e-24 6.960773013171311e-16 6.96076277167418e-16 1.0241497131299143e-21
5.718818669136295 4.758683082841966e-24 7.223747248951147e-16 7.223736796805939e-16 1.0452145209718428e-21
5.740305295436557 4.9306703804324134e-24 7.512948197549415e-16 7.5129375294073e-16 1.0668142113036946e-21
5.7835210386641895 5.376965350390335e-24 8.254656213457737e-16 8.254645091081161e-16 1.1122376577928473e-21
5.827062130521658 5.891152075043987e-24 9.112117590483306e-16 9.112105992188107e-16 1.1598295199153215e-21
5.8489554468988025 6.251959609294136e-24 9.706527960161873e-16 9.706516104557121e-16 1.1855604753735464e-21
5.870931020387893 6.639163628743055e-24 1.0346412355100808e-15 1.0346400236461754e-15 1.2118639054409325e-21
5.892989160043636 7.054889469691944e-24 1.1035583196949041e-15 1.103557080941619e-15 1.238753285298333e-21
5.915130176081913 7.527728285514115e-24 1.1819461070129258e-15 1.1819448402570077e-15 1.2667559184263023e-21
5.95966208400165 8.850008926273703e-24 1.4000217332216812e-15 1.4000204039259015e-15 1.3292957797359014e-21
6.004529249263818 1.0756130585456224e-23 1.7143696273283034e-15 1.7143682272136287e-15 1.4001146746752727e-21
6.027089341400364 1.2081250165899727e-23 1.932809001659343e-15 1.9328075609544227e-15 1.4407049203718231e-21
6.049734195844842 1.3647245025752722e-23 2.191546630604436e-15 2.1915451466005427e-15 1.4840038931343033e-21
6.095279466722835 1.8171061525592544e-23 2.939973085461329e-15 2.9399714967279273e-15 1.5887334008714456e-21
6.141167624020661 2.5133439427976893e-23 4.097059859002794e-15 4.097058135654425e-15 1.7233483702733642e-21
6.164241091010745 2.957973312325159e-23 4.839977030358667e-15 4.839975223864074e-15 1.806494593953442e-21
6.187401249150058 3.464476508146582e-23 5.690040198034782e-15 5.690038303938389e-15 1.894096394520056e-21
6.1990139391386085 3.711793114698356e-23 6.107673429775315e-15 6.1076714907788895e-15 1.9389964247293715e-21
6.204828454712694 3.842070774465869e-23 6.327972349070073e-15 6.327970387154404e-15 1.9619156674608476e-21
6.210648424152782 3.937171868373484e-23 6.4906882685493756e-15 6.490686286613685e-15 1.9819356905777896e-21
6.233982942956859 4.2602711461398915e-23 7.0497267430810076e-15 7.049724688409992e-15 2.054671018196643e-21
6.239830258556775 4.301572255855169e-23 7.124746738538508e-15 7.12474467184871e-15 2.0666897981873534e-21
6.245683058788269 4.3051509701950523e-23 7.137362595803345e-15 7.137360517023393e-15 2.0787799500798015e-21
6.257405133728602 4.29626855819277e-23 7.136004715118382e-15 7.136002614016942e-15 2.1011014386421948e-21
6.269149208991335 4.2327139729581535e-23 7.043636922025896e-15 7.043634807385804e-15 2.1146400912284927e-21
6.280915325867298 4.0733450998898104e-23 6.7911539770585996e-15 6.791151859855296e-15 2.1172033035333103e-21
6.304513850009849 3.680337021931716e-23 6.158977628920494e-15 6.158975516632475e-15 2.1122880177895163e-21
6.32820103803542 3.1932005181098e-23 5.363840952344346e-15 5.3638388561897744e-15 2.0961545715297243e-21
6.3519772230701035 2.7464595859798204e-23 4.630752586358219e-15 4.630750503247933e-15 2.0831102844508456e-21
6.375842739491607 2.3706222241460553e-23 4.0120781248023626e-15 4.0120760510059304e-15 2.073796433115925e-21
6.399797922933955 2.069398846547684e-23 3.515441674486255e-15 3.5154395975195352e-15 2.076966721273792e-21
6.42384311029221 1.8189577012368872e-23 3.101608360005056e-15 3.101606276913712e-15 2.083091344044762e-21
6.447978639727206 1.6364528231569794e-23 2.800892965494865e-15 2.800890865806099e-15 2.099688765770797e-21
6.472204850670314 1.4844169283119113e-23 2.550219640027033e-15 2.5502175212541964e-15 2.11877283578457e-21
6.496522083828205 1.3856031762991654e-23 2.3894019972893644e-15 2.3893998505029585e-15 2.1467864062005546e-21
6.520930681187647 1.3023623714358191e-23 2.2542955643472365e-15 2.2542933876956505e-15 2.176651585610498e-21
