Dust emission spectrum from A.P. Jones, M. Kohler, N. Ysard, M. Bocchio, and L. Verstraete (2017), A&A, 602A, 46J 
inside the DustPedia framework.

lambda    nu*dP/dnu     j_nu    j_nu(carb.) j_nu(sil)
 (um)   (erg s-1 H-1) (Jy cm2 sr-1 H-1)
0.9927057738263894 3.4447473812211275e-22 9.077105007262867e-15 9.07710478475936e-15 2.2250350626360047e-22
1.0001793341362166 3.5027388962262087e-22 9.299403131880085e-15 9.29940286407127e-15 2.6780881164430146e-22
1.0077091589558085 3.5609338377616745e-22 9.525078058557222e-15 9.525077736645446e-15 3.2191177497642543e-22
1.0114953028030835 3.5901044690303045e-22 9.639186646882373e-15 9.639186294124668e-15 3.5275770667828956e-22
1.0152956718711033 3.6193222495964375e-22 9.754145296552947e-15 9.754144910122096e-15 3.8643084813345554e-22
1.0229392996569957 3.6778660864613285e-22 9.986543753662515e-15 9.986543290391948e-15 4.632705632069011e-22
1.0267826658714554 3.707125351927428e-22 1.0103811441650722e-14 1.0103810934642299e-14 5.070084226204401e-22
1.0306404723013447 3.7364256527153776e-22 1.0221931609504566e-14 1.0221931054813371e-14 5.546911948331829e-22
1.03451277320114 3.765765891877301e-22 1.0340906417204404e-14 1.0340905810547679e-14 6.066567226704061e-22
1.0383996230291617 3.7951449983173667e-22 1.046073807913434e-14 1.0460737415864212e-14 6.632701264163898e-22
1.0403485208654093 3.8098487992873933e-22 1.052097593803453e-14 1.0520975244592684e-14 6.934418441440335e-22
1.0423010764483396 3.824561927479053e-22 1.0581428867043568e-14 1.0581428142117703e-14 7.249258620666764e-22
1.0462171883269815 3.8540156620278243e-22 1.0702981113050431e-14 1.0702980321000509e-14 7.920499230595881e-22
1.0471985131304309 3.861384729934698e-22 1.073350405666918e-14 1.0733503246930699e-14 8.097384770056615e-22
1.048180758391296 3.868756021015736e-22 1.0764081028883467e-14 1.0764080201078569e-14 8.278048981253861e-22
1.0501480137395462 3.883505212528881e-22 1.0825397212688662e-14 1.0825396347586468e-14 8.651021945775394e-22
1.0521189612883777 3.89826311735758e-22 1.0886929974322996e-14 1.088692907031799e-14 9.040050064772094e-22
1.0531058218030118 3.905635400080988e-22 1.091774999434072e-14 1.0917749070260486e-14 9.240802339228781e-22
1.0540936079674168 3.9129773816254943e-22 1.0948533469980688e-14 1.0948532525394497e-14 9.445861905180473e-22
1.058054026499678 3.942365045351578e-22 1.1072204866755714e-14 1.1072203835706533e-14 1.0310491833356407e-21
1.0590464539527713 3.9497168259865877e-22 1.1103257288328513e-14 1.1103256234508656e-14 1.0538198558606566e-21
1.06003981227728 3.957070525049495e-22 1.113436361941998e-14 1.1134362542348823e-14 1.0770711546142028e-21
1.0620293250338977 3.971783624521086e-22 1.1196738173709138e-14 1.1196737048654768e-14 1.1250543674137705e-21
1.0660195594769086 4.001232258148799e-22 1.1322136012899892e-14 1.1322134785675087e-14 1.2272248046766498e-21
1.070024785945596 4.0307101168029655e-22 1.144840108646714e-14 1.14483997482352e-14 1.3382319404672362e-21
1.0740450607676866 4.060216403242857e-22 1.1575536179924252e-14 1.157553472112515e-14 1.4587991022128758e-21
1.07808044048254 4.089750353049209e-22 1.1703544165490503e-14 1.1703542575785274e-14 1.5897052307037965e-21
1.0861967418109137 4.148852588169679e-22 1.1962058805711112e-14 1.1962056919758546e-14 1.88595256479023e-21
1.0902777775684922 4.178315453527117e-22 1.2092269519781852e-14 1.2092267466614445e-14 2.053167402428556e-21
1.0943741465085532 4.207801456019792e-22 1.222335703435874e-14 1.2223354799881954e-14 2.2344767885773875e-21
1.1026131145906286 4.266840580253844e-22 1.248817579457351e-14 1.248817315062199e-14 2.6439515242495532e-21
1.1109141095355224 4.325965747383394e-22 1.2756542848849533e-14 1.275653972445578e-14 3.124393754804656e-21
1.1192775983109025 4.385126370869688e-22 1.3028348230264972e-14 1.302834454291056e-14 3.6873544082278804e-21
1.1277040513999907 4.444103518941126e-22 1.330297394201974e-14 1.3302969595884995e-14 4.3461347437689716e-21
1.1361939428280308 4.503150776347377e-22 1.3581207704557164e-14 1.3581202588526938e-14 5.116030222866031e-21
1.1447477501889525 4.562266525391909e-22 1.386308495516046e-14 1.3863078940554473e-14 6.014605982958297e-21
1.1533659546722406 4.621471787613078e-22 1.414871070854796e-14 1.414870364653159e-14 7.062016364419759e-21
1.1707974979042381 4.740330348421206e-22 1.4731936116774063e-14 1.473192641770085e-14 9.699073217414714e-21
1.1884924949847024 4.859540800535933e-22 1.533066908642856e-14 1.5330655832236493e-14 1.3254192066975485e-20
1.2064549276569216 4.979916802427914e-22 1.594786761490679e-14 1.5947849591827303e-14 1.8023079483964662e-20
1.2246888378427687 5.100636516682045e-22 1.6581337855382364e-14 1.6581313467537718e-14 2.4387844644858e-20
1.2431983285522175 5.221587042576289e-22 1.72310749938616e-14 1.7231042153355337e-14 3.284050626428871e-20
1.2619875648066055 5.342927313359375e-22 1.7897969948758386e-14 1.789792593737903e-14 4.4011379357968206e-20
1.3004222497298317 5.585938470093726e-22 1.928190647941802e-14 1.9281828546343136e-14 7.793307488131658e-20
1.3400274889804893 5.830282987620953e-22 2.0738281982557218e-14 2.0738146510600597e-14 1.3547195662252592e-19
1.3808389325824078 6.076745681008263e-22 2.227324619203944e-14 2.2273014905016214e-14 2.3128702321625335e-19
1.4228933163050095 6.327354218531266e-22 2.389813005678412e-14 2.3897742047407745e-14 3.8800937637637457e-19
1.466228494730424 6.586572987020152e-22 2.563483917035689e-14 2.5634199230306532e-14 6.399400503626722e-19
1.5108834753276823 6.853687942925793e-22 2.748683471437708e-14 2.7485796627526788e-14 1.0380868502833538e-18
1.5568984535646726 7.128308121409642e-22 2.945887679909613e-14 2.945721880596819e-14 1.657993127949059e-18
1.6043148490894465 7.412022993753914e-22 3.1564273236744725e-14 3.1561661099785645e-14 2.612136959080844e-18
1.6531753430134553 7.706513346227622e-22 3.3817872863794524e-14 3.3813818148542335e-14 4.054715252186401e-18
1.7035239163302658 8.013790986726642e-22 3.623728730750541e-14 3.623108465272557e-14 6.202654779842166e-18
1.755405889504358 8.339903399456863e-22 3.886046602084651e-14 3.885111058209402e-14 9.355438752486467e-18
1.8088679632656115 8.68464942864797e-22 4.169928344581818e-14 4.168536557439688e-14 1.3917871421305883e-17
1.8639582606462262 9.047677186637133e-22 4.476542510403545e-14 4.474499478721924e-14 2.0430316816211887e-17
1.9207263702978936 9.429911825544936e-22 4.807757609541574e-14 4.804797326251807e-14 2.960283289767804e-17
1.979223391128241 9.832819282023782e-22 5.165856111999104e-14 5.161620525521917e-14 4.235586477186808e-17
2.039501978296691 1.0257602760260976e-21 5.553150456594938e-14 5.547164009678358e-14 5.986446916580067e-17
2.1016163906111602 1.0708612029128745e-21 5.973874083641154e-14 5.965512710717038e-14 8.36137292411556e-17
2.1656225393682647 1.1187653380117723e-21 6.43118789671835e-14 6.419643094825346e-14 1.154480189300396e-16
2.231578038680979 1.169292620809399e-21 6.926354583501734e-14 6.910591940084069e-14 1.5762643417665255e-16
2.299542257339062 1.2224235691853147e-21 7.461609945529707e-14 7.440321884928258e-14 2.1288060601450045e-16
2.369576372248914 1.2782589561834244e-21 8.040054415464943e-14 8.0116068023729e-14 2.8447613092044354e-16
2.4417434235010123 1.336930699415419e-21 8.665195303710203e-14 8.627569425535144e-14 3.7625878175058426e-16
2.5161083711144245 1.3988189191860634e-21 9.342439051150156e-14 9.29316750064257e-14 4.927155050758795e-16
2.5927381535095444 1.4646379462607929e-21 1.0079949896926915e-13 1.0016048822314038e-13 6.39010746128741e-16
2.6717017477616296 1.5350205346519904e-21 1.08860818966082e-13 1.0803984121763441e-13 8.209777484475682e-16
2.753070231689431 1.6109683343814322e-21 1.1772636305333803e-13 1.166812363486128e-13 1.0451267047252288e-15
2.836916847834745 1.695347006649324e-21 1.276658212580424e-13 1.2634714564174359e-13 1.3186756162988127e-15
2.9233170693905177 1.794631085446478e-21 1.392581243897406e-13 1.3760893746030126e-13 1.6491869294393359e-15
2.967498994190263 1.8562337955193613e-21 1.4621525596306044e-13 1.443804448563996e-13 1.8348111066608276e-15
3.0123486681368425 1.922508750671003e-21 1.5372446728136463e-13 1.5168581883601834e-13 2.0386484453463273e-15
3.0578761833420214 2.0322355501141612e-21 1.6495419841667914e-13 1.6269136592383373e-13 2.2628324928453906e-15
3.1040917844459814 2.161578136381647e-21 1.7810451388752416e-13 1.7559780344871832e-13 2.50671043880585e-15
3.127460860933648 2.2816580244075275e-21 1.8941391001427468e-13 1.8677665450979837e-13 2.6372555044763883e-15
3.1510058709225794 2.434573417383692e-21 2.0362988740874247e-13 2.008565813800414e-13 2.7733060287010695e-15
3.162844764501044 2.5724666282723052e-21 2.1597180572808783e-13 2.1312810258952017e-13 2.843703138567626e-15
3.1747281389236908 2.728891805778412e-21 2.2996529066839077e-13 2.2704976565571942e-13 2.915525012671295e-15
3.1986289994194426 3.153258034544223e-21 2.677273962709403e-13 2.646635084454816e-13 3.0638878254587634e-15
3.2227097969389145 4.134932635052715e-21 3.5371955578029346e-13 3.504984817186886e-13 3.2210740616048426e-15
3.2348180950136065 5.056150066966386e-21 4.3414944705231024e-13 4.308444956568528e-13 3.304951395457404e-15
3.240889293275058 5.7441095587381074e-21 4.941472056562378e-13 4.907980110396806e-13 3.3491946165571533e-15
3.2469718861334385 6.541199546049858e-21 5.637744101993526e-13 5.60379436781287e-13 3.3949734180654517e-15
3.2714166318528037 1.0732068922973814e-20 9.319416971305094e-13 9.283575619067777e-13 3.584135223732141e-15
3.2744851364798273 1.0994368373834538e-20 9.556145215470783e-13 9.52008098800574e-13 3.60642274650426e-15
3.2775565192852394 1.1263744020565538e-20 9.799465646108931e-13 9.763177433921924e-13 3.62882121870085e-15
3.283707930232385 1.1006857637648887e-20 9.59394676249068e-13 9.557258086042235e-13 3.668867644844577e-15
3.2898708863219004 1.0187657853849218e-20 8.896570776375365e-13 8.859517740274197e-13 3.705303610116875e-15
3.29141343181113 9.994105005610628e-21 8.731639127238885e-13 8.694494600771507e-13 3.714452646738002e-15
3.292184975758714 9.898945349803377e-21 8.65052744415968e-13 8.613337112370577e-13 3.7190331789102536e-15
3.295272960557952 9.304340639001604e-21 8.138538638365715e-13 8.101170148631516e-13 3.736848973420065e-15
3.3076538914384823 7.230694490443401e-21 6.348476327627641e-13 6.310392313723601e-13 3.808401390403833e-15
3.310756385682612 6.80480467879749e-21 5.980153371952606e-13 5.941889013532708e-13 3.8264358419896814e-15
3.313861789986515 6.4103518452815336e-21 5.638787026519356e-13 5.6003417371911e-13 3.844528932825424e-15
3.3200813396944477 5.859455575046899e-21 5.163871454017177e-13 5.125036961796942e-13 3.8834492220234974e-15
3.345076488085796 4.896948131868902e-21 4.348114678845079e-13 4.307545647625457e-13 4.056903121962228e-15
3.3482140837626964 4.936349649701141e-21 4.387211442485531e-13 4.3464074376820785e-13 4.080400480345163e-15
3.3513546224236106 4.97611668795485e-21 4.42670288744605e-13 4.3856628551813366e-13 4.104003226471384e-15
3.3576445397418455 5.2540251192933484e-21 4.682699565999213e-13 4.641166042258775e-13 4.153352374043818e-15
3.3702598118196083 6.261407501632336e-21 5.601505722824903e-13 5.558937090389757e-13 4.256863243514467e-15
3.382922481734668 6.5024321150366915e-21 5.838984281827199e-13 5.795409553346117e-13 4.357472848108249e-15
3.389271646505754 6.626745900055627e-21 5.961782523225581e-13 5.917697844380329e-13 4.4084678845250395e-15
3.395632727569191 6.7631100311175244e-21 6.095882635721209e-13 6.051272421250057e-13 4.461021447115259e-15
3.421196662673239 7.42321012036847e-21 6.741231268798324e-13 6.694445597825483e-13 4.678567097283947e-15
3.4276182099114902 7.304645659482766e-21 6.646010576989256e-13 6.598739429019245e-13 4.727114797001142e-15
3.4340518103208963 6.764116135043961e-21 6.165770162035455e-13 6.118039843656189e-13 4.773031837926542e-15
3.4469541582030403 5.98970266025294e-21 5.480374090802702e-13 5.431762466561716e-13 4.861162424098596e-15
3.472904465399547 5.778790362156255e-21 5.327202546809889e-13 5.276560769699644e-13 5.064177711024487e-15
3.4990501388274233 5.456826979867118e-21 5.068270462764031e-13 5.015551252736604e-13 5.271921002742554e-15
3.5253949054701885 4.3016678642388416e-21 4.025446700654562e-13 3.9707093451662724e-13 5.473735548828863e-15
3.5519380250092896 3.2032898499694046e-21 3.0201676415899085e-13 2.9634019355666475e-13 5.676570602326102e-15
3.578680990867387 2.7772142450656548e-21 2.638164084821152e-13 2.5791752708974506e-13 5.898881392370206e-15
3.605625307711299 2.6156906694726177e-21 2.5034355181911385e-13 2.442105436914534e-13 6.1330081276604636e-15
3.660119384959845 2.5195220192262394e-21 2.447838959032672e-13 2.3815905282413974e-13 6.62484307912752e-15
3.715437065384467 2.458040103976808e-21 2.42419921736499e-13 2.3527666662283945e-13 7.143255113659565e-15
3.8285932144167436 2.4730714730693777e-21 2.513305758051737e-13 2.4307343588373004e-13 8.257139921443708e-15
3.94519561050918 2.5231796570148936e-21 2.6423244829729796e-13 2.5476117169550573e-13 9.471276601792193e-15
4.06534921144712 2.5858565582876605e-21 2.790433778357702e-13 2.6825931687967443e-13 1.0784060956095833e-14
4.189162171576248 2.65438844897901e-21 2.9516243534939763e-13 2.8296476002660356e-13 1.2197675322794036e-14
4.316745939156006 2.7259010209826156e-21 3.1234604018829495e-13 2.986395142485129e-13 1.370652593978211e-14
4.448215356677963 2.799041700630527e-21 3.304947818591235e-13 3.152054950989505e-13 1.5289286760172975e-14
4.58368876423945 2.8735163630549354e-21 3.49621577997325e-13 3.326741260281664e-13 1.694745196915858e-14
4.723288106065518 2.9497357433190817e-21 3.6982560878709773e-13 3.5113468722291865e-13 1.8690921564179106e-14
4.867139040275056 3.0283271835006187e-21 3.912424600532645e-13 3.7076963178504483e-13 2.0472828268219576e-14
4.940699165968905 3.070381120828199e-21 4.0267079395568564e-13 3.8128732446881303e-13 2.138346948687251e-14
5.015371051989984 3.1116279568227103e-21 4.1424775818564433e-13 3.9194342592454796e-13 2.2304332261096447e-14
5.091171501069577 3.1580193011023026e-21 4.2677791754687795e-13 4.0352257766638344e-13 2.325533988049464e-14
5.129500256944802 3.1808655735992113e-21 4.331016165690035e-13 4.0936793508436455e-13 2.3733681484638928e-14
5.168117569889187 3.2040116438676217e-21 4.3953746961968617e-13 4.153188949324088e-13 2.4218574687277533e-14
5.20702561229733 3.231558797063882e-21 4.4665398091634874e-13 4.219057705803022e-13 2.474821033604654e-14
5.246226572918644 3.2590305422572263e-21 4.538422320103086e-13 4.2856112558219327e-13 2.5281106428115423e-14
5.265937586045735 3.272739786372266e-21 4.574636771870458e-13 4.3191496991705447e-13 2.5548707269991303e-14
5.285722656980489 3.2864322446690108e-21 4.611035734463403e-13 4.352865346082969e-13 2.5817038838043433e-14
5.305582063971359 3.3001086976693775e-21 4.647621093885582e-13 4.3867603693455403e-13 2.6086072454004227e-14
5.3255160863122235 3.3146220985203547e-21 4.685599399610672e-13 4.4220198860436e-13 2.6357951356707276e-14
5.365609099470188 3.350224495133057e-21 4.771581790478346e-13 4.5023769459801274e-13 2.692048444982173e-14
5.406003951863644 3.3861655244148894e-21 4.859079174819022e-13 4.584215965440257e-13 2.7486320937876533e-14
5.446702915881641 3.4224774563896415e-21 4.948159804280865e-13 4.667607485072368e-13 2.8055231920849697e-14
5.487708281020852 3.460823488254889e-21 5.041269321051084e-13 4.754974708489338e-13 2.862946125617456e-14
5.529022354014368 3.5141399882713934e-21 5.157471500434484e-13 4.865190884513694e-13 2.9228061592079105e-14
5.570647458961463 3.569082124264123e-21 5.277541401874549e-13 4.979240640131998e-13 2.98300761742549e-14
5.612585937458331 3.62579352285541e-21 5.401762749461051e-13 5.097410029338303e-13 3.043527201227463e-14
5.654840148729818 3.686892925166062e-21 5.534141902656482e-13 5.223677255948968e-13 3.1046464670751474e-14
5.67608639626678 3.729157804667953e-21 5.618613933692866e-13 5.304950160460037e-13 3.1366377323282847e-14
5.686739436050992 3.750728153839288e-21 5.661719523005426e-13 5.346452616463862e-13 3.152669065415619e-14
5.6974124697621304 3.772600399404779e-21 5.705423691948145e-13 5.388551320969072e-13 3.1687237097907364e-14
5.718818669136295 3.817281605837548e-21 5.794686685076013e-13 5.474596539526905e-13 3.20090145549106e-14
5.740305295436557 3.86634580204997e-21 5.891218330045141e-13 5.56787694307779e-13 3.2334138696735e-14
5.7835210386641895 3.9943958510765095e-21 6.132151200993871e-13 5.802089914552025e-13 3.300612864418476e-14
5.827062130521658 4.138942000123445e-21 6.401893165359069e-13 6.065010631840689e-13 3.3688253351837945e-14
5.8489554468988025 4.2420560046389874e-21 6.586036665430369e-13 6.245465579856572e-13 3.4057108557379636e-14
5.870931020387893 4.351163123967225e-21 6.780813129830427e-13 6.436538156514294e-13 3.442749733161341e-14
5.892989160043636 4.466737303557946e-21 6.987076316942207e-13 6.639082400283446e-13 3.479939166587601e-14
5.915130176081913 4.597668278913816e-21 7.218905780720363e-13 6.867055241204705e-13 3.518505395156575e-14
5.95966208400165 4.966714993220187e-21 7.857064316153194e-13 7.496393673257121e-13 3.606706428960732e-14
6.004529249263818 5.495874165770701e-21 8.759618220101713e-13 8.389004203857547e-13 3.706140162441659e-14
6.027089341400364 5.8639872449376086e-21 9.381452396890172e-13 9.00507690853124e-13 3.7637548835893194e-14
6.049734195844842 6.295221009720198e-21 1.010919813246455e-12 9.726716230428885e-13 3.8248190203566534e-14
6.095279466722835 7.539937093095587e-21 1.2199183899384053e-12 1.1801636617492126e-12 3.975472818919227e-14
6.141167624020661 9.439900058554011e-21 1.53881985447039e-12 1.49710292621028e-12 4.171692826011006e-14
6.164241091010745 1.0651311820175471e-20 1.742818447280505e-12 1.6998666457285074e-12 4.295180155199743e-14
6.187401249150058 1.2014777741626721e-20 1.9733015409269755e-12 1.929082256904434e-12 4.4219284022542126e-14
6.1990139391386085 1.2677511226991877e-20 2.086056417588592e-12 2.041192304764061e-12 4.486411282453055e-14
6.204828454712694 1.3025217952321517e-20 2.1452811226352358e-12 2.1000913713622957e-12 4.518975127293997e-14
6.210648424152782 1.327696890942203e-20 2.188796151738265e-12 2.1433297098307376e-12 4.5466441907527394e-14
6.233982942956859 1.41215390367568e-20 2.336775946551874e-12 2.2903480214882143e-12 4.642792506365943e-14
6.239830258556775 1.4223386943475094e-20 2.3558369756211154e-12 2.3092780306139073e-12 4.655894500720847e-14
6.245683058788269 1.4222638788748753e-20 2.357922656074427e-12 2.311232502906589e-12 4.669015316783837e-14
6.257405133728602 1.4177388913705768e-20 2.3548321704271832e-12 2.307913762809082e-12 4.6918407618100887e-14
6.269149208991335 1.3983673454036725e-20 2.327015699044974e-12 2.2800202004679624e-12 4.6995498577012036e-14
6.280915325867298 1.3530654255181681e-20 2.2558549350450975e-12 2.2089691907121527e-12 4.6885744332944607e-14
6.304513850009849 1.2427157664619079e-20 2.079662421983397e-12 2.0331651361551456e-12 4.649728582825179e-14
6.32820103803542 1.108021202659878e-20 1.8612202613605254e-12 1.8152911832211945e-12 4.592907813933094e-14
6.3519772230701035 9.850782185412067e-21 1.6609214027984449e-12 1.615503243879991e-12 4.54181589184537e-14
6.375842739491607 8.813746655206891e-21 1.4916522671866647e-12 1.4466862224319104e-12 4.49660447547542e-14
6.399797922933955 7.989605870650028e-21 1.3572537496703375e-12 1.312526822829583e-12 4.4726926840754315e-14
6.42384311029221 7.30147732646518e-21 1.245016478434453e-12 1.2004861923465044e-12 4.4530286087948146e-14
6.447978639727206 6.801188980798612e-21 1.16406669986188e-12 1.11956708959283e-12 4.449961026905022e-14
6.472204850670314 6.3824593486937704e-21 1.0965028000066625e-12 1.0520009874324906e-12 4.450181257417171e-14
6.496522083828205 6.10887897653397e-21 1.0534450178380464e-12 1.0088066484546692e-12 4.463836938337716e-14
6.520930681187647 5.8769867112710885e-21 1.0172641167711249e-12 9.724689778372517e-13 4.4795138933873356e-14
6.57002334288761 5.630586254258889e-21 9.81951327056588e-13 9.366570831392447e-13 4.529424391734319e-14
