Dust emission spectrum from A.P. Jones, M. Kohler, N. Ysard, M. Bocchio, and L. Verstraete (2017), A&A, 602A, 46J 
inside the DustPedia framework.

lambda    nu*dP/dnu     j_nu    j_nu(carb.) j_nu(sil)
 (um)   (erg s-1 H-1) (Jy cm2 sr-1 H-1)
0.9927057738263894 9.718888871725262e-25 2.560982419886357e-17 2.560982419750508e-17 1.358500632035071e-27
1.0001793341362166 9.878665216395164e-25 2.6226816492406722e-17 2.6226816490770224e-17 1.63648962013531e-27
1.0077091589558085 1.0038196580146736e-24 2.685099200077838e-17 2.685099199880955e-17 1.9688306468446754e-27
1.0114953028030835 1.0117850806628906e-24 2.716574217595064e-17 2.7165742173792172e-17 2.1584695000628243e-27
1.0152956718711033 1.0197420348069955e-24 2.7482250229636418e-17 2.7482250227270805e-17 2.365610255214537e-27
1.0229392996569957 1.0356195958527201e-24 2.8120274536923994e-17 2.8120274534085284e-17 2.8387152338791128e-27
1.0267826658714554 1.0435208684851054e-24 2.844127751201954e-17 2.8441277508911285e-17 3.1082466767393334e-27
1.0306404723013447 1.0514101905076793e-24 2.876396872260836e-17 2.876396871920609e-17 3.4022674924671305e-27
1.03451277320114 1.0592868037780673e-24 2.908833427610606e-17 2.908833427238317e-17 3.7228941261495214e-27
1.0383996230291617 1.067149954532995e-24 2.9414360111350525e-17 2.9414360107278117e-17 4.0724158119286594e-27
1.0403485208654093 1.07107624714938e-24 2.957799119525872e-17 2.957799119099994e-17 4.258778165439898e-27
1.0423010764483396 1.0749988935336304e-24 2.974203200201405e-17 2.974203199756074e-17 4.453307788944762e-27
1.0462171883269815 1.0828328762077225e-24 3.007133556002052e-17 3.0071335555152266e-17 4.86824545419496e-27
1.0471985131304309 1.0847889481512651e-24 3.015391469631778e-17 3.015391469134015e-17 4.9776333059701666e-27
1.048180758391296 1.0867440275537596e-24 3.0236594674617386e-17 3.0236594669528007e-17 5.0893759190794935e-27
1.0501480137395462 1.09065116278852e-24 3.040225623896645e-17 3.040225623364634e-17 5.320119512966815e-27
1.0521189612883777 1.094554190214286e-24 3.056831841059046e-17 3.056831840502958e-17 5.56087387554496e-27
1.0531058218030118 1.096501123043771e-24 3.0651414951988305e-17 3.0651414946303163e-17 5.685141630832169e-27
1.0540936079674168 1.0984371269345981e-24 3.073433469200638e-17 3.0734334686194286e-17 5.8120955222716026e-27
1.058054026499678 1.1061698979330605e-24 3.10669853919143e-17 3.106698538556669e-17 6.347616005476671e-27
1.0590464539527713 1.1081002233057327e-24 3.115038981951465e-17 3.1150389813025947e-17 6.488706767077577e-27
1.06003981227728 1.1100293793076016e-24 3.123389047329479e-17 3.1233890466661984e-17 6.632799396640512e-27
1.0620293250338977 1.1138841385304093e-24 3.1401179505281826e-17 3.140117949835159e-17 6.930234563164174e-27
1.0660195594769086 1.1215791343888128e-24 3.173690175799943e-17 3.1736901750435556e-17 7.563880987940893e-27
1.070024785945596 1.1292541767602981e-24 3.207413673889891e-17 3.207413673064611e-17 8.252793944951676e-27
1.0740450607676866 1.1369085626042353e-24 3.2412868903194354e-17 3.241286889419281e-17 9.001543638602344e-27
1.07808044048254 1.1445415947015842e-24 3.2753082575917677e-17 3.275308256610262e-17 9.815056014327504e-27
1.0861967418109137 1.159727281668321e-24 3.3437500241540496e-17 3.343750022988248e-17 1.165800957295565e-26
1.0902777775684922 1.1672477457419863e-24 3.3780777193246666e-17 3.378077718054734e-17 1.2699326607951924e-26
1.0943741465085532 1.174743591835652e-24 3.412544649959507e-17 3.412544648576586e-17 1.3829211576092117e-26
1.1026131145906286 1.1896587863821192e-24 3.48188965124519e-17 3.481889649606817e-17 1.638373774642515e-26
1.1109141095355224 1.2044676439389572e-24 3.551771790900965e-17 3.5517717889624336e-17 1.9385311283995794e-26
1.1192775983109025 1.2191512298613851e-24 3.6221366101337265e-17 3.622136607842972e-17 2.290755023191469e-26
1.1277040513999907 1.2336410615482105e-24 3.6927796181245576e-17 3.692779615421018e-17 2.703538948689128e-26
1.1361939428280308 1.248007589686552e-24 3.7639091236791655e-17 3.7639091204924997e-17 3.186667640266527e-26
1.1447477501889525 1.262246075162514e-24 3.83551124795205e-17 3.835511244200651e-17 3.75139953314749e-26
1.1533659546722406 1.2763596947184835e-24 3.907595872169011e-17 3.9075958677583326e-17 4.410677548343452e-26
1.1707974979042381 1.3042584832491094e-24 4.0533573069197446e-17 4.053357300845241e-17 6.074503726937174e-26
1.1884924949847024 1.3315983457159217e-24 4.200868854101422e-17 4.200868845776756e-17 8.324664994894097e-26
1.2064549276569216 1.3585948898251754e-24 4.350813940236386e-17 4.350813928883586e-17 1.1352800263560725e-25
1.2246888378427687 1.3849523404351463e-24 4.5022542961551725e-17 4.5022542807476134e-17 1.5407559926182675e-25
1.2431983285522175 1.4106094563998871e-24 4.6549673752607324e-17 4.65496735445027e-17 2.081046374660603e-25
1.2619875648066055 1.4355573903635317e-24 4.808892490115054e-17 4.808892462139924e-17 2.797512947689577e-25
1.3004222497298317 1.482912261024947e-24 5.1188131926891033e-17 5.118813142838797e-17 4.985030464135042e-25
1.3400274889804893 1.5268377976778503e-24 5.430952984117567e-17 5.4309528968965755e-17 8.722099151682028e-25
1.3808389325824078 1.5671780264539819e-24 5.744216368813439e-17 5.744216218903046e-17 1.4991039165721296e-24
1.4228933163050095 1.6041384241684327e-24 6.058758110552033e-17 6.058757857323511e-17 2.5322852139656328e-24
1.466228494730424 1.6386204738977886e-24 6.377485285960179e-17 6.377484865350175e-17 4.206100030940949e-24
1.5108834753276823 1.669960722244096e-24 6.697406525373551e-17 6.697405838109626e-17 6.872639252979911e-24
1.5568984535646726 1.697625102028747e-24 7.015708058622501e-17 7.015706952774716e-17 1.1058477852432224e-23
1.6043148490894465 1.721674553493269e-24 7.331791344550201e-17 7.331789589098251e-17 1.75545194722984e-23
1.6531753430134553 1.7421929575340336e-24 7.645125271978467e-17 7.645122525921883e-17 2.7460565827711245e-23
1.7035239163302658 1.759433318136799e-24 7.955921330282077e-17 7.955917096167862e-17 4.2341142140944646e-23
1.755405889504358 1.7748046789773478e-24 8.269848416413347e-17 8.269841978178811e-17 6.438234534562468e-23
1.8088679632656115 1.7879737142056095e-24 8.58494327432387e-17 8.584933616536316e-17 9.657787552473311e-23
1.8639582606462262 1.7987185314409825e-24 8.899565937364085e-17 8.899551639566313e-17 1.4297797773270362e-22
1.9207263702978936 1.8072204386544392e-24 9.213954464052312e-17 9.213933565936929e-17 2.0898115382114208e-22
1.979223391128241 1.8138859181607138e-24 9.529590027074158e-17 9.529559858058884e-17 3.016901527506648e-22
2.039501978296691 1.8191983401227413e-24 9.848579954983881e-17 9.848536923271815e-17 4.303171206376504e-22
2.1016163906111602 1.8244914043048922e-24 1.0178052847890708e-16 1.017799217823421e-16 6.066965649897224e-22
2.1656225393682647 1.8305429862534654e-24 1.0522819663449452e-16 1.0522735084498436e-16 8.457895101318926e-22
2.231578038680979 1.8374174585185843e-24 1.0884020483090698e-16 1.0883903856080759e-16 1.1662700993940103e-21
2.299542257339062 1.8455836591639743e-24 1.1265346753501106e-16 1.1265187635882804e-16 1.5911761830444372e-21
2.369576372248914 1.8560645773653464e-24 1.1674363890389174e-16 1.1674149026296432e-16 2.148640927408261e-21
2.4417434235010123 1.870066174561713e-24 1.2120664624220967e-16 1.2120377367245683e-16 2.872569752822291e-21
2.5161083711144245 1.8896473175421493e-24 1.2620586303321713e-16 1.2620205953735914e-16 3.803495857987665e-21
2.5927381535095444 1.9181711949865858e-24 1.3201262188075533e-16 1.3200763255296748e-16 4.989327787848032e-21
2.6717017477616296 1.9596456062504268e-24 1.3897444416147188e-16 1.389679583549618e-16 6.4858065101081395e-21
2.753070231689431 2.020097620656341e-24 1.4762471788987003e-16 1.4761636070493822e-16 8.357184931826324e-21
2.836916847834745 2.1131796478267675e-24 1.5913014512514382e-16 1.5911946797351818e-16 1.067715162563309e-20
2.9233170693905177 2.2689495914213445e-24 1.7606385345631977e-16 1.7605032635302737e-16 1.3527103292396874e-20
2.967498994190263 2.4000113185452082e-24 1.890485293945127e-16 1.8903337439367487e-16 1.5155000837812288e-20
3.0123486681368425 2.5528124732425146e-24 2.0412377180673993e-16 2.0410681550414225e-16 1.6956302597668025e-20
3.0578761833420214 2.8922366161895054e-24 2.3475948574372094e-16 2.347405340176899e-16 1.8951726031129795e-20
3.1040917844459814 3.329074600290353e-24 2.7430107818010005e-16 2.742799353963143e-16 2.1142783785784007e-20
3.127460860933648 3.789991393103735e-24 3.1462957244639495e-16 3.146072487029085e-16 2.2323743486413997e-20
3.1510058709225794 4.4037434714406645e-24 3.683330232982333e-16 3.683094628045369e-16 2.3560493696351054e-20
3.162844764501044 4.97459794231287e-24 4.176430856535931e-16 4.1761888290716945e-16 2.420274642366358e-20
3.1747281389236908 5.638326289240939e-24 4.751450171981676e-16 4.751201575718155e-16 2.4859626351894405e-20
3.1986289994194426 7.489166887892884e-24 6.358677688817551e-16 6.358415473236623e-16 2.622155809260597e-20
3.2227097969389145 1.1850508177362206e-23 1.0137423891100116e-15 1.0137147182505483e-15 2.7670859463443575e-20
3.2348180950136065 1.5985870181101207e-23 1.3726366124135142e-15 1.3726081664983695e-15 2.844591514456017e-20
3.240889293275058 1.9077469428092896e-23 1.6411731204784669e-15 1.641144265680462e-15 2.8854798005298836e-20
3.2469718861334385 2.2654011584961306e-23 1.9525091583046953e-15 1.9524798803776787e-15 2.9277927016546427e-20
3.2714166318528037 4.1729477270375784e-23 3.623666615155032e-15 3.623635583579434e-15 3.1031575598872276e-20
3.2744851364798273 4.292195950099028e-23 3.730714343719624e-15 3.730683104099899e-15 3.1239619725731737e-20
3.2775565192852394 4.4148672863223677e-23 3.840937811215814e-15 3.840906362378641e-15 3.144883717290609e-20
3.283707930232385 4.2969151706733077e-23 3.745335566926073e-15 3.74530374118347e-15 3.182574260344911e-20
3.2898708863219004 3.9228210061718986e-23 3.4256798986701475e-15 3.425647727369887e-15 3.217130026065742e-20
3.29141343181113 3.8345992788075396e-23 3.3502086561349065e-15 3.35017639799248e-15 3.225814242578363e-20
3.292184975758714 3.791250095549475e-23 3.3131118356841096e-15 3.313079534052528e-15 3.23016315817501e-20
3.295272960557952 3.5176453512603204e-23 3.0768964419999582e-15 3.0768639707242214e-15 3.247127573667567e-20
3.3076538914384823 2.5697551306838303e-23 2.2562189062900866e-15 2.2561857522723884e-15 3.3154017697239683e-20
3.310756385682612 2.3768233157418104e-23 2.0887841219684715e-15 2.0887507955729565e-15 3.332639551546496e-20
3.313861789986515 2.1988087263125856e-23 1.93415500724117e-15 1.934121507787844e-15 3.3499453326545994e-20
3.3200813396944477 1.949175598445868e-23 1.7177862521128347e-15 1.7177523815803802e-15 3.3870532454303574e-20
3.345076488085796 1.503967978540116e-23 1.3354083130767185e-15 1.335372791553087e-15 3.552152363157329e-20
3.3482140837626964 1.520684534557324e-23 1.351517834808276e-15 1.3514820897127464e-15 3.574509552964393e-20
3.3513546224236106 1.5375856015340818e-23 1.3678205413635083e-15 1.3677845715364929e-15 3.5969827015711736e-20
3.3576445397418455 1.66101522538448e-23 1.480395525035501e-15 1.4803590857742398e-15 3.6439261261851703e-20
3.3702598118196083 2.1161842463702316e-23 1.893155518707973e-15 1.893118094396607e-15 3.7424311367157084e-20
3.382922481734668 2.219912701143248e-23 1.9934134089657998e-15 1.9933750221241277e-15 3.8386841672156054e-20
3.389271646505754 2.273648611110183e-23 2.0454984630629975e-15 2.045459587312628e-15 3.887575036961431e-20
3.395632727569191 2.3315585972072838e-23 2.1015342795678076e-15 2.1014948998994085e-15 3.937966839907139e-20
3.421196662673239 2.609624800502269e-23 2.3698755686177794e-15 2.3698340970057062e-15 4.147161207278673e-20
3.4276182099114902 2.5536666117708333e-23 2.3234111691510873e-15 2.3233692251400164e-15 4.19440110713961e-20
3.4340518103208963 2.308329163794283e-23 2.104137007426846e-15 2.104094613919082e-15 4.2393507763964895e-20
3.4469541582030403 1.958915737726945e-23 1.7923412336216135e-15 1.7922979718381283e-15 4.326178348529349e-20
3.472904465399547 1.8610828620166336e-23 1.7156471754514165e-15 1.7156019207991727e-15 4.525465224350517e-20
3.4990501388274233 1.711411940353111e-23 1.5895498645853293e-15 1.5895025573259966e-15 4.7307259332637114e-20
3.5253949054701885 1.1785205921008005e-23 1.1028447520471383e-15 1.1027954299287218e-15 4.93221184164523e-20
3.5519380250092896 6.776280651719925e-24 6.38890157094331e-16 6.388387927070133e-16 5.136438731783529e-20
3.578680990867387 4.791097964604593e-24 4.551216241072087e-16 4.550680177411616e-16 5.360636604705604e-20
3.605625307711299 3.98903687120908e-24 3.8178431048088436e-16 3.817283316966298e-16 5.597878425454511e-20
3.660119384959845 3.4057935680043774e-24 3.3088951470026434e-16 3.3082850271253295e-16 6.101198773134877e-20
3.715437065384467 2.993583894687186e-24 2.952369948267365e-16 2.9517060428588836e-16 6.63905408480452e-20
3.8285932144167436 2.78882397470472e-24 2.8341952224772895e-16 2.8334131319639595e-16 7.820905133313312e-20
3.94519561050918 2.7544711348012685e-24 2.884537570241197e-16 2.883622584958878e-16 9.149852823191564e-20
4.06534921144712 2.7902458225133048e-24 3.0109930762046747e-16 3.0099295053787435e-16 1.0635708259316732e-19
4.189162171576248 2.8667456211468473e-24 3.187761080675258e-16 3.1865317483663867e-16 1.2293323088721364e-19
4.316745939156006 2.9730019756979025e-24 3.40659982674822e-16 3.4051867106944044e-16 1.413116053815266e-19
4.448215356677963 3.105325481317759e-24 3.6665901308955205e-16 3.664975985592625e-16 1.6141453028941832e-19
4.58368876423945 3.2641467719156282e-24 3.971496943204282e-16 3.9696627138422567e-16 1.8342293620254642e-19
4.723288106065518 3.452950725308583e-24 4.3291661193426486e-16 4.32708975019653e-16 2.0763691461180575e-19
4.867139040275056 3.678717187829634e-24 4.752691090475096e-16 4.750353757485068e-16 2.3373329900271935e-19
4.940699165968905 3.814258318832383e-24 5.002279408173359e-16 4.999803266254756e-16 2.4761419186033105e-19
5.015371051989984 3.954502978227178e-24 5.264588235483574e-16 5.261967742054761e-16 2.6204934288112987e-19
5.091171501069577 4.124925747827231e-24 5.574466312092296e-16 5.571693153469211e-16 2.7731586230855655e-19
5.129500256944802 4.2123396725023186e-24 5.735454955533343e-16 5.732603270212578e-16 2.8516853207646626e-19
5.168117569889187 4.3033990107468156e-24 5.903552552837309e-16 5.900620322869988e-16 2.9322299673226503e-19
5.20702561229733 4.4148173937781626e-24 6.101995624345049e-16 6.098976598530098e-16 3.019025814951793e-19
5.246226572918644 4.5290210135509655e-24 6.306970674131622e-16 6.303863043351188e-16 3.107630780433737e-19
5.265937586045735 4.587194800973804e-24 6.411982432470966e-16 6.408829814659206e-16 3.1526178117596277e-19
5.285722656980489 4.646098396093064e-24 6.518718213335887e-16 6.515520148844585e-16 3.1980644913028775e-19
5.305582063971359 4.705743477118595e-24 6.627209783155443e-16 6.623965809865049e-16 3.243973290393707e-19
5.3255160863122235 4.769770183254013e-24 6.74261850752536e-16 6.739327910628386e-16 3.290596896972289e-19
5.365609099470188 4.9289125045937934e-24 7.020039757916789e-16 7.016652547280549e-16 3.3872106362420257e-19
5.406003951863644 5.094016527244134e-24 7.309810889410946e-16 7.30632502846577e-16 3.4858609451773386e-19
5.446702915881641 5.265369316746243e-24 7.612581569872985e-16 7.608994997102804e-16 3.5865727701811e-19
5.487708281020852 5.4503835168255675e-24 7.939396881864777e-16 7.93570720579924e-16 3.6896760655383996e-19
5.529022354014368 5.707113737034532e-24 8.375954443116103e-16 8.372156848229885e-16 3.7975948862168016e-19
5.570647458961463 5.9788041336454504e-24 8.840756600835649e-16 8.836848771195069e-16 3.907829640578491e-19
5.612585937458331 6.266529834034844e-24 9.335972170643002e-16 9.331951758370798e-16 4.020412272205238e-19
5.654840148729818 6.582608804448721e-24 9.880702247910917e-16 9.87656647765023e-16 4.135770260689455e-19
5.67608639626678 6.797748213197259e-24 1.0241970125425337e-15 1.0237774044037792e-15 4.196081387543389e-19
5.686739436050992 6.908614443606937e-24 1.042854498325838e-15 1.0424318498067694e-15 4.2264851906879106e-19
5.6974124697621304 7.021748390104882e-24 1.0619213641106525e-15 1.0614956585775686e-15 4.257055330837383e-19
5.718818669136295 7.255037608670418e-24 1.1013248214749946e-15 1.1008929517580157e-15 4.3186971697883397e-19
5.740305295436557 7.512131959982176e-24 1.144636609506067e-15 1.144198473180156e-15 4.381363259107166e-19
5.7835210386641895 8.178904947997206e-24 1.2556162100498617e-15 1.2551650587581254e-15 4.511512917363151e-19
5.827062130521658 8.946563799694076e-24 1.3838064326826067e-15 1.3833418859805872e-15 4.645467020197696e-19
5.8489554468988025 9.485131894788793e-24 1.4726214450541744e-15 1.4721497144192788e-15 4.7173063489525745e-19
5.870931020387893 1.006285794161095e-23 1.5681866505588604e-15 1.5677076479334487e-15 4.790026254116257e-19
5.892989160043636 1.0682889094754841e-23 1.6710667388258105e-15 1.6705803753049537e-15 4.863635208569908e-19
5.915130176081913 1.1387932287005203e-23 1.7880457055621986e-15 1.787551720016372e-15 4.939855458263415e-19
5.95966208400165 1.3359327255321572e-23 2.113370580129572e-15 2.112859571438438e-15 5.11008691134086e-19
6.004529249263818 1.6200196343073914e-23 2.582073948123508e-15 2.581543942118906e-15 5.300060046016715e-19
6.027089341400364 1.8174956982087203e-23 2.907705740495552e-15 2.907164932839917e-15 5.408076556348552e-19
6.049734195844842 2.050805028571388e-23 3.2932909476682945e-15 3.2927387238584644e-15 5.52223809829165e-19
6.095279466722835 2.724749420669516e-23 4.408487610980946e-15 4.407907955530828e-15 5.796554501173618e-19
6.141167624020661 3.7617938595528983e-23 6.132186827824854e-15 6.13157234277061e-15 6.1448505424250435e-19
6.164241091010745 4.4241435422428497e-23 7.238994697566492e-15 7.238358736368553e-15 6.359611979406039e-19
6.187401249150058 5.178467570417584e-23 8.505091193606926e-15 8.504433058770474e-15 6.581348364531955e-19
6.1990139391386085 5.54681773577805e-23 9.127165835418934e-15 9.126496390873715e-15 6.694445452197421e-19
6.204828454712694 5.740833587983351e-23 9.455275120594765e-15 9.454599950913618e-15 6.751696811464116e-19
6.210648424152782 5.882491155458916e-23 9.697675795991119e-15 9.696995651997508e-15 6.801439936099408e-19
6.233982942956859 6.363774621202651e-23 1.0530520381239463e-14 1.0529822477150402e-14 6.9790408906207325e-19
6.239830258556775 6.42530881975783e-23 1.0642317584078646e-14 1.0641616906197446e-14 7.006778812005691e-19
6.245683058788269 6.430672566198426e-23 1.0661192175977016e-14 1.0660488714933999e-14 7.034610430167274e-19
6.257405133728602 6.417515305624925e-23 1.0659347491896025e-14 1.0658638975701217e-14 7.085161948061756e-19
6.269149208991335 6.322946810888316e-23 1.0521982325692846e-14 1.0521271073058736e-14 7.112526341101423e-19
6.280915325867298 6.085694156673539e-23 1.014617840172044e-14 1.0145467294656887e-14 7.111070635513474e-19
6.304513850009849 5.50056100163251e-23 9.205089630021305e-15 9.204381433870847e-15 7.081961504568618e-19
6.32820103803542 4.775276377723201e-23 8.021363784807431e-15 8.020661286552286e-15 7.024982551429439e-19
6.3519772230701035 4.1101241958042814e-23 6.93000120851369e-15 6.929303520897703e-15 6.976876159861742e-19
6.375842739491607 3.550447052867553e-23 6.008832115462908e-15 6.0081383409788195e-15 6.937744840897159e-19
6.399797922933955 3.1019888206364075e-23 5.269579033567141e-15 5.2688857873508326e-15 6.932462163062949e-19
6.42384311029221 2.729061852253351e-23 4.653478775325039e-15 4.6527853784965554e-15 6.933968284844528e-19
6.447978639727206 2.4573606253750307e-23 4.205928818662155e-15 4.2052325912149636e-15 6.962274471909541e-19
6.472204850670314 2.230986121813865e-23 3.832821167667228e-15 3.832121550883449e-15 6.996167837812052e-19
6.496522083828205 2.0839146166434912e-23 3.593604454983854e-15 3.592899239773e-15 7.052152108538708e-19
6.520930681187647 1.960014125370052e-23 3.39264343456761e-15 3.3919322382501443e-15 7.111963174659542e-19
6.57002334288761 1.8333591756370955e-23 3.1973037871971534e-15 3.1965774207015246e-15 7.263664956293105e-19
