Dust emission spectrum from A.P. Jones, M. Kohler, N. Ysard, M. Bocchio, and L. Verstraete (2017), A&A, 602A, 46J 
inside the DustPedia framework.

lambda    nu*dP/dnu     j_nu    j_nu(carb.) j_nu(sil)
 (um)   (erg s-1 H-1) (Jy cm2 sr-1 H-1)
0.9927057738263894 3.9390340019812566e-23 1.0379578327885387e-15 1.0379578160488839e-15 1.673965476357166e-23
1.0001793341362166 4.0052591583041825e-23 1.0633541541122028e-15 1.0633541339604638e-15 2.0151738845431278e-23
1.0077091589558085 4.071648694483844e-23 1.0891180069315531e-15 1.089117982704208e-15 2.4227345086305892e-23
1.0114953028030835 4.10490050743904e-23 1.1021379043260668e-15 1.102137877774675e-15 2.655139207566072e-23
1.0152956718711033 4.138187939896076e-23 1.1152498630010128e-15 1.1152498339122564e-15 2.908875615833028e-23
1.0229392996569957 4.2048301897424827e-23 1.1417414250388554e-15 1.141741390158943e-15 3.487991203568914e-23
1.0267826658714554 4.2381080908360466e-23 1.1551010811349555e-15 1.1551010429580714e-15 3.817688424053079e-23
1.0306404723013447 4.2714129260237186e-23 1.1685523776991959e-15 1.1685523359275208e-15 4.1771675009036706e-23
1.03451277320114 4.304743009447955e-23 1.1820953795039201e-15 1.182095333814083e-15 4.568983685246689e-23
1.0383996230291617 4.338096681412821e-23 1.1957301543509187e-15 1.1957301043919284e-15 4.995899002377723e-23
1.0403485208654093 4.3547818517811954e-23 1.202581978753306e-15 1.2025819265188828e-15 5.223442336429876e-23
1.0423010764483396 4.3714723091337275e-23 1.2094567733627733e-15 1.2094567187537942e-15 5.460897896672423e-23
1.0462171883269815 4.4048682874812436e-23 1.2232753112783324e-15 1.2232752516062927e-15 5.967203970768923e-23
1.0471985131304309 4.4132202764453645e-23 1.2267443172129101e-15 1.2267442562065435e-15 6.100636710105257e-23
1.048180758391296 4.4215734142806465e-23 1.2302190742433535e-15 1.2302190118741101e-15 6.236924351699805e-23
1.0501480137395462 4.438283039718694e-23 1.2371858467522737e-15 1.2371857815692949e-15 6.51829788865222e-23
1.0521189612883777 4.454996971259638e-23 1.2441756392985875e-15 1.2441755711805574e-15 6.811802970473449e-23
1.0531058218030118 4.463343955317011e-23 1.2476759464514407e-15 1.2476758768187462e-15 6.96326943220382e-23
1.0540936079674168 4.471654146890641e-23 1.2511714308216218e-15 1.2511713596417155e-15 7.117990664834494e-23
1.058054026499678 4.5049029433792705e-23 1.2652102917957435e-15 1.2652102140914936e-15 7.770424962092191e-23
1.0590464539527713 4.513217034851297e-23 1.2687342446000263e-15 1.2687341651773999e-15 7.942262640981397e-23
1.06003981227728 4.5215318376145504e-23 1.2722638951741939e-15 1.272263813996861e-15 8.117733246879525e-23
1.0620293250338977 4.538163486711909e-23 1.2793402952893017e-15 1.2793402104906356e-15 8.479866616421281e-23
1.0660195594769086 4.571434334122507e-23 1.2935615321896335e-15 1.2935614396792884e-15 9.25103453391053e-23
1.070024785945596 4.604714075259783e-23 1.3078740989661599e-15 1.3078739980760106e-15 1.0089014954452164e-22
1.0740450607676866 4.6380013328768414e-23 1.3222780979943137e-15 1.3222779880014328e-15 1.0999288092551216e-22
1.07808044048254 4.671294763512835e-23 1.3367736378832014e-15 1.3367735180056358e-15 1.1987756555891316e-22
1.0861967418109137 4.737841927310813e-23 1.3660245222561227e-15 1.3660243800042489e-15 1.4225187374395762e-22
1.0902777775684922 4.7709725901841885e-23 1.3807451130406737e-15 1.3807449581571325e-15 1.5488354123251052e-22
1.0943741465085532 4.80410229262086e-23 1.395556757277046e-15 1.3955565886951635e-15 1.6858188224769963e-22
1.1026131145906286 4.8703542405974727e-23 1.4254537706400407e-15 1.4254535711146495e-15 1.9952539124038147e-22
1.1109141095355224 4.9365890043998916e-23 1.4557167772277678e-15 1.4557165413854085e-15 2.358423595138693e-22
1.1192775983109025 5.0027441053113347e-23 1.4863309925085466e-15 1.4863307140991012e-15 2.784094457489633e-22
1.1277040513999907 5.0685622795340757e-23 1.5172228018714434e-15 1.517222473634911e-15 3.282365321756904e-22
1.1361939428280308 5.1343327522843305e-23 1.5484811190276044e-15 1.5484807325422752e-15 3.8648532866845623e-22
1.1447477501889525 5.20004947518029e-23 1.5801077653890316e-15 1.5801073108985897e-15 4.544904421790494e-22
1.1533659546722406 5.265733748974669e-23 1.6121129135132117e-15 1.6121123797294182e-15 5.337837933253897e-22
1.1707974979042381 5.397205520518708e-23 1.6773364110343822e-15 1.6773356775190292e-15 7.335153533049224e-22
1.1884924949847024 5.528484309300121e-23 1.7441023128367498e-15 1.7441013098858106e-15 1.0029509392739068e-21
1.2064549276569216 5.660488260128241e-23 1.8127354530149506e-15 1.8127340884074088e-15 1.3646075415277022e-21
1.2246888378427687 5.792214628115562e-23 1.8829545560746525e-15 1.8829527084697817e-15 1.847604870893892e-21
1.2431983285522175 5.923505159499451e-23 1.954738296950834e-15 1.954735807481279e-15 2.4894695554318842e-21
1.2619875648066055 6.054491082158965e-23 2.0281597163516957e-15 2.0281563780361304e-15 3.3383155653978756e-21
1.3004222497298317 6.314419225504153e-23 2.179652383030408e-15 2.1796464643223074e-15 5.9187081007971315e-21
1.3400274889804893 6.572372184506085e-23 2.337788885136429e-15 2.33777858336154e-15 1.0301774888947472e-20
1.3808389325824078 6.828906123464751e-23 2.5030158458930124e-15 2.5029982348319247e-15 1.7611061087800098e-20
1.4228933163050095 7.086026739605722e-23 2.6763601777340688e-15 2.676330593413343e-15 2.9584320726201736e-20
1.466228494730424 7.348564422712529e-23 2.8600497934278176e-15 2.8600009330341694e-15 4.8860393647757536e-20
1.5108834753276823 7.615325945973592e-23 3.0541397174223477e-15 3.054060346288065e-15 7.937113428381402e-20
1.5568984535646726 7.885542326748074e-23 3.2588268624363495e-15 3.25869991195297e-15 1.2695048338057297e-19
1.6043148490894465 8.160777838094281e-23 3.475286324975626e-15 3.4750860260578764e-15 2.0029891775023928e-19
1.6531753430134553 8.442725151172713e-23 3.704853193125011e-15 3.704541816739789e-15 3.113763852211006e-19
1.7035239163302658 8.733557754334984e-23 3.949197603041054e-15 3.948720559787979e-15 4.77043253075247e-19
1.755405889504358 9.040141545893002e-23 4.212328327336461e-15 4.211607698715405e-15 7.206286210549387e-19
1.8088679632656115 9.362199792823513e-23 4.4952536777078084e-15 4.494179935564879e-15 1.0737421429302542e-18
1.8639582606462262 9.699448505347793e-23 4.799021081984247e-15 4.797442398844729e-15 1.5786831395187701e-18
1.9207263702978936 1.0053137198114699e-22 5.125503584569131e-15 5.123212405152223e-15 2.2911794169109092e-18
1.979223391128241 1.0425225206948649e-22 5.477087680512967e-15 5.473804014681202e-15 3.283665831764022e-18
2.039501978296691 1.0817527620029379e-22 5.85627654398133e-15 5.85162766509189e-15 4.648878889439117e-18
2.1016163906111602 1.1235476660970142e-22 6.267789201789342e-15 6.2612848351158424e-15 6.5043666734980924e-18
2.1656225393682647 1.1681728846910136e-22 6.715205648622223e-15 6.706209068633472e-15 8.99657998875201e-18
2.231578038680979 1.2155048879080715e-22 7.200094913626568e-15 7.187789411290019e-15 1.2305502336548178e-17
2.299542257339062 1.2655998250589854e-22 7.72515556781546e-15 7.708506030858256e-15 1.6649536957202163e-17
2.369576372248914 1.3186719356350465e-22 8.294245909536107e-15 8.271955153081547e-15 2.229075645456184e-17
2.4417434235010123 1.374978093799806e-22 8.911796046203555e-15 8.882257002064977e-15 2.953904413857766e-17
2.5161083711144245 1.4350758482361887e-22 9.584592016903412e-15 9.545834534815456e-15 3.875748208795567e-17
2.5927381535095444 1.4999425438065774e-22 1.0322923647061685e-14 1.0272557741055845e-14 5.036590600584069e-17
2.6717017477616296 1.5705365515359603e-22 1.1137954923523677e-14 1.1073113954842716e-14 6.484096868096375e-17
2.753070231689431 1.6483301319221885e-22 1.2045668893730228e-14 1.1962951261659101e-14 8.271763207112686e-17
2.836916847834745 1.737174934879035e-22 1.3081561701550359e-14 1.2976969208987738e-14 1.0459249256262158e-16
2.9233170693905177 1.8456875589953247e-22 1.432199574383406e-14 1.4190898984974954e-14 1.310967588591046e-16
2.967498994190263 1.915834793887308e-22 1.5091001761057422e-14 1.4944975268578062e-14 1.4602649247935622e-16
3.0123486681368425 1.9923053864345245e-22 1.5930543051340912e-14 1.5768101671572883e-14 1.6244137976803851e-16
3.0578761833420214 2.1252759423121997e-22 1.7250617895089368e-14 1.707010246249184e-14 1.8051543259752723e-16
3.1040917844459814 2.284953727556058e-22 1.8827011897108e-14 1.8626804124310008e-14 2.0020777279799335e-16
3.127460860933648 2.4371829281520282e-22 2.0232495093614513e-14 2.002173414625951e-14 2.10760947354999e-16
3.1510058709225794 2.63307860742084e-22 2.2023303817375594e-14 2.180153579879798e-14 2.217680185776116e-16
3.162844764501044 2.810880916206109e-22 2.3598791155839802e-14 2.3371324310779917e-14 2.2746684505988805e-16
3.1747281389236908 3.0138511636193066e-22 2.5397898055371287e-14 2.5164614660938526e-14 2.332833944327566e-16
3.1986289994194426 3.568340012858963e-22 3.029699346473657e-14 3.0051687500199466e-14 2.4530596453710507e-16
3.2227097969389145 4.856640715163719e-22 4.154575051088582e-14 4.128769783538597e-14 2.5805267549986564e-16
3.2348180950136065 6.068801942347577e-22 5.211014255201898e-14 5.184528568754321e-14 2.6485686447576633e-16
3.240889293275058 6.974265395879049e-22 5.9997354187578e-14 5.972890825888944e-14 2.6844592868857554e-16
3.2469718861334385 8.022984019183385e-22 6.914867910099787e-14 6.887651950291455e-14 2.7215959808329523e-16
3.2714166318528037 1.355918007091863e-21 1.177439818704463e-13 1.1745646958691575e-13 2.875122835305882e-16
3.2744851364798273 1.390587795994032e-21 1.2086787036357691e-13 1.205785470739846e-13 2.8932328959230706e-16
3.2775565192852394 1.4262100363701946e-21 1.2408037886894178e-13 1.2378923536166378e-13 2.9114350727796065e-16
3.283707930232385 1.3922930016525623e-21 1.21356933789654e-13 1.2106253162215876e-13 2.9440216749517934e-16
3.2898708863219004 1.2840896250104426e-21 1.1213562917013708e-13 1.118382581919307e-13 2.9737097820636943e-16
3.29141343181113 1.2585367119514132e-21 1.0995570279652184e-13 1.0965758625003048e-13 2.981165464913625e-16
3.292184975758714 1.24597555053112e-21 1.0888377815759444e-13 1.0858528832142222e-13 2.9848983617222006e-16
3.295272960557952 1.1672467163422963e-21 1.0209947023690054e-13 1.0179952776193103e-13 2.999424749695143e-16
3.3076538914384823 8.931569169062349e-22 7.841827021360448e-14 7.811249159447832e-14 3.0577861912616513e-16
3.310756385682612 8.369976881961608e-22 7.355647639642955e-14 7.324922639053058e-14 3.0725000589896386e-16
3.313861789986515 7.8503572790915e-22 6.905470065807099e-14 6.874597431422771e-14 3.087263438432758e-16
3.3200813396944477 7.123942736669012e-22 6.278249585951281e-14 6.247059557085361e-14 3.11900288659206e-16
3.345076488085796 5.848335016920095e-22 5.19287332622185e-14 5.1602692572207014e-14 3.2604069001148985e-16
3.3482140837626964 5.899641972014149e-22 5.24334348312531e-14 5.210547876786456e-14 3.2795606338855333e-16
3.3513546224236106 5.951449830107835e-22 5.294349349001377e-14 5.261361324345983e-14 3.2988024655394195e-16
3.3576445397418455 6.316727698550556e-22 5.6298432879430596e-14 5.596453020589096e-14 3.3390267353965475e-16
3.3702598118196083 7.646434583090812e-22 6.840562136424333e-14 6.806328114789049e-14 3.4234021635281044e-16
3.382922481734668 7.961411346345668e-22 7.149102811081137e-14 7.114047951969019e-14 3.505485911211909e-16
3.389271646505754 8.124071227292752e-22 7.308858162179898e-14 7.273387108630349e-14 3.5471053549546697e-16
3.395632727569191 8.301661731650868e-22 7.482645611968516e-14 7.446745640705675e-14 3.589997126283868e-16
3.421196662673239 9.159453542220996e-22 8.317964010543303e-14 8.280287721082578e-14 3.7676289460723454e-16
3.4276182099114902 9.00180361615245e-22 8.190141566588395e-14 8.152068071522838e-14 3.807349506555704e-16
3.4340518103208963 8.28815908452694e-22 7.554998016196418e-14 7.516548449926968e-14 3.8449566269450606e-16
3.4469541582030403 7.267500981699581e-22 6.649516068516773e-14 6.610343900690459e-14 3.91721678263136e-16
3.472904465399547 6.989244528702106e-22 6.443064883856774e-14 6.402229304076415e-14 4.083557978035995e-16
3.4990501388274233 6.562921924791015e-22 6.095605278226131e-14 6.053065738229316e-14 4.2539539996813757e-16
3.5253949054701885 5.030458343385342e-22 4.707439667647109e-14 4.6632419110541595e-14 4.4197756592949176e-16
3.5519380250092896 3.5770170928634214e-22 3.372530049812163e-14 3.326663351272728e-14 4.586669853943517e-16
3.578680990867387 3.010389515106559e-22 2.8596646852819725e-14 2.8119684347271573e-14 4.769625055481529e-16
3.605625307711299 2.7923580724501015e-22 2.6725210513859306e-14 2.6228965658666853e-14 4.962448551924503e-16
3.660119384959845 2.655885432763708e-22 2.580322689556373e-14 2.5266410499354755e-14 5.368163962089746e-16
3.715437065384467 2.566350913233709e-22 2.531018865509847e-14 2.4730513754366765e-14 5.796749007317025e-16
3.8285932144167436 2.569970982884754e-22 2.6117817214937143e-14 2.5445722042695703e-14 6.720951722414362e-16
3.94519561050918 2.6215393774407567e-22 2.745328760411992e-14 2.6679950632209903e-14 7.733369719100216e-16
4.06534921144712 2.6914534913787875e-22 2.904384897588996e-14 2.8160456550269486e-14 8.833924256204696e-16
4.189162171576248 2.7709429213452536e-22 3.081230485285717e-14 2.980973335439669e-14 1.0025714984604752e-15
4.316745939156006 2.856404215371728e-22 3.272996851246284e-14 3.1599416571177626e-14 1.130551941285202e-15
4.448215356677963 2.9462982020144506e-22 3.478819845189676e-14 3.352249895514851e-14 1.2656994967482577e-15
4.58368876423945 3.0404082251019512e-22 3.699273597614339e-14 3.5584454429747154e-14 1.408281546396232e-15
4.723288106065518 3.1394457528161627e-22 3.936106613682213e-14 3.780178303202934e-14 1.5592831047927789e-15
4.867139040275056 3.2446802494614093e-22 4.191940322043021e-14 4.020446519892667e-14 1.7149380215035395e-15
4.940699165968905 3.3021809287054858e-22 4.330706072047802e-14 4.151206050179193e-14 1.795000218686088e-15
5.015371051989984 3.3594911199497976e-22 4.4724552047822974e-14 4.2848224775348816e-14 1.8763272724741565e-15
5.091171501069577 3.4245405805852662e-22 4.6279587240863775e-14 4.4318955962831915e-14 1.9606312780318597e-15
5.129500256944802 3.4569829731082767e-22 4.7069732419109296e-14 4.5066543185876185e-14 2.003189233233092e-15
5.168117569889187 3.4900696701165205e-22 4.7877990535255644e-14 4.583158259461094e-14 2.0464079406447057e-15
5.20702561229733 3.529185124843702e-22 4.877907797420897e-14 4.668560751234688e-14 2.093470461862105e-15
5.246226572918644 3.5685056513102227e-22 4.969387517952895e-14 4.755294284387654e-14 2.1409323356523933e-15
5.265937586045735 3.5882463822726268e-22 5.015651997518247e-14 4.79917120039469e-14 2.1648079712355705e-15
5.285722656980489 3.608042777398511e-22 5.062272074844702e-14 4.843394342433823e-14 2.1887773241087885e-15
5.305582063971359 3.627896426383425e-22 5.109252301174041e-14 4.887968470960593e-14 2.2128383021344862e-15
5.3255160863122235 3.6489507673468336e-22 5.1582114088726876e-14 4.9344943129649436e-14 2.237170959077454e-15
5.365609099470188 3.700157244734756e-22 5.269976073702396e-14 5.041224739742265e-14 2.2875133396013166e-15
5.406003951863644 3.752229906941603e-22 5.3843741744147344e-14 5.150546913997578e-14 2.3382726041715785e-15
5.446702915881641 3.805221919036454e-22 5.501525250660718e-14 5.262582026149362e-14 2.389432245113551e-15
5.487708281020852 3.8613947756809263e-22 5.6247685226278415e-14 5.3806500141300865e-14 2.4411850849775654e-15
5.529022354014368 3.9383780569935344e-22 5.780097735056995e-14 5.5305827702952224e-14 2.495149647617716e-15
5.570647458961463 4.018213645709155e-22 5.941664590074311e-14 5.686708938775032e-14 2.54955651299277e-15
5.612585937458331 4.1011255103492984e-22 6.10991962808267e-14 5.849480726915795e-14 2.6043890116687543e-15
5.654840148729818 4.1907291848342923e-22 6.290415928863001e-14 6.024426885122182e-14 2.659890437408188e-15
5.67608639626678 4.251889989963904e-22 6.406199360144152e-14 6.137307050955191e-14 2.688923091889613e-15
5.686739436050992 4.283170255353111e-22 6.465440218658919e-14 6.195091657263994e-14 2.7034856139492452e-15
5.6974124697621304 4.314932347335538e-22 6.525609562975655e-14 6.253801704090187e-14 2.7180785888546766e-15
5.718818669136295 4.379949533281543e-22 6.648824441717535e-14 6.374088956040985e-14 2.747354856765487e-15
5.740305295436557 4.451276110499146e-22 6.7824868123179e-14 6.504790546344218e-14 2.7769626597368312e-15
5.7835210386641895 4.636234763997144e-22 7.117495019546589e-14 6.833675937680822e-14 2.8381908186576896e-15
5.827062130521658 4.8457126526659245e-22 7.495088047010737e-14 7.205040662043956e-14 2.9004738496678068e-15
5.8489554468988025 4.993889118021612e-22 7.753300946148896e-14 7.459892246588561e-14 2.9340869956033513e-15
5.870931020387893 5.151124122540013e-22 8.027465091140685e-14 7.730676856876107e-14 2.9678823426457906e-15
5.892989160043636 5.318132159278977e-22 8.318867382433433e-14 8.018681572350985e-14 3.001858100824469e-15
5.915130176081913 5.507304344480456e-22 8.647146500518894e-14 8.343439274841719e-14 3.0370722567717515e-15
5.95966208400165 6.038180842989715e-22 9.552063144491985e-14 9.240341020930633e-14 3.1172212356135172e-15
6.004529249263818 6.799046957539051e-22 1.0836684722426562e-13 1.0515947785195284e-13 3.2073693723127895e-15
6.027089341400364 7.327723778672706e-22 1.1723199409501718e-13 1.1397258247471677e-13 3.2594116203004297e-15
6.049734195844842 7.948083579048102e-22 1.2763452077365028e-13 1.2431998964308192e-13 3.3145311305683652e-15
6.095279466722835 9.738118062019164e-22 1.5755714086960906e-13 1.541072781351539e-13 3.4498627344551345e-15
6.141167624020661 1.24752684069114e-21 2.0336222412658732e-13 1.99736905118665e-13 3.625319007922308e-15
6.164241091010745 1.4222000034070447e-21 2.327071485190413e-13 2.289717979254871e-13 3.735350593554334e-15
6.187401249150058 1.6193885397209553e-21 2.659676249956324e-13 2.621192458109471e-13 3.848379184685303e-15
6.1990139391386085 1.715414651721544e-21 2.8226768479843983e-13 2.7836178449614233e-13 3.905900302297507e-15
6.204828454712694 1.7658445420254883e-21 2.908383549037317e-13 2.8690339674355105e-13 3.934958160180719e-15
6.210648424152782 1.8024971652448836e-21 2.971535811918143e-13 2.931938445967923e-13 3.9597365950220035e-15
6.233982942956859 1.926028136120526e-21 3.1871145270736925e-13 3.1466523575379587e-13 4.046216953573366e-15
6.239830258556775 1.9412639772524886e-21 3.215339268507139e-13 3.174756409612196e-13 4.058285889494277e-15
6.245683058788269 1.941726093888903e-21 3.2191213013814693e-13 3.178417543996639e-13 4.070375738483142e-15
6.257405133728602 1.9363567854024646e-21 3.216244739736651e-13 3.175328964517606e-13 4.091577521904416e-15
6.269149208991335 1.9096031277473604e-21 3.1777604588805087e-13 3.136764821981459e-13 4.099563689904896e-15
6.280915325867298 1.845443660824115e-21 3.0767567562547793e-13 3.035844728571962e-13 4.091202768281673e-15
6.304513850009849 1.6884374377804644e-21 2.8255696000535083e-13 2.7849727697139644e-13 4.0596830339543514e-15
6.32820103803542 1.4957800757469237e-21 2.512565803647473e-13 2.472441621210878e-13 4.0124182436594975e-15
6.3519772230701035 1.3196466857200381e-21 2.2250308485049072e-13 2.1853292783867106e-13 3.970157011819655e-15
6.375842739491607 1.1711237124934356e-21 1.9820280854849348e-13 1.9426978790132365e-13 3.933020647169871e-15
6.399797922933955 1.0528833928019001e-21 1.7886112982063044e-13 1.749465465693011e-13 3.914583251329274e-15
6.42384311029221 9.54237108439381e-22 1.6271240342477817e-13 1.5881253572731457e-13 3.899867697463625e-15
6.447978639727206 8.825510752899085e-22 1.5105422310315567e-13 1.4715447191571688e-13 3.899751187438785e-15
6.472204850670314 8.226260405412839e-22 1.4132667480232634e-13 1.3742413719794953e-13 3.902537604376803e-15
6.496522083828205 7.836315632738543e-22 1.3513326574687812e-13 1.3121609694312571e-13 3.91716880375239e-15
