Dust emission spectrum from A.P. Jones, M. Kohler, N. Ysard, M. Bocchio, and L. Verstraete (2017), A&A, 602A, 46J 
inside the DustPedia framework.

lambda    nu*dP/dnu     j_nu    j_nu(carb.) j_nu(sil)
 (um)   (erg s-1 H-1) (Jy cm2 sr-1 H-1)
0.9927057738263894 7.101211784568879e-23 1.8712096393116174e-15 1.8712096392985137e-15 1.3104048284953084e-26
1.0001793341362166 7.218502506545613e-23 1.9164364460387506e-15 1.916436446022963e-15 1.5787045444799974e-26
1.0077091589558085 7.335625175283239e-23 1.9621932219558065e-15 1.962193221936811e-15 1.899505145642223e-26
1.0114953028030835 7.394109064377767e-23 1.98526806040809e-15 1.985268060387264e-15 2.0825776337683772e-26
1.0152956718711033 7.452533675516088e-23 2.008472616842646e-15 2.008472616819821e-15 2.2825601907017392e-26
1.0229392996569957 7.569124900700625e-23 2.0552514751974512e-15 2.055251475170058e-15 2.739366175428331e-26
1.0267826658714554 7.627150086141869e-23 2.0787882521285766e-15 2.0787882520985798e-15 2.9996398958012396e-26
1.0306404723013447 7.685090337736851e-23 2.102449644304337e-15 2.1024496442715005e-15 3.283583144534094e-26
1.03451277320114 7.742940063943205e-23 2.1262346331185117e-15 2.1262346330825795e-15 3.593243842996158e-26
1.0383996230291617 7.80069370427433e-23 2.1501421872456786e-15 2.15014218720637e-15 3.930837342610963e-26
1.0403485208654093 7.829532763339262e-23 2.1621416005945678e-15 2.162141600553459e-15 4.1108501103520495e-26
1.0423010764483396 7.858345730365483e-23 2.174171262885201e-15 2.1741712628422135e-15 4.298759253145115e-26
1.0462171883269815 7.915890647016414e-23 2.1983208040055336e-15 2.1983208039585376e-15 4.699599182407005e-26
1.0471985131304309 7.930259499600776e-23 2.2043768871185162e-15 2.204376887070463e-15 4.8052757265604944e-26
1.048180758391296 7.94462123137137e-23 2.210440415826924e-15 2.2104404157777912e-15 4.913229302046358e-26
1.0501480137395462 7.973322993210272e-23 2.2225897425887127e-15 2.2225897425373515e-15 5.1361554465284057e-26
1.0521189612883777 8.001995255410485e-23 2.2347686489559174e-15 2.2347686489022303e-15 5.368762598760292e-26
1.0531058218030118 8.016298093055799e-23 2.240862996537737e-15 2.2408629964828484e-15 5.488828700407713e-26
1.0540936079674168 8.030521158102996e-23 2.2469444902427413e-15 2.2469444901866265e-15 5.611492506542103e-26
1.058054026499678 8.087332481045657e-23 2.2713422279676225e-15 2.2713422279063327e-15 6.128943175908778e-26
1.0590464539527713 8.101514661978212e-23 2.277459516218375e-15 2.277459516155722e-15 6.265280115349213e-26
1.06003981227728 8.115688417323134e-23 2.283583911086866e-15 2.283583911022821e-15 6.404520658844803e-26
1.0620293250338977 8.144010321142454e-23 2.295853950523603e-15 2.295853950456683e-15 6.691949154883458e-26
1.0660195594769086 8.200549399233677e-23 2.320478534819793e-15 2.3204785347467505e-15 7.304316303735723e-26
1.070024785945596 8.256944476101237e-23 2.3452148473052086e-15 2.3452148472255064e-15 7.970150076140934e-26
1.0740450607676866 8.31319035333006e-23 2.3700617442142174e-15 2.3700617441272782e-15 8.693877546738142e-26
1.07808044048254 8.369281874145904e-23 2.3950180718115622e-15 2.3950180717167593e-15 9.480270934014137e-26
1.0861967418109137 8.480882278778566e-23 2.4452257675372844e-15 2.445225767424664e-15 1.1262023928434601e-25
1.0902777775684922 8.536155587952189e-23 2.4704093116084755e-15 2.470409311485788e-15 1.2268892166771702e-25
1.0943741465085532 8.591250404666716e-23 2.4956957253195623e-15 2.4956957251859474e-15 1.33614955915285e-25
1.1026131145906286 8.700884974929155e-23 2.5465723195314287e-15 2.5465723193731083e-15 1.5832071031275152e-25
1.1109141095355224 8.80974729173857e-23 2.59784578466842e-15 2.597845784481064e-15 1.8735532124517401e-25
1.1192775983109025 8.917698324706962e-23 2.649476192032539e-15 2.649476191811106e-15 2.2143271336462783e-25
1.1277040513999907 9.02423651678442e-23 2.7013138356869245e-15 2.7013138354255477e-15 2.613767618771261e-25
1.1361939428280308 9.129876656906881e-23 2.7535109827038857e-15 2.753510982395748e-15 3.081368201620842e-25
1.1447477501889525 9.234583514466288e-23 2.8060573636822585e-15 2.8060573633194535e-15 3.628055007688442e-25
1.1533659546722406 9.338379762187983e-23 2.8589600848780202e-15 2.8589600844513814e-15 4.266392090613534e-25
1.1707974979042381 9.543575817271453e-23 2.965939901476675e-15 2.965939900888888e-15 5.877864298006839e-25
1.1884924949847024 9.744687369395562e-23 3.0742118143020356e-15 3.074211813496225e-15 8.058110027784524e-25
1.2064549276569216 9.943287632311772e-23 3.1842747802480694e-15 3.1842747791487322e-15 1.0993381176569995e-24
1.2246888378427687 1.013720684483392e-22 3.295440697535278e-15 3.2954406960427314e-15 1.4925469020636213e-24
1.2431983285522175 1.0325991227864276e-22 3.4075450199810934e-15 3.4075450179643737e-15 2.01671978518634e-24
1.2619875648066055 1.0509570141084009e-22 3.5205414471794826e-15 3.5205414444673595e-15 2.712122262325373e-24
1.3004222497298317 1.085805907005061e-22 3.748055598134785e-15 3.7480555932979376e-15 4.83684732312567e-24
1.3400274889804893 1.1181309513244425e-22 3.977185157431468e-15 3.977185148961403e-15 8.470063945426331e-24
1.3808389325824078 1.1478122424744522e-22 4.2071045919809615e-15 4.207104577410213e-15 1.4570748157812722e-23
1.4228933163050095 1.1749942810086833e-22 4.43790013545996e-15 4.437900110824519e-15 2.4635441150218727e-23
1.466228494730424 1.2003314609396852e-22 4.671671294457062e-15 4.671671253499123e-15 4.0957940086727814e-23
1.5108834753276823 1.223330997653513e-22 4.906190245819921e-15 4.9061901788305115e-15 6.698940857324105e-23
1.5568984535646726 1.243594175095317e-22 5.139352419710202e-15 5.139352311811886e-15 1.0789831520688659e-22
1.6043148490894465 1.2611580265139648e-22 5.3706709459949334e-15 5.37067077453774e-15 1.7145719169938003e-22
1.6531753430134553 1.2760759845717546e-22 5.59970163834378e-15 5.599701369848234e-15 2.6849554609474344e-22
1.7035239163302658 1.2885254140344554e-22 5.826538988691702e-15 5.826538574248327e-15 4.144433739564257e-22
1.755405889504358 1.2995310584954718e-22 6.055271880605574e-15 6.055271249707505e-15 6.308980704071182e-22
1.8088679632656115 1.3088399360992401e-22 6.28438579231234e-15 6.28438484482101e-15 9.474913329364362e-22
1.8639582606462262 1.3162807401695883e-22 6.512596070179537e-15 6.51259466578856e-15 1.4043909774913342e-21
1.9207263702978936 1.3219778340768144e-22 6.739987720999509e-15 6.739985665751544e-15 2.055247964042402e-21
1.979223391128241 1.3262206164833762e-22 6.967548859608237e-15 6.96754588880243e-15 2.970805807546111e-21
2.039501978296691 1.3293554507989142e-22 7.196721301374654e-15 7.196717058339675e-15 4.243034979054828e-21
2.1016163906111602 1.3323522253911955e-22 7.432620033199252e-15 7.432614042820177e-15 5.990379073995329e-21
2.1656225393682647 1.335773517976363e-22 7.678652698369603e-15 7.678644335390873e-15 8.362978730120744e-21
2.231578038680979 1.3396600502230781e-22 7.935533299418042e-15 7.935521750635256e-15 1.1548782787412851e-20
2.299542257339062 1.344349140412756e-22 8.205837296685393e-15 8.205821516300634e-15 1.5780384758925814e-20
2.369576372248914 1.3505861653083791e-22 8.494981560133358e-15 8.494960217359192e-15 2.134277416667142e-20
2.4417434235010123 1.3592515700103437e-22 8.809866005892775e-15 8.809837425216278e-15 2.858067649358925e-20
2.5161083711144245 1.3718528640047996e-22 9.162338021970839e-15 9.162300114147034e-15 3.7907823806083846e-20
2.5927381535095444 1.3908567075917727e-22 9.57217171801545e-15 9.572121902670045e-15 4.981534540451735e-20
2.6717017477616296 1.419209019876841e-22 1.0064768040570206e-14 1.0064703163127615e-14 6.487744259134155e-20
2.753070231689431 1.461345000006262e-22 1.0679218724865608e-14 1.067913496532672e-14 8.375953888823432e-20
2.836916847834745 1.5273074481812495e-22 1.1501182880014144e-14 1.1501075650885408e-14 1.0722912873760913e-19
2.9233170693905177 1.639207149683655e-22 1.2719768146354578e-14 1.2719632005413052e-14 1.3614094152375396e-19
2.967498994190263 1.734204399252232e-22 1.3660301883361855e-14 1.3660149182855197e-14 1.5270050665925242e-19
3.0123486681368425 1.8451534494827824e-22 1.4753911053726748e-14 1.4753740004636822e-14 1.7104908992515925e-19
3.0578761833420214 2.0932754519912951e-22 1.6990873633183853e-14 1.6990682230968788e-14 1.9140221506679897e-19
3.1040917844459814 2.412996172726462e-22 1.988202522603715e-14 1.9881811438630526e-14 2.1378740662309195e-19
3.127460860933648 2.7511304037678317e-22 2.283875853271783e-14 2.2838532665082182e-14 2.2586763564849743e-19
3.1510058709225794 3.2016246960046635e-22 2.6778673903089415e-14 2.6778435373506433e-14 2.3852958298096383e-19
3.162844764501044 3.6209201522093025e-22 3.039948721103822e-14 3.039924210145224e-14 2.4510958597187277e-19
3.1747281389236908 4.1085209478784745e-22 3.4622743635178255e-14 3.4622491792703536e-14 2.51842474714668e-19
3.1986289994194426 5.468543847118604e-22 4.6430675496372924e-14 4.6430409684638634e-14 2.6581173428869907e-19
3.2227097969389145 8.674279665130232e-22 7.420344224845596e-14 7.420316155637714e-14 2.806920787881722e-19
3.2348180950136065 1.1714262258711226e-21 1.0058523609637625e-13 1.0058494744096414e-13 2.8865541214194766e-19
3.240889293275058 1.3987025048084324e-21 1.203258620379284e-13 1.20325569179915e-13 2.9285801341476173e-19
3.2469718861334385 1.6616254892575373e-21 1.4321255965109472e-13 1.43212262442968e-13 2.9720812675543394e-19
3.2714166318528037 3.0640974282052826e-21 2.660773218947607e-13 2.660770066437637e-13 3.152509969410676e-19
3.2744851364798273 3.1517710665009973e-21 2.7394736080594087e-13 2.7394704341272545e-13 3.1739321540688465e-19
3.2775565192852394 3.2419628845425832e-21 2.8205101123596167e-13 2.820506916881464e-13 3.1954781540601314e-19
3.283707930232385 3.1552315775724677e-21 2.7502058057894337e-13 2.7502025714850027e-13 3.2343044318349637e-19
3.2898708863219004 2.880172798912873e-21 2.5151670306672187e-13 2.5151637607543047e-13 3.269912913971847e-19
3.29141343181113 2.8153071834231194e-21 2.4596746126014977e-13 2.459671333738563e-13 3.2788629343801044e-19
3.292184975758714 2.7834345339559818e-21 2.4323981973985037e-13 2.4323949140533554e-13 3.283345147913828e-19
3.295272960557952 2.5822500738748866e-21 2.2587029877281624e-13 2.2586996868983095e-13 3.300829853325368e-19
3.3076538914384823 1.8852878585263683e-21 1.6552635927900342e-13 1.6552602215724588e-13 3.3712175753469477e-19
3.310756385682612 1.7434389586207316e-21 1.5321574768596804e-13 1.5321540878656285e-13 3.388994051830537e-19
3.313861789986515 1.6125615423874586e-21 1.4184698943430764e-13 1.418466487500373e-13 3.406842702974331e-19
3.3200813396944477 1.4290220348348401e-21 1.259380841501833e-13 1.2593773963840077e-13 3.4451178254008153e-19
3.345076488085796 1.1016167324383407e-21 9.781512394635944e-14 9.781476239685803e-14 3.615495014378359e-19
3.3482140837626964 1.113897293004465e-21 9.899831447147818e-14 9.899795061349728e-14 3.6385798091683e-19
3.3513546224236106 1.1263136270443498e-21 1.0019571681419328e-13 1.001953506354497e-13 3.661787435822027e-19
3.3576445397418455 1.2170412842545866e-21 1.0846995520928499e-13 1.0846958418160847e-13 3.710276765225635e-19
3.3702598118196083 1.5516748614768212e-21 1.3881408635774052e-13 1.3881370515054725e-13 3.812071932265929e-19
3.382922481734668 1.6278993290166735e-21 1.4618035876983183e-13 1.4617996761177797e-13 3.911580538763669e-19
3.389271646505754 1.6673888597558841e-21 1.5000740806177906e-13 1.5000701184715227e-13 3.962146268513123e-19
3.395632727569191 1.709940350310651e-21 1.5412429550337158e-13 1.541238940761368e-13 4.0142723473790043e-19
3.421196662673239 1.914252526700479e-21 1.7383879453932153e-13 1.7383837145893006e-13 4.2308039145192244e-19
3.4276182099114902 1.8730901760937418e-21 1.7041999985054917e-13 1.7041957187404943e-13 4.279764998110712e-19
3.4340518103208963 1.6926963728128747e-21 1.5429623886561843e-13 1.5429580622800854e-13 4.3263760988140346e-19
3.4469541582030403 1.4357871006396489e-21 1.3136963339549104e-13 1.3136919174823134e-13 4.416472597172081e-19
3.472904465399547 1.3638130855234882e-21 1.257236910712652e-13 1.2572322873412014e-13 4.62337145067034e-19
3.4990501388274233 1.2537184863765352e-21 1.164446737374502e-13 1.1644419006608168e-13 4.836713684666106e-19
3.5253949054701885 8.6183224961065e-22 8.064917830021166e-14 8.06486736626107e-14 5.046376009455591e-19
3.5519380250092896 4.935110413501314e-22 4.652985360869677e-14 4.6529327692769184e-14 5.259159275652479e-19
3.578680990867387 3.474959836690068e-22 3.3009748000680406e-14 3.3009198701624737e-14 5.49299055671031e-19
3.605625307711299 2.8846375782801014e-22 2.760840283928258e-14 2.7607828766912767e-14 5.740723698062655e-19
3.660119384959845 2.4546692332632516e-22 2.384831303266774e-14 2.3847686297695224e-14 6.267349725113448e-19
3.715437065384467 2.1506542048848944e-22 2.1210452310642522e-14 2.1209769150125206e-14 6.831605173176177e-19
3.8285932144167436 1.998772080092235e-22 2.0312900102697257e-14 2.031209240549449e-14 8.076972027598181e-19
3.94519561050918 1.9731925709773064e-22 2.0663669451433595e-14 2.066272084439331e-14 9.486070402875245e-19
4.06534921144712 2.0005370290492832e-22 2.158807333230849e-14 2.1586966105047577e-14 1.1072272609077162e-18
4.189162171576248 2.059620018477131e-22 2.29025431745649e-14 2.2901257694011097e-14 1.2854805538051539e-18
4.316745939156006 2.1429139314787916e-22 2.4554474862057008e-14 2.4552990162863264e-14 1.4846991937378993e-18
4.448215356677963 2.248349698425719e-22 2.6547223035542724e-14 2.6545518457417617e-14 1.7045781251060637e-18
4.58368876423945 2.3770109955276846e-22 2.89211624425851e-14 2.891921481910415e-14 1.947623480964008e-18
4.723288106065518 2.5323565852054575e-22 3.174963445151964e-14 3.174741671730339e-14 2.217734216239637e-18
4.867139040275056 2.7205709904323948e-22 3.5148212942298776e-14 3.514570061143035e-14 2.5123308684217003e-18
4.940699165968905 2.833837706302408e-22 3.71648871665336e-14 3.716221670016866e-14 2.6704663649412425e-18
5.015371051989984 2.9524673914249618e-22 3.930588794628487e-14 3.930305196348756e-14 2.8359827973153676e-18
5.091171501069577 3.095338474386561e-22 4.18307167324888e-14 4.1827704691896395e-14 3.0120405924057683e-18
5.129500256944802 3.1692392147293654e-22 4.3151858996670544e-14 4.3148755923675544e-14 3.1030729950110285e-18
5.168117569889187 3.246413679966781e-22 4.453543285219996e-14 4.453223612715019e-14 3.1967250497800288e-18
5.20702561229733 3.3391540730687876e-22 4.615253978929016e-14 4.614924226804195e-14 3.297521248215635e-18
5.246226572918644 3.434597798405009e-22 4.782911699275484e-14 4.782571621566303e-14 3.400777091812631e-18
5.265937586045735 3.483362239653254e-22 4.869044907761032e-14 4.868699573580855e-14 3.453341801789099e-18
5.285722656980489 3.532837553446793e-22 4.95675522579899e-14 4.9564045719125857e-14 3.5065388640430724e-18
5.305582063971359 3.5830358901934973e-22 5.0460741475494127e-14 5.045718110125784e-14 3.560374236283466e-18
5.3255160863122235 3.636632413331393e-22 5.1407979993003854e-14 5.1404364865389214e-14 3.6151276146372665e-18
5.365609099470188 3.767213867868452e-22 5.365481960648339e-14 5.365109086155904e-14 3.7287449243375646e-18
5.406003951863644 3.9029640518131915e-22 5.600674629604754e-14 5.6002901107844426e-14 3.845188203103213e-18
5.446702915881641 4.044125989670564e-22 5.846928700195141e-14 5.846532248684782e-14 3.964515103592013e-18
5.487708281020852 4.196175749634763e-22 6.112433108525607e-14 6.112024395354112e-14 4.08713171495189e-18
5.529022354014368 4.401799237506614e-22 6.460230438697409e-14 6.459808854567006e-14 4.215841304023559e-18
5.570647458961463 4.619378033643953e-22 6.830596207839371e-14 6.830161423568537e-14 4.347842708328475e-18
5.612585937458331 4.849741948111451e-22 7.225219868332749e-14 7.224771547392262e-14 4.483209404859956e-18
5.654840148729818 5.101986507433967e-22 7.658241747366878e-14 7.65777949906737e-14 4.6224829950707715e-18
5.67608639626678 5.270495429982749e-22 7.940902641153422e-14 7.940433093151106e-14 4.6954800231453006e-18
5.686739436050992 5.357282617141157e-22 8.086811504235008e-14 8.086338270266579e-14 4.732339684314003e-18
5.6974124697621304 5.445810853978311e-22 8.235873132245435e-14 8.235396188039801e-14 4.769442056329747e-18
5.718818669136295 5.628254162527113e-22 8.543768268483219e-14 8.543283830399364e-14 4.844380838538872e-18
5.740305295436557 5.828508824993407e-22 8.881000247940894e-14 8.880508172837316e-14 4.9207510357793866e-18
5.7835210386641895 6.342228379977112e-22 9.736517067223722e-14 9.736009063270253e-14 5.080039534672586e-18
5.827062130521658 6.9315562858346765e-22 1.0721358939135462e-13 1.072083445873159e-13 5.244804038702039e-18
5.8489554468988025 7.340680770244335e-22 1.139683036932541e-13 1.1396297013672515e-13 5.333556528960064e-18
5.870931020387893 7.7790265554289455e-22 1.212276439690416e-13 1.2122222031950128e-13 5.4236495402913896e-18
5.892989160043636 8.248923046314914e-22 1.2903345538426063e-13 1.2902794028033918e-13 5.5151039214534575e-18
5.915130176081913 8.781851730504177e-22 1.3788589427713709e-13 1.3788028424870178e-13 5.610028435341298e-18
5.95966208400165 1.0262617338101878e-21 1.6234884543929913e-13 1.6234302274719347e-13 5.8226921056518035e-18
6.004529249263818 1.2386221212197373e-21 1.9741821907845552e-13 1.9741215709851795e-13 6.061979937550981e-18
6.027089341400364 1.3857592297966244e-21 2.2169956558332424e-13 2.2169336658351544e-13 6.19899980878101e-18
6.049734195844842 1.5593747413308074e-21 2.504126256811824e-13 2.504062811556221e-13 6.344525560316427e-18
6.095279466722835 2.059741566236055e-21 3.3325432084477496e-13 3.332476237398582e-13 6.697104916761523e-18
6.141167624020661 2.8282798499600118e-21 4.610444136188944e-13 4.610372637785287e-13 7.14984036576639e-18
6.164241091010745 3.318906419604504e-21 5.430552997169817e-13 5.430478693345224e-13 7.430382459292057e-18
6.187401249150058 3.8773717859487494e-21 6.368177493163951e-13 6.368100265758168e-13 7.722740578119286e-18
6.1990139391386085 4.150170573352312e-21 6.829013836876849e-13 6.828935115738265e-13 7.872113858586485e-18
6.204828454712694 4.293827501382003e-21 7.072025294536473e-13 7.071945814289335e-13 7.948024713502075e-18
6.210648424152782 4.398879101653627e-21 7.251843184500213e-13 7.251763046357626e-13 8.013814258660019e-18
6.233982942956859 4.7561562011417225e-21 7.870297550389386e-13 7.870215055864517e-13 8.249452486912456e-18
6.239830258556775 4.80210140409904e-21 7.953779288588051e-13 7.953696424951789e-13 8.286363626458892e-18
6.245683058788269 4.806597696516311e-21 7.968693978375335e-13 7.968610744048106e-13 8.323432722790022e-18
6.257405133728602 4.7979702938292636e-21 7.969319928679215e-13 7.969236020419569e-13 8.390825964494253e-18
6.269149208991335 4.7292753743490316e-21 7.869962122177637e-13 7.869877849398916e-13 8.427277872062624e-18
6.280915325867298 4.55526913304192e-21 7.594626365015516e-13 7.594542112701065e-13 8.425231445161587e-18
6.304513850009849 4.12553391896996e-21 6.904006606697148e-13 6.903922746732095e-13 8.385996505357699e-18
6.32820103803542 3.592367702494525e-21 6.03434982840521e-13 6.034266745073081e-13 8.308333212920624e-18
6.3519772230701035 3.1035360210954313e-21 5.232812283096583e-13 5.232729865177507e-13 8.241791907596972e-18
6.375842739491607 2.6923537171057057e-21 4.556581534842059e-13 4.556499657928935e-13 8.187691312394969e-18
6.399797922933955 2.363475074128095e-21 4.0150108259992915e-13 4.014929051788975e-13 8.177421031639538e-18
6.42384311029221 2.0902215874686896e-21 3.56415586000019e-13 3.564074093680757e-13 8.17663194325324e-18
6.447978639727206 1.891822683624348e-21 3.2379747045226964e-13 3.237892590252571e-13 8.21142701246615e-18
6.472204850670314 1.7268386359349123e-21 2.966698722256391e-13 2.966616182789139e-13 8.2539467252161e-18
6.496522083828205 1.6205270081443262e-21 2.794516161736475e-13 2.794432900342515e-13 8.326139395984897e-18
