Dust emission spectrum from A.P. Jones, M. Kohler, N. Ysard, M. Bocchio, and L. Verstraete (2017), A&A, 602A, 46J 
inside the DustPedia framework.

lambda    nu*dP/dnu     j_nu    j_nu(carb.) j_nu(sil)
 (um)   (erg s-1 H-1) (Jy cm2 sr-1 H-1)
0.9927057738263894 4.341517241673084e-25 1.1440144525064983e-17 1.1440144520974545e-17 4.0904353252883416e-27
1.0001793341362166 4.412931597464442e-25 1.1715868962555749e-17 1.1715868957627334e-17 4.9284093509281006e-27
1.0077091589558085 4.4842385120702525e-25 1.1994809172726986e-17 1.1994809166796499e-17 5.930495131652378e-27
1.0114953028030835 4.519842946794992e-25 1.2135471308588262e-17 1.2135471302085844e-17 6.502418730493289e-27
1.0152956718711033 4.555410071775343e-25 1.2276920556170951e-17 1.2276920549043735e-17 7.12721486752273e-27
1.0229392996569957 4.62638354623337e-25 1.2562061972772072e-17 1.2562061964217524e-17 8.554551818849301e-27
1.0267826658714554 4.661703548200585e-25 1.2705524948975319e-17 1.2705524939607426e-17 9.367892455123767e-27
1.0306404723013447 4.69697071242784e-25 1.2849744075435146e-17 1.2849744065179882e-17 1.0255266839620124e-26
1.03451277320114 4.73218165909948e-25 1.299471318477629e-17 1.2994713173553198e-17 1.1223087944070815e-26
1.0383996230291617 4.767333027915659e-25 1.3140426034615982e-17 1.3140426022337685e-17 1.2278293797897829e-26
1.0403485208654093 4.784885326029631e-25 1.3213559391340759e-17 1.3213559378499775e-17 1.2840987570320176e-26
1.0423010764483396 4.80242147873739e-25 1.328687630907768e-17 1.3286876295649286e-17 1.3428387789443826e-26
1.0462171883269815 4.837443692217286e-25 1.3434057620306773e-17 1.3434057605625292e-17 1.468148183690056e-26
1.0471985131304309 4.846188509046272e-25 1.347096641730165e-17 1.3470966402289789e-17 1.5011861372895994e-26
1.048180758391296 4.854928928495185e-25 1.3507920399196451e-17 1.3507920383847082e-17 1.5349366561369793e-26
1.0501480137395462 4.872396370415967e-25 1.358196350998798e-17 1.358196349394164e-17 1.604634261578924e-26
1.0521189612883777 4.889845609180987e-25 1.3656186134631562e-17 1.3656186117857947e-17 1.6773616257909277e-26
1.0531058218030118 4.898549816479332e-25 1.3693326886077477e-17 1.3693326868928453e-17 1.7149028593078748e-26
1.0540936079674168 4.907205226482338e-25 1.373038876189143e-17 1.3730388744358858e-17 1.753257084082707e-26
1.058054026499678 4.941777006152198e-25 1.387907177252792e-17 1.3879071753377312e-17 1.9150608699857536e-26
1.0590464539527713 4.950407235274482e-25 1.3916350877008985e-17 1.3916350857432033e-17 1.957694848852754e-26
1.06003981227728 4.959032278125569e-25 1.3953673111347966e-17 1.395367309133559e-17 2.0012377359501075e-26
1.0620293250338977 4.9762666058718e-25 1.4028446545911022e-17 1.402844652499978e-17 2.0911243896128453e-26
1.0660195594769086 5.0106708409593235e-25 1.417850629932195e-17 1.4178506276495552e-17 2.28264049610532e-26
1.070024785945596 5.044986551623789e-25 1.4329244189019725e-17 1.4329244164110758e-17 2.49089609195378e-26
1.0740450607676866 5.0792106034859845e-25 1.4480653311766396e-17 1.44806532845936e-17 2.7172790575219723e-26
1.07808044048254 5.113339888085023e-25 1.4632726706349956e-17 1.4632726676717105e-17 2.9632856510713154e-26
1.0861967418109137 5.181241281616732e-25 1.4938663541338284e-17 1.4938663506130827e-17 3.520745065977275e-26
1.0902777775684922 5.214869572668473e-25 1.5092112858540903e-17 1.5092112820182837e-17 3.8358073462602083e-26
1.0943741465085532 5.248388535505614e-25 1.5246186778309477e-17 1.5246186736532192e-17 4.1777285222817286e-26
1.1026131145906286 5.31508668887587e-25 1.555617925854888e-17 1.5556179209039046e-17 4.9509832487559634e-26
1.1109141095355224 5.381312460275763e-25 1.5868582182851883e-17 1.586858212425293e-17 5.859895365618275e-26
1.1192775983109025 5.446981290436179e-25 1.6183152560200063e-17 1.6183152490931336e-17 6.926872209971009e-26
1.1277040513999907 5.5117872144350105e-25 1.6498976987164523e-17 1.6498976905386733e-17 8.17777863651527e-26
1.1361939428280308 5.576045070110465e-25 1.6816986600783628e-17 1.6816986504359363e-17 9.642426136422765e-26
1.1447477501889525 5.63973372191586e-25 1.713711973560919e-17 1.713711962205786e-17 1.135513374486822e-25
1.1533659546722406 5.702867420397379e-25 1.7459420948251626e-17 1.745942081469788e-17 1.3355375526351495e-25
1.1707974979042381 5.827676450891587e-25 1.8111175988474578e-17 1.811117580440903e-17 1.840655466658928e-25
1.1884924949847024 5.9500003426725125e-25 1.8770803675028087e-17 1.877080342259374e-17 2.524343497192562e-25
1.2064549276569216 6.070803061985859e-25 1.9441361651166406e-17 1.9441361306647266e-17 3.4451913425446244e-25
1.2246888378427687 6.188762882039964e-25 2.0118659292489108e-17 2.0118658824558864e-17 4.67930247573962e-25
1.2431983285522175 6.303606359508982e-25 2.080170511892702e-17 2.0801704486407545e-17 6.325194753629132e-25
1.2619875648066055 6.415293995986298e-25 2.149023043332759e-17 2.149022958235263e-17 8.509749632287728e-25
1.3004222497298317 6.627354388349165e-25 2.287673382123112e-17 2.2876732302294023e-17 1.5189370935126902e-24
1.3400274889804893 6.824143585218476e-25 2.427343822936241e-17 2.4273435567112535e-17 2.6622498665227188e-24
1.3808389325824078 7.0049647259226845e-25 2.5675470407565317e-17 2.5675465823580645e-17 4.583984679407803e-24
1.4228933163050095 7.170737253674204e-25 2.708354954894743e-17 2.7083541791208715e-17 7.757738706208413e-24
1.466228494730424 7.325493253395905e-25 2.851070530371457e-17 2.851069239328282e-17 1.291043173805704e-23
1.5108834753276823 7.466270070724842e-25 2.9943605993725085e-17 2.994358485634365e-17 2.1137381432650884e-23
1.5568984535646726 7.590685064804076e-25 3.1369723689859555e-17 3.136968960857551e-17 3.408128405659068e-23
1.6043148490894465 7.699018531766385e-25 3.2786450446284687e-17 3.278639623057381e-17 5.421571088249304e-23
1.6531753430134553 7.791657146087979e-25 3.41915025546102e-17 3.4191417560382204e-17 8.499422799447658e-23
1.7035239163302658 7.86974894577008e-25 3.558594853024657e-17 3.558581718449356e-17 1.3134575301450588e-22
1.755405889504358 7.939620292364557e-25 3.699531395171194e-17 3.6995113769850744e-17 2.001818611982501e-22
1.8088679632656115 7.999811376635571e-25 3.8411038332417826e-17 3.841073732833773e-17 3.0100408008629893e-22
1.8639582606462262 8.0493694034060815e-25 3.9826072010513364e-17 3.982562529153054e-17 4.467189828082399e-22
1.9207263702978936 8.089155328914924e-25 4.124184701494501e-17 4.124119241140815e-17 6.546035368579334e-22
1.979223391128241 8.121049728057713e-25 4.2665458573241505e-17 4.266451108137015e-17 9.474918713516005e-22
2.039501978296691 8.147291367946151e-25 4.410692813646362e-17 4.410557299285693e-17 1.3551436066953544e-21
2.1016163906111602 8.1739423115632765e-25 4.559890861990501e-17 4.559699263580979e-17 1.915984095231155e-21
2.1656225393682647 8.204596533990517e-25 4.7163869074304396e-17 4.7161190214447437e-17 2.6788598569422786e-21
2.231578038680979 8.239674173238044e-25 4.880806049803257e-17 4.8804355395002985e-17 3.7051030295641e-21
2.299542257339062 8.281429039677589e-25 5.054941253041993e-17 5.054434167056555e-17 5.070859854393456e-21
2.369576372248914 8.334624322018e-25 5.2423519316900115e-17 5.24166495660218e-17 6.869750878318025e-21
2.4417434235010123 8.404873065782862e-25 5.44754239316573e-17 5.446620848879472e-17 9.215442862564188e-21
2.5161083711144245 8.50164776251189e-25 5.678084916225642e-17 5.676860426838862e-17 1.2244893867804426e-20
2.5927381535095444 8.64030619851621e-25 5.946442518268781e-17 5.944830380526156e-17 1.6121377426248793e-20
2.6717017477616296 8.839141086032414e-25 6.268555474408581e-17 6.266451805863427e-17 2.1036685451541583e-20
2.753070231689431 9.125546280043368e-25 6.668767793234943e-17 6.666046372102047e-17 2.7214211328988223e-20
2.836916847834745 9.561145984975149e-25 7.199892113841271e-17 7.196400816049048e-17 3.491297792224429e-20
2.9233170693905177 1.0281131574010044e-24 7.977857461688771e-17 7.973415101553441e-17 4.442360135327155e-20
2.967498994190263 1.0880791007577147e-24 8.570782657301666e-17 8.565794087622748e-17 4.988569678920112e-20
3.0123486681368425 1.1579018965378735e-24 9.258623772049969e-17 9.25302916966878e-17 5.594602381189866e-20
3.0578761833420214 1.311451671866185e-24 1.0644900847381986e-16 1.0638633137021922e-16 6.267710360063768e-20
3.1040917844459814 1.5087717880453052e-24 1.2431614724177377e-16 1.2424605530851048e-16 7.009193326325545e-20
3.127460860933648 1.7161169712855312e-24 1.4246500662931463e-16 1.423909086501567e-16 7.409797915791109e-20
3.1510058709225794 1.9919599143753683e-24 1.6660930008957618e-16 1.6653099973987096e-16 7.830034970517617e-20
3.162844764501044 2.248160721131296e-24 1.8874465665499385e-16 1.886641712311544e-16 8.048542383948427e-20
3.1747281389236908 2.5459609449121528e-24 2.1454960122909161e-16 2.1446687903395956e-16 8.272219513216438e-20
3.1986289994194426 3.376014486373352e-24 2.8664053442754737e-16 2.865531686695797e-16 8.736575796757292e-20
3.2227097969389145 5.330684168455299e-24 4.560091789855757e-16 4.559168639892735e-16 9.231499630215302e-20
3.2348180950136065 7.18362134979001e-24 6.168260822044221e-16 6.167311182823873e-16 9.496392203504496e-20
3.240889293275058 8.56876754648921e-24 7.371434154792993e-16 7.370470539435467e-16 9.636153575292762e-20
3.2469718861334385 1.0171175000724237e-23 8.766355691641517e-16 8.765377611919205e-16 9.780797223136675e-20
3.2714166318528037 1.871696804081924e-23 1.6253271467311046e-15 1.6252233376236498e-15 1.0380910745442877e-19
3.2744851364798273 1.925131794570935e-23 1.6732965789669468e-15 1.6731920562945976e-15 1.0452267234865916e-19
3.2775565192852394 1.9801001877966132e-23 1.7226886309506624e-15 1.722583390522592e-15 1.0524042807046677e-19
3.283707930232385 1.9273069459351755e-23 1.6799054592142633e-15 1.6797989226371153e-15 1.0653657714850134e-19
3.2898708863219004 1.7597767678520681e-23 1.5367593602391823e-15 1.5366516324325884e-15 1.0772780659317612e-19
3.29141343181113 1.7202684076446332e-23 1.5029622891804972e-15 1.5028542619175828e-15 1.0802726291427393e-19
3.292184975758714 1.700855314496945e-23 1.4863498137094892e-15 1.4862416364703896e-15 1.081772390999138e-19
3.295272960557952 1.5783211262419524e-23 1.3805628972594633e-15 1.3804541344559246e-15 1.087628035385565e-19
3.3076538914384823 1.153796949394008e-23 1.013022003598394e-15 1.0129108824872044e-15 1.1112111118940531e-19
3.310756385682612 1.0673880845319972e-23 9.380349259376618e-16 9.37923209044988e-16 1.117168926742589e-19
3.313861789986515 9.876595410154884e-24 8.687825474970642e-16 8.686702323276249e-16 1.1231516943914941e-19
3.3200813396944477 8.758663212824634e-24 7.718910120705795e-16 7.717774152588256e-16 1.1359681175393416e-19
3.345076488085796 6.765807411970526e-24 6.007518505408469e-16 6.006325536720134e-16 1.1929686883361258e-19
3.3482140837626964 6.84089363350253e-24 6.079886749421357e-16 6.078686061854514e-16 1.2006875668452724e-19
3.3513546224236106 6.916807702832856e-24 6.153121912143772e-16 6.151913463749354e-16 1.2084483944159845e-19
3.3576445397418455 7.470172276437413e-24 6.657861674159186e-16 6.656637018517633e-16 1.2246556415528766e-19
3.3702598118196083 9.510082801365622e-24 8.5077968847261e-16 8.506538213058327e-16 1.258671667770625e-19
3.382922481734668 9.975691452238915e-24 8.95786446663308e-16 8.956572497795522e-16 1.2919688375555194e-19
3.389271646505754 1.0216890732104682e-23 9.191672885458882e-16 9.190363990861604e-16 1.3088945972806315e-19
3.395632727569191 1.0476831107577772e-23 9.443219544295084e-16 9.44189320271511e-16 1.326341579972566e-19
3.421196662673239 1.1724833469232951e-23 1.0647659533086606e-15 1.0646260687488489e-15 1.3988455981152612e-19
3.4276182099114902 1.1474606441493667e-23 1.0439980162207602e-15 1.0438564880101161e-15 1.415282106439728e-19
3.4340518103208963 1.0375836794765056e-23 9.458002145153322e-16 9.456571192992746e-16 1.4309521605790203e-19
3.4469541582030403 8.811110314164242e-24 8.061866075153556e-16 8.060404790602425e-16 1.4612845511261732e-19
3.472904465399547 8.37453854018566e-24 7.720104077800134e-16 7.718573240288791e-16 1.5308375113409323e-19
3.4990501388274233 7.705766618785605e-24 7.157073055648758e-16 7.15547041585009e-16 1.602639798670182e-19
3.5253949054701885 5.31994337975571e-24 4.97833612486398e-16 4.976662756263005e-16 1.6733686009738448e-19
3.5519380250092896 3.0772246616550902e-24 2.9013092115663296e-16 2.8995639432965784e-16 1.7452682697515038e-19
3.578680990867387 2.189540269397616e-24 2.079913896184795e-16 2.0780896354937207e-16 1.8242606910751004e-19
3.605625307711299 1.8321449244004225e-24 1.7535164733918671e-16 1.7516084762196242e-16 1.907997172242688e-19
3.660119384959845 1.5751191500829801e-24 1.5303053481055263e-16 1.5282190747718736e-16 2.0862733336527746e-19
3.715437065384467 1.3950679560289772e-24 1.3758614603988306e-16 1.373583740576632e-16 2.277719822198244e-19
3.8285932144167436 1.3140392180961783e-24 1.3354172611307619e-16 1.332715484484529e-16 2.701776646232802e-19
3.94519561050918 1.3114456624678968e-24 1.3733722735095702e-16 1.370188311132034e-16 3.183962377536265e-19
4.06534921144712 1.3427612544074575e-24 1.448992345905566e-16 1.4452627610562436e-16 3.7295848493221644e-19
4.189162171576248 1.3952973567772588e-24 1.551541433287068e-16 1.5471953819305342e-16 4.346051356534119e-19
4.316745939156006 1.4647083182786765e-24 1.6783288891402455e-16 1.6732899807737909e-16 5.038908366454172e-19
4.448215356677963 1.5500034018714509e-24 1.830155070812301e-16 1.824346890639929e-16 5.808180172372257e-19
4.58368876423945 1.6521556048355604e-24 2.0101825661630673e-16 2.003518922200704e-16 6.663643962363508e-19
4.723288106065518 1.7736304996918635e-24 2.223704210784123e-16 2.2160841102611857e-16 7.620100522938224e-19
4.867139040275056 1.918584399257266e-24 2.478700730472355e-16 2.470030643794398e-16 8.670086677956789e-19
4.940699165968905 2.0042023271118944e-24 2.6284480999163114e-16 2.619211746288311e-16 9.236353628000547e-19
5.015371051989984 2.094087239905344e-24 2.787836324307e-16 2.7780053837772707e-16 9.830940529729316e-19
5.091171501069577 2.1999369138059882e-24 2.9730169618688167e-16 2.9625518540343824e-16 1.046510783443469e-18
5.129500256944802 2.2547765010209843e-24 3.070067957914384e-16 3.0592741578156014e-16 1.079380009878343e-18
5.168117569889187 2.311910398994962e-24 3.1715591568045796e-16 3.1604267687453094e-16 1.1132388059270006e-18
5.20702561229733 2.378949485374852e-24 3.288095079708902e-16 3.2765986416052194e-16 1.1496438103681603e-18
5.246226572918644 2.4479396605017665e-24 3.4089229448558887e-16 3.3970529969100236e-16 1.1869947945865867e-18
5.265937586045735 2.4831863744914405e-24 3.47099874773365e-16 3.45893843632644e-16 1.2060311407209715e-18
5.285722656980489 2.518945110800673e-24 3.534211282735137e-16 3.521958169011162e-16 1.2253113723974793e-18
5.305582063971359 2.5552242576549792e-24 3.5985827278575245e-16 3.5861343477253767e-16 1.2448380132147944e-18
5.3255160863122235 2.5936817543966886e-24 3.666467340758799e-16 3.6538202725537247e-16 1.264706820507424e-18
5.365609099470188 2.6853011607695648e-24 3.8245598583892916e-16 3.811500501721007e-16 1.3059356668285674e-18
5.406003951863644 2.7804132795512476e-24 3.9898369310792097e-16 3.9763544057781973e-16 1.3482525301013262e-18
5.446702915881641 2.8791744309795248e-24 4.162661513602727e-16 4.1487446999054176e-16 1.391681369730987e-18
5.487708281020852 2.984988624782413e-24 4.348136109475501e-16 4.333772475694973e-16 1.4363633780526283e-18
5.529022354014368 3.1243298696605173e-24 4.58537289763935e-16 4.570540441546352e-16 1.483245609299768e-18
5.570647458961463 3.271351760472995e-24 4.837292546063529e-16 4.821978634314595e-16 1.5313911748933673e-18
5.612585937458331 3.42656833892178e-24 5.104954017650061e-16 5.089145720916073e-16 1.5808296733988661e-18
5.654840148729818 3.5956265023397216e-24 5.397148139853875e-16 5.380830680902159e-16 1.6317458951717838e-18
5.67608639626678 3.70655948002884e-24 5.584565693219776e-16 5.56798182033324e-16 1.6583872886534843e-18
5.686739436050992 3.763612530196454e-24 5.681168473228184e-16 5.664450020379343e-16 1.6718452848840845e-18
5.6974124697621304 3.8217554749092835e-24 5.77976247757918e-16 5.762908521929083e-16 1.6853955650095436e-18
5.718818669136295 3.941411250397943e-24 5.983117215707382e-16 5.965989463172404e-16 1.712775253498154e-18
5.740305295436557 4.072169362496733e-24 6.204835268141109e-16 6.187428533882842e-16 1.7406734258268674e-18
5.7835210386641895 4.404062468602922e-24 6.761066745254377e-16 6.743079253264298e-16 1.7987491990079357e-18
5.827062130521658 4.782834470399957e-24 7.39783145214019e-16 7.379243232857449e-16 1.8588219282739193e-18
5.8489554468988025 5.0433352171081784e-24 7.830068867456512e-16 7.811158799035761e-16 1.8910068420750906e-18
5.870931020387893 5.3218222690089344e-24 8.293479533678719e-16 8.274242754745573e-16 1.9236778933139204e-18
5.892989160043636 5.6197150546549274e-24 8.790617244283984e-16 8.771048825088806e-16 1.9568419195176877e-18
5.915130176081913 5.956593243080477e-24 9.35258543838055e-16 9.332673485060311e-16 1.991195332023547e-18
5.95966208400165 6.887354205365945e-24 1.0895407736010067e-15 1.0874732441067749e-15 2.0675294942320885e-18
6.004529249263818 8.215497645705324e-24 1.3094299595273083e-15 1.3072773592134882e-15 2.1526003138208277e-18
6.027089341400364 9.13294911029288e-24 1.4611274503606932e-15 1.458926686498755e-15 2.2007638619378917e-18
6.049734195844842 1.0213549751218287e-23 1.6401457218328678e-15 1.6378940620335715e-15 2.251659799296435e-18
6.095279466722835 1.3321401785221156e-23 2.1553260745942886e-15 2.1529529487469507e-15 2.3731258473385065e-18
6.141167624020661 1.8085062543031358e-23 2.9480877062186092e-15 2.945561387307175e-15 2.5263189114351745e-18
6.164241091010745 2.112558094185365e-23 3.456668323730799e-15 3.4540480968514626e-15 2.620226879338e-18
6.187401249150058 2.4582622456323186e-23 4.037438545785438e-15 4.034721121426154e-15 2.71742435928204e-18
6.1990139391386085 2.6271959266214868e-23 4.322992758486217e-15 4.320225700424452e-15 2.7670580617645473e-18
6.204828454712694 2.716120351887836e-23 4.473508035749848e-15 4.4707158274927036e-15 2.7922082571439963e-18
6.210648424152782 2.7812530723934536e-23 4.585079669460507e-15 4.582265449436454e-15 2.8142200240534593e-18
6.233982942956859 3.002935594725673e-23 4.9691380298807626e-15 4.966244523123809e-15 2.893506756955787e-18
6.239830258556775 3.0315746575559854e-23 5.0212341835378524e-15 5.018327800147415e-15 2.906383390436528e-18
6.245683058788269 3.0346321200454506e-23 5.03101283452889e-15 5.028093522108553e-15 2.919312420336242e-18
6.257405133728602 3.029871791775882e-23 5.032548384594433e-15 5.029605324020375e-15 2.943060574057239e-18
6.269149208991335 2.988038304750898e-23 4.9723787296362105e-15 4.969421612009953e-15 2.9571176262559755e-18
6.280915325867298 2.8811848073877707e-23 4.8035629644690735e-15 4.800603864552895e-15 2.9590999161799542e-18
6.304513850009849 2.6169597837318222e-23 4.379434999496074e-15 4.376482917442466e-15 2.952082053606689e-18
6.32820103803542 2.288923990947193e-23 3.844864789986185e-15 3.8419314060933015e-15 2.9333838928847734e-18
6.3519772230701035 1.9882226779818745e-23 3.3523039462588592e-15 3.3493855022656174e-15 2.9184439932426205e-18
6.375842739491607 1.7352407573099472e-23 2.9367485940011152e-15 2.933841305063873e-15 2.907288937243815e-18
6.399797922933955 1.533307926036986e-23 2.6047441709957995e-15 2.601833642260726e-15 2.9105287350737216e-18
6.42384311029221 1.3655528336494812e-23 2.328481900373909e-15 2.3255652036766035e-15 2.9166966973053254e-18
6.447978639727206 1.2441456674924687e-23 2.1294343465447344e-15 2.1264999972920185e-15 2.934349252715791e-18
6.472204850670314 1.1432933391784057e-23 1.964171300040719e-15 1.9612168222189136e-15 2.95447782180467e-18
6.496522083828205 1.0787806523070195e-23 1.8603022058192643e-15 1.8573180523729034e-15 2.9841534463614076e-18
6.520930681187647 1.0248084131737385e-23 1.7738696316727366e-15 1.7708540263821192e-15 3.0156052906177336e-18
6.57002334288761 9.723428607182871e-24 1.6957263761195917e-15 1.692633652695545e-15 3.0927234240468213e-18
