Dust emission spectrum from A.P. Jones, M. Kohler, N. Ysard, M. Bocchio, and L. Verstraete (2017), A&A, 602A, 46J 
inside the DustPedia framework.

lambda    nu*dP/dnu     j_nu    j_nu(carb.) j_nu(sil)
 (um)   (erg s-1 H-1) (Jy cm2 sr-1 H-1)
0.9927057738263894 3.2024918329825226e-20 8.438747877813702e-13 8.438747357355326e-13 5.204583753067159e-20
1.0001793341362166 3.256191698838052e-20 8.644846270100337e-13 8.644845643934054e-13 6.261662822814157e-20
1.0077091589558085 3.310123729534802e-20 8.854190598250513e-13 8.854189845917083e-13 7.523334302638002e-20
1.0114953028030835 3.337174697639605e-20 8.96008739057389e-13 8.960086566337388e-13 8.242365036483392e-20
1.0152956718711033 3.3642812214863126e-20 9.066804663912185e-13 9.066803761204067e-13 9.027081187709856e-20
1.0229392996569957 3.4186313375068454e-20 9.282641245511506e-13 9.282640163813263e-13 1.0816982409163671e-19
1.0267826658714554 3.445813349270158e-20 9.391602667562073e-13 9.391601484023403e-13 1.1835386696847543e-19
1.0306404723013447 3.473046572503867e-20 9.501391929198138e-13 9.501390634665623e-13 1.2945325149763017e-19
1.03451277320114 3.5003303273462356e-20 9.61201237242744e-13 9.61201095696709e-13 1.4154603534320618e-19
1.0383996230291617 3.5276639612602524e-20 9.723467415950129e-13 9.723465868784663e-13 1.5471654640129143e-19
1.0403485208654093 3.541349286584521e-20 9.779509002903325e-13 9.779507385562011e-13 1.6173413167637244e-19
1.0423010764483396 3.555046849689939e-20 9.835760558280948e-13 9.835758867722418e-13 1.6905585300913558e-19
1.0462171883269815 3.582478396711966e-20 9.948895380914137e-13 9.948893534291471e-13 1.8466226668314486e-19
1.0471985131304309 3.589343819316391e-20 9.977311026986029e-13 9.977309139244936e-13 1.887741092395841e-19
1.048180758391296 3.596212238957524e-20 1.0005779565039097e-12 1.0005777635304365e-12 1.9297347306041897e-19
1.0501480137395462 3.6099580356821626e-20 1.0062875551530139e-12 1.0062873535111341e-12 2.0164187942664643e-19
1.0521189612883777 3.623715720735409e-20 1.0120183812846776e-12 1.0120181706026203e-12 2.1068205715357577e-19
1.0531058218030118 3.6305899739400625e-20 1.0148892461036084e-12 1.0148890307570264e-12 2.1534658200837943e-19
1.0540936079674168 3.637437601486296e-20 1.0177571562730424e-12 1.0177569361622043e-12 2.201108384017787e-19
1.058054026499678 3.6648562563887e-20 1.029281631993781e-12 1.029281391798427e-12 2.401953539613795e-19
1.0590464539527713 3.671717919841828e-20 1.0321759900847288e-12 1.0321757446009737e-12 2.4548375511652256e-19
1.06003981227728 3.678582369041707e-20 1.0350756561354294e-12 1.035075405252066e-12 2.508833633887572e-19
1.0620293250338977 3.692319597399672e-20 1.04089093702138e-12 1.040890674996256e-12 2.62025123933094e-19
1.0660195594769086 3.7198271900985924e-20 1.0525854705136503e-12 1.0525851847699893e-12 2.857436608156332e-19
1.070024785945596 3.747378632787857e-20 1.0643656419787486e-12 1.0643653304731887e-12 3.115055601039793e-19
1.0740450607676866 3.7749735570978685e-20 1.0762318716200219e-12 1.0762315321427258e-12 3.394772963750066e-19
1.07808044048254 3.802611628584379e-20 1.0881845906844662e-12 1.0881842208463945e-12 3.698380718644254e-19
1.0861967418109137 3.8579741162285446e-20 1.1123391894142129e-12 1.1123387509014942e-12 4.385127188273032e-19
1.0902777775684922 3.8856027107292136e-20 1.1245143107916772e-12 1.1245138335344879e-12 4.7725718919061025e-19
1.0943741465085532 3.913271836324183e-20 1.136776992162012e-12 1.1367764729082154e-12 5.192537963429678e-19
1.1026131145906286 3.9687311254393813e-20 1.1615669965558925e-12 1.1615663825028192e-12 6.140530733055045e-19
1.1109141095355224 4.0243512520112034e-20 1.1867132608748415e-12 1.1867125356659495e-12 7.252088917079017e-19
1.1192775983109025 4.080089002790342e-20 1.2122072625306053e-12 1.2122064071612676e-12 8.553693377356521e-19
1.1277040513999907 4.135746811045022e-20 1.2379939356415343e-12 1.23799292806037e-12 1.0075811637615475e-18
1.1361939428280308 4.191560662953266e-20 1.2641472337285175e-12 1.2641460483834598e-12 1.1853450573822834e-18
1.1447477501889525 4.2475324527449547e-20 1.2906721454013718e-12 1.2906707527236794e-12 1.3926776924104774e-18
1.1533659546722406 4.303683988931829e-20 1.3175798217272197e-12 1.3175781875433554e-12 1.6341838647520094e-18
1.1707974979042381 4.416697357997584e-20 1.3726153778885046e-12 1.3726131363233442e-12 2.2415651606056414e-18
1.1884924949847024 4.530469066893116e-20 1.4292527817274276e-12 1.4292497224939055e-12 3.0592335220456098e-18
1.2064549276569216 4.645764223897553e-20 1.4877765182074214e-12 1.4877723637289282e-12 4.1544784931387184e-18
1.2246888378427687 4.761870413067941e-20 1.5480064475166884e-12 1.5480008334226912e-12 5.614093996860052e-18
1.2431983285522175 4.878707257894144e-20 1.6099582358468874e-12 1.6099506862137121e-12 7.549633175517178e-18
1.2619875648066055 4.996461785700859e-20 1.6737364677784944e-12 1.6737263640350789e-12 1.010374341569702e-17
1.3004222497298317 5.23408477307803e-20 1.8067354955691637e-12 1.8067176546263911e-12 1.7840942772918208e-17
1.3400274889804893 5.475570037735206e-20 1.9476570125137245e-12 1.9476260886125567e-12 3.0923901167895904e-17
1.3808389325824078 5.721916316759189e-20 2.0972681350106946e-12 2.097215494858953e-12 5.264015174156739e-17
1.4228933163050095 5.975250135827315e-20 2.256824889771461e-12 2.2567368452009135e-12 8.80445705478215e-17
1.466228494730424 6.239919901340597e-20 2.4285670776289847e-12 2.4284223109366577e-12 1.4476669232793313e-16
1.5108834753276823 6.515569738150853e-20 2.6130805772592014e-12 2.6128464740816232e-12 2.341031775775101e-16
1.5568984535646726 6.802117108564004e-20 2.811084011258828e-12 2.8107112941717264e-12 3.727170871016084e-16
1.6043148490894465 7.101276630202979e-20 3.0240952581275613e-12 3.023509927016524e-12 5.853311110370728e-16
1.6531753430134553 7.41485519624074e-20 3.253801285540642e-12 3.2528956486981546e-12 9.056368424869667e-16
1.7035239163302658 7.744926261950157e-20 3.5021517106521098e-12 3.500770889506026e-12 1.380821146084291e-15
1.755405889504358 8.097270370187783e-20 3.772989745933773e-12 3.7709140294665076e-12 2.0757164672644307e-15
1.8088679632656115 8.471975094843763e-20 4.0678129120613276e-12 4.0647354093489335e-12 3.077502712395163e-15
1.8639582606462262 8.868954034796908e-20 4.388115196928244e-12 4.383613253574593e-12 4.5019433536529965e-15
1.9207263702978936 9.289341087122168e-20 4.736088854856068e-12 4.729588538202959e-12 6.5003166531083736e-15
1.979223391128241 9.734817807182064e-20 5.114369198299638e-12 5.105101588926641e-12 9.267609372996872e-15
2.039501978296691 1.0206834480815611e-19 5.525666072497442e-12 5.5126148214602246e-12 1.3051251037218046e-14
2.1016163906111602 1.0709845941197239e-19 5.9745624301147616e-12 5.956400389352236e-12 1.81620407625244e-14
2.1656225393682647 1.1246026570790286e-19 6.4647435445911534e-12 6.439760121536691e-12 2.4983423054461992e-14
2.231578038680979 1.181423032132229e-19 6.998209591025417e-12 6.964227785560422e-12 3.3981805464992313e-14
2.299542257339062 1.241496696830322e-19 7.578031325578188e-12 7.532314289651494e-12 4.571703592668996e-14
2.369576372248914 1.3049837333743597e-19 8.208149199246349e-12 8.147295927522152e-12 6.0853271724196e-14
2.4417434235010123 1.3720793009250775e-19 8.893007782596843e-12 8.812841580288816e-12 8.016620230802458e-14
2.5161083711144245 1.4432031663960355e-19 9.638872791574274e-12 9.534319745519063e-12 1.0455304605520825e-13
2.5927381535095444 1.5190559312405479e-19 1.0454466045090386e-11 1.0319429209527566e-11 1.3503683556281807e-13
2.6717017477616296 1.600214621379361e-19 1.1348426309120984e-11 1.1175665287573266e-11 1.7276102154771756e-13
2.753070231689431 1.6875212665098456e-19 1.2332069913568422e-11 1.211308266147272e-11 2.1898725209569963e-13
2.836916847834745 1.783329873531444e-19 1.3429125246067426e-11 1.315402733398902e-11 2.7509791207840554e-13
2.9233170693905177 1.8927744585758902e-19 1.468737631547875e-11 1.4344864995070557e-11 3.425113204081941e-13
2.967498994190263 1.9572569952950719e-19 1.5417283816475725e-11 1.5037142774740643e-11 3.8014104173508e-13
3.0123486681368425 2.025877272459879e-19 1.6198985017759906e-11 1.5777620989557193e-11 4.213640282027087e-13
3.0578761833420214 2.1297705844607257e-19 1.7287100383191608e-11 1.682049728116962e-11 4.666031020219849e-13
3.1040917844459814 2.2490444347910017e-19 1.8531135147416635e-11 1.801547017897268e-11 5.156649684439509e-13
3.127460860933648 2.3527041979847994e-19 1.9531187254190556e-11 1.8989319709397594e-11 5.418675447929642e-13
3.1510058709225794 2.481994716334247e-19 2.0759624705808712e-11 2.0190492891014208e-11 5.691318147945051e-13
3.162844764501044 2.595478771302966e-19 2.179037935056485e-11 2.120715668197908e-11 5.832226685857648e-13
3.1747281389236908 2.7230862730513666e-19 2.294760550679786e-11 2.2350018429789094e-11 5.975870770087678e-13
3.1986289994194426 3.064866339430989e-19 2.602224987568803e-11 2.5395025607373855e-11 6.272242683141711e-13
3.2227097969389145 3.843796847108604e-19 3.2881457408594874e-11 3.222287732262207e-11 6.585800859728071e-13
3.2348180950136065 4.569990436431466e-19 3.924050502325126e-11 3.8565203806516806e-11 6.75301216734446e-13
3.240889293275058 5.111301056997417e-19 4.397087327035443e-11 4.328675198538636e-11 6.841212849680686e-13
3.2469718861334385 5.738297974180316e-19 4.945737449479408e-11 4.876412707073518e-11 6.932474240589069e-13
3.2714166318528037 9.01896991144591e-19 7.831811541621062e-11 7.75871940760209e-11 7.309213401896693e-13
3.2744851364798273 9.224333527309632e-19 8.017656649807403e-11 7.944121672015583e-11 7.35349777918209e-13
3.2775565192852394 9.435109687928805e-19 8.208552421407536e-11 8.134572489477176e-11 7.397993193035972e-13
3.283707930232385 9.235258538478286e-19 8.049761491684386e-11 7.974988141682966e-11 7.477335000142264e-13
3.2898708863219004 8.59616515791619e-19 7.506768761763836e-11 7.431275473097e-11 7.549328866683583e-13
3.29141343181113 8.445132139693685e-19 7.378334146404801e-11 7.302660130633517e-11 7.567401577128132e-13
3.292184975758714 8.37087218765109e-19 7.315169144990489e-11 7.239404654216273e-11 7.576449077421693e-13
3.295272960557952 7.907940605518418e-19 6.917102744297078e-11 6.840986722847624e-11 7.611602144945709e-13
3.3076538914384823 6.291670473480681e-19 5.5240227774685744e-11 5.446495885357389e-11 7.752689211118528e-13
3.310756385682612 5.959196601145298e-19 5.237021682562849e-11 5.159139383088602e-11 7.788229947424606e-13
3.313861789986515 5.651065558157138e-19 4.9708901982972754e-11 4.892651414805269e-11 7.823878349200629e-13
3.3200813396944477 5.221667958898294e-19 4.601796492858506e-11 4.522789956042833e-11 7.900653681567194e-13
3.345076488085796 4.479219224989992e-19 3.9772034208806404e-11 3.8947727655520504e-11 8.243065532859042e-13
3.3482140837626964 4.511287107242511e-19 4.0094344650869787e-11 3.9265398401418457e-11 8.289462494513422e-13
3.3513546224236106 4.54363014870997e-19 4.041967252791207e-11 3.958606681035652e-11 8.336057175555447e-13
3.3576445397418455 4.763367332230805e-19 4.245396173958914e-11 4.161061034651543e-11 8.43351393073725e-13
3.3702598118196083 5.553676873976584e-19 4.9683641871560214e-11 4.881985027662518e-11 8.637915949350416e-13
3.382922481734668 5.74697784750429e-19 5.1606095574589953e-11 5.0722471996759926e-11 8.836235778300119e-13
3.389271646505754 5.846494221384154e-19 5.259825500611819e-11 5.170458618213934e-11 8.93668823978842e-13
3.395632727569191 5.955987338200651e-19 5.368388156700361e-11 5.2779860463245197e-11 9.040211037584107e-13
3.421196662673239 6.485476199694273e-19 5.889648041951992e-11 5.79496437548898e-11 9.468366646301065e-13
3.4276182099114902 6.394911694944202e-19 5.818304233325519e-11 5.7226689580731255e-11 9.563527525239385e-13
3.4340518103208963 5.974478834918768e-19 5.4459832738834355e-11 5.349449835436507e-11 9.653343844692854e-13
3.4469541582030403 5.372107445297198e-19 4.9152954873008324e-11 4.817041970754847e-11 9.825351654598471e-13
3.472904465399547 5.213913190167965e-19 4.806468116130878e-11 4.7042463886039605e-11 1.0222172752691898e-12
3.4990501388274233 4.970155869347669e-19 4.616253049782694e-11 4.509979104928344e-11 1.062739448543501e-12
3.5253949054701885 4.0806346673609573e-19 3.818606614160658e-11 3.7084096885893584e-11 1.1019692557130053e-12
3.5519380250092896 3.234181779145077e-19 3.0492935743816424e-11 2.935164724469395e-11 1.1412884991224856e-12
3.578680990867387 2.912774927984558e-19 2.7669374863064322e-11 2.6485004730953272e-11 1.1843701321110567e-12
3.605625307711299 2.7980388358610223e-19 2.6779580187839935e-11 2.554990297818995e-11 1.2296772096499935e-12
3.660119384959845 2.745499559939083e-19 2.667387200247554e-11 2.5349311490588228e-11 1.3245605118873096e-12
3.715437065384467 2.7198321260525713e-19 2.6823870370029617e-11 2.5399725114970525e-11 1.4241452550590867e-12
3.8285932144167436 2.7762970042025647e-19 2.821464451273603e-11 2.657800867501608e-11 1.6366358377199618e-12
3.94519561050918 2.8599635430169024e-19 2.9950113417861555e-11 2.8084070056471412e-11 1.8660433613901348e-12
4.06534921144712 2.9529036521094646e-19 3.1865194025064077e-11 2.975363679545032e-11 2.1115572296137618e-12
4.189162171576248 3.049492326862642e-19 3.3909715894156095e-11 3.153662163932586e-11 2.373094254830234e-12
4.316745939156006 3.146967279603249e-19 3.605937122514745e-11 3.3410318773181416e-11 2.649052451966024e-12
4.448215356677963 3.2435997419685785e-19 3.8298564430774e-11 3.5363681509209005e-11 2.9348829215649917e-12
4.58368876423945 3.3387043692030496e-19 4.062211390320236e-11 3.739173904746247e-11 3.2303748557398803e-12
4.723288106065518 3.432183880265782e-19 4.303129512070502e-11 3.94944322096897e-11 3.536862911015326e-12
4.867139040275056 3.523593929694253e-19 4.5522807601282667e-11 4.16777552041133e-11 3.845052397169366e-12
4.940699165968905 3.5698326171069873e-19 4.681722814370465e-11 4.281659742313533e-11 4.000630720569299e-12
5.015371051989984 3.6143064374373886e-19 4.8116881577101974e-11 4.396026872282918e-11 4.156612854272795e-12
5.091171501069577 3.661603057732305e-19 4.948327349730948e-11 4.516669009432602e-11 4.316583402983467e-12
5.129500256944802 3.6844946633154354e-19 5.016749554481006e-11 4.5771004367978984e-11 4.396491176831068e-12
5.168117569889187 3.707314188227429e-19 5.0858226451750387e-11 4.638099796540543e-11 4.4772284863449604e-12
5.20702561229733 3.733432734229435e-19 5.1602112105838366e-11 4.7036073831841596e-11 4.566038273996759e-12
5.246226572918644 3.7591285028056873e-19 5.234842840549999e-11 4.769342068044794e-11 4.6550077250520375e-12
5.265937586045735 3.77181693846761e-19 5.272246982582166e-11 4.802293254466862e-11 4.699537281153035e-12
5.285722656980489 3.784398679161112e-19 5.309708597027669e-11 4.835299733271336e-11 4.744088637563341e-12
5.305582063971359 3.7968734841560343e-19 5.347226686272727e-11 4.8683611170279275e-11 4.788655692447999e-12
5.3255160863122235 3.8098911309907543e-19 5.385719115286553e-11 4.9023551700548964e-11 4.833639452316578e-12
5.365609099470188 3.840624827185781e-19 5.470038057473785e-11 4.977361544644428e-11 4.92676512829355e-12
5.406003951863644 3.871173450762962e-19 5.555055758818796e-11 5.053053807073459e-11 5.0200195174533526e-12
5.446702915881641 3.90155231482638e-19 5.640798101527354e-11 5.1294627407020463e-11 5.113353608253067e-12
5.487708281020852 3.932993645088213e-19 5.729064273332802e-11 5.208346849231672e-11 5.207174241011298e-12
5.529022354014368 3.9750805355155263e-19 5.833963542225818e-11 5.303466005954601e-11 5.304975362712182e-12
5.570647458961463 4.017791788279509e-19 5.941040796624586e-11 5.400752649049251e-11 5.4028814757533416e-12
5.612585937458331 4.0612159535675786e-19 6.050461758843271e-11 5.500377479509969e-11 5.500842793333017e-12
5.654840148729818 4.107258217628657e-19 6.165123389414716e-11 5.605186963486842e-11 5.599364259278746e-12
5.67608639626678 4.1386210293151807e-19 6.235540301479701e-11 5.670437890058099e-11 5.6510241142160094e-12
5.686739436050992 4.154546709990878e-19 6.271283135546909e-11 5.703596516919804e-11 5.676866186271046e-12
5.6974124697621304 4.170641664394395e-19 6.307394169394705e-11 5.7371226394803046e-11 5.70271529914398e-12
5.718818669136295 4.2033594233000988e-19 6.380758193353587e-11 5.805315046329942e-11 5.754431470236425e-12
5.740305295436557 4.2390573059030993e-19 6.459125329505469e-11 5.878465201405456e-11 5.806601281000151e-12
5.7835210386641895 4.3314270343906294e-19 6.649557650576246e-11 6.058121934911867e-11 5.9143571566437905e-12
5.827062130521658 4.4345805729880475e-19 6.859171029842785e-11 6.256838683629569e-11 6.0233234621321585e-12
5.8489554468988025 4.507977055615349e-19 6.998894437681574e-11 6.390643134735076e-11 6.082513029464985e-12
5.870931020387893 4.585226967373142e-19 7.145576099493195e-11 6.53139489954299e-11 6.1418119995020365e-12
5.892989160043636 4.666642937191641e-19 7.29977792069955e-11 6.679656532833646e-11 6.2012138786590276e-12
5.915130176081913 4.758629930182394e-19 7.47163540894216e-11 6.84534504295041e-11 6.262903659917478e-12
5.95966208400165 5.017784126055701e-19 7.937852817568424e-11 7.297308957502806e-11 6.405438600656156e-12
6.004529249263818 5.387851336472966e-19 8.587445656618234e-11 7.930750708179233e-11 6.566949484389999e-12
6.027089341400364 5.64492536839122e-19 9.03098803178304e-11 8.364863117494492e-11 6.6612491428854915e-12
6.049734195844842 5.945135688369797e-19 9.547012647422138e-11 8.870877414156397e-11 6.761352332657429e-12
6.095279466722835 6.810302321255691e-19 1.1018676867142266e-10 1.031760557903168e-10 7.0107128811059e-12
6.141167624020661 8.125708071506598e-19 1.3245903912652228e-10 1.2512059787696996e-10 7.338441249552336e-12
6.164241091010745 8.96283153994005e-19 1.4665412496972336e-10 1.3910803129207872e-10 7.546093677644645e-12
6.187401249150058 9.900666553023953e-19 1.6260808968274063e-10 1.5484915287083782e-10 7.758936811902825e-12
6.1990139391386085 1.035524722196745e-18 1.703933014636917e-10 1.6252613341887546e-10 7.867168044816217e-12
6.204828454712694 1.0593387478983368e-18 1.7447534672057455e-10 1.66553553221806e-10 7.92179349876853e-12
6.210648424152782 1.0764888735451522e-18 1.774663117673339e-10 1.6949840845933122e-10 7.967903308002713e-12
6.233982942956859 1.133631765778489e-18 1.8758886234872376e-10 1.794620219529469e-10 8.12684039577693e-12
6.239830258556775 1.1402845603907733e-18 1.888667263833942e-10 1.8071920934953414e-10 8.14751703386003e-12
6.245683058788269 1.139869882408194e-18 1.8897513046829116e-10 1.8080691804764145e-10 8.168212420649709e-12
6.257405133728602 1.1360074658379195e-18 1.886882657083967e-10 1.804846336618071e-10 8.203632046589577e-12
6.269149208991335 1.1218718248060937e-18 1.8669009664884562e-10 1.7847734673235192e-10 8.212749916493674e-12
6.280915325867298 1.0898583721025266e-18 1.8170314168408915e-10 1.7351374457161424e-10 8.189397112474883e-12
6.304513850009849 1.0123369163075164e-18 1.6941275712830719e-10 1.6129935991529758e-10 8.113397213009565e-12
6.32820103803542 9.184301620914607e-19 1.5427510071339142e-10 1.4626886202644562e-10 8.006238686945852e-12
6.3519772230701035 8.329270060279675e-19 1.404382175183392e-10 1.3252913059184314e-10 7.909086926496023e-12
6.375842739491607 7.607360957373405e-19 1.2874816650952383e-10 1.2092592199481218e-10 7.822244514711627e-12
6.399797922933955 7.035874443457156e-19 1.1952363014140754e-10 1.1175140264292036e-10 7.772227498487159e-12
6.42384311029221 6.558024821319579e-19 1.1182461580659091e-10 1.0409501934550142e-10 7.7295964610895e-12
6.447978639727206 6.210883657581894e-19 1.063032193770697e-10 9.858765178329696e-11 7.715567593772759e-12
6.472204850670314 5.919838891495362e-19 1.0170248748143564e-10 9.399530027406095e-11 7.707187207374705e-12
6.496522083828205 5.729135671981531e-19 9.879602220555812e-11 9.107414261853299e-11 7.721879587025126e-12
