Dust emission spectrum from A.P. Jones, M. Kohler, N. Ysard, M. Bocchio, and L. Verstraete (2017), A&A, 602A, 46J 
inside the DustPedia framework.

lambda    nu*dP/dnu     j_nu    j_nu(carb.) j_nu(sil)
 (um)   (erg s-1 H-1) (Jy cm2 sr-1 H-1)
0.9927057738263894 4.405070832718892e-23 1.1607611847242595e-15 1.1607611759751265e-15 8.749132909592039e-24
1.0001793341362166 4.478875694282461e-23 1.1890943599474642e-15 1.189094349414008e-15 1.0533455914264126e-23
1.0077091589558085 4.552793036331534e-23 1.2178184440172677e-15 1.217818431352251e-15 1.2665017000725166e-23
1.0114953028030835 4.5897877636602036e-23 1.2323268390974528e-15 1.232326825216839e-15 1.3880613967521502e-23
1.0152956718711033 4.626803303650038e-23 1.2469326733038434e-15 1.246932658095974e-15 1.520786910811331e-23
1.0229392996569957 4.700851223419403e-23 1.276426474442531e-15 1.27642645620511e-15 1.823742105997118e-23
1.0267826658714554 4.737797117332043e-23 1.2912918819276122e-15 1.2912918619652714e-15 1.9962340784151555e-23
1.0306404723013447 4.774752500671928e-23 1.3062535709417808e-15 1.3062535490985843e-15 2.18431959010062e-23
1.03451277320114 4.811715077130433e-23 1.321311434313626e-15 1.3213114104202478e-15 2.38933783642627e-23
1.0383996230291617 4.84868257672485e-23 1.3364653652618983e-15 1.3364653391345333e-15 2.6127365086019434e-23
1.0403485208654093 4.867167470721972e-23 1.3440783228832661e-15 1.3440782955651402e-15 2.731812586113355e-23
1.0423010764483396 4.88565275659031e-23 1.3517152576742748e-15 1.3517152291134748e-15 2.8560800143227036e-23
1.0462171883269815 4.9226234017634354e-23 1.367061006389697e-15 1.3670609751791142e-15 3.121058274415399e-23
1.0471985131304309 4.9318658789144737e-23 1.3709124089060154e-15 1.3709123769970753e-15 3.1908940131553346e-23
1.048180758391296 4.941108214484574e-23 1.3747697943286079e-15 1.374769761706356e-15 3.262225160011297e-23
1.0501480137395462 4.9595923259574863e-23 1.3825025074842224e-15 1.382502473389261e-15 3.4094961322178296e-23
1.0521189612883777 4.978075467502805e-23 1.3902591331068168e-15 1.3902590974755966e-15 3.563122028592647e-23
1.0531058218030118 4.987303488583576e-23 1.3941427464819092e-15 1.3941427100578652e-15 3.64240435219071e-23
1.0540936079674168 4.996488239663782e-23 1.3980203152004692e-15 1.3980202779665528e-15 3.723391667339123e-23
1.058054026499678 5.033221391642621e-23 1.4135895014012975e-15 1.4135894607521273e-15 4.0649169619806335e-23
1.0590464539527713 5.042403054062767e-23 1.417496517531419e-15 1.4174964759827035e-15 4.1548715212073317e-23
1.06003981227728 5.051584001694938e-23 1.421409418226444e-15 1.4214093757591491e-15 4.2467294702677326e-23
1.0620293250338977 5.069943624489463e-23 1.429252866858257e-15 1.4292528224951633e-15 4.4363094033522244e-23
1.0660195594769086 5.1066528906239365e-23 1.4450103085258702e-15 1.4450102601254312e-15 4.8400439047856403e-23
1.070024785945596 5.1433471754063334e-23 1.4608617262137382e-15 1.4608616734258554e-15 5.2787882781285535e-23
1.0740450607676866 5.1800244978504734e-23 1.4768070228934444e-15 1.4768069653392721e-15 5.755417245220491e-23
1.07808044048254 5.2166829113265924e-23 1.4928461050085941e-15 1.4928460422783207e-15 6.273027386157575e-23
1.0861967418109137 5.289875506948335e-23 1.5251880018451729e-15 1.525187927397329e-15 7.444784408507954e-23
1.0902777775684922 5.326269770997363e-23 1.541451102060714e-15 1.5414510209968654e-15 8.106384871023089e-23
1.0943741465085532 5.362635307777821e-23 1.5578065338194568e-15 1.557806445580388e-15 8.82390690534376e-23
1.1026131145906286 5.435273234535291e-23 1.5907940868130292e-15 1.5907939823638436e-15 1.0444918579212468e-22
1.1109141095355224 5.507775748852555e-23 1.6241501076283267e-15 1.6241499841512022e-15 1.2347712445872099e-22
1.1192775983109025 5.58006864464392e-23 1.6578559271208754e-15 1.6578557813377117e-15 1.4578316423223674e-22
1.1277040513999907 5.651857919245666e-23 1.6918264460598634e-15 1.6918262741622272e-15 1.718976366675906e-22
1.1361939428280308 5.723466058023358e-23 1.7261598641617845e-15 1.7261596617310644e-15 2.024307200148e-22
1.1447477501889525 5.794882314486599e-23 1.7608560434549285e-15 1.760855805371382e-15 2.380835461350212e-22
1.1533659546722406 5.866127913756302e-23 1.7959245592180315e-15 1.795924279556965e-15 2.7966106605101513e-22
1.1707974979042381 6.008326981028278e-23 1.867259932267774e-15 1.8672595478512296e-15 3.8441654410238223e-22
1.1884924949847024 6.149719072737799e-23 1.9400867684503014e-15 1.9400862426732897e-15 5.257770114370407e-22
1.2064549276569216 6.291317865589153e-23 2.014754631940784e-15 2.0147539163555407e-15 7.155852432569584e-22
1.2246888378427687 6.431942390441905e-23 2.0909196233345534e-15 2.0909186541713635e-15 9.691631904364166e-22
1.2431983285522175 6.571387595473537e-23 2.16853748770352e-15 2.168536181438677e-15 1.3062648425393504e-21
1.2619875648066055 6.709750386787409e-23 2.2476613238985586e-15 2.24765957167029e-15 1.7522282678240645e-21
1.3004222497298317 6.981797688252256e-23 2.4100224304983814e-15 2.4100193218293465e-15 3.1086690349919942e-21
1.3400274889804893 7.248169057465486e-23 2.5781694317431593e-15 2.5781640173212454e-15 5.414421913281635e-21
1.3808389325824078 7.509128898595847e-23 2.752339581511536e-15 2.752330319062129e-15 9.262449407013243e-21
1.4228933163050095 7.766571174239825e-23 2.933398725705256e-15 2.933383154947005e-15 1.5570758250931034e-20
1.466228494730424 8.025557024468846e-23 3.1235342564367974e-15 3.1235085216636868e-15 2.573477311026241e-20
1.5108834753276823 8.284305484295155e-23 3.3224351249499828e-15 3.322393289110441e-15 4.1835839541487546e-20
1.5568984535646726 8.541537681645513e-23 3.5299274659955774e-15 3.529860500766726e-15 6.696522885093237e-20
1.6043148490894465 8.798611592377819e-23 3.746909320705538e-15 3.746803583552856e-15 1.0573715268172951e-19
1.6531753430134553 9.057016087169679e-23 3.974417545272611e-15 3.974253041676148e-15 1.645035964631861e-19
1.7035239163302658 9.318833853411229e-23 4.213851600026629e-15 4.213599370900608e-15 2.522291260210341e-19
1.755405889504358 9.591402923610936e-23 4.4691931015592386e-15 4.468811768981457e-15 3.8133257778274564e-19
1.8088679632656115 9.87405943459058e-23 4.741022726440069e-15 4.740454063816116e-15 5.686626239534444e-19
1.8639582606462262 1.0166244997552662e-22 5.02997918293734e-15 5.029142387194382e-15 8.367957429578102e-19
1.9207263702978936 1.0469128597869365e-22 5.337593141149772e-15 5.336377623745204e-15 1.2155174045665664e-18
1.979223391128241 1.0784705091800752e-22 5.6659471832701205e-15 5.6642035841141354e-15 1.7435991559850843e-18
2.039501978296691 1.1114907057298722e-22 6.0172686194642935e-15 6.014797863325389e-15 2.4707561389035675e-18
2.1016163906111602 1.1465645126029777e-22 6.39619028911523e-15 6.392730184035449e-15 3.4601050797798276e-18
2.1656225393682647 1.1839818457559825e-22 6.8060829716910675e-15 6.801292554101245e-15 4.790417589824326e-18
2.231578038680979 1.2236191905401455e-22 7.24816033046695e-15 7.24160165205609e-15 6.5586784108579436e-18
2.299542257339062 1.2655447697936064e-22 7.724819513336423e-15 7.715936710562283e-15 8.882802774139335e-18
2.369576372248914 1.3100184079186116e-22 8.239816536372469e-15 8.22791196413196e-15 1.190457224050973e-17
2.4417434235010123 1.357351503865004e-22 8.79755089917368e-15 8.781758893586932e-15 1.5792005586746892e-17
2.5161083711144245 1.4082014800095684e-22 9.40510334703222e-15 9.384360922775239e-15 2.0742424256982104e-17
2.5927381535095444 1.4637257077709076e-22 1.0073671677592523e-14 1.0046687105868726e-14 2.698457172379566e-17
2.6717017477616296 1.5251356898850006e-22 1.0815980404647962e-14 1.0781201521109762e-14 3.4778883538195745e-17
2.753070231689431 1.5943062719033828e-22 1.1650873265387931e-14 1.1606454708025358e-14 4.441855736257132e-17
2.836916847834745 1.6759928904111031e-22 1.2620838562121698e-14 1.2564606938036383e-14 5.623162408531452e-17
2.9233170693905177 1.7808659051327995e-22 1.3818998664939128e-14 1.3748431691902724e-14 7.056697303639898e-17
2.967498994190263 1.8526556351402153e-22 1.4593340480994784e-14 1.4514685370026925e-14 7.865511096785824e-17
3.0123486681368425 1.9320902814697652e-22 1.5449060981115318e-14 1.5361506970160513e-14 8.755401095480371e-17
3.0578761833420214 2.0804524576491479e-22 1.68867908779692e-14 1.6789432139181688e-14 9.735873878751013e-17
3.1040917844459814 2.2623368323173155e-22 1.8640658646011364e-14 1.8532608058561204e-14 1.0805058745015426e-16
3.127460860933648 2.4422104523206774e-22 2.027423154142081e-14 2.0160447504651567e-14 1.1378403676924014e-16
3.1510058709225794 2.676443614455559e-22 2.2386012595714622e-14 2.2266245829789322e-14 1.197667659252978e-16
3.162844764501044 2.8913578095366565e-22 2.4274436071150445e-14 2.4151570760936628e-14 1.228653102138155e-16
3.1747281389236908 3.1381357049487445e-22 2.6445251072881597e-14 2.631922248611166e-14 1.2602858676993463e-16
3.1986289994194426 3.8171144604910805e-22 3.2409213092614726e-14 3.227664392309352e-14 1.3256916952120448e-16
3.2227097969389145 5.404126930152204e-22 4.622917821947514e-14 4.608967172516943e-14 1.3950649430570095e-16
3.2348180950136065 6.901777932875194e-22 5.926254232073059e-14 5.911933196812788e-14 1.4321035260269386e-16
3.240889293275058 8.021076695727144e-22 6.900273393146557e-14 6.885756985982701e-14 1.4516407163857063e-16
3.2469718861334385 9.317152677306497e-22 8.030288968264037e-14 8.015570404750255e-14 1.471856351378349e-16
3.2714166318528037 1.6181383639392133e-21 1.40514436117098e-13 1.403588908449344e-13 1.5554527216360878e-16
3.2744851364798273 1.6611016365976194e-21 1.44380540266059e-13 1.4422400825146932e-13 1.5653201458968592e-16
3.2775565192852394 1.705262235885758e-21 1.4835794090898001e-13 1.482004170730304e-13 1.5752383594965284e-16
3.283707930232385 1.6630585411288934e-21 1.4495776752777321e-13 1.447984667911935e-13 1.5930073657972476e-16
3.2898708863219004 1.5286978646286355e-21 1.3349652043157273e-13 1.3333559966174654e-13 1.6092076982619449e-16
3.29141343181113 1.4969795823245665e-21 1.3078795436274568e-13 1.3062662671664513e-13 1.6132764610056848e-16
3.292184975758714 1.4813894498044458e-21 1.294562161743474e-13 1.2929468480949658e-13 1.6153136485084838e-16
3.295272960557952 1.3834775336271081e-21 1.2101325391654312e-13 1.2085092956726633e-13 1.6232434927681396e-16
3.3076538914384823 1.043068936582452e-21 9.158039329042876e-14 9.14148824237111e-14 1.6551086671763928e-16
3.310756385682612 9.734504793344967e-22 8.554813019923147e-14 8.538181583298814e-14 1.6631436624332184e-16
3.313861789986515 9.09085119691729e-22 7.996655257999157e-14 7.97994319593675e-14 1.6712062062406052e-16
3.3200813396944477 8.190030155829852e-22 7.217780284799092e-14 7.200894942195948e-14 1.6885342603142801e-16
3.345076488085796 6.59942566926303e-22 5.859784268026997e-14 5.842127071266774e-14 1.765719676022242e-16
3.3482140837626964 6.661752191312189e-22 5.920673678878752e-14 5.902911936540364e-14 1.7761742338388417e-16
3.3513546224236106 6.724713279194528e-22 5.982236663041714e-14 5.964369887553539e-14 1.786677548817377e-16
3.3576445397418455 7.174681541819582e-22 6.39450276297495e-14 6.376416440515493e-14 1.8086322459459384e-16
3.3702598118196083 8.819984336612042e-22 7.89042922440019e-14 7.871882360596339e-14 1.8546863803849737e-16
3.382922481734668 9.204578393416821e-22 8.265428628731453e-14 8.246433509809665e-14 1.899511892178709e-16
3.389271646505754 9.403397920887499e-22 8.459810324583635e-14 8.44058787976105e-14 1.9222444822583556e-16
3.395632727569191 9.619700910246243e-22 8.67065114567002e-14 8.651194423837305e-14 1.9456721832716238e-16
3.421196662673239 1.0663270784289265e-21 9.683623832965985e-14 9.663196626614047e-14 2.0427206351938565e-16
3.4276182099114902 1.0465498815513637e-21 9.521860342544961e-14 9.501215882032447e-14 2.0644460512514427e-16
3.4340518103208963 9.580148214185851e-22 8.732699265891666e-14 8.711848993325647e-14 2.0850272566020446e-16
3.4469541582030403 8.315134758966481e-22 7.608065321334081e-14 7.58681935191716e-14 2.1245969416918899e-16
3.472904465399547 7.965631551048667e-22 7.343151425528084e-14 7.320994909082572e-14 2.2156516445512537e-16
3.4990501388274233 7.4313742778569875e-22 6.902218979851937e-14 6.879129163917042e-14 2.3089815934895635e-16
3.5253949054701885 5.521762685434881e-22 5.1671960935585546e-14 5.143197152220479e-14 2.399894133807642e-16
3.5519380250092896 3.714775688138652e-22 3.502413410759067e-14 3.477498746343098e-14 2.4914664415968547e-16
3.578680990867387 3.0048718750328054e-22 2.8544233035983637e-14 2.8285046681531877e-14 2.591863544517616e-16
3.605625307711299 2.725693836209659e-22 2.6087177818536596e-14 2.581740572833098e-14 2.6977209020560487e-16
3.660119384959845 2.5378974595605034e-22 2.4656915986985902e-14 2.436485067470693e-14 2.920653122789722e-16
3.715437065384467 2.4090733936292425e-22 2.3759066526059962e-14 2.34434219692108e-14 3.156445568491624e-16
3.8285932144167436 2.3766984807001435e-22 2.4153648779437898e-14 2.3787054316081582e-14 3.665944633563178e-16
3.94519561050918 2.403676603012756e-22 2.5171784813785214e-14 2.4749219726096358e-14 4.2256508768886344e-16
4.06534921144712 2.45349561530215e-22 2.6476012437925898e-14 2.599241951603151e-14 4.835929218943747e-16
4.189162171576248 2.515418270340679e-22 2.7970924258719733e-14 2.74210326128601e-14 5.498916458596267e-16
4.316745939156006 2.585217625740584e-22 2.962259018979276e-14 2.9001258846180047e-14 6.213313436127161e-16
4.448215356677963 2.66129531320928e-22 3.142304788827112e-14 3.072599012802538e-14 6.97057760245736e-16
4.58368876423945 2.743601394499891e-22 3.338147857007261e-14 3.2604210067304206e-14 7.772685027684048e-16
4.723288106065518 2.833224375132007e-22 3.552178976495845e-14 3.4659225312055175e-14 8.625644529032904e-16
4.867139040275056 2.9322467841577174e-22 3.7882942489424205e-14 3.693202708039143e-14 9.50915409032788e-16
4.940699165968905 2.9885044725392495e-22 3.919329299331083e-14 3.819676728738315e-14 9.965257059276932e-16
5.015371051989984 3.0451362772633104e-22 4.0539579079825633e-14 3.94966038847848e-14 1.0429751950408178e-15
5.091171501069577 3.1118367738310066e-22 4.205367641729845e-14 4.096244840362868e-14 1.0912280136697578e-15
5.129500256944802 3.1453760527839776e-22 4.28269419646282e-14 4.171130506281981e-14 1.1156369018083825e-15
5.168117569889187 3.1798848879821105e-22 4.362276772684798e-14 4.2482317135306797e-14 1.1404505915411839e-15
5.20702561229733 3.2218366481447944e-22 4.453102218234561e-14 4.336359308821059e-14 1.1674290941350131e-15
5.246226572918644 3.264288627161358e-22 4.5457445619724055e-14 4.426277325245407e-14 1.194672367269981e-15
5.265937586045735 3.285708841637077e-22 4.592764921672612e-14 4.471925841172227e-14 1.208390805003846e-15
5.285722656980489 3.307262234348606e-22 4.640261295683148e-14 4.5180440535689685e-14 1.222172421141806e-15
5.305582063971359 3.3289516743620753e-22 4.6882413398132715e-14 4.564639721685317e-14 1.2360161812795472e-15
5.3255160863122235 3.3521749719905183e-22 4.7386847035021777e-14 4.613682491519955e-14 1.2500221198222173e-15
5.365609099470188 3.4099892482912424e-22 4.856702178170667e-14 4.7288021757652037e-14 1.279000024054638e-15
5.406003951863644 3.4692332669059725e-22 4.978279708498603e-14 4.8474539340165775e-14 1.3082577448202532e-15
5.446702915881641 3.5299860318143755e-22 5.103593877495575e-14 4.969815155573669e-14 1.3377872192190714e-15
5.487708281020852 3.595042560160363e-22 5.2367818896040114e-14 5.100012171378954e-14 1.3676971822505583e-15
5.529022354014368 3.686210519933906e-22 5.410008071565948e-14 5.270118801039451e-14 1.398892705264969e-15
5.570647458961463 3.781529095112363e-22 5.591683146255282e-14 5.448644310683178e-14 1.4303883557210398e-15
5.612585937458331 3.8813113007650474e-22 5.78243705036563e-14 5.63621944227179e-14 1.4621760809384097e-15
5.654840148729818 3.990077635674306e-22 5.989231661085765e-14 5.839792311286486e-14 1.4943934979927834e-15
5.67608639626678 4.065069983834716e-22 6.124723073939228e-14 5.973598891320982e-14 1.5112418261824673e-15
5.686739436050992 4.1035398849820767e-22 6.19428839609525e-14 6.042318658484698e-14 1.5196973761055372e-15
5.6974124697621304 4.142679851835051e-22 6.265106630043578e-14 6.112289261330084e-14 1.5281736871349476e-15
5.718818669136295 4.2230351408305307e-22 6.410626206815981e-14 6.256107396927102e-14 1.5451880988887781e-15
5.740305295436557 4.311534014858588e-22 6.569559351230463e-14 6.413318913302946e-14 1.5624043792751716e-15
5.7835210386641895 4.54237459487213e-22 6.97340195258871e-14 6.813599985277668e-14 1.5980196731104138e-15
5.827062130521658 4.805724850153198e-22 7.433237062001448e-14 7.269807766420637e-14 1.6342929558081224e-15
5.8489554468988025 4.99247361009419e-22 7.751103288432916e-14 7.585718328347763e-14 1.653849600851541e-15
5.870931020387893 5.191423000657522e-22 8.090266497126013e-14 7.922913851143513e-14 1.673526459825025e-15
5.892989160043636 5.403538539727209e-22 8.452463978246277e-14 8.283131701060741e-14 1.6933227718553687e-15
5.915130176081913 5.644374311241025e-22 8.862363239827628e-14 8.690979695550908e-14 1.713835442767179e-15
5.95966208400165 6.321247335765139e-22 9.999858446320334e-14 9.823818003061199e-14 1.7604044325913499e-15
6.004529249263818 7.294910974009925e-22 1.1627019315679023e-13 1.1445747219354863e-13 1.8127209632415906e-15
6.027089341400364 7.972427119847774e-22 1.2754622816940301e-13 1.2570336487422798e-13 1.8428632951750474e-15
6.049734195844842 8.769480481092328e-22 1.408249457251116e-13 1.3895016910867708e-13 1.8747766164345127e-15
6.095279466722835 1.1072316187576768e-21 1.791436980131626e-13 1.7719077428480037e-13 1.952923728362263e-15
6.141167624020661 1.4603326326224443e-21 2.380521864926028e-13 2.359982023834455e-13 2.053984109157309e-15
6.164241091010745 1.6858350512955483e-21 2.758443726062612e-13 2.7372713671239274e-13 2.1172358938684686e-15
6.187401249150058 1.9411647514494276e-21 3.1881600122797286e-13 3.1663375932454293e-13 2.1822419034299082e-15
6.1990139391386085 2.0656389108874236e-21 3.398963116122492e-13 3.376809811661958e-13 2.2153304460534957e-15
6.204828454712694 2.1310739148404855e-21 3.509924100450718e-13 3.4876036099128524e-13 2.2320490537866178e-15
6.210648424152782 2.178709860732839e-21 3.591747326863208e-13 3.5692839803337634e-13 2.2463346529444615e-15
6.233982942956859 2.3397056821750097e-21 3.8716516279750763e-13 3.848688449007397e-13 2.296317896767833e-15
6.239830258556775 2.3598126200863285e-21 3.908586504768494e-13 3.8855526391998715e-13 2.3033865568623507e-15
6.245683058788269 2.360810194366875e-21 3.9139065026335053e-13 3.890801815822649e-13 2.3104686810858498e-15
6.257405133728602 2.3546748907787575e-21 3.911061633036335e-13 3.887832203273176e-13 2.3229429763159696e-15
6.269149208991335 2.3208813377155406e-21 3.862166351521541e-13 3.8388873140499783e-13 2.327903747156092e-15
6.280915325867298 2.2386622004071574e-21 3.7323377550301565e-13 3.709102089788462e-13 2.323566524169403e-15
6.304513850009849 2.0369375472594458e-21 3.4087782478394644e-13 3.3857135455902605e-13 2.3064702249203473e-15
6.32820103803542 1.7885385721455845e-21 3.0043326072741463e-13 2.9815284794418766e-13 2.2804127832269245e-15
6.3519772230701035 1.5611607190108097e-21 2.6322430062997036e-13 2.6096710109832333e-13 2.257199531647032e-15
6.375842739491607 1.3695255929685963e-21 2.3178065306822844e-13 2.2954375743737687e-13 2.236895630851613e-15
6.399797922933955 1.2165714646753784e-21 2.0666803956354001e-13 2.044407889699231e-13 2.2272505936168937e-15
6.42384311029221 1.0890578685086953e-21 1.8570145898384216e-13 1.8348173339321467e-13 2.2197255906274827e-15
6.447978639727206 9.962557771360411e-22 1.7051550515405738e-13 1.6829497260605336e-13 2.22053254800402e-15
6.472204850670314 9.187241611648747e-22 1.5783627597365391e-13 1.5561327503012164e-13 2.223000943532256e-15
6.496522083828205 8.682284875406562e-22 1.4972157380398886e-13 1.474893351052609e-13 2.232238698727981e-15
