Dust emission spectrum from A.P. Jones, M. Kohler, N. Ysard, M. Bocchio, and L. Verstraete (2017), A&A, 602A, 46J 
inside the DustPedia framework.

lambda    nu*dP/dnu     j_nu    j_nu(carb.) j_nu(sil)
 (um)   (erg s-1 H-1) (Jy cm2 sr-1 H-1)
0.9927057738263894 2.4528798291451765e-23 6.463477670590475e-16 6.463477668547884e-16 2.0425876716176786e-25
1.0001793341362166 2.4933798404759155e-23 6.619661066507018e-16 6.619661064047166e-16 2.4598515513255283e-25
1.0077091589558085 2.5338279638730985e-23 6.777690977268212e-16 6.77769097430971e-16 2.9585025755548e-25
1.0114953028030835 2.5540276871809336e-23 6.857390861578997e-16 6.857390858336043e-16 3.24295575700641e-25
1.0152956718711033 2.574208598320636e-23 6.937543263646978e-16 6.937543260093381e-16 3.553597492613634e-25
1.0229392996569957 2.61448644763933e-23 7.09913919890144e-16 7.099139194638568e-16 4.262871053570914e-25
1.0267826658714554 2.6345345877010646e-23 7.180453365786185e-16 7.18045336111936e-16 4.6668241845017495e-25
1.0306404723013447 2.6545552217044864e-23 7.262203092465354e-16 7.262203087357968e-16 5.10738476864368e-25
1.03451277320114 2.6745464608854204e-23 7.344385034698413e-16 7.344385029110709e-16 5.587706243735098e-25
1.0383996230291617 2.694506427480728e-23 7.426995807252899e-16 7.426995801141698e-16 6.111198470118933e-25
1.0403485208654093 2.704474099857529e-23 7.46846093602474e-16 7.468460929634468e-16 6.3902740870694415e-25
1.0423010764483396 2.7144332551000595e-23 7.510031984790269e-16 7.510031978108723e-16 6.681547247413633e-25
1.0462171883269815 2.7343250890897804e-23 7.593490102754177e-16 7.593490095451441e-16 7.302735206332468e-25
1.0471985131304309 2.7392923636367625e-23 7.614420150772008e-16 7.614420143305535e-16 7.466472589221644e-25
1.048180758391296 2.744257307191315e-23 7.63537629621765e-16 7.635376288583925e-16 7.633725085749198e-25
1.0501480137395462 2.7541800868890015e-23 7.677366658260689e-16 7.677366650281626e-16 7.979064163982991e-25
1.0521189612883777 2.764093199809339e-23 7.719460745180464e-16 7.71946073684112e-16 8.339343963840437e-25
1.0531058218030118 2.7690384724688107e-23 7.740525335902757e-16 7.74052532737747e-16 8.525289926753884e-25
1.0540936079674168 2.7739563838547757e-23 7.761546094162255e-16 7.761546085447014e-16 8.715244622468234e-25
1.058054026499678 2.7936014182623616e-23 7.845881054452619e-16 7.84588104493622e-16 9.516398217367499e-25
1.0590464539527713 2.798505884037748e-23 7.86702749142297e-16 7.867027481695526e-16 9.727443178430238e-25
1.06003981227728 2.8034075768527845e-23 7.888198892721411e-16 7.888198882778447e-16 9.942965603894871e-25
1.0620293250338977 2.8132025323748636e-23 7.930616358391107e-16 7.9306163480033005e-16 1.0387805968414153e-24
1.0660195594769086 2.832757947465962e-23 8.015748325410012e-16 8.015748314074705e-16 1.1335308772495597e-24
1.070024785945596 2.852265898910772e-23 8.101273242116282e-16 8.101273229751076e-16 1.236520460577496e-24
1.0740450607676866 2.87172463648915e-23 8.187187363193281e-16 8.187187349708996e-16 1.3484281887346248e-24
1.07808044048254 2.8911324246810784e-23 8.273486912302375e-16 8.273486897602517e-16 1.469985508722566e-24
1.0861967418109137 2.929754094401757e-23 8.44712845750147e-16 8.44712844004886e-16 1.745261005950411e-24
1.0902777775684922 2.948886829837356e-23 8.534236997263367e-16 8.534236978255959e-16 1.900741143836664e-24
1.0943741465085532 2.967960468810286e-23 8.62170918787767e-16 8.621709167183639e-16 2.0694026918192577e-24
1.1026131145906286 3.005923881548393e-23 8.797728706247996e-16 8.797728681742232e-16 2.4505765280764584e-24
1.1109141095355224 3.0436313482119477e-23 8.975155139185236e-16 8.975155110202995e-16 2.898224272471327e-24
1.1192775983109025 3.0810352869564986e-23 9.153852644899406e-16 9.153852610666943e-16 3.42324639470735e-24
1.1277040513999907 3.117963089432426e-23 9.333306830976276e-16 9.333306790594175e-16 4.0382103003682376e-24
1.1361939428280308 3.1545926818293607e-23 9.514044846162525e-16 9.514044798586685e-16 4.757584309827364e-24
1.1447477501889525 3.1909123011865514e-23 9.696033335539458e-16 9.696033279559415e-16 5.5980040797787946e-24
1.1533659546722406 3.2269300541225977e-23 9.87929861107748e-16 9.87929854529167e-16 6.578580793561062e-24
1.1707974979042381 3.298176341223744e-23 1.0250028919808614e-15 1.0250028829297355e-15 9.051125786473111e-24
1.1884924949847024 3.3680678957042615e-23 1.0625434889644572e-15 1.0625434765732976e-15 1.2391159719574142e-23
1.2064549276569216 3.437149570044607e-23 1.1007253432222105e-15 1.1007253263415046e-15 1.6880705995289187e-23
1.2246888378427687 3.504677857225889e-23 1.13931364124613e-15 1.1393136183609929e-15 2.2885137051795402e-23
1.2431983285522175 3.5704989866444685e-23 1.178253571236504e-15 1.178253540360334e-15 3.087616984940662e-23
1.2619875648066055 3.6345936059396964e-23 1.2175319505545845e-15 1.2175319090948787e-15 4.1459705874284006e-23
1.3004222497298317 3.7565664986920216e-23 1.2967161077640546e-15 1.2967160340552902e-15 7.370876408343771e-23
1.3400274889804893 3.870160389200012e-23 1.3766137533866686e-15 1.3766136247294377e-15 1.2865723115739638e-22
1.3808389325824078 3.974999567233485e-23 1.4569664195581666e-15 1.45696619897488e-15 2.205832864698494e-22
1.4228933163050095 4.0716219118189574e-23 1.5378331389401512e-15 1.5378327672786252e-15 3.716615260364107e-22
1.466228494730424 4.1623268754552097e-23 1.6199711175601974e-15 1.6199705018514407e-15 6.157087562066093e-22
1.5108834753276823 4.2454640219270724e-23 1.7026507309395815e-15 1.7026497276032769e-15 1.003336304357872e-21
1.5568984535646726 4.31970695729044e-23 1.785188194668733e-15 1.7851865847120468e-15 1.6099566863830155e-21
1.6043148490894465 4.3852333931269924e-23 1.8674618946028746e-15 1.867459346143112e-15 2.548459762736964e-21
1.6531753430134553 4.4422807888511653e-23 1.9493703597643565e-15 1.9493663847802054e-15 3.97498415153785e-21
1.7035239163302658 4.4915109174486386e-23 2.0310009561013696e-15 2.0309948454030837e-15 6.110698286008414e-21
1.755405889504358 4.536513453924722e-23 2.1138257661453928e-15 2.1138165029349104e-15 9.26321048249271e-21
1.8088679632656115 4.576466971023735e-23 2.1973874129638077e-15 2.1973735613119043e-15 1.3851651904064695e-20
1.8639582606462262 4.610821073991275e-23 2.281307800865319e-15 2.2812873607369492e-15 2.0440128369557678e-20
1.9207263702978936 4.6400447335685333e-23 2.365685998886663e-15 2.3656562225182804e-15 2.977636838177526e-20
1.979223391128241 4.665172254895108e-23 2.4509357810060737e-15 2.4508929425569015e-15 4.283844917202088e-20
2.039501978296691 4.687422420390979e-23 2.5376262429356603e-15 2.5375653558774776e-15 6.088705818213356e-20
2.1016163906111602 4.7101727459692576e-23 2.6276027948421204e-15 2.6275172635077503e-15 8.553133437027244e-20
2.1656225393682647 4.7353795345392533e-23 2.722118259671731e-15 2.7219994683995733e-15 1.187912721580372e-19
2.231578038680979 4.763166485943102e-23 2.8214819314481608e-15 2.8213187620928295e-15 1.6316935533196955e-19
2.299542257339062 4.7946837131187e-23 2.9266500238799208e-15 2.9264282956690464e-15 2.2172821087418354e-19
2.369576372248914 4.832468373463723e-23 3.0395491066746287e-15 3.0392509305798116e-15 2.981760948169576e-19
2.4417434235010123 4.8795107764276414e-23 3.162610738372015e-15 3.162213797519566e-15 3.9694085244923237e-19
2.5161083711144245 4.940949783363678e-23 3.299964103482983e-15 3.2994408393250266e-15 5.232641579562979e-19
2.5927381535095444 5.025200387015377e-23 3.4584497999967377e-15 3.4577665245864985e-15 6.832754102401378e-19
2.6717017477616296 5.142238697731995e-23 3.646780634638841e-15 3.645896613349834e-15 8.84021289007075e-19
2.753070231689431 5.307081733313913e-23 3.878309818732421e-15 3.877176299409744e-15 1.1335193226776087e-18
2.836916847834745 5.553893683606788e-23 4.1822847801457654e-15 4.1808439407558025e-15 1.4408393899618827e-18
2.9233170693905177 5.95795649943343e-23 4.6232000216375836e-15 4.621384223931e-15 1.8157977065847916e-18
2.967498994190263 6.293321653244434e-23 4.957239969491804e-15 4.9552114437274925e-15 2.02852576431295e-18
3.0123486681368425 6.683088331773109e-23 5.343820636642373e-15 5.3415574799078804e-15 2.2631567344923616e-18
3.0578761833420214 7.541109536313715e-23 6.121030993012229e-15 6.1185087194750095e-15 2.5222735372190483e-18
3.1040917844459814 8.642677942482058e-23 7.121185802743595e-15 7.118380109942784e-15 2.8056928008114793e-18
3.127460860933648 9.801733439764944e-23 8.1369979018904e-15 8.134039886168246e-15 2.9580157221513723e-18
3.1510058709225794 1.1343537487723254e-22 9.487835712608106e-15 9.48471850057022e-15 3.1172120378863155e-18
3.162844764501044 1.2776931811151406e-22 1.0726891476809149e-14 1.0723691717867553e-14 3.1997589415930395e-18
3.1747281389236908 1.4442524583047846e-22 1.2170798991345822e-14 1.2167514893042903e-14 3.2840983029173833e-18
3.1986289994194426 1.9084217198544035e-22 1.620345599523323e-14 1.6199997303001632e-14 3.4586922315993563e-18
3.2227097969389145 3.0018692135537846e-22 2.5679253773749738e-14 2.567560963256141e-14 3.644141188322538e-18
3.2348180950136065 4.0384546475411906e-22 3.4676440156132266e-14 3.467269693395862e-14 3.743222173652056e-18
3.240889293275058 4.813407340115047e-22 4.1408189772160286e-14 4.1404394284407546e-14 3.795487752752577e-18
3.2469718861334385 5.709960075110212e-22 4.921313515884255e-14 4.920928558851774e-14 3.8495703248015346e-18
3.2714166318528037 1.0490294378255796e-21 9.109466978303158e-14 9.109059635166231e-14 4.0734313692461195e-18
3.2744851364798273 1.0789169475461698e-21 9.37778931504705e-14 9.377379323596414e-14 4.09991450633013e-18
3.2775565192852394 1.1096613821205311e-21 9.654062248795606e-14 9.653649594831735e-14 4.1265396386873465e-18
3.283707930232385 1.0801152322987376e-21 9.414647101988713e-14 9.414229666129115e-14 4.174358595971715e-18
3.2898708863219004 9.86379381860608e-22 8.61375019555124e-14 8.613328388997889e-14 4.2180655334765534e-18
3.29141343181113 9.642727698403053e-22 8.424648171839169e-14 8.42422526727335e-14 4.229045658202627e-18
3.292184975758714 9.534101600690476e-22 8.33169642196458e-14 8.331272967590157e-14 4.234543744208095e-18
3.295272960557952 8.848631390799205e-22 7.739928197470057e-14 7.739502600885401e-14 4.255965846561956e-18
3.3076538914384823 6.473444438925602e-22 5.683618473031604e-14 5.683184262423514e-14 4.342106080920762e-18
3.310756385682612 5.9898930278572905e-22 5.263998112948951e-14 5.263561729051816e-14 4.363838971363357e-18
3.313861789986515 5.543686616212169e-22 4.876435634901297e-14 4.875997069775005e-14 4.385651262926602e-18
3.3200813396944477 4.918019355118246e-22 4.334194437167621e-14 4.333751189078517e-14 4.432480891050991e-18
3.345076488085796 3.802662462534931e-22 3.3764728616251456e-14 3.3760087657479166e-14 4.6409587722982296e-18
3.3482140837626964 3.84462757403157e-22 3.416936660049572e-14 3.416469740778565e-14 4.669192710065455e-18
3.3513546224236106 3.8870543761135326e-22 3.457884111128726e-14 3.457414354654247e-14 4.697564744793987e-18
3.3576445397418455 4.1965806955227955e-22 3.7402422248503286e-14 3.739766539719751e-14 4.756851305766038e-18
3.3702598118196083 5.337577829076999e-22 4.775040236209456e-14 4.774552113039285e-14 4.88123170170416e-18
3.382922481734668 5.597941965591677e-22 5.026779913947047e-14 5.026279663593993e-14 5.0025035305491216e-18
3.389271646505754 5.73281094376253e-22 5.1575498153917304e-14 5.1570434106717254e-14 5.0640472000341895e-18
3.395632727569191 5.878222820518307e-22 5.298295644404401e-14 5.297782896886595e-14 5.12747517806571e-18
3.421196662673239 6.576622110844261e-22 5.972420273413076e-14 5.971881226782248e-14 5.390466308275408e-18
3.4276182099114902 6.436508627351598e-22 5.856150511658127e-14 5.855605554847069e-14 5.4495681105771315e-18
3.4340518103208963 5.821537507291776e-22 5.306570961084868e-14 5.306020394326897e-14 5.505667579705968e-18
3.4469541582030403 4.945552514054111e-22 4.52501224185672e-14 4.524450866748378e-14 5.613751083420196e-18
3.472904465399547 4.700451047400321e-22 4.333130849467752e-14 4.3325446332351633e-14 5.8621623258889166e-18
3.4990501388274233 4.32546580757627e-22 4.017468516249056e-14 4.0168567843090997e-14 6.117319399567283e-18
3.5253949054701885 2.9900222756602322e-22 2.798025250740708e-14 2.797388579638778e-14 6.366711019292876e-18
3.5519380250092896 1.7343069193441874e-22 1.6351619377930543e-14 1.6345000772389204e-14 6.618605541339782e-18
3.578680990867387 1.2367727648281808e-22 1.1748497599894494e-14 1.1741602686365534e-14 6.894913528957713e-18
3.605625307711299 1.0359587939554636e-22 9.914995188224846e-15 9.90780849144749e-15 7.186696777357783e-18
3.660119384959845 8.903353181645058e-23 8.650043388289707e-15 8.642240237742345e-15 7.803150547360179e-18
3.715437065384467 7.87480593961083e-23 7.766390127166888e-15 7.757932054511293e-15 8.458072655595193e-18
3.8285932144167436 7.371817857613912e-23 7.491749620100814e-15 7.481866085734707e-15 9.883534366107624e-18
3.94519561050918 7.295162153851345e-23 7.639640527692129e-15 7.628175197570425e-15 1.1465330121702383e-17
4.06534921144712 7.393283196161497e-23 7.978194729097741e-15 7.964985869090155e-15 1.3208860007585776e-17
4.189162171576248 7.592373535540797e-23 8.442560333226718e-15 8.427435515078033e-15 1.5124818148684755e-17
4.316745939156006 7.864796949975452e-23 9.011839260855828e-15 8.994624324814901e-15 1.7214936040927953e-17
4.448215356677963 8.20116472288507e-23 9.683464685324526e-15 9.664003923242214e-15 1.9460762082308595e-17
4.58368876423945 8.602422890748579e-23 1.0466593141186612e-14 1.0444719332054003e-14 2.1873809132607418e-17
4.723288106065518 9.07717525476976e-23 1.1380585099074319e-14 1.1356107203406972e-14 2.4477895667343344e-17
4.867139040275056 9.642715650340497e-23 1.2457834190400517e-14 1.2430611933772023e-14 2.722225662849259e-17
4.940699165968905 9.9815783822526e-23 1.309052503237255e-14 1.3061867433794538e-14 2.865759857800918e-17
5.015371051989984 1.0331606027971864e-22 1.3754358473867144e-14 1.3724225722798472e-14 3.013275106867173e-17
5.091171501069577 1.0756837065485333e-22 1.453689824060446e-14 1.450522117572339e-14 3.167706488107198e-17
5.129500256944802 1.0974695370250379e-22 1.4942971327233756e-14 1.4910507331396636e-14 3.2463995837118815e-17
5.168117569889187 1.1201523104521819e-22 1.5366639290064307e-14 1.533337225448298e-14 3.3267035581331224e-17
5.20702561229733 1.1479364655185762e-22 1.5866348853957714e-14 1.5832212776900275e-14 3.4136077057441004e-17
5.246226572918644 1.1763966070497095e-22 1.638212514274298e-14 1.6347107339217082e-14 3.501780352589506e-17
5.265937586045735 1.1908869041693158e-22 1.6646221143633082e-14 1.661075774555371e-14 3.546339807936999e-17
5.285722656980489 1.2055543953314982e-22 1.6914556524724012e-14 1.6878644392212798e-14 3.59121325112052e-17
5.305582063971359 1.220401940185709e-22 1.7187209028089533e-14 1.7150845032452344e-14 3.6363995637191484e-17
5.3255160863122235 1.2363448822396324e-22 1.747715626622941e-14 1.7440334388558938e-14 3.6821877670474204e-17
5.365609099470188 1.276025448873247e-22 1.8173885973538996e-14 1.8136116364786648e-14 3.776960875235189e-17
5.406003951863644 1.3171711830948365e-22 1.8901140594873253e-14 1.8862409407758005e-14 3.873118711524555e-17
5.446702915881641 1.3598530925262699e-22 1.9660525154382378e-14 1.9620818610252898e-14 3.970654412948187e-17
5.487708281020852 1.4059330527021948e-22 2.047977075425253e-14 2.043907171788813e-14 4.06990363644036e-17
5.529022354014368 1.4699924297641381e-22 2.1574109419847837e-14 2.153237396346936e-14 4.173545637847581e-17
5.570647458961463 1.5377570694744344e-22 2.2738553828737923e-14 2.2695766656916613e-14 4.278717182130944e-17
5.612585937458331 1.6094941275359661e-22 2.3978490139596403e-14 2.3934636005004326e-14 4.3854134592074296e-17
5.654840148729818 1.6882936728494845e-22 2.534181748303775e-14 2.5296876845238384e-14 4.494063779936076e-17
5.67608639626678 1.7420049640490975e-22 2.6246283681845684e-14 2.620077513748899e-14 4.550854435669772e-17
5.686739436050992 1.7696800021391172e-22 2.671329780945953e-14 2.6667503697757126e-14 4.5794111702403126e-17
5.6974124697621304 1.7979187340893252e-22 2.7190497417349293e-14 2.7144416662595783e-14 4.60807547535171e-17
5.718818669136295 1.856141588489389e-22 2.8176488032706682e-14 2.8129830765855615e-14 4.665726685105844e-17
5.740305295436557 1.9203167409259193e-22 2.9260200103252705e-14 2.9212958325199635e-14 4.7241778053065104e-17
5.7835210386641895 2.086875017572729e-22 3.203746854955261e-14 3.198901577275123e-14 4.8452776801390757e-17
5.827062130521658 2.2786050109260944e-22 3.524423837194533e-14 3.51945466637818e-14 4.969170816353679e-17
5.8489554468988025 2.413230657130331e-22 3.746679811068072e-14 3.741644037023761e-14 5.0357740443107676e-17
5.870931020387893 2.5576178814127595e-22 3.985768498506734e-14 3.980665536017049e-14 5.102962489684308e-17
5.892989160043636 2.7125511976679915e-22 4.2430975774246963e-14 4.237926839872005e-14 5.170737552691864e-17
5.915130176081913 2.8887377792563336e-22 4.53567430023147e-14 4.5304333761601554e-14 5.240924071314923e-17
5.95966208400165 3.3815944742637993e-22 5.349492634811436e-14 5.3440936532425284e-14 5.398981568907686e-17
6.004529249263818 4.0919167799146993e-22 6.521915840744924e-14 6.516339925946327e-14 5.575914798597838e-17
6.027089341400364 4.585756992626226e-22 7.336486102893444e-14 7.330808901221913e-14 5.677201671531642e-17
6.049734195844842 5.1691531591244545e-22 8.300898948894374e-14 8.295114618536545e-14 5.78433035782835e-17
6.095279466722835 6.854505104005824e-22 1.1090194423452807e-13 1.1084150088548861e-13 6.044334903945692e-17
6.141167624020661 9.44769495704099e-22 1.5400905188292225e-13 1.5394527487962777e-13 6.377700329445588e-17
6.164241091010745 1.1103895782738012e-21 1.81687239408199e-13 1.8162139012167383e-13 6.584928652520091e-17
6.187401249150058 1.2989735401613877e-21 2.1334281362051952e-13 2.132748305930543e-13 6.798302746520248e-17
6.1990139391386085 1.3910526403630625e-21 2.288946336292431e-13 2.2882556364122345e-13 6.906998801976313e-17
6.204828454712694 1.439549338250583e-21 2.370968402797895e-13 2.370272206652917e-13 6.961961449779135e-17
6.210648424152782 1.474950205764587e-21 2.431552982015401e-13 2.430852054845609e-13 7.009271697910316e-17
6.233982942956859 1.5951921140395728e-21 2.63966027535268e-13 2.638942646730214e-13 7.17628622466359e-17
6.239830258556775 1.6105461371887155e-21 2.66756726510453e-13 2.666847164515117e-13 7.201005894123747e-17
6.245683058788269 1.611852111025998e-21 2.6722345039348046e-13 2.671511925107366e-13 7.225788274389247e-17
6.257405133728602 1.6084904301440204e-21 2.6716661536072223e-13 2.670939145820329e-13 7.27007786891963e-17
6.269149208991335 1.5847697201548799e-21 2.6372069043895964e-13 2.6364778308651466e-13 7.290735244496334e-17
6.280915325867298 1.5253696375516865e-21 2.543123606400007e-13 2.5423953967468123e-13 7.282096531943659e-17
6.304513850009849 1.378917554276967e-21 2.3075936574036863e-13 2.3068698340413414e-13 7.238233623451167e-17
6.32820103803542 1.1974482354384668e-21 2.0114370667080245e-13 2.0107204584007482e-13 7.166083072763573e-17
6.3519772230701035 1.031038753415688e-21 1.7384145750362155e-13 1.737704285528416e-13 7.102895077991454e-17
6.375842739491607 8.910127637150511e-22 1.5079639352949082e-13 1.5072590522772696e-13 7.048830176383185e-17
6.399797922933955 7.788199854640671e-22 1.3230394123349936e-13 1.322336546501488e-13 7.028658335057352e-17
6.42384311029221 6.855160636531694e-22 1.1689124780079358e-13 1.1682109550654928e-13 7.015229424428976e-17
6.447978639727206 6.175309621314301e-22 1.0569434714729199e-13 1.0562406288815241e-13 7.028425913956225e-17
6.472204850670314 5.608803871726295e-22 9.635892395138812e-14 9.628845385481535e-14 7.047009657277286e-17
6.496522083828205 5.240592312232284e-22 9.037134117483805e-14 9.03004677043063e-14 7.087347053175511e-17
