Dust emission spectrum from A.P. Jones, M. Kohler, N. Ysard, M. Bocchio, and L. Verstraete (2017), A&A, 602A, 46J 
inside the DustPedia framework.

lambda    nu*dP/dnu     j_nu    j_nu(carb.) j_nu(sil)
 (um)   (erg s-1 H-1) (Jy cm2 sr-1 H-1)
0.9927057738263894 1.8110963033062927e-26 4.772341627428477e-19 4.772341627428477e-19 1.4755851789884724e-39
1.0001793341362166 1.840852936632605e-26 4.887270810477893e-19 4.887270810477893e-19 2.0096278962571716e-39
1.0077091589558085 1.8705617688485944e-26 5.0035321276385355e-19 5.0035321276385355e-19 2.7335378507185173e-39
1.0114953028030835 1.8853945818843135e-26 5.062156389758875e-19 5.062156389758875e-19 3.1865990103463586e-39
1.0152956718711033 1.9002110435350785e-26 5.121106476446616e-19 5.121106476446616e-19 3.713599791803478e-39
1.0229392996569957 1.9297744801722404e-26 5.2399344695782065e-19 5.2399344695782065e-19 5.038792057008887e-39
1.0267826658714554 1.9444854080506127e-26 5.299716639948479e-19 5.299716639948479e-19 5.8666337880446426e-39
1.0306404723013447 1.959173451629767e-26 5.359811460228727e-19 5.359811460228727e-19 6.82836822916997e-39
1.03451277320114 1.973837186900102e-26 5.420216290279419e-19 5.420216290279419e-19 7.94529701037816e-39
1.0383996230291617 1.9884751979813514e-26 5.48092845784815e-19 5.48092845784815e-19 9.24205105448477e-39
1.0403485208654093 1.9957841167783488e-26 5.511398949497409e-19 5.511398949497409e-19 9.966594112245878e-39
1.0423010764483396 2.003086077394339e-26 5.541945259201092e-19 5.541945259201092e-19 1.0747100817365663e-38
1.0462171883269815 2.0176684263266963e-26 5.60326395975526e-19 5.60326395975526e-19 1.2493343025131243e-38
1.0471985131304309 2.0213093925951441e-26 5.618640483298956e-19 5.618640483298956e-19 1.2971920029819837e-38
1.048180758391296 2.0249484671676175e-26 5.634035659395992e-19 5.634035659395992e-19 1.3468565802932328e-38
1.0501480137395462 2.0322208548924973e-26 5.664881794711228e-19 5.664881794711228e-19 1.4518775094815826e-38
1.0521189612883777 2.039485417201926e-26 5.695802015483499e-19 5.695802015483499e-19 1.5649644644993822e-38
1.0531058218030118 2.043109095653575e-26 5.711274103324326e-19 5.711274103324326e-19 1.6247207563030091e-38
1.0540936079674168 2.046712358860694e-26 5.726713082890527e-19 5.726713082890527e-19 1.6867231663019404e-38
1.058054026499678 2.0611040223956008e-26 5.788648622117434e-19 5.788648622117434e-19 1.958927746516616e-38
1.0590464539527713 2.0646964852738445e-26 5.804177187456153e-19 5.804177187456153e-19 2.033483234169235e-38
1.06003981227728 2.0682867248151263e-26 5.81972353475373e-19 5.81972353475373e-19 2.1108344159284128e-38
1.0620293250338977 2.0754604499360375e-26 5.850869393879539e-19 5.850869393879539e-19 2.2743402907487288e-38
1.0660195594769086 2.0897802989374477e-26 5.913372495051118e-19 5.913372495051118e-19 2.639698187493738e-38
1.070024785945596 2.104062237247337e-26 5.976154996232491e-19 5.976154996232491e-19 3.062768995866136e-38
1.0740450607676866 2.1183049433245224e-26 6.039213942385213e-19 6.039213942385213e-19 3.552504557383627e-38
1.07808044048254 2.1325071064522074e-26 6.102546353465763e-19 6.102546353465763e-19 4.119217603015968e-38
1.0861967418109137 2.1607593479274406e-26 6.22994667455776e-19 6.22994667455776e-19 5.532864276468127e-38
1.0902777775684922 2.174749404441372e-26 6.293841675905782e-19 6.293841675905782e-19 6.409169034431938e-38
1.0943741465085532 2.1886927896573295e-26 6.357993286074458e-19 6.357993286074458e-19 7.421809684258453e-38
1.1026131145906286 2.2164345735781363e-26 6.487053844971083e-19 6.487053844971083e-19 9.942406530550755e-38
1.1109141095355224 2.2439748772660078e-26 6.617103173066049e-19 6.617103173066049e-19 1.3301104486803131e-37
1.1192775983109025 2.2712783210184227e-26 6.748039256212103e-19 6.748039256212103e-19 1.7770090828242223e-37
1.1277040513999907 2.298217187120627e-26 6.879480467334414e-19 6.879480467334414e-19 2.3707445614408885e-37
1.1361939428280308 2.3249226811979874e-26 7.011814482480491e-19 7.011814482480491e-19 3.1584272285159834e-37
1.1447477501889525 2.3513858783067797e-26 7.145014876247565e-19 7.145014876247565e-19 4.201844835374979e-37
1.1533659546722406 2.3776126202790732e-26 7.279099535236141e-19 7.279099535236141e-19 5.581939527824432e-37
1.1707974979042381 2.429442488565008e-26 7.550189313881153e-19 7.550189313881153e-19 9.807974455347184e-37
1.1884924949847024 2.4802145399953553e-26 7.824473532936287e-19 7.824473532936287e-19 1.71310829586243e-36
1.2064549276569216 2.5303299201036713e-26 8.103221035374953e-19 8.103221035374953e-19 2.9741858962378707e-36
1.2246888378427687 2.579236491628594e-26 8.384677390116161e-19 8.384677390116161e-19 5.13161790081303e-36
1.2431983285522175 2.626819508566623e-26 8.66842275698574e-19 8.66842275698574e-19 8.798287348887228e-36
1.2619875648066055 2.673061472642189e-26 8.954337407680875e-19 8.954337407680875e-19 1.4988633475814434e-35
1.3004222497298317 2.760748560385955e-26 9.52973181490428e-19 9.52973181490428e-19 4.2658987711915904e-35
1.3400274889804893 2.84195710491648e-26 1.0108824554353112e-18 1.0108824554353112e-18 1.1825600018898332e-34
1.3808389325824078 2.916388976704792e-26 1.0689512623986913e-18 1.068951262398691e-18 3.1925417284868558e-34
1.4228933163050095 2.984418869239536e-26 1.1272014781806005e-18 1.1272014781805995e-18 8.394091106406096e-34
1.466228494730424 3.04771690899198e-26 1.1861666598510222e-18 1.1861666598510203e-18 2.1501237879749937e-33
1.5108834753276823 3.105036600409745e-26 1.2452803297770169e-18 1.2452803297770115e-18 5.366371448823389e-33
1.5568984535646726 3.1553722604750807e-26 1.3040082035376301e-18 1.3040082035376168e-18 1.3053947717344562e-32
1.6043148490894465 3.1988255184197056e-26 1.3622273269410667e-18 1.362227326941036e-18 3.096215375892114e-32
1.6531753430134553 3.235539183503625e-26 1.419825644071743e-18 1.419825644071671e-18 7.16360021941661e-32
1.7035239163302658 3.265970465335598e-26 1.4768280116890725e-18 1.476828011688911e-18 1.61755310470722e-31
1.755405889504358 3.292725656120874e-26 1.5342726090087318e-18 1.5342726090083753e-18 3.5671215908112314e-31
1.8088679632656115 3.315167017790455e-26 1.59177512323135e-18 1.5917751232305812e-18 7.685947999988877e-31
1.8639582606462262 3.332865079375742e-26 1.6490102267685344e-18 1.6490102267669155e-18 1.6188332030735802e-30
1.9207263702978936 3.3461394263006447e-26 1.7059997576864241e-18 1.705999757683089e-18 3.3346666925655824e-30
1.979223391128241 3.355727779847285e-26 1.7629945557345146e-18 1.7629945557277923e-18 6.722066689332072e-30
2.039501978296691 3.362511550607372e-26 1.8203602721778646e-18 1.820360272164596e-18 1.326794681256262e-29
2.1016163906111602 3.3689498423425676e-26 1.879392221654205e-18 1.8793922216285456e-18 2.5659686740821743e-29
2.1656225393682647 3.376469005652559e-26 1.940952750769696e-18 1.940952750721042e-18 4.8653547307757356e-29
2.231578038680979 3.385173856298431e-26 2.00522213501122e-18 2.005222134920732e-18 9.048798221773488e-29
2.299542257339062 3.3959197569327107e-26 2.0728517734190243e-18 2.072851773253865e-18 1.6515906059336288e-28
2.369576372248914 3.410595251779484e-26 2.145212539351735e-18 2.1452125390557315e-18 2.960033140530726e-28
2.4417434235010123 3.4314312303446625e-26 2.2240510891991993e-18 2.2240510886779902e-18 5.212084759383007e-28
2.5161083711144245 3.462245737652337e-26 2.312366478639177e-18 2.3123664777369496e-18 9.022269481477691e-28
2.5927381535095444 3.5092877808963546e-26 2.4151664986996385e-18 2.415166497163267e-18 1.5363717184127487e-27
2.6717017477616296 3.580026780567592e-26 2.5388888191091836e-18 2.5388888165342406e-18 2.5749433716345207e-27
2.753070231689431 3.6857089934087096e-26 2.693442855495944e-18 2.6934428512468553e-18 4.249088663632109e-27
2.836916847834745 3.851798046951246e-26 2.9005446027007358e-18 2.9005445957923996e-18 6.908336646804003e-27
2.9233170693905177 4.1343590457175735e-26 3.2081417229945648e-18 3.2081417119213235e-18 1.1073240985689303e-26
2.967498994190263 4.3746434461032493e-26 3.4459000410567607e-18 3.4459000271074138e-18 1.3949346517641707e-26
3.0123486681368425 4.655384483886558e-26 3.722461598812559e-18 3.722461581298808e-18 1.7513750903886663e-26
3.0578761833420214 5.283901580774804e-26 4.288881521240828e-18 4.2888814992943995e-18 2.1946428467554228e-26
3.1040917844459814 6.094131706400641e-26 5.021296000670678e-18 5.021295973254295e-18 2.741638335319569e-26
3.127460860933648 6.951246311333465e-26 5.770640162624154e-18 5.770640131964012e-18 3.066014078645718e-26
3.1510058709225794 8.093402316800038e-26 6.769393729332382e-18 6.769393695046011e-18 3.4286370942236225e-26
3.162844764501044 9.156389726127787e-26 7.687260162554772e-18 7.687260126222275e-18 3.6332497711102653e-26
3.1747281389236908 1.0392752761276331e-25 8.758032856161175e-18 8.75803281766851e-18 3.849266472613618e-26
3.1986289994194426 1.3841785296676575e-25 1.17523688090951e-17 1.1752368765819583e-17 4.3275513742316467e-26
3.2227097969389145 2.197162893499644e-25 1.8795456933864422e-17 1.8795456884488924e-17 4.9375499644595366e-26
3.2348180950136065 2.968136644795636e-25 2.548608854655444e-17 2.5486088493241963e-17 5.331247728729688e-26
3.240889293275058 3.5445246244213544e-25 3.049240131350001e-17 3.049240125776642e-17 5.573358598819435e-26
3.2469718861334385 4.211300793004677e-25 3.629645608628526e-17 3.629645602780438e-17 5.84808853126205e-26
3.2714166318528037 7.768147261646651e-25 6.745633479003668e-17 6.745633471890941e-17 7.112727831855347e-26
3.2744851364798273 7.990462540654773e-25 6.945193919370652e-17 6.945193912124562e-17 7.246090645032716e-26
3.2775565192852394 8.219163874380804e-25 7.150678662412493e-17 7.15067865503064e-17 7.381849642596507e-26
3.283707930232385 7.999099692204233e-25 6.972283927100526e-17 6.97228391956353e-17 7.536996512593533e-26
3.2898708863219004 7.301416632813311e-25 6.376104377816822e-17 6.376104370217339e-17 7.599482387428664e-26
3.29141343181113 7.136889103927089e-25 6.235349749840573e-17 6.235349742225414e-17 7.615158190941312e-26
3.292184975758714 7.056046627030075e-25 6.166164458682099e-17 6.166164451059094e-17 7.62300426949034e-26
3.295272960557952 6.545750999290766e-25 5.72559082817128e-17 5.725590820537133e-17 7.634147693573413e-26
3.3076538914384823 4.778053742853444e-25 4.195082660279514e-17 4.195082652611783e-17 7.667730231536432e-26
3.310756385682612 4.418312059511599e-25 3.882871736694189e-17 3.8828717290180616e-17 7.676128434516592e-26
3.313861789986515 4.0864053997102647e-25 3.5945561662025886e-17 3.5945561585180597e-17 7.684528634647124e-26
3.3200813396944477 3.6209333199451016e-25 3.1910872893023846e-17 3.191087281544885e-17 7.757501000027912e-26
3.345076488085796 2.7905010749818273e-25 2.4777511132899784e-17 2.4777511048959575e-17 8.394020305704492e-26
3.3482140837626964 2.8216202616448296e-25 2.5077325507091404e-17 2.5077325421946214e-17 8.514519790533428e-26
3.3513546224236106 2.853083578221384e-25 2.5380741863246473e-17 2.5380741776880067e-17 8.636640919713607e-26
3.3576445397418455 3.083094978373514e-25 2.7478375510899283e-17 2.7478375421514058e-17 8.938522321007284e-26
3.3702598118196083 3.931551669256829e-25 3.5171978775032086e-17 3.5171978678347654e-17 9.668444568967962e-26
3.382922481734668 4.124688375249787e-25 3.703843448795925e-17 3.703843438529277e-17 1.0266647416670447e-25
3.389271646505754 4.224746347941525e-25 3.800812543907479e-17 3.800812533328799e-17 1.0578679438260198e-25
3.395632727569191 4.332548153566269e-25 3.9051124314454693e-17 3.905112420529739e-17 1.0915730686636629e-25
3.421196662673239 4.8501137870043085e-25 4.404528255029424e-17 4.4045282426327696e-17 1.2396655087024688e-25
3.4276182099114902 4.745677419863251e-25 4.3177758097609815e-17 4.3177757971010533e-17 1.2659927807276945e-25
3.4340518103208963 4.288278506647297e-25 3.908942297102062e-17 3.908942284243969e-17 1.2858092797270117e-25
3.4469541582030403 3.636896855257191e-25 3.3276368506131567e-17 3.3276368374529963e-17 1.31601606872162e-25
3.472904465399547 3.4542987242897303e-25 3.184360014508661e-17 3.1843600001103397e-17 1.4398321498519512e-25
3.4990501388274233 3.175059505661568e-25 2.9489775595660454e-17 2.9489775438690514e-17 1.569699366968905e-25
3.5253949054701885 2.1814645789061755e-25 2.0413871244581728e-17 2.0413871077688845e-17 1.6689288546739955e-25
3.5519380250092896 1.2478076282150498e-25 1.1764743117767315e-17 1.17647429415095e-17 1.762578113260877e-25
3.578680990867387 8.776772445464557e-26 8.337335114642956e-18 8.337334923987219e-18 1.9065573651656177e-25
3.605625307711299 7.28009790365738e-26 6.96766474745248e-18 6.967664539185491e-18 2.082669888356675e-25
3.660119384959845 6.189292368628642e-26 6.013200469438872e-18 6.013200219317611e-18 2.501212605866674e-25
3.715437065384467 5.418113963944679e-26 5.3435204778550444e-18 5.34352017821553e-18 2.996395138516938e-25
3.8285932144167436 5.0314064002033006e-26 5.1132621173438166e-18 5.11326168827431e-18 4.2906950758416655e-25
3.94519561050918 4.964720755360886e-26 5.199155425394562e-18 5.1991548165446746e-18 6.088498865631788e-25
4.06534921144712 5.032066218444463e-26 5.430172646613638e-18 5.430171790698371e-18 8.559152655823664e-25
4.189162171576248 5.179735516208398e-26 5.759757393526577e-18 5.759756201287414e-18 1.1922391619253375e-24
4.316745939156006 5.388637956336544e-26 6.1745445440397736e-18 6.174542897887754e-18 1.6461520184782e-24
4.448215356677963 5.653514879067917e-26 6.675345945271061e-18 6.675343691479138e-18 2.2537919228554752e-24
4.58368876423945 5.977093276315941e-26 7.27234690559105e-18 7.272343844524334e-18 3.0610667159501333e-24
4.723288106065518 6.368109459616251e-26 7.984070990289721e-18 7.984066864139842e-18 4.126149878137976e-24
4.867139040275056 6.842196591675523e-26 8.839724588809927e-18 8.839719066001121e-18 5.522808805521826e-24
4.940699165968905 7.127656331922524e-26 9.347696332383446e-18 9.347689957573428e-18 6.374810017433429e-24
5.015371051989984 7.426684997412452e-26 9.88706764953505e-18 9.88706030452431e-18 7.345010739158363e-24
5.091171501069577 7.786960479273349e-26 1.0523377030039444e-17 1.0523368575724231e-17 8.454315210303564e-24
5.129500256944802 7.973339704487672e-26 1.0856373007803637e-17 1.0856363943594972e-17 9.064208664420899e-24
5.168117569889187 8.167996590967308e-26 1.120514202976575e-17 1.1205132315217706e-17 9.714548047407617e-24
5.20702561229733 8.401966672462363e-26 1.1612884361539337e-17 1.161287394786725e-17 1.0413672088852619e-23
5.246226572918644 8.642780588958495e-26 1.2035661471744204e-17 1.2035650313525383e-17 1.1158218821839127e-23
5.265937586045735 8.765827140341836e-26 1.2252876118977368e-17 1.2252864570636353e-17 1.154834101543968e-23
5.285722656980489 8.890673565150654e-26 1.2474078410975304e-17 1.2474066460161665e-17 1.1950813637884703e-23
5.305582063971359 9.017350695954883e-26 1.2699348156344407e-17 1.2699335790358767e-17 1.2365985641357747e-23
5.3255160863122235 9.152611594928626e-26 1.293826871341119e-17 1.2938255917505994e-17 1.2795905197236295e-23
5.365609099470188 9.482195652628266e-26 1.350508665182362e-17 1.350507294153511e-17 1.3710288514373998e-23
5.406003951863644 9.82486214604524e-26 1.4098478856128958e-17 1.4098464172451232e-17 1.4683677725432808e-23
5.446702915881641 1.0181227036789391e-25 1.4719845206765148e-17 1.471982948730489e-17 1.5719460258763504e-23
5.487708281020852 1.0565115234565531e-25 1.5389860675108188e-17 1.538984384937361e-17 1.68257345783221e-23
5.529022354014368 1.1084286612723179e-25 1.626767644389935e-17 1.626765840016721e-17 1.8043732143645143e-23
5.570647458961463 1.16337072154415e-25 1.7202566191843557e-17 1.7202546850385088e-17 1.9341458470586354e-23
5.612585937458331 1.2215478403344112e-25 1.819880690670579e-17 1.8198786183146733e-17 2.0723559062207062e-23
5.654840148729818 1.2852567135486163e-25 1.9292106330426155e-17 1.9292084126467685e-17 2.220395847267322e-23
5.67608639626678 1.3278148343384626e-25 2.0005801095999626e-17 2.0005778076187767e-17 2.301981185741575e-23
5.686739436050992 1.3497345571333205e-25 2.0374226495659386e-17 2.037420305774369e-17 2.3437915697951165e-23
5.6974124697621304 1.3720946933163816e-25 2.0750624879535954e-17 2.0750601016596924e-17 2.3862939031913733e-23
5.718818669136295 1.4181776373489566e-25 2.1528134208520026e-17 2.1528109474363724e-17 2.4734156299099525e-23
5.740305295436557 1.4687606011691343e-25 2.2379760681178433e-17 2.2379735033186745e-17 2.5647991684217048e-23
5.7835210386641895 1.5985199388122794e-25 2.4540296775940677e-17 2.4540269095376282e-17 2.768056439416096e-23
5.827062130521658 1.7473919045312053e-25 2.702771937970729e-17 2.7027689489643068e-17 2.989006422615869e-23
5.8489554468988025 1.8507337871727177e-25 2.873370970807738e-17 2.8733678518463744e-17 3.1189613636837835e-23
5.870931020387893 1.961464302719268e-25 3.0567281709828814e-17 3.056724916839886e-17 3.2541429952936214e-23
5.892989160043636 2.08017273305275e-25 3.253902043150065e-17 3.2538986484065525e-17 3.394743513173735e-23
5.915130176081913 2.2148074708037376e-25 3.477520665746023e-17 3.4775171198112417e-17 3.545934781470309e-23
5.95966208400165 2.588878504642927e-25 4.095460469435521e-17 4.095456555010127e-17 3.9144253939814645e-23
6.004529249263818 3.1253500249668745e-25 4.981350044985256e-17 4.981345663528332e-17 4.381456923225092e-23
6.027089341400364 3.49704543765164e-25 5.59471975854202e-17 5.594715079147015e-17 4.679395004534476e-23
6.049734195844842 3.9356450092111393e-25 6.320066462436883e-17 6.320061449145638e-17 5.0132912456100933e-23
6.095279466722835 5.199677761120576e-25 8.412779104421542e-17 8.412773184633446e-17 5.919788094422359e-23
6.141167624020661 7.141163458146062e-25 1.16409750582644e-16 1.1640967819678983e-16 7.238585420339174e-23
6.164241091010745 8.380529230702248e-25 1.3712621682500662e-16 1.3712613575853391e-16 8.10664727170365e-23
6.187401249150058 9.79129602177955e-25 1.6081179313462518e-16 1.6081170247653248e-16 9.065809268779036e-23
6.1990139391386085 1.0480403279123318e-24 1.7245271668766893e-16 1.7245262108907254e-16 9.559859634721258e-23
6.204828454712694 1.0843293143515386e-24 1.7859134621112123e-16 1.7859124804231262e-16 9.81688086436257e-23
6.210648424152782 1.1108645303852017e-24 1.8313336619205128e-16 1.831332658864597e-16 1.003055915965348e-22
6.233982942956859 1.201106535703354e-24 1.987543181074155e-16 1.987542102080145e-16 1.0789940101375492e-22
6.239830258556775 1.2127095069465484e-24 2.0086255886208173e-16 2.008624499117716e-16 1.0895031011403885e-22
6.245683058788269 1.2138413628989806e-24 2.0123860930251233e-16 2.0123849929187663e-16 1.1001063568451948e-22
6.257405133728602 1.2116538646982617e-24 2.012529611327489e-16 2.0125284926708185e-16 1.118656670567496e-22
6.269149208991335 1.194292151488512e-24 1.9874152488577319e-16 1.987414124214889e-16 1.124642843538756e-22
6.280915325867298 1.1503273238605742e-24 1.917846337293209e-16 1.9178452222898423e-16 1.1150033672136528e-22
6.304513850009849 1.0417559407044843e-24 1.7433597780200756e-16 1.743358696853066e-16 1.0811670097667113e-22
6.32820103803542 9.070594239713088e-25 1.5236507876389746e-16 1.5236497585244373e-16 1.0291145377350489e-22
6.3519772230701035 7.835666011158399e-25 1.3211565475872816e-16 1.3211555677370745e-16 9.798502069515406e-23
6.375842739491607 6.796946546154341e-25 1.1503258627848202e-16 1.1503249262167145e-16 9.365681054637128e-23
6.399797922933955 5.966129025643033e-25 1.01351069404031e-16 1.013509786693371e-16 9.073469390618205e-23
6.42384311029221 5.27586734488144e-25 8.996181852956057e-17 8.996173026682231e-17 8.826273824384647e-23
6.447978639727206 4.7746889820973e-25 8.172183513718868e-17 8.172174803103096e-17 8.710615769957883e-23
6.472204850670314 4.357940577288745e-25 7.486916538274109e-17 7.486907910420284e-17 8.627853826179503e-23
6.496522083828205 4.0893930570413833e-25 7.05194972509665e-17 7.051941065230867e-17 8.659865784877631e-23
6.520930681187647 3.864076478897009e-25 6.688438377617304e-17 6.688429664511403e-17 8.713105900979633e-23
6.57002334288761 3.6399197753090303e-25 6.347871948575038e-17 6.347862948987374e-17 8.99958766574895e-23
