Dust emission spectrum from A.P. Jones, M. Kohler, N. Ysard, M. Bocchio, and L. Verstraete (2017), A&A, 602A, 46J 
inside the DustPedia framework.

lambda    nu*dP/dnu     j_nu    j_nu(carb.) j_nu(sil)
 (um)   (erg s-1 H-1) (Jy cm2 sr-1 H-1)
0.9927057738263894 1.7506070243698985e-20 4.612948941708625e-13 4.612947827422516e-13 1.1142861092346723e-19
1.0001793341362166 1.779966249222507e-20 4.72562306328175e-13 4.725621722678113e-13 1.3406036361814987e-19
1.0077091589558085 1.809453158581466e-20 4.840073801996007e-13 4.840072191272209e-13 1.6107237977711278e-19
1.0114953028030835 1.8242433742310075e-20 4.897969550813853e-13 4.897967786147686e-13 1.7646661679682768e-19
1.0152956718711033 1.8390641925246395e-20 4.956314499371627e-13 4.956312566700034e-13 1.9326715932798485e-19
1.0229392996569957 1.8687815188985635e-20 5.074319718495446e-13 5.074317402611254e-13 2.3158841925185075e-19
1.0267826658714554 1.8836443988331964e-20 5.133893791597022e-13 5.133891257675459e-13 2.533921562112651e-19
1.0306404723013447 1.898535572735892e-20 5.193921299789388e-13 5.193918528233259e-13 2.771556127885613e-19
1.03451277320114 1.913454687958779e-20 5.254404131818904e-13 5.254401101359823e-13 3.0304590815207015e-19
1.0383996230291617 1.9284014078964203e-20 5.315344222258211e-13 5.315340909822352e-13 3.3124358585280344e-19
1.0403485208654093 1.935885018933333e-20 5.345986356941174e-13 5.345982894260874e-13 3.4626803000318193e-19
1.0423010764483396 1.9433754124029747e-20 5.376743553439602e-13 5.376739934003396e-13 3.619436205285092e-19
1.0462171883269815 1.958376398209505e-20 5.438604157423566e-13 5.438600203858621e-13 3.9535649425096645e-19
1.0471985131304309 1.9621308265906398e-20 5.454141625323733e-13 5.45413758372545e-13 4.041598285066601e-19
1.048180758391296 1.965886919046209e-20 5.469708085825399e-13 5.469703954319965e-13 4.1315054322120635e-19
1.0501480137395462 1.9734040793413366e-20 5.500928118002692e-13 5.500923800909222e-13 4.317093468861419e-19
1.0521189612883777 1.980927846118748e-20 5.532264522847257e-13 5.532260012206236e-13 4.510641021251053e-19
1.0531058218030118 1.9846872624151792e-20 5.547962656102539e-13 5.54795804559541e-13 4.610507129637233e-19
1.0540936079674168 1.9884321527624958e-20 5.563644727295169e-13 5.563640014786707e-13 4.712508460999587e-19
1.058054026499678 2.003427389782617e-20 5.626662736749326e-13 5.626657594237281e-13 5.142512045543345e-19
1.0590464539527713 2.007180100211592e-20 5.642489843837223e-13 5.64248458810206e-13 5.255735162449932e-19
1.06003981227728 2.010934364276458e-20 5.658346063054103e-13 5.658340691714912e-13 5.371339191100905e-19
1.0620293250338977 2.0184475402462872e-20 5.690145980253395e-13 5.690140370372377e-13 5.60988101492413e-19
1.0660195594769086 2.033492396325575e-20 5.754096739949778e-13 5.754090622261849e-13 6.117687929627122e-19
1.070024785945596 2.048561769736481e-20 5.81851736064517e-13 5.818510691402537e-13 6.6692426338355e-19
1.0740450607676866 2.063655492153064e-20 5.883410252034381e-13 5.883402983925082e-13 7.268109299389937e-19
1.07808044048254 2.0787734156210667e-20 5.948777890960908e-13 5.948769972836314e-13 7.91812459357201e-19
1.0861967418109137 2.1090584572370053e-20 6.080881582076499e-13 6.080872193647867e-13 9.3884286332031e-19
1.0902777775684922 2.1241732771486877e-20 6.147471644898748e-13 6.147461426962373e-13 1.02179363745291e-18
1.0943741465085532 2.139311027851415e-20 6.21454286146476e-13 6.21453174439335e-13 1.1117071410203749e-18
1.1026131145906286 2.169655202325791e-20 6.350140126079773e-13 6.350126979383663e-13 1.3146696112132956e-18
1.1109141095355224 2.2000909743715914e-20 6.487696950192929e-13 6.487681423683366e-13 1.55265095666366e-18
1.1192775983109025 2.230595159608829e-20 6.627168305383121e-13 6.627149992176597e-13 1.8313206521893393e-18
1.1277040513999907 2.261060250119861e-20 6.768254938365583e-13 6.768233366348533e-13 2.1572017052167723e-18
1.1361939428280308 2.2916157739850765e-20 6.911363032524407e-13 6.911337654634554e-13 2.5377889851665358e-18
1.1447477501889525 2.3222633580799317e-20 7.056522025212631e-13 7.056492208391902e-13 2.981682072806426e-18
1.1533659546722406 2.3530155782430534e-20 7.203795292768097e-13 7.203760305371088e-13 3.498739701048097e-18
1.1707974979042381 2.414930406103353e-20 7.505088855467391e-13 7.505040864215064e-13 4.7991252325131406e-18
1.1884924949847024 2.4772949400353807e-20 7.81526290528888e-13 7.815197407996872e-13 6.549729200748438e-18
1.2064549276569216 2.5405355640182454e-20 8.135903962526496e-13 8.135815016361044e-13 8.894616545060973e-18
1.2246888378427687 2.604272548790062e-20 8.466065530792968e-13 8.465945334687889e-13 1.201961050766512e-17
1.2431983285522175 2.6684736755068053e-20 8.805880213598195e-13 8.805718578167265e-13 1.616354309283317e-17
1.2619875648066055 2.733255115227312e-20 9.155976685722534e-13 9.155760367540842e-13 2.163181816941201e-17
1.3004222497298317 2.8642791965769955e-20 9.88710561260685e-13 9.886723643257316e-13 3.819693495334353e-17
1.3400274889804893 2.997971677311467e-20 1.066376746237061e-12 1.0663105390720895e-12 6.620716497150323e-17
1.3808389325824078 3.1351172431064556e-20 1.1491222746881826e-12 1.1490095736679734e-12 1.127010202094773e-16
1.4228933163050095 3.277203738679183e-20 1.2377849961387815e-12 1.2375964952968127e-12 1.8850084196868468e-16
1.466228494730424 3.427045148361234e-20 1.33380061802879e-12 1.33349067678854e-12 3.0994124024961964e-16
1.5108834753276823 3.585023933457797e-20 1.4377800846295015e-12 1.4372788765958167e-12 5.012080336849012e-16
1.5568984535646726 3.7518465460581547e-20 1.5505107703956107e-12 1.5497127940491129e-12 7.979763464983723e-16
1.6043148490894465 3.9294210860441914e-20 1.673353157790311e-12 1.6720999810574989e-12 1.2531767328119927e-15
1.6531753430134553 4.1199584848956685e-20 1.8079282547991062e-12 1.8059893128942904e-12 1.9389419048154842e-15
1.7035239163302658 4.326125408758524e-20 1.9562158487180093e-12 1.95325955116297e-12 2.9562975550397893e-15
1.755405889504358 4.5529805132584176e-20 2.1214987279178516e-12 2.1170546798711285e-12 4.444048046722971e-15
1.8088679632656115 4.802872237553501e-20 2.3060957432218838e-12 2.2995069002206868e-12 6.588843001196885e-15
1.8639582606462262 5.07851070505925e-20 2.5127078024306828e-12 2.5030692738152473e-12 9.638528615435575e-15
1.9207263702978936 5.3837766508834273e-20 2.7448711759148687e-12 2.730954188705436e-12 1.3916987209432289e-14
1.979223391128241 5.723406833334174e-20 3.0068991734130075e-12 2.9870574936935534e-12 1.9841679719454415e-14
2.039501978296691 6.102575869690041e-20 3.3037467690269875e-12 3.2758044235313707e-12 2.7942345495614914e-14
2.1016163906111602 6.528721333706026e-20 3.642092837862829e-12 3.603208441536018e-12 3.8884396326811635e-14
2.1656225393682647 7.008642048848659e-20 4.028896175590355e-12 3.975407399942707e-12 5.348877564764784e-14
2.231578038680979 7.547828933002027e-20 4.4709885784960705e-12 4.39823453015543e-12 7.275404834063992e-14
2.299542257339062 8.153210410116842e-20 4.976677267820384e-12 4.878798435419095e-12 9.78788324012885e-14
2.369576372248914 8.832783395557623e-20 5.555686412112886e-12 5.425401343025863e-12 1.302850690870214e-13
2.4417434235010123 9.595053851184177e-20 6.2189472952100236e-12 6.047313808460414e-12 1.716334867496082e-13
2.5161083711144245 1.0450094891160368e-19 6.979414794890634e-12 6.755569791284276e-12 2.238450036063574e-13
2.5927381535095444 1.1409570314838906e-19 7.85230898958032e-12 7.563199087152524e-12 2.891099024277951e-13
2.6717017477616296 1.2484312685368809e-19 8.853643794843499e-12 8.483767517198119e-12 3.698762776453821e-13
2.753070231689431 1.3686141566627896e-19 1.0001560157859218e-11 9.53271487707014e-12 4.688452807890802e-13
2.836916847834745 1.503487708946851e-19 1.1321811544258988e-11 1.0732834986954523e-11 5.889765573044602e-13
2.9233170693905177 1.6563887604913363e-19 1.2853092421994047e-11 1.2119785735630223e-11 7.333066863638235e-13
2.967498994190263 1.7412472708243657e-19 1.3715778476456982e-11 1.2901907660936416e-11 8.13870815520565e-13
3.0123486681368425 1.8313862950112718e-19 1.464382840851774e-11 1.3741700388614644e-11 9.021280199030954e-13
3.0578761833420214 1.9444206393650892e-19 1.578263641403662e-11 1.4783652864578926e-11 9.989835494576925e-13
3.1040917844459814 2.0687628257039403e-19 1.7045694125929425e-11 1.594167056013055e-11 1.104023565798868e-12
3.127460860933648 2.156266146532046e-19 1.790043895610093e-11 1.6740316443225535e-11 1.160122512875389e-12
3.1510058709225794 2.258578865096171e-19 1.889095464196533e-11 1.7672460127057628e-11 1.2184945149077008e-12
3.162844764501044 2.3369010246229e-19 1.961948615965491e-11 1.837082354026123e-11 1.2486626193936798e-12
3.1747281389236908 2.423134669640364e-19 2.0419895997802324e-11 1.9140479601483274e-11 1.2794163963190509e-12
3.1986289994194426 2.643676015388662e-19 2.2446133124219417e-11 2.1103264370987326e-11 1.3428687532320806e-12
3.2227097969389145 3.105272583215032e-19 2.656380975593675e-11 2.515380911720064e-11 1.4100006387361182e-12
3.2348180950136065 3.5214580899694496e-19 3.023721729634898e-11 2.8791417207315982e-11 1.4458000890329973e-12
3.240889293275058 3.827606248431596e-19 3.292766115746477e-11 3.1462977561159095e-11 1.4646835963056658e-12
3.2469718861334385 4.18080996188636e-19 3.603366101010389e-11 3.454943861780159e-11 1.484222392302309e-12
3.2714166318528037 6.016456242583089e-19 5.2245158707671235e-11 5.0680277566433946e-11 1.5648811412372841e-12
3.2744851364798273 6.133524325689133e-19 5.331170208777105e-11 5.173733979130475e-11 1.5743622964662942e-12
3.2775565192852394 6.253564735545708e-19 5.440605954805921e-11 5.282217091405386e-11 1.5838886340053524e-12
3.283707930232385 6.152651913738491e-19 5.36285803376232e-11 5.2027704855536486e-11 1.6008754820867204e-12
3.2898708863219004 5.810628560196803e-19 5.074244638230274e-11 4.9126157224647844e-11 1.616289157654878e-12
3.29141343181113 5.72990510852085e-19 5.0060974557340835e-11 4.8440816085412216e-11 1.6201584719286107e-12
3.292184975758714 5.690230953865839e-19 4.972600341813291e-11 4.8103907902940367e-11 1.6220955151925357e-12
3.295272960557952 5.440778869885982e-19 4.75906792038111e-11 4.5961057520014606e-11 1.6296216837964923e-12
3.3076538914384823 4.571710899858747e-19 4.0139157397494646e-11 3.847932938683552e-11 1.6598280106591153e-12
3.310756385682612 4.393598151150883e-19 3.861152823456612e-11 3.6944091056554384e-11 1.6674371780117384e-12
3.313861789986515 4.2287995536863767e-19 3.719811429481736e-11 3.5523044898591816e-11 1.6750693962255449e-12
3.3200813396944477 4.0021036702225423e-19 3.527008377141617e-11 3.357857700181998e-11 1.6915067695961853e-12
3.345076488085796 3.632999592954341e-19 3.225825235019227e-11 3.049343620800563e-11 1.7648161421866302e-12
3.3482140837626964 3.655662563962552e-19 3.2489928324776376e-11 3.0715178729246486e-11 1.7747495955298857e-12
3.3513546224236106 3.6784915105276645e-19 3.2723487032598174e-11 3.0938761652584325e-11 1.7847253800138494e-12
3.3576445397418455 3.809560458858947e-19 3.3953067795278934e-11 3.214747720995713e-11 1.8055905853217943e-12
3.3702598118196083 4.2646681959891723e-19 3.815206612819083e-11 3.6302713670479946e-11 1.8493524577108955e-12
3.382922481734668 4.391536529073525e-19 3.943464893241041e-11 3.754283678126982e-11 1.8918121511405906e-12
3.389271646505754 4.456625245864539e-19 4.009423464258391e-11 3.8180915914205735e-11 1.9133187283781748e-12
3.395632727569191 4.52756907417573e-19 4.080893194744561e-11 3.887344929183601e-11 1.935482655609595e-12
3.421196662673239 4.863340755539689e-19 4.416540046752448e-11 4.213825095246568e-11 2.0271495150588138e-12
3.4276182099114902 4.822865474088466e-19 4.388004079373491e-11 4.183251761373487e-11 2.047523180000034e-12
3.4340518103208963 4.599823389817926e-19 4.1929282764137246e-11 3.9862530173698667e-11 2.0667525904385896e-12
3.4469541582030403 4.285073749493238e-19 3.9206966498917715e-11 3.710338754111694e-11 2.103578957800769e-12
3.472904465399547 4.2367952423482154e-19 3.90570776769409e-11 3.6868540486467634e-11 2.1885371904732796e-12
3.4990501388274233 4.1417000434118234e-19 3.846787899469706e-11 3.6192585020323536e-11 2.275293974373519e-12
3.5253949054701885 3.689443085554645e-19 3.4525344505244965e-11 3.216606066487849e-11 2.359283840366478e-12
3.5519380250092896 3.260698082624401e-19 3.074294022512678e-11 2.8299475038401963e-11 2.4434651867248166e-12
3.578680990867387 3.124694187239134e-19 2.9682463265014775e-11 2.7146761566246113e-11 2.5357016987686633e-12
3.605625307711299 3.1040967675604057e-19 2.970881148335407e-11 2.7076108661062542e-11 2.6327028222915347e-12
3.660119384959845 3.1624951256572983e-19 3.0725188020830445e-11 2.7889342832698393e-11 2.8358451881320564e-12
3.715437065384467 3.237663433472235e-19 3.1930891399275135e-11 2.888183819822067e-11 3.049053201054468e-12
3.8285932144167436 3.4530829345677496e-19 3.509260980519931e-11 3.1588620501978086e-11 3.503989303221229e-12
3.94519561050918 3.6897267278557544e-19 3.86395603713267e-11 3.4644416291647514e-11 3.995144079679188e-12
4.06534921144712 3.9363025475182994e-19 4.247718828496842e-11 3.795640621776598e-11 4.520782067202448e-12
4.189162171576248 4.1882676779647065e-19 4.6572659257869056e-11 4.14919340942043e-11 5.080725163664755e-12
4.316745939156006 4.442365521890113e-19 5.090262886108785e-11 4.523108529505567e-11 5.67154356603219e-12
4.448215356677963 4.695467151997569e-19 5.54413816620361e-11 4.915788344798439e-11 6.283498214051706e-12
4.58368876423945 4.945644813820223e-19 6.017380538539345e-11 5.325766761117091e-11 6.916137774222549e-12
4.723288106065518 5.191454040565914e-19 6.508829326121917e-11 5.7515973554219386e-11 7.572319706999792e-12
4.867139040275056 5.429978515378412e-19 7.01522003292016e-11 6.192005597584074e-11 8.232144353360887e-12
4.940699165968905 5.546996765739472e-19 7.274711196528731e-11 6.418187898680884e-11 8.565232978478446e-12
5.015371051989984 5.660870569574462e-19 7.536257468324716e-11 6.64633885336408e-11 8.899186149606362e-12
5.091171501069577 5.774747667742364e-19 7.804052315758594e-11 6.879884475735732e-11 9.241678400228621e-12
5.129500256944802 5.8302979214077335e-19 7.9384412714536e-11 6.997165411530923e-11 9.412758599226768e-12
5.168117569889187 5.885267375277268e-19 8.073614635938385e-11 7.115053154963932e-11 9.58561480974454e-12
5.20702561229733 5.94257088362458e-19 8.213599407382321e-11 7.2360240114746e-11 9.775753959077207e-12
5.246226572918644 5.998938279137153e-19 8.353930725699837e-11 7.357307231392687e-11 9.9662349430715e-12
5.265937586045735 6.026762334284387e-19 8.424210413716388e-11 7.418053272115324e-11 1.0061571416010672e-11
5.285722656980489 6.054342161528812e-19 8.494557616625795e-11 7.478862160348562e-11 1.0156954562772347e-11
5.305582063971359 6.081674488857416e-19 8.564965954158191e-11 7.539728822207497e-11 1.0252371319506928e-11
5.3255160863122235 6.109216832964692e-19 8.636080335495596e-11 7.601212312557165e-11 1.03486802293843e-11
5.365609099470188 6.167085454742196e-19 8.783516656546632e-11 7.728710699649065e-11 1.0548059568975668e-11
5.406003951863644 6.224067545092287e-19 8.931411288953674e-11 7.856639840982235e-11 1.0747714479714417e-11
5.446702915881641 6.280147513961764e-19 9.079730659883173e-11 7.984976656950636e-11 1.0947540029325362e-11
5.487708281020852 6.336141415710144e-19 9.229651682977771e-11 8.114810957878538e-11 1.1148407250992316e-11
5.529022354014368 6.398531223560086e-19 9.390702288551732e-11 8.254922630283524e-11 1.1357796582682096e-11
5.570647458961463 6.460409183744083e-19 9.552897846891018e-11 8.396156777115973e-11 1.1567410697750414e-11
5.612585937458331 6.521801504546436e-19 9.716279816974797e-11 8.538565516563231e-11 1.1777143004115647e-11
5.654840148729818 6.583958215125416e-19 9.882727755654531e-11 8.68392029848498e-11 1.1988074571695473e-11
5.67608639626678 6.620245720444388e-19 9.974532266454037e-11 8.764664585932902e-11 1.2098676805211355e-11
5.686739436050992 6.638438869372654e-19 1.0020715287119067e-10 8.805314894801827e-11 1.2154003923172412e-11
5.6974124697621304 6.656668014621396e-19 1.0067090966232864e-10 8.846156354701065e-11 1.2209346115317964e-11
5.718818669136295 6.6932439222206675e-19 1.0160437568123349e-10 8.928430676116399e-11 1.232006892006947e-11
5.740305295436557 6.73148832682603e-19 1.025688581669443e-10 9.01370952128988e-11 1.2431762954045536e-11
5.7835210386641895 6.820807738633002e-19 1.0471226669969195e-10 9.20498015778782e-11 1.2662465121813773e-11
5.827062130521658 6.915641350627242e-19 1.0696742572216437e-10 9.407166693780384e-11 1.2895758784360502e-11
5.8489554468988025 6.976973995366172e-19 1.0832154619596156e-10 9.529906428479846e-11 1.3022481911163108e-11
5.870931020387893 7.040192607275088e-19 1.0971372276298415e-10 9.65642834970391e-11 1.3149439265945064e-11
5.892989160043636 7.105465157385048e-19 1.1114696018160191e-10 9.787034323546893e-11 1.3276616946132968e-11
5.915130176081913 7.177132682967709e-19 1.1268982769307756e-10 9.928113473549373e-11 1.3408692957583869e-11
5.95966208400165 7.368210314279006e-19 1.1656095107784452e-10 1.0284709499468124e-10 1.3713856083163251e-11
6.004529249263818 7.627704164084847e-19 1.215744290315162e-10 1.0751478288565138e-10 1.4059646145864829e-11
6.027089341400364 7.802627654036805e-19 1.2482970519794158e-10 1.1056816625036588e-10 1.426153894757572e-11
6.049734195844842 8.00327981337714e-19 1.285208910347366e-10 1.1404503409528617e-10 1.4475856939450451e-11
6.095279466722835 8.569410289072877e-19 1.3864812230516122e-10 1.2363839174871721e-10 1.5009730556444037e-11
6.141167624020661 9.410862598722457e-19 1.5340863912520277e-10 1.3769725174877642e-10 1.5711387376426334e-11
6.164241091010745 9.943820576968604e-19 1.6270553553001565e-10 1.4654957039839717e-10 1.6155965131618432e-11
6.187401249150058 1.053199522787407e-18 1.729770026472883e-10 1.5636534661089389e-10 1.6611656036394436e-11
6.1990139391386085 1.0816778711627639e-18 1.7798769999102252e-10 1.611443240608988e-10 1.6843375930123676e-11
6.204828454712694 1.0965198059893196e-18 1.8059914613292703e-10 1.636388187088214e-10 1.6960327424105617e-11
6.210648424152782 1.1072579687554819e-18 1.82538800650022e-10 1.6547975347739267e-10 1.7059047172629272e-11
6.233982942956859 1.142885022306736e-18 1.891200543261846e-10 1.7172072751248276e-10 1.7399326813701896e-11
6.239830258556775 1.1469571412873664e-18 1.8997191411831893e-10 1.7252831922921675e-10 1.7443594889102174e-11
6.245683058788269 1.1467467040883006e-18 1.901152152220525e-10 1.7262731211711947e-10 1.7487903104933054e-11
6.257405133728602 1.144428623326606e-18 1.900870008836321e-10 1.7252326539891603e-10 1.7563735484716074e-11
6.269149208991335 1.13571136899268e-18 1.8899312787277032e-10 1.7140987129614474e-10 1.7583256576625567e-11
6.280915325867298 1.1159545606583337e-18 1.860539450250984e-10 1.6852068611661233e-10 1.7533258908486053e-11
6.304513850009849 1.0680508223935836e-18 1.7873637882814163e-10 1.6136583347426925e-10 1.7370545353872395e-11
6.32820103803542 1.0104709648015002e-18 1.6973583435861191e-10 1.525947122645807e-10 1.7141122094031226e-11
6.3519772230701035 9.582567120162566e-19 1.6156981774706539e-10 1.4463669472133437e-10 1.6933123025731042e-11
6.375842739491607 9.138609369970903e-19 1.5466325410655233e-10 1.379160581361466e-10 1.6747195970405734e-11
6.399797922933955 8.794856877906848e-19 1.494047725082821e-10 1.3276466150191217e-10 1.6640111006369908e-11
6.42384311029221 8.505673397498505e-19 1.450350808004758e-10 1.2848624159420794e-10 1.654883920626787e-11
6.447978639727206 8.300186296807993e-19 1.4206296131517794e-10 1.2554415750217122e-10 1.6518803813006707e-11
6.472204850670314 8.127645851408919e-19 1.3963248250623537e-10 1.2313162085459216e-10 1.650086165164326e-11
6.496522083828205 8.018948003752352e-19 1.3828266782342088e-10 1.2175035021807896e-10 1.6532317605341988e-11
6.520930681187647 7.92707468645383e-19 1.372119595579299e-10 1.2064090256515378e-10 1.657105699277606e-11
6.57002334288761 7.835908017955286e-19 1.366550467298954e-10 1.199388568246304e-10 1.6716189905265007e-11
