Dust emission spectrum from A.P. Jones, M. Kohler, N. Ysard, M. Bocchio, and L. Verstraete (2017), A&A, 602A, 46J 
inside the DustPedia framework.

lambda    nu*dP/dnu     j_nu    j_nu(carb.) j_nu(sil)
 (um)   (erg s-1 H-1) (Jy cm2 sr-1 H-1)
0.9927057738263894 1.8908919340531824e-23 4.982607646747876e-16 4.982607266989162e-16 3.7975871374523567e-23
1.0001793341362166 1.9226583038311066e-23 5.104455450974491e-16 5.10445499376671e-16 4.572077839745161e-23
1.0077091589558085 1.9544875142413086e-23 5.228023598811358e-16 5.228023049082533e-16 5.497288263256242e-23
1.0114953028030835 1.9704232485596857e-23 5.290452584337535e-16 5.290451981845363e-16 6.024921738839953e-23
1.0152956718711033 1.9863717888682775e-23 5.353311395180512e-16 5.353310735078435e-16 6.601020776551789e-23
1.0229392996569957 2.0182880012921338e-23 5.480276050993704e-16 5.480275259393026e-16 7.916006803567758e-23
1.0267826658714554 2.0342186402217496e-23 5.544285563800932e-16 5.544284697329597e-16 8.664713335446313e-23
1.0306404723013447 2.0501575432787004e-23 5.60872131387787e-16 5.608720365767461e-16 9.481104087877081e-23
1.03451277320114 2.0661038071984366e-23 5.673583205093435e-16 5.673582167994249e-16 1.0370991878169691e-22
1.0383996230291617 2.082056540964292e-23 5.738871150017278e-16 5.738870015951231e-16 1.1340660453038587e-22
1.0403485208654093 2.090035059038557e-23 5.771674868017379e-16 5.771673682266009e-16 1.1857513705821898e-22
1.0423010764483396 2.0980148661841105e-23 5.804585071305187e-16 5.804583831615168e-16 1.239690017057056e-22
1.0462171883269815 2.1139779174650738e-23 5.870724903107833e-16 5.870723548403216e-16 1.354704618233052e-22
1.0471985131304309 2.1179693185870821e-23 5.887326403069853e-16 5.887325018052827e-16 1.3850170281499827e-22
1.048180758391296 2.121960948589567e-23 5.90395451836936e-16 5.903953102390837e-16 1.4159785244032797e-22
1.0501480137395462 2.1299448427866908e-23 5.937290592502881e-16 5.937289112600956e-16 1.4799019275051425e-22
1.0521189612883777 2.1379294957041935e-23 5.970733121151765e-16 5.970731574568061e-16 1.5465837043259025e-22
1.0531058218030118 2.1419164852288394e-23 5.987478681189887e-16 5.987477100193454e-16 1.5809964324710254e-22
1.0540936079674168 2.1458853142508298e-23 6.004199588819358e-16 6.004197972670141e-16 1.6161492172649591e-22
1.058054026499678 2.1617611298725366e-23 6.071345963043227e-16 6.071344198653941e-16 1.764389286246342e-22
1.0590464539527713 2.165730145908016e-23 6.088198239654664e-16 6.088196436220335e-16 1.8034343299786168e-22
1.06003981227728 2.16969916189865e-23 6.105076788599359e-16 6.105074945293815e-16 1.8433055457241312e-22
1.0620293250338977 2.1776371444242318e-23 6.138912702325712e-16 6.138910776732435e-16 1.9255932790161278e-22
1.0660195594769086 2.1935125697591635e-23 6.206899789493609e-16 6.206897688658167e-16 2.1008354390601626e-22
1.070024785945596 2.2093866331569817e-23 6.275307228375613e-16 6.275304937101875e-16 2.291273738038331e-22
1.0740450607676866 2.2252585776820174e-23 6.344135045381289e-16 6.344132547225333e-16 2.498155957507314e-22
1.07808044048254 2.2411276625394606e-23 6.413383291104144e-16 6.413380568277966e-16 2.72282617725932e-22
1.0861967418109137 2.2728287636618474e-23 6.553067564694777e-16 6.553064333263984e-16 3.231430794685881e-22
1.0902777775684922 2.288601144356559e-23 6.623334731100642e-16 6.6233312125002e-16 3.5186004413860056e-22
1.0943741465085532 2.3043668479842133e-23 6.694018008086935e-16 6.694014178043921e-16 3.830043012499241e-22
1.1026131145906286 2.335875645680608e-23 6.836633604854976e-16 6.83662907120703e-16 4.533647946377293e-22
1.1109141095355224 2.367350186226281e-23 6.980916135800148e-16 6.980910776238867e-16 5.359561278351876e-22
1.1192775983109025 2.398759574732354e-23 7.126790066507783e-16 7.12678373874622e-16 6.327761562959875e-22
1.1277040513999907 2.4299789025294686e-23 7.273895822235343e-16 7.273888360967344e-16 7.4612679989305135e-22
1.1361939428280308 2.4611470547575586e-23 7.422658268003561e-16 7.422649481438005e-16 8.786565554520235e-22
1.1447477501889525 2.4922603946043015e-23 7.573081797936651e-16 7.573071463849585e-16 1.033408706650382e-21
1.1533659546722406 2.5233287898375368e-23 7.72521194777242e-16 7.725199809000747e-16 1.213877167321535e-21
1.1707974979042381 2.5854272490657532e-23 8.034956694629758e-16 8.034940008915431e-16 1.668571432611959e-21
1.1884924949847024 2.6473065661863835e-23 8.351608228509371e-16 8.351585407001954e-16 2.28215074160356e-21
1.2064549276569216 2.7094081726072494e-23 8.676707777611996e-16 8.676676717421879e-16 3.1060190119684692e-21
1.2246888378427687 2.771240140283145e-23 9.008849953166825e-16 9.00880788635056e-16 4.2066816267681774e-21
1.2431983285522175 2.8327248740552154e-23 9.347904065147917e-16 9.34784736633427e-16 5.6698813646946054e-21
1.2619875648066055 2.8939196280791127e-23 9.69417764826668e-16 9.69410159227804e-16 7.605598863943434e-21
1.3004222497298317 3.014887897001574e-23 1.0406986540784113e-15 1.0406851608080906e-15 1.349327032046467e-20
1.3400274889804893 3.134325002861712e-23 1.1148775432056532e-15 1.1148540417464493e-15 2.3501459204111526e-20
1.3808389325824078 3.2525267788061265e-23 1.1921566821030726e-15 1.1921164781661873e-15 4.02039368847596e-20
1.4228933163050095 3.3705330240985497e-23 1.273035044168754e-15 1.2729674588298808e-15 6.758533887312102e-20
1.466228494730424 3.490802513963772e-23 1.3586148851198484e-15 1.3585031825724544e-15 1.1170254739362682e-19
1.5108834753276823 3.6129481821544054e-23 1.4489791531432509e-15 1.4487975634385696e-15 1.8158970468129223e-19
1.5568984535646726 3.736887710658949e-23 1.5443287917047677e-15 1.54403812713907e-15 2.906645656981997e-19
1.6043148490894465 3.863786988067634e-23 1.6454027236925605e-15 1.6449437684393678e-15 4.589552531923383e-19
1.6531753430134553 3.995011793586892e-23 1.7530989029041873e-15 1.7523848701555198e-15 7.140327486681721e-19
1.7035239163302658 4.132348255299769e-23 1.868592420615803e-15 1.86749761259933e-15 1.094808016472923e-18
1.755405889504358 4.280051359016038e-23 1.99432514308682e-15 1.992669957701677e-15 1.6551853851428123e-18
1.8088679632656115 4.439174673096499e-23 2.1314666122080447e-15 2.1289983151910085e-15 2.468297017036573e-18
1.8639582606462262 4.611070404228109e-23 2.2814311626278233e-15 2.2777990258402183e-15 3.632136787605024e-18
1.9207263702978936 4.79814210338057e-23 2.446290552441797e-15 2.441014563028356e-15 5.2759894134410585e-18
1.979223391128241 5.0034948356882077e-23 2.6286798970819696e-15 2.6211117531347256e-15 7.568143947244492e-18
2.039501978296691 5.2305622105195603e-23 2.8316654101797106e-15 2.8209410197409794e-15 1.0724390438730608e-17
2.1016163906111602 5.484925043387828e-23 3.0598037801986516e-15 3.044785091284186e-15 1.5018688914465287e-17
2.1656225393682647 5.771289479501422e-23 3.3176078832571888e-15 3.296814933363826e-15 2.0792949893362794e-17
2.231578038680979 6.092947497619868e-23 3.6091833708795746e-15 3.580715232350797e-15 2.8468138528778053e-17
2.299542257339062 6.454479857444367e-23 3.939780965580111e-15 3.901224896194983e-15 3.855606938512793e-17
2.369576372248914 6.861707471958196e-23 4.315909635576992e-15 4.264237486037894e-15 5.1672149539097235e-17
2.4417434235010123 7.321052832824381e-23 4.745074120367115e-15 4.676528450885085e-15 6.854566948203079e-17
2.5161083711144245 7.840842861180815e-23 5.236746196058841e-15 5.146713087256366e-15 9.003310880247468e-17
2.5927381535095444 8.431807858167054e-23 5.802949525363782e-15 5.685822190028428e-15 1.171273353353538e-16
2.6717017477616296 9.104980429657748e-23 6.457083823099503e-15 6.306125045778483e-15 1.5095877732101815e-16
2.753070231689431 9.874145990585992e-23 7.215829578523258e-15 7.023029510609486e-15 1.9280006791377168e-16
2.836916847834745 1.07652967625029e-22 8.106661626682301e-15 7.862586591767805e-15 2.4407503491449874e-16
2.9233170693905177 1.1828332471233058e-22 9.178440114851703e-15 8.87214207205072e-15 3.062980428009807e-16
2.967498994190263 1.246497978115168e-22 9.818645763668598e-15 9.477240917982415e-15 3.414048456861841e-16
3.0123486681368425 1.3155152078875815e-22 1.0518905282614183e-14 1.0138874497283845e-14 3.80030785330335e-16
3.0578761833420214 1.4156983618965528e-22 1.1491059118286426e-14 1.1068470620674477e-14 4.225884976119461e-16
3.1040917844459814 1.5318529783146268e-22 1.2621793561743906e-14 1.2152796777579436e-14 4.689967841644701e-16
3.127460860933648 1.627736191051649e-22 1.351279960102237e-14 1.301891660988256e-14 4.938829911398091e-16
3.1510058709225794 1.7466301568832025e-22 1.4608970082859788e-14 1.4089118878224158e-14 5.198512046356236e-16
3.162844764501044 1.847006954937023e-22 1.550657345234414e-14 1.4973272924254127e-14 5.333005280900159e-16
3.1747281389236908 1.9605599634063145e-22 1.6521752196362192e-14 1.597472137249248e-14 5.470308238697138e-16
3.1986289994194426 2.2645246023261137e-22 1.9226947776885285e-14 1.865152735947135e-14 5.754204174139354e-16
3.2227097969389145 2.94502770980504e-22 2.5193007606509976e-14 2.458747552503377e-14 6.055320814762072e-16
3.2348180950136065 3.5767867105175043e-22 3.0712299912548254e-14 3.009069112427222e-14 6.216087882760362e-16
3.240889293275058 4.0461199490858174e-22 3.480746399673388e-14 3.417737503304988e-14 6.300889636839981e-16
3.2469718861334385 4.588749932622354e-22 3.954962340781596e-14 3.891075978783112e-14 6.388636199848524e-16
3.2714166318528037 7.449913753352596e-22 6.469288742558221e-14 6.401773855331763e-14 6.751488722645708e-16
3.2744851364798273 7.630533421894256e-22 6.632348759994542e-14 6.564405574292658e-14 6.794318570188306e-16
3.2775565192852394 7.816076836057037e-22 6.799992640319528e-14 6.731618951615988e-14 6.837368870353542e-16
3.283707930232385 7.647903692988979e-22 6.666169699898568e-14 6.597024742204299e-14 6.914495769426897e-16
3.2898708863219004 7.09882749893109e-22 6.199189468230731e-14 6.129341330295039e-14 6.984813793569025e-16
3.29141343181113 6.969256364289395e-22 6.088892554563456e-14 6.018867810772626e-14 7.002474379082795e-16
3.292184975758714 6.905577161081642e-22 6.034671638114015e-14 5.964558469594671e-14 7.011316851934323e-16
3.295272960557952 6.504538737085949e-22 5.689542321206433e-14 5.6190849554412034e-14 7.04573657652311e-16
3.3076538914384823 5.110610292623675e-22 4.4870639335312296e-14 4.41522345040374e-14 7.184048312748875e-16
3.310756385682612 4.82573141993873e-22 4.240917320228503e-14 4.168728075744711e-14 7.21892444837926e-16
3.313861789986515 4.562439159690991e-22 4.0132933985341245e-14 3.940754196941006e-14 7.253920159311953e-16
3.3200813396944477 4.196132443313631e-22 3.6980037247110934e-14 3.624712393785542e-14 7.329133092555228e-16
3.345076488085796 3.5663201759517123e-22 3.1666190224887883e-14 3.089977435690817e-14 7.6641586797971755e-16
3.3482140837626964 3.595770906004032e-22 3.195763749095962e-14 3.118668379115454e-14 7.709536998050721e-16
3.3513546224236106 3.62549400482118e-22 3.22520266022063e-14 3.1476513907385683e-14 7.755126948206321e-16
3.3576445397418455 3.8192080400073074e-22 3.4039052774472265e-14 3.325401057827657e-14 7.850421961956858e-16
3.3702598118196083 4.514668078734445e-22 4.0388585271112177e-14 3.958355314138085e-14 8.050321297313264e-16
3.382922481734668 4.689123133722758e-22 4.210688522229193e-14 4.128239644626861e-14 8.244887760233308e-16
3.389271646505754 4.779101534530436e-22 4.2995407451861016e-14 4.216105152772076e-14 8.343559241402588e-16
3.395632727569191 4.876766890959144e-22 4.395640241290842e-14 4.3111877625697575e-14 8.445247872108558e-16
3.421196662673239 5.343374027896449e-22 4.852472110267086e-14 4.763807214726889e-14 8.866489554019584e-16
3.4276182099114902 5.2685934604576e-22 4.79354228751693e-14 4.703934393850287e-14 8.960789366664254e-16
3.4340518103208963 4.908150040448048e-22 4.4739807043527354e-14 4.383479477362106e-14 9.050122699062982e-16
3.4469541582030403 4.396375257482186e-22 4.02253374185589e-14 3.930314980940977e-14 9.221876091491298e-16
3.472904465399547 4.28003099230553e-22 3.9455648282294895e-14 3.8493938109423224e-14 9.617101728716676e-16
3.4990501388274233 4.087788232126807e-22 3.7967149098480686e-14 3.696492878459532e-14 1.002220313885366e-15
3.5253949054701885 3.3258808255969245e-22 3.112317458879029e-14 3.008149341713183e-14 1.041681171658456e-15
3.5519380250092896 2.6054393012782036e-22 2.456494366228585e-14 2.3483515258794784e-14 1.081428403491061e-15
3.578680990867387 2.3423648182848896e-22 2.2250867926834118e-14 2.1125861863213842e-14 1.1250060636202734e-15
3.605625307711299 2.2592665364069617e-22 2.1623077064545342e-14 2.0452123301215376e-14 1.1709537633299627e-15
3.660119384959845 2.248917305081889e-22 2.1849332345636055e-14 2.0581614191556436e-14 1.2677181540796158e-15
3.715437065384467 2.265165631417761e-22 2.2339801299421036e-14 2.0969736736114498e-14 1.3700645633065379e-15
3.8285932144167436 2.3985133044807176e-22 2.4375346060796915e-14 2.2784131920818026e-14 1.591214139978888e-15
3.94519561050918 2.565710241028112e-22 2.6868633659260146e-14 2.5034477370220536e-14 1.8341562890396144e-15
4.06534921144712 2.7512353663109248e-22 2.968896350325824e-14 2.7589914098799965e-14 2.099049404458291e-15
4.189162171576248 2.950202975721135e-22 3.280563910771358e-14 3.0418818138679737e-14 2.3868209690338412e-15
4.316745939156006 3.160202948138873e-22 3.6211031488103616e-14 3.3514124410890625e-14 2.6969070772129868e-15
4.448215356677963 3.379597635583995e-22 3.9904349516919825e-14 3.687874970854296e-14 3.0255998083768727e-15
4.58368876423945 3.6077091483482104e-22 4.389510293443812e-14 4.052134605511012e-14 3.3737568793280072e-15
4.723288106065518 3.8443669974864073e-22 4.819907574658436e-14 4.4455089314453956e-14 3.743986432130398e-15
4.867139040275056 4.088963893260538e-22 5.282706245825634e-14 4.869958614560822e-14 4.1274763126481284e-15
4.940699165968905 4.215498652998622e-22 5.5284934433944445e-14 5.095948531495456e-14 4.32544911898988e-15
5.015371051989984 4.34278457909152e-22 5.781503448146161e-14 5.3287970023280755e-14 4.52706445818084e-15
5.091171501069577 4.475369893206099e-22 6.048060069195313e-14 5.574409349618765e-14 4.736507195765464e-15
5.129500256944802 4.541856745591372e-22 6.184120181207974e-14 5.699874714255395e-14 4.842454669525789e-15
5.168117569889187 4.608896820988492e-22 6.322645082494578e-14 5.827629163033373e-14 4.950159194612038e-15
5.20702561229733 4.679912603881004e-22 6.468400317404853e-14 5.961674302223876e-14 5.067260151809759e-15
5.246226572918644 4.751171110104717e-22 6.616329835863903e-14 6.097778800750107e-14 5.185510351137946e-15
5.265937586045735 4.786887953585856e-22 6.691113588218135e-14 6.166608026393255e-14 5.2450556182487865e-15
5.285722656980489 4.822661417643594e-22 6.766445335376803e-14 6.235957824128558e-14 5.304875112482473e-15
5.305582063971359 4.858490210101888e-22 6.842326618166551e-14 6.305830183770659e-14 5.3649643439589035e-15
5.3255160863122235 4.895040429458844e-22 6.91970240214745e-14 6.377126650659075e-14 5.425757514883745e-15
5.365609099470188 4.973508576820602e-22 7.083556040623644e-14 6.52840234826925e-14 5.551536923543944e-15
5.406003951863644 5.052534062366248e-22 7.250284389671062e-14 6.682431301547927e-14 5.678530881231344e-15
5.446702915881641 5.132128515706767e-22 7.41994428171121e-14 6.839273842659245e-14 5.8067043905196206e-15
5.487708281020852 5.213583175714775e-22 7.59445750575744e-14 7.000804563907416e-14 5.93652941850023e-15
5.529022354014368 5.307080642345506e-22 7.788852252544543e-14 7.181658807324286e-14 6.07193445220255e-15
5.570647458961463 5.402178911982519e-22 7.988110633402592e-14 7.367246414002762e-14 6.208642193998312e-15
5.612585937458331 5.498982146433058e-22 8.192467864292672e-14 7.557806095216979e-14 6.346617690756936e-15
5.654840148729818 5.599558818573144e-22 8.405113390392126e-14 7.756467563113229e-14 6.48645827278898e-15
5.67608639626678 5.659262839325745e-22 8.526647224116902e-14 7.870688334002184e-14 6.559588901147149e-15
5.686739436050992 5.689497316078996e-22 8.588289182610717e-14 7.92866013801695e-14 6.596290445937659e-15
5.6974124697621304 5.719994655393298e-22 8.650530024289525e-14 7.98722181383139e-14 6.633082104581333e-15
5.718818669136295 5.781802534811277e-22 8.776856837854015e-14 8.106163475772225e-14 6.7069336208178985e-15
5.740305295436557 5.8471935794606665e-22 8.909470533229797e-14 8.231304398057504e-14 6.781661351722932e-15
5.7835210386641895 6.002139403200598e-22 9.21441632780331e-14 8.520791278673554e-14 6.936250491297551e-15
5.827062130521658 6.17072793779589e-22 9.544550517762156e-14 8.835180953537985e-14 7.09369564224173e-15
5.8489554468988025 6.280034697334391e-22 9.750116153956607e-14 9.032257976335211e-14 7.178581776213967e-15
5.870931020387893 6.394252418426566e-22 9.964744947273876e-14 9.238345977302777e-14 7.263989699710993e-15
5.892989160043636 6.51376359540759e-22 1.0189129169378356e-13 9.454137558373942e-14 7.349916110044123e-15
5.915130176081913 6.645829493163756e-22 1.0434771287417846e-13 9.690876098207961e-14 7.43895189209883e-15
5.95966208400165 6.997353923374924e-22 1.1069421115141954e-13 1.0305312535935356e-13 7.641085792065949e-15
6.004529249263818 7.479260157486844e-22 1.1920844905155349e-13 1.1134028203698803e-13 7.868167014565487e-15
6.027089341400364 7.804698782894876e-22 1.2486283998486766e-13 1.1686383943172337e-13 7.999000553144279e-15
6.049734195844842 8.1813383335074405e-22 1.3138024872272131e-13 1.2324272761715722e-13 8.137521105564076e-15
6.095279466722835 9.246493180410523e-22 1.4960293347211148e-13 1.4112621295789567e-13 8.476720514215825e-15
6.141167624020661 1.0845326532163356e-21 1.7679216614994408e-13 1.6787679070853565e-13 8.915375441408419e-15
6.164241091010745 1.1860533159722045e-21 1.9406770109003516e-13 1.8487777983106544e-13 9.18992125896969e-15
6.187401249150058 1.2997262504954039e-21 2.1346643841774234e-13 2.0399435712157847e-13 9.472081296163887e-15
6.1990139391386085 1.3551160984282972e-21 2.2298135517997233e-13 2.1336565232802245e-13 9.615702851949943e-15
6.204828454712694 1.3841218167503706e-21 2.2796780950394196e-13 2.1827953916666947e-13 9.688270337272545e-15
6.210648424152782 1.4053761615183625e-21 2.3168555677592486e-13 2.219352794777069e-13 9.750277298217979e-15
6.233982942956859 1.4772124104420836e-21 2.444432168253067e-13 2.344759861511945e-13 9.967230674112194e-15
6.239830258556775 1.4862576392069959e-21 2.461706705764219e-13 2.3617275822559934e-13 9.997912350822609e-15
6.245683058788269 1.4870111304763167e-21 2.4652649107271737e-13 2.3649783860420227e-13 1.0028652468515088e-14
6.257405133728602 1.4849477470539533e-21 2.466464556661443e-13 2.365636582411369e-13 1.0082797425007401e-14
6.269149208991335 1.4707866829881547e-21 2.447528335461609e-13 2.3464850377781394e-13 1.0104329768347064e-14
6.280915325867298 1.4355001196077535e-21 2.39329153491218e-13 2.2924364952001777e-13 1.0085503971200248e-14
6.304513850009849 1.348622581333618e-21 2.256895566572618e-13 2.1567825951208684e-13 1.0011297145174957e-14
6.32820103803542 1.2419507079591507e-21 2.0861909643205438e-13 1.98720902127053e-13 9.898194305001412e-15
6.3519772230701035 1.144703108754831e-21 1.9300618543737321e-13 1.83208748694786e-13 9.797436742587146e-15
6.375842739491607 1.062601072022889e-21 1.7983626716358298e-13 1.7012695988975162e-13 9.709307273831397e-15
6.399797922933955 9.982883154990156e-22 1.6958665814048315e-13 1.5991921529162174e-13 9.667442848861358e-15
6.42384311029221 9.44702795076793e-22 1.6108665335856158e-13 1.5145187288551052e-13 9.63478047305108e-15
6.447978639727206 9.066496145354329e-22 1.5517884118540983e-13 1.4554055803229815e-13 9.63828315311168e-15
6.472204850670314 8.75071852748031e-22 1.5033683480359463e-13 1.4068783746518386e-13 9.648997338410793e-15
6.496522083828205 8.55534583418247e-22 1.4753257479025284e-13 1.3784348071705992e-13 9.6890940731929e-15
6.520930681187647 8.393208016902555e-22 1.4528039214068704e-13 1.3554667012583384e-13 9.73372201485322e-15
6.57002334288761 8.248431263474664e-22 1.4384928424065278e-13 1.339853441866501e-13 9.863940054002684e-15
