Dust emission spectrum from A.P. Jones, M. Kohler, N. Ysard, M. Bocchio, and L. Verstraete (2017), A&A, 602A, 46J 
inside the DustPedia framework.

lambda    nu*dP/dnu     j_nu    j_nu(carb.) j_nu(sil)
 (um)   (erg s-1 H-1) (Jy cm2 sr-1 H-1)
0.9927057738263894 2.566830850389364e-22 6.763745083857705e-15 6.763744071894027e-15 1.0119636784410337e-21
1.0001793341362166 2.6100500189105084e-22 6.929408111569548e-15 6.929406893553729e-15 1.2180158178245498e-21
1.0077091589558085 2.6534220167833473e-22 7.0975909645213816e-15 7.097589500440976e-15 1.4640804066821917e-21
1.0114953028030835 2.675163039225961e-22 7.182631053882704e-15 7.182629449512541e-15 1.604370162264645e-21
1.0152956718711033 2.6969395570659263e-22 7.268305633347628e-15 7.268303875829334e-15 1.757518293113716e-21
1.0229392996569957 2.740574436710456e-22 7.441507080186003e-15 7.441504973194563e-15 2.1069914408490317e-21
1.0267826658714554 2.7623830697411304e-22 7.528905827735566e-15 7.528903521820857e-15 2.3059147110595485e-21
1.0306404723013447 2.7842227238293566e-22 7.616941139436116e-15 7.616938616656357e-15 2.5227797590624655e-21
1.03451277320114 2.806092604757181e-22 7.70561470281351e-15 7.705611943690388e-15 2.7591231209508223e-21
1.0383996230291617 2.8279919388181083e-22 7.794928250434584e-15 7.79492523382919e-15 3.0166053928750275e-21
1.0403485208654093 2.838952414741134e-22 7.839825572684987e-15 7.839822418856218e-15 3.153828769572643e-21
1.0423010764483396 2.8499199733954365e-22 7.884883562371259e-15 7.884880265350664e-15 3.2970205921381517e-21
1.0462171883269815 2.871875977540304e-22 7.975482468710115e-15 7.975478866403945e-15 3.602306170846354e-21
1.0471985131304309 2.877369265273233e-22 7.998232976351922e-15 7.998229293596798e-15 3.682755123845615e-21
1.048180758391296 2.8828642458460134e-22 8.02102385598621e-15 8.02102009106356e-15 3.764922646863978e-21
1.0501480137395462 2.8938592425493304e-22 8.066726852107675e-15 8.066722917553951e-15 3.934553723458844e-21
1.0521189612883777 2.904860882632879e-22 8.112591701047396e-15 8.112587589560583e-15 4.1114868122572296e-21
1.0531058218030118 2.910356791749867e-22 8.135564278733672e-15 8.13556007594313e-15 4.202790546533631e-21
1.0540936079674168 2.9158301652864544e-22 8.158509759684951e-15 8.158505463631681e-15 4.296053271308024e-21
1.058054026499678 2.937738768707708e-22 8.250693458865543e-15 8.250688769571688e-15 4.6892938531308294e-21
1.0590464539527713 2.943219647566986e-22 8.273839984677116e-15 8.273835191820429e-15 4.792856686435991e-21
1.06003981227728 2.948701998238842e-22 8.29702681462593e-15 8.297021916020482e-15 4.898605446131015e-21
1.0620293250338977 2.9596710770205013e-22 8.343521516405394e-15 8.34351639956847e-15 5.1168369218657996e-21
1.0660195594769086 2.9816264838585265e-22 8.436996008207053e-15 8.436990426690838e-15 5.581516212797882e-21
1.070024785945596 3.0036044082411263e-22 8.531119076828942e-15 8.531112990443429e-15 6.08638551285629e-21
1.0740450607676866 3.025604295143492e-22 8.625892934326156e-15 8.625886299591586e-15 6.6347345728246624e-21
1.07808044048254 3.0476256160658533e-22 8.721319865138907e-15 8.72131263503283e-15 7.230106077493029e-21
1.0861967418109137 3.0916964846855347e-22 8.91404415396071e-15 8.914035576498151e-15 8.577462561733297e-21
1.0902777775684922 3.113667582061237e-22 9.011121351670247e-15 9.011112013701278e-15 9.337968969151121e-21
1.0943741465085532 3.135656928320346e-22 9.108855199735435e-15 9.10884503715693e-15 1.016257850643046e-20
1.1026131145906286 3.179688874690189e-22 9.306303549971946e-15 9.30629152506971e-15 1.2024902236504919e-20
1.1109141095355224 3.2237896429726424e-22 9.506411543164065e-15 9.506397333172272e-15 1.4209991788913883e-20
1.1192775983109025 3.2679220505032584e-22 9.70909909145312e-15 9.709082321071413e-15 1.6770381704661167e-20
1.1277040513999907 3.3119235418475866e-22 9.913907807813113e-15 9.913888041245942e-15 1.9766567170830783e-20
1.1361939428280308 3.355983671846721e-22 1.0121426877343529e-14 1.012140360923036e-14 2.3268113164983222e-20
1.1447477501889525 3.400101918962401e-22 1.033168524820693e-14 1.0331657893299595e-14 2.735490733200923e-20
1.1533659546722406 3.4442946952209196e-22 1.0544763979363526e-14 1.0544731860750303e-14 3.211861321808795e-20
1.1707974979042381 3.533040949287674e-22 1.0979938050137765e-14 1.0979893937979826e-14 4.4112157940270473e-20
1.1884924949847024 3.622091868811509e-22 1.1426818730541135e-14 1.1426758449419345e-14 6.028112178587577e-20
1.2064549276569216 3.712063007827986e-22 1.1887646275168946e-14 1.188756430476714e-14 8.19704018049071e-20
1.2246888378427687 3.802353272399926e-22 1.2360830662796293e-14 1.236071974493531e-14 1.1091786098337226e-19
1.2431983285522175 3.892891969690799e-22 1.2846422538931318e-14 1.2846273177691672e-14 1.4936123964583132e-19
1.2619875648066055 3.9838136378638383e-22 1.3345151934531826e-14 1.3344951767271112e-14 2.0016726071538416e-19
1.3004222497298317 4.166261305131312e-22 1.438137231271939e-14 1.438101786688412e-14 3.544458352745481e-19
1.3400274889804893 4.3503526626758925e-22 1.5474178600540803e-14 1.547356246328593e-14 6.161372548750805e-19
1.3808389325824078 4.536949242932251e-22 1.6629392236117107e-14 1.6628340324303583e-14 1.05191181352581e-18
1.4228933163050095 4.727940535933942e-22 1.7857217080967924e-14 1.7855452383402563e-14 1.7646975653600245e-18
1.466228494730424 4.927163852532694e-22 1.917644474214117e-14 1.9173534243793436e-14 2.9104983477407977e-18
1.5108834753276823 5.134765550019078e-22 2.059306655712732e-14 2.0588345255404057e-14 4.721301723261189e-18
1.5568984535646726 5.351342645126238e-22 2.2115281916482083e-14 2.2107741231605854e-14 7.540684876226266e-18
1.6043148490894465 5.579233349722482e-22 2.3759295680895968e-14 2.3747415473837246e-14 1.1880207058721638e-17
1.6531753430134553 5.821154166431865e-22 2.5544502770154045e-14 2.5526061602055e-14 1.8441168099042082e-17
1.7035239163302658 6.080451507991734e-22 2.749498565902227e-14 2.7466775490775883e-14 2.821016824639294e-17
1.755405889504358 6.3639359634217205e-22 2.9653283188088094e-14 2.961073390707955e-14 4.25492810085387e-17
1.8088679632656115 6.674272330098594e-22 3.204647187821956e-14 3.1983172289839635e-14 6.329958837990761e-17
1.8639582606462262 7.014600054058998e-22 3.4706317088602255e-14 3.461339837957054e-14 9.29187090317223e-17
1.9207263702978936 7.389668114717181e-22 3.767557297224801e-14 3.7540936929093205e-14 1.3463604315480447e-16
1.979223391128241 7.80536687955715e-22 4.100695949418158e-14 4.081432164573664e-14 1.9263784844493701e-16
2.039501978296691 8.268158922446255e-22 4.4761267879527216e-14 4.448899950298694e-14 2.7226837654028773e-16
2.1016163906111602 8.787710180987835e-22 4.9022855587591855e-14 4.864257368358109e-14 3.8028190401076344e-16
2.1656225393682647 9.372661520993072e-22 5.387845447640618e-14 5.335338768592309e-14 5.25066790483083e-16
2.231578038680979 1.0029739815559266e-21 5.941159048343355e-14 5.86946928990882e-14 7.168975843453391e-16
2.299542257339062 1.076770487798637e-21 6.572551105314293e-14 6.47573130919135e-14 9.681979612294352e-16
2.369576372248914 1.1597004568990301e-21 7.294339487318875e-14 7.164957475903194e-14 1.2938201141568244e-15
2.4417434235010123 1.2528953320163696e-21 8.120527677145711e-14 7.949402184689952e-14 1.7112549245575637e-15
2.5161083711144245 1.3577408313062276e-21 9.068086504804513e-14 8.843995566503145e-14 2.2409093830136527e-15
2.5927381535095444 1.4759088809934653e-21 1.015751886725635e-13 9.866891687455258e-14 2.9062717980108993e-15
2.6717017477616296 1.6090238170426838e-21 1.141089949646236e-13 1.1037512273859485e-13 3.733872226028722e-15
2.753070231689431 1.7589613317423768e-21 1.2854139707035122e-13 1.2378807752810283e-13 4.753319542248379e-15
2.836916847834745 1.9289887930577373e-21 1.4525990106886434e-13 1.3926245927689303e-13 5.997441791971286e-15
2.9233170693905177 2.1248998142783345e-21 1.6488601197883018e-13 1.573853783953236e-13 7.50063358350659e-15
2.967498994190263 2.23640243958515e-21 1.7616108268778952e-13 1.6781621555337403e-13 8.344867134415488e-15
3.0123486681368425 2.355650821274173e-21 1.8835865765234725e-13 1.7908672205723096e-13 9.271935595116279e-15
3.0578761833420214 2.5122803616228037e-21 2.039188780189259e-13 1.9362733550994429e-13 1.0291542508981692e-14
3.1040917844459814 2.6877554616920542e-21 2.2145920700073284e-13 2.1005848815822862e-13 1.1400718842504145e-14
3.127460860933648 2.8185824830073996e-21 2.3398718085406577e-13 2.2199273264940495e-13 1.199444820466081e-14
3.1510058709225794 2.9750276193041124e-21 2.4883395786347725e-13 2.36220741032413e-13 1.2613216831064233e-14
3.162844764501044 3.099654870891498e-21 2.602319704531604e-13 2.4729858195629103e-13 1.293338849686942e-14
3.1747281389236908 3.238358169978916e-21 2.728983158183995e-13 2.5963827571443187e-13 1.326004010396755e-14
3.1986289994194426 3.5998641647352526e-21 3.056464929908406e-13 2.917116869908946e-13 1.3934805999945991e-14
3.2227097969389145 4.3791210209617346e-21 3.746084589411897e-13 3.5995875741267824e-13 1.4649701528511496e-14
3.2348180950136065 5.090896426441626e-21 4.37132964660265e-13 4.221017823329992e-13 1.5031182327265818e-14
3.240889293275058 5.616871445449432e-21 4.832013214436143e-13 4.67968917420938e-13 1.523240402267635e-14
3.2469718861334385 6.224399688552542e-21 5.364699912538025e-13 5.210293815936456e-13 1.54406096601568e-14
3.2714166318528037 9.401369038594524e-21 8.163875837977961e-13 8.000866511707289e-13 1.6300932627067566e-14
3.2744851364798273 9.60317109021113e-21 8.346936754044906e-13 8.182913773477101e-13 1.640229805678051e-14
3.2775565192852394 9.81025996207887e-21 8.534933437963818e-13 8.36989175703064e-13 1.6504168093317603e-14
3.283707930232385 9.630471460076658e-21 8.394242346664633e-13 8.227379322356417e-13 1.6686302430821483e-14
3.2898708863219004 9.030793448128946e-21 7.886316387014307e-13 7.717796225968677e-13 1.6852016104562578e-14
3.29141343181113 8.889251576734967e-21 7.766351948044861e-13 7.597415681522587e-13 1.689362665222746e-14
3.292184975758714 8.819684972965266e-21 7.707379343092769e-13 7.538234750316948e-13 1.691445927758212e-14
3.295272960557952 8.382074019357699e-21 7.331828866005934e-13 7.16187399669789e-13 1.6995486930804402e-14
3.3076538914384823 6.85849165638046e-21 6.02168601941485e-13 5.848476889160205e-13 1.7320913025464558e-14
3.310756385682612 6.546480056623696e-21 5.753134238668097e-13 5.579104887183151e-13 1.7402935148494346e-14
3.313861789986515 6.2578758840772225e-21 5.504663425717661e-13 5.329811186042603e-13 1.748522396750578e-14
3.3200813396944477 5.858858084610281e-21 5.16334489250132e-13 4.986722527056886e-13 1.766223654444333e-14
3.345076488085796 5.192946508346299e-21 4.610938554250204e-13 4.4264273672066716e-13 1.845111870435325e-14
3.3482140837626964 5.229316274029756e-21 4.647587351351442e-13 4.462007485723035e-13 1.8557986562840727e-14
3.3513546224236106 5.2659815275119755e-21 4.684563705971987e-13 4.497910368640156e-13 1.8665333733183177e-14
3.3576445397418455 5.487849608070949e-21 4.891097852504955e-13 4.702200076614032e-13 1.888977758909219e-14
3.3702598118196083 6.269317948312834e-21 5.60858247231603e-13 5.414976939591427e-13 1.9360553272460273e-14
3.382922481734668 6.477966421786045e-21 5.817014840884604e-13 5.6188335031649e-13 1.9818133771970367e-14
3.389271646505754 6.5852562017378635e-21 5.924456124710336e-13 5.723955492095254e-13 2.0050063261508307e-14
3.395632727569191 6.7020638363507945e-21 6.040859068613301e-13 5.837968258090457e-13 2.0289081052284173e-14
3.421196662673239 7.257412692030551e-21 6.590665840893871e-13 6.377880880834251e-13 2.1278496005961963e-14
3.4276182099114902 7.181835016314846e-21 6.534273352281954e-13 6.319280404150359e-13 2.1499294813159295e-14
3.4340518103208963 6.789192431063683e-21 6.188628237604521e-13 5.971546945859194e-13 2.1708129174532732e-14
3.4469541582030403 6.2334715636483726e-21 5.703414341394256e-13 5.482324800356266e-13 2.2108954103799024e-14
3.472904465399547 6.130092636143878e-21 5.651052046688383e-13 5.42072920861334e-13 2.303228380750424e-14
3.4990501388274233 5.944227386294201e-21 5.520965241716639e-13 5.281194073178765e-13 2.3977116853787248e-14
3.5253949054701885 5.132957150239398e-21 4.803356762340029e-13 4.554406907415164e-13 2.4894985492486403e-14
3.5519380250092896 4.364055955617265e-21 4.114576326387972e-13 3.856401371585745e-13 2.5817495480222822e-14
3.578680990867387 4.10339910571403e-21 3.8979492365833194e-13 3.629663409885257e-13 2.682858266980617e-14
3.605625307711299 4.043147853561491e-21 3.869631856715258e-13 3.5906977595153914e-13 2.7893409719986545e-14
3.660119384959845 4.096149249222468e-21 3.9796094805865e-13 3.678306337840148e-13 3.013031427463534e-14
3.715437065384467 4.178840873799683e-21 4.1213089889657903e-13 3.7964280537558027e-13 3.24880935209987e-14
3.8285932144167436 4.4587687137278776e-21 4.5313082149319847e-13 4.1557669109885776e-13 3.75541303943408e-14
3.94519561050918 4.778488928886778e-21 5.004129711219502e-13 4.573368503489412e-13 4.3076120773008975e-14
4.06534921144712 5.1197190097047296e-21 5.524759992812745e-13 5.034292306475434e-13 4.9046768633731065e-14
4.189162171576248 5.475904092386243e-21 6.089090646360167e-13 5.534330652105702e-13 5.5475999425446376e-14
4.316745939156006 5.842937340506336e-21 6.695101279640777e-13 6.071717556920163e-13 6.233837227206166e-14
4.448215356677963 6.217213665140543e-21 7.340929124311795e-13 6.645560178187092e-13 6.953689461247051e-14
4.58368876423945 6.596634581435512e-21 8.02614462713994e-13 7.255361005944099e-13 7.707836211958393e-14
4.723288106065518 6.979750152246769e-21 8.750920671734468e-13 7.900842664032571e-13 8.500780077018958e-14
4.867139040275056 7.363560945303094e-21 9.513297356668977e-13 8.58217681214137e-13 9.311205445276075e-14
4.940699165968905 7.55681025864255e-21 9.910518163293286e-13 8.937980930502544e-13 9.725372327907448e-14
5.015371051989984 7.748274178597512e-21 1.031519594511283e-12 9.300777139576503e-13 1.0144188055363283e-13
5.091171501069577 7.943281187321598e-21 1.0734630413535226e-12 9.676959023684165e-13 1.0576713898510606e-13
5.129500256944802 8.03985259811801e-21 1.0946935909905112e-12 9.867509162748839e-13 1.0794267471562756e-13
5.168117569889187 8.13633627716764e-21 1.1161709309283895e-12 1.0060229232905413e-12 1.1014800763784823e-13
5.20702561229733 8.2372086021626e-21 1.1385161913616227e-12 1.0259593585913412e-12 1.125568327702816e-13
5.246226572918644 8.337491988911224e-21 1.1610526273235775e-12 1.046072140665315e-12 1.149804866582626e-13
5.265937586045735 8.387401354509088e-21 1.1723912428523565e-12 1.0561936862429097e-12 1.1619755660944666e-13
5.285722656980489 8.437149822553976e-21 1.1837760961579207e-12 1.0663581461965196e-12 1.1741794996140132e-13
5.305582063971359 8.486732954644043e-21 1.1952066647390531e-12 1.0765651284559763e-12 1.186415362830768e-13
5.3255160863122235 8.536934274391626e-21 1.206793803989343e-12 1.0869157407938721e-12 1.1987806319547091e-13
5.365609099470188 8.642911906473676e-21 1.2309730625380191e-12 1.1085365540135014e-12 1.2243650852451779e-13
5.406003951863644 8.748483743011883e-21 1.2553897575416728e-12 1.130379779585201e-12 1.2500997795647192e-13
5.446702915881641 8.853634256976954e-21 1.2800434103776858e-12 1.1524459799419252e-12 1.2759743043576066e-13
5.487708281020852 8.959815783565969e-21 1.3051473033875144e-12 1.1749382321827778e-12 1.3020907120473667e-13
5.529022354014368 9.078561146559307e-21 1.3324005456414215e-12 1.199468992415891e-12 1.3293155322553057e-13
5.570647458961463 9.197752616976077e-21 1.3600561306865294e-12 1.2243865671767992e-12 1.3566956350972993e-13
5.612585937458331 9.317458458917518e-21 1.3881292386278693e-12 1.2497071962296087e-12 1.3842204239826101e-13
5.654840148729818 9.439950823042601e-21 1.4169662224856603e-12 1.275764427182421e-12 1.412017953032392e-13
5.67608639626678 9.511149696824495e-21 1.4330173463060264e-12 1.2903605627717372e-12 1.4265678353428923e-13
5.686739436050992 9.546997264641862e-21 1.4411180598085618e-12 1.297732158473434e-12 1.4338590133512796e-13
5.6974124697621304 9.583016855932785e-21 1.449270148484417e-12 1.3051540691325675e-12 1.4411607935184933e-13
5.718818669136295 9.65559279075053e-21 1.465732444143371e-12 1.3201528952816265e-12 1.4557954886174474e-13
5.740305295436557 9.731649567134257e-21 1.4828283668025667e-12 1.3357701274420397e-12 1.4705823936052713e-13
5.7835210386641895 9.908720525392746e-21 1.5211755353121586e-12 1.371061032136296e-12 1.5011450317586283e-13
5.827062130521658 1.0098088712553243e-20 1.5619181208665415e-12 1.4087012601798747e-12 1.5321686068666693e-13
5.8489554468988025 1.0219190998463967e-20 1.58658835558319e-12 1.431693912038383e-12 1.5489444354480668e-13
5.870931020387893 1.0344565898355413e-20 1.6120877629154322e-12 1.4555087617203332e-12 1.5657900119509903e-13
5.892989160043636 1.0474560561103648e-20 1.638479029616717e-12 1.4802086233648225e-12 1.5827040625189425e-13
5.915130176081913 1.0617140685942247e-20 1.6670219255264926e-12 1.5069974964784594e-12 1.600244290480329e-13
5.95966208400165 1.0993317638067641e-20 1.7390811401118292e-12 1.5750452577898164e-12 1.6403588232201262e-13
6.004529249263818 1.1502221883798926e-20 1.8332856493057746e-12 1.6647274415856783e-12 1.6855820772009646e-13
6.027089341400364 1.1843593403257571e-20 1.894787677389731e-12 1.7236091062639109e-12 1.7117857112582048e-13
6.049734195844842 1.2235730014862392e-20 1.9648781007783096e-12 1.7909222840786698e-12 1.739558166996392e-13
6.095279466722835 1.3338568233793698e-20 2.1581035070907423e-12 1.9772958356537956e-12 1.8080767143694646e-13
6.141167624020661 1.4978864437364147e-20 2.441739197519335e-12 2.2520072839051032e-12 1.8973191361423097e-13
6.164241091010745 1.601766597285924e-20 2.620886911506871e-12 2.4255386958285454e-12 1.953482156783253e-13
6.187401249150058 1.7170357942134402e-20 2.8200516492362607e-12 2.6189388223587225e-12 2.0111282687753856e-13
6.1990139391386085 1.7730260107958152e-20 2.9174750644253402e-12 2.7134295048124647e-12 2.0404555961287527e-13
6.204828454712694 1.802257578505538e-20 2.9683565952192864e-12 2.762830006015056e-12 2.055265892042292e-13
6.210648424152782 1.8235808656475704e-20 3.0062936867167006e-12 2.799508686475292e-12 2.067850002414093e-13
6.233982942956859 1.8950494018285674e-20 3.1358521533624095e-12 2.924694251171791e-12 2.1115790219061812e-13
6.239830258556775 1.903697474197144e-20 3.153117410032591e-12 2.9413636187068224e-12 2.1175379132576902e-13
6.245683058788269 1.9039762154342854e-20 3.156537068599988e-12 2.944186532112869e-12 2.1235053648711856e-13
6.257405133728602 1.900881187655918e-20 3.157320575811133e-12 2.9439319199106904e-12 2.1338865590044247e-13
6.269149208991335 1.8854525700118947e-20 3.13757164356253e-12 2.9238323718428328e-12 2.1373927171969625e-13
6.280915325867298 1.848605690635916e-20 3.082028549045567e-12 2.8687884483660047e-12 2.1324010067956165e-13
6.304513850009849 1.758508861528604e-20 2.9428328639121212e-12 2.7313595034392206e-12 2.1147336047290064e-13
6.32820103803542 1.6490717275132474e-20 2.7700604503924975e-12 2.561171343724581e-12 2.0888910666791636e-13
6.3519772230701035 1.5496566426966064e-20 2.6128462048985086e-12 2.406280799519954e-12 2.0656540537855434e-13
6.375842739491607 1.465451935328383e-20 2.4801537726232224e-12 2.2756446184529955e-12 2.0450915417022646e-13
6.399797922933955 1.4001075943920162e-20 2.378466864568719e-12 2.1750452377015455e-12 2.0342162686717377e-13
6.42384311029221 1.3454476193490914e-20 2.2941993545448454e-12 2.0916720654705204e-12 2.0252728907432506e-13
6.447978639727206 1.3068337081050845e-20 2.2367289104257785e-12 2.034341137410473e-12 2.0238777301530552e-13
6.472204850670314 1.274674548077512e-20 2.1898834519804157e-12 1.9874856626988917e-12 2.023977892815244e-13
6.496522083828205 1.2548432180222094e-20 2.1639131193647852e-12 1.960894258835672e-12 2.0301886052911302e-13
6.520930681187647 1.2383184029486844e-20 2.1434400626449154e-12 1.939708201711925e-12 2.0373186093298993e-13
6.57002334288761 1.2233546477000495e-20 2.1334807167926476e-12 1.9274788866462845e-12 2.060018301463632e-13
