Dust emission spectrum from A.P. Jones, M. Kohler, N. Ysard, M. Bocchio, and L. Verstraete (2017), A&A, 602A, 46J 
inside the DustPedia framework.

lambda    nu*dP/dnu     j_nu    j_nu(carb.) j_nu(sil)
 (um)   (erg s-1 H-1) (Jy cm2 sr-1 H-1)
0.9927057738263894 9.302041003697638e-21 2.451140639012454e-13 2.4511404802543417e-13 1.5875811223042554e-20
1.0001793341362166 9.458304775202375e-21 2.511080376089587e-13 2.5110801850552617e-13 1.9103432548482586e-20
1.0077091589558085 9.615212740142706e-21 2.5719560113215105e-13 2.5719557817560683e-13 2.2956544225937426e-20
1.0114953028030835 9.693901550483642e-21 2.6027467219318265e-13 2.60274647040394e-13 2.51527886933034e-20
1.0152956718711033 9.772743442806688e-21 2.6337737541248346e-13 2.6337734786256017e-13 2.754992329000488e-20
1.0229392996569957 9.930799524366665e-21 2.6965191670249076e-13 2.6965188368391175e-13 3.301857908948645e-20
1.0267826658714554 1.0009834415798065e-20 2.728191520332209e-13 2.7281911590262824e-13 3.6130592648189355e-20
1.0306404723013447 1.0089008726855434e-20 2.760101947663907e-13 2.760101552436992e-13 3.952269155003472e-20
1.03451277320114 1.0168320219877286e-20 2.792251319730855e-13 2.792250887542857e-13 4.321879976682958e-20
1.0383996230291617 1.0247766734369942e-20 2.824640527617211e-13 2.8246400551695423e-13 4.7244766821772177e-20
1.0403485208654093 1.028753997108989e-20 2.8409253542463364e-13 2.8409248603454633e-13 4.9390087324347273e-20
1.0423010764483396 1.0327346188939934e-20 2.857270483671622e-13 2.8572699673864956e-13 5.162851253127522e-20
1.0462171883269815 1.0407056583215e-20 2.890142122411363e-13 2.8901415584095457e-13 5.640018178928383e-20
1.0471985131304309 1.0427004414563085e-20 2.898397906714492e-13 2.8983973301397927e-13 5.765746990146141e-20
1.048180758391296 1.0446960280249833e-20 2.906668871112018e-13 2.906668281696449e-13 5.894155693689757e-20
1.0501480137395462 1.0486895999752746e-20 2.923256401439297e-13 2.9232557855161966e-13 6.159231002654284e-20
1.0521189612883777 1.0526863515312203e-20 2.9399048368531945e-13 2.9399041932840885e-13 6.435691051288862e-20
1.0531058218030118 1.0546832760733353e-20 2.948244562496063e-13 2.9482439046616316e-13 6.578344314613357e-20
1.0540936079674168 1.056672349330075e-20 2.956575378577209e-13 2.956574706172034e-13 6.724051742493164e-20
1.058054026499678 1.064636107998193e-20 2.990050124911814e-13 2.990049391076674e-13 7.338351396610346e-20
1.0590464539527713 1.066628901321027e-20 2.99845676141005e-13 2.998456011398764e-13 7.500112868535924e-20
1.06003981227728 1.0686224311284894e-20 3.006878610005153e-13 3.0068778434770686e-13 7.665280844871416e-20
1.0620293250338977 1.0726116905281957e-20 3.0237680085988736e-13 3.0237672079878627e-13 8.006110103037347e-20
1.0660195594769086 1.0805989428105352e-20 3.0577300732742737e-13 3.0577292001011115e-13 8.731731608771172e-20
1.070024785945596 1.0885977200503122e-20 3.091937390633955e-13 3.091936438637908e-13 9.519960469286832e-20
1.0740450607676866 1.0966078869477588e-20 3.126391061426093e-13 3.126390023835433e-13 1.0375906591453407e-19
1.07808044048254 1.1046293178768332e-20 3.161092216454811e-13 3.161091085947671e-13 1.1305071399882547e-19
1.0861967418109137 1.1206932863738646e-20 3.2312063901706283e-13 3.231205049451529e-13 1.3407190987827174e-19
1.0902777775684922 1.1287078119166385e-20 3.26654107919443e-13 3.26653961985741e-13 1.4593370205019846e-19
1.0943741465085532 1.1367327209730716e-20 3.3021258360975735e-13 3.3021242481700275e-13 1.5879275464982442e-19
1.1026131145906286 1.1528134110453386e-20 3.374050720830924e-13 3.3740488425794854e-13 1.8782514383100843e-19
1.1109141095355224 1.168934908193613e-20 3.446991750433354e-13 3.4469895316795497e-13 2.218753804891384e-19
1.1192775983109025 1.1850843727885109e-20 3.520922907376046e-13 3.5209202898009713e-13 2.617575075093529e-19
1.1277040513999907 1.2012039462113518e-20 3.5956823974497035e-13 3.595679313365434e-13 3.084084270501303e-19
1.1361939428280308 1.2173622017782873e-20 3.671484641568785e-13 3.671481012519132e-13 3.629049652972216e-19
1.1447477501889525 1.2335594480460185e-20 3.7483429191006747e-13 3.748338654269905e-13 4.264830768792676e-19
1.1533659546722406 1.249801872438131e-20 3.826288669234033e-13 3.826283663632525e-13 5.005601506212715e-19
1.1707974979042381 1.2824717654388275e-20 3.985648832745123e-13 3.985641963354044e-13 6.869391078123192e-19
1.1884924949847024 1.3153307174881425e-20 4.1495484443306836e-13 4.1495390645006285e-13 9.37983005449289e-19
1.2064549276569216 1.34860079950267e-20 4.3188085000416747e-13 4.318795755681341e-13 1.2744360334587858e-18
1.2246888378427687 1.3820714202764517e-20 4.4928888943412105e-13 4.4928716636042554e-13 1.72307369542652e-18
1.2431983285522175 1.415717890175671e-20 4.67182504799011e-13 4.671801864651856e-13 2.318333825485561e-18
1.2619875648066055 1.4495922228495156e-20 4.855906981486088e-13 4.855875938644868e-13 3.104284122001505e-18
1.3004222497298317 1.5178314224870532e-20 5.239349430110409e-13 5.239294556469251e-13 5.487364115936256e-18
1.3400274889804893 1.5870194380237985e-20 5.645018721632719e-13 5.64492350388561e-13 9.521774710752766e-18
1.3808389325824078 1.6574387701345123e-20 6.075051304321132e-13 6.074889037964116e-13 1.6226635701550322e-17
1.4228933163050095 1.729706987785316e-20 6.533024883158361e-13 6.532753169678006e-13 2.7171348035437432e-17
1.466228494730424 1.8050975599369887e-20 7.025411504127737e-13 7.024964219866976e-13 4.472842607605746e-17
1.5108834753276823 1.8835155997800127e-20 7.553872076498852e-13 7.553147911689701e-13 7.241648091533141e-17
1.5568984535646726 1.9649572946158425e-20 8.120501228575729e-13 8.119346893246122e-13 1.1543353296079078e-16
1.6043148490894465 2.0499567347001244e-20 8.729788689553007e-13 8.727973669467477e-13 1.815020085530724e-16
1.6531753430134553 2.139087944081241e-20 9.386787628522764e-13 9.383975932917124e-13 2.811695605639334e-16
1.7035239163302658 2.2330222810763538e-20 1.0097427060108217e-12 1.0093134725199785e-12 4.2923349084297424e-16
1.755405889504358 2.33353241647944e-20 1.0873286276319316e-12 1.0866825663778908e-12 6.460612540409307e-16
1.8088679632656115 2.440747117007303e-20 1.1719230198966806e-12 1.1709639258566686e-12 9.590940400119156e-16
1.8639582606462262 2.55477075812372e-20 1.2640304983435744e-12 1.262625656441872e-12 1.4048419017029334e-15
1.9207263702978936 2.6760862279773732e-20 1.3643790275424054e-12 1.3623479132542703e-12 2.0311142881351186e-15
1.979223391128241 2.8053610587651185e-20 1.4738490717794742e-12 1.4709494067528244e-12 2.8996650266503327e-15
2.039501978296691 2.943223908382541e-20 1.5933708462580215e-12 1.589281813757833e-12 4.089032500188354e-15
2.1016163906111602 3.091204729487519e-20 1.724450168750477e-12 1.7187520744995552e-12 5.698094250921741e-15
2.1656225393682647 3.250195376653107e-20 1.8683647462164624e-12 1.86051560759542e-12 7.849138621041582e-15
2.231578038680979 3.4201453042259605e-20 2.0259376209668967e-12 2.0152463253622027e-12 1.0691295604693263e-14
2.299542257339062 3.6015024103442116e-20 2.1983383567925737e-12 2.1839343003092472e-12 1.4404056483326704e-14
2.369576372248914 3.7950613131583026e-20 2.3870358443583006e-12 2.3678348859488437e-12 1.9200958409456395e-14
2.4417434235010123 4.001733843924982e-20 2.5936875655738276e-12 2.5683554056433197e-12 2.533215993050802e-14
2.5161083711144245 4.223113356840703e-20 2.8205351386968496e-12 2.787447206717807e-12 3.3087931979042175e-14
2.5927381535095444 4.461644130176589e-20 3.070598396341848e-12 3.0277980051907095e-12 4.2800391151138035e-14
2.6717017477616296 4.71944471885053e-20 3.346942959793669e-12 3.2921007829182823e-12 5.484217687538682e-14
2.753070231689431 4.999449627662871e-20 3.653498392065592e-12 3.5838722197233747e-12 6.962617234221706e-14
2.836916847834745 5.3091666514967425e-20 3.997996387174693e-12 3.910389657455851e-12 8.760672971884195e-14
2.9233170693905177 5.664583316734807e-20 4.395551010650489e-12 4.286297324244106e-12 1.0925368640638267e-13
2.967498994190263 5.873603372736584e-20 4.6266285133004245e-12 4.505264258377596e-12 1.2136425492282734e-13
3.0123486681368425 6.096489844503135e-20 4.874774449299101e-12 4.740131791304055e-12 1.346426579950449e-13
3.0578761833420214 6.42811176183048e-20 5.217623631010731e-12 5.068397650956081e-12 1.4922598005465027e-13
3.1040917844459814 6.808371011405089e-20 5.609797716505578e-12 5.444738439393234e-12 1.6505927711234341e-13
3.127460860933648 7.133345502114492e-20 5.9218114572147455e-12 5.748289084699688e-12 1.7352237251505862e-13
3.1510058709225794 7.537247874948047e-20 6.304221204373588e-12 6.121887762139912e-12 1.823334422336759e-13
3.162844764501044 7.888277814471303e-20 6.622614983426887e-12 6.435725823649281e-12 1.8688915977760602e-13
3.1747281389236908 8.282942725981637e-20 6.980083737789167e-12 6.788549059003477e-12 1.915346787856885e-13
3.1986289994194426 9.338159797923807e-20 7.928565253054139e-12 7.727441627234279e-12 2.0112362581985973e-13
3.2227097969389145 1.1731410766133798e-19 1.0035542948621939e-11 9.824269209898523e-12 2.1127373872341356e-13
3.2348180950136065 1.395925729148491e-19 1.1986202454618308e-11 1.1769514707081551e-11 2.1668774753675832e-13
3.240889293275058 1.5618664205218278e-19 1.3436232707906818e-11 1.3216689196940402e-11 2.1954351096641318e-13
3.2469718861334385 1.7540235083941903e-19 1.5117618136537376e-11 1.4895119762664623e-11 2.2249837387275604e-13
3.2714166318528037 2.7601458332496684e-19 2.3968304812690556e-11 2.373360416927921e-11 2.347006434113441e-13
3.2744851364798273 2.8232493139652587e-19 2.453927274980018e-11 2.430313654664254e-11 2.361362031576382e-13
3.2775565192852394 2.888020927069299e-19 2.5125803470308538e-11 2.488822475626078e-11 2.375787140477616e-13
3.283707930232385 2.827229567229826e-19 2.4643082382172423e-11 2.4402928949332928e-11 2.4015343283949414e-13
3.2898708863219004 2.6318936676227995e-19 2.2983524403554166e-11 2.2741032388641087e-11 2.4249201491307705e-13
3.29141343181113 2.585738616677211e-19 2.2591053891785493e-11 2.2347974762561214e-11 2.4307912922428215e-13
3.292184975758714 2.5630462209527297e-19 2.239804432847156e-11 2.2154671271434323e-11 2.43373057037238e-13
3.295272960557952 2.42137860233407e-19 2.117988160343449e-11 2.0935366083536483e-11 2.445155198980062e-13
3.3076538914384823 1.9269863983038652e-19 1.6918744872240272e-11 1.6669642943116576e-11 2.4910192912369667e-13
3.310756385682612 1.8253593621650578e-19 1.604150223251615e-11 1.5791244728096998e-11 2.5025750441915467e-13
3.313861789986515 1.7312016172644704e-19 1.5228301745879434e-11 1.4976885073077773e-11 2.5141667280166514e-13
3.3200813396944477 1.6000656777855397e-19 1.4101196556991155e-11 1.3847284503594204e-11 2.539120533969521e-13
3.345076488085796 1.373887084825584e-19 1.2199064477993377e-11 1.1934026309645077e-11 2.650381683482984e-13
3.3482140837626964 1.383871834383439e-19 1.2299246969079752e-11 1.2032701351016556e-11 2.6654561806319655e-13
3.3513546224236106 1.393942678267063e-19 1.2400372551060794e-11 1.2132312938052137e-11 2.6805961300865716e-13
3.3576445397418455 1.4615948580842484e-19 1.3026602370980516e-11 1.2755376536987218e-11 2.7122583399329665e-13
3.3702598118196083 1.704562788055504e-19 1.5249156375332705e-11 1.4971289672197686e-11 2.7786670313502166e-13
3.382922481734668 1.7644856009962695e-19 1.584453863947721e-11 1.5560224513006038e-11 2.843141264711711e-13
3.389271646505754 1.7953395046943985e-19 1.615185468670783e-11 1.5864274032485605e-11 2.875806542222196e-13
3.395632727569191 1.8292259754934356e-19 1.6487602315377522e-11 1.6196655304873284e-11 2.9094701050424187e-13
3.421196662673239 1.9927667310624e-19 1.809688959497223e-11 1.7792015426706894e-11 3.0487416826533595e-13
3.4276182099114902 1.9653584772313011e-19 1.788148780399516e-11 1.7573513641756154e-11 3.079741622390038e-13
3.4340518103208963 1.8368141104690635e-19 1.6743316361557773e-11 1.6432414076442587e-11 3.1090228511519e-13
3.4469541582030403 1.6528975277344954e-19 1.5123449859805623e-11 1.480693538586435e-11 3.1651447394127605e-13
3.472904465399547 1.6059652878035908e-19 1.4804659513696742e-11 1.4475204928523148e-11 3.2945458517359456e-13
3.4990501388274233 1.5327230009544263e-19 1.423584574331791e-11 1.3893167255691328e-11 3.4267848762658175e-13
3.5253949054701885 1.2610170110925863e-19 1.1800438636770788e-11 1.1444941943246861e-11 3.5549669352392197e-13
3.5519380250092896 1.0025598399002523e-19 9.45246583681218e-12 9.084108871104598e-12 3.6835696570758137e-13
3.578680990867387 9.052540252711637e-20 8.599295719994786e-12 8.2168465773257e-12 3.8244914266908543e-13
3.605625307711299 8.713972193090525e-20 8.340002794409602e-12 7.942726051019373e-12 3.9727674339022953e-13
3.660119384959845 8.580871505181349e-20 8.336736655822866e-12 7.90837306191767e-12 4.2836359390519523e-13
3.715437065384467 8.531550839738166e-20 8.414093340113394e-12 7.953052727789102e-12 4.610406123242917e-13
3.8285932144167436 8.767398785066392e-20 8.910035188871798e-12 8.379095974596464e-12 5.309392142753339e-13
3.94519561050918 9.091402830272202e-20 9.520699890002437e-12 8.91403891098773e-12 6.066609790147071e-13
4.06534921144712 9.448283910478823e-20 1.0195774582628955e-11 9.507778521950808e-12 6.879960606781463e-13
4.189162171576248 9.820478670474008e-20 1.0920166570905858e-11 1.0145194307636234e-11 7.749722632696186e-13
4.316745939156006 1.0199158995662426e-19 1.1686656635821785e-11 1.081953573261181e-11 8.671209032099732e-13
4.448215356677963 1.0578568053036215e-19 1.2490566111546437e-11 1.1527569711282649e-11 9.629964002637878e-13
4.58368876423945 1.095622767659535e-19 1.3330474322118903e-11 1.22678932593692e-11 1.0625810627497049e-12
4.723288106065518 1.1331482624604998e-19 1.4206941993351451e-11 1.3040570987913042e-11 1.1663710054384076e-12
4.867139040275056 1.1702435476986137e-19 1.511887377815667e-11 1.3847532081230436e-11 1.2713416969262313e-12
4.940699165968905 1.1890321384058222e-19 1.5593781239820536e-11 1.4269217620733261e-11 1.3245636190872716e-12
5.015371051989984 1.2073065866308564e-19 1.607274564614956e-11 1.4694659655430004e-11 1.3780859907195583e-12
5.091171501069577 1.2265152267717812e-19 1.6575250636957416e-11 1.5142139363850262e-11 1.433111273107155e-12
5.129500256944802 1.2358935989033745e-19 1.682773142112603e-11 1.536706661434291e-11 1.4606648067831158e-12
5.168117569889187 1.2452578124831765e-19 1.7082880112829432e-11 1.559434408880562e-11 1.4885360240238093e-12
5.20702561229733 1.2556821141617463e-19 1.735556894602633e-11 1.58364575084638e-11 1.5191114375625345e-12
5.246226572918644 1.2659808946919686e-19 1.7629647451277622e-11 1.607985874471422e-11 1.5497887065633939e-12
5.265937586045735 1.2710826302830678e-19 1.776719727242418e-11 1.6202036549810425e-11 1.565160722613759e-12
5.285722656980489 1.2761523118876964e-19 1.7905082091004415e-11 1.6324529691592354e-11 1.5805523994120587e-12
5.305582063971359 1.281189743932053e-19 1.8043298038557606e-11 1.6447336262141632e-11 1.5959617764159745e-12
5.3255160863122235 1.286401696040693e-19 1.8184766876794557e-11 1.6573245286286635e-11 1.6115215905079269e-12
5.365609099470188 1.2983279052087674e-19 1.8491530342410704e-11 1.6847805315234908e-11 1.6437250271757928e-12
5.406003951863644 1.3102037391181461e-19 1.8801159180247317e-11 1.7125135425082846e-11 1.6760237551644766e-12
5.446702915881641 1.322033196838463e-19 1.9113731523075558e-11 1.740532948259998e-11 1.7084020404755759e-12
5.487708281020852 1.3342089270120015e-19 1.943498867955762e-11 1.7693992837732435e-11 1.7409958418251866e-12
5.529022354014368 1.3497935397816623e-19 1.9810029583707277e-11 1.8035059811260114e-11 1.7749697724471616e-12
5.570647458961463 1.365588210028371e-19 2.0192722009226454e-11 1.838368669763043e-11 1.8090353115960237e-12
5.612585937458331 1.381620571014808e-19 2.05835949768023e-11 1.8740418535771488e-11 1.8431764410308186e-12
5.654840148729818 1.3985003947622417e-19 2.099192949897442e-11 1.9114366929101338e-11 1.8775625698730835e-12
5.67608639626678 1.4096171361174476e-19 2.1238292657521192e-11 1.9342712686269186e-11 1.895579971252e-12
5.686739436050992 1.4152550527094143e-19 2.1363257568413735e-11 1.9458659105612916e-11 1.9045984628008123e-12
5.6974124697621304 1.4209480516771286e-19 2.148944977142383e-11 1.957582662890128e-11 1.9136231425225493e-12
5.718818669136295 1.43250569706709e-19 2.174563615216671e-11 1.9813946107379217e-11 1.931690044787498e-12
5.740305295436557 1.4450230278329808e-19 2.201806714855496e-11 2.0068141671404772e-11 1.9499254771501944e-12
5.7835210386641895 1.4768029719008277e-19 2.2671711706621035e-11 2.0684114344527772e-11 1.987597362093257e-12
5.827062130521658 1.5120643850228223e-19 2.3387799712515323e-11 2.136205735940571e-11 2.0257423531096106e-12
5.8489554468988025 1.536721145919446e-19 2.3858482303156125e-11 2.181205559059595e-11 2.046426712560167e-12
5.870931020387893 1.5626211463812567e-19 2.4351746152582326e-11 2.2284580240087076e-11 2.067165912495251e-12
5.892989160043636 1.5898649030930184e-19 2.486939942201312e-11 2.2781441519435442e-11 2.0879579025776817e-12
5.915130176081913 1.6205174608120117e-19 2.5444121141288196e-11 2.33345827790435e-11 2.1095383622446938e-12
5.95966208400165 1.7060609633796104e-19 2.698892675510849e-11 2.482971522572337e-11 2.15921152938512e-12
6.004529249263818 1.8273744573022634e-19 2.912567156436826e-11 2.6910281887657882e-11 2.2153896767103903e-12
6.027089341400364 1.9112770843162876e-19 3.057741129853204e-11 2.832931284906329e-11 2.2480984494687525e-12
6.049734195844842 2.0090894723248655e-19 3.226301905877558e-11 2.998021951118544e-11 2.2827995475901402e-12
6.095279466722835 2.2901776092755726e-19 3.705375452454088e-11 3.4684813351545236e-11 2.3689411729956453e-12
6.141167624020661 2.7166375412717913e-19 4.4284534369837436e-11 4.1802745686334923e-11 2.481788683502523e-12
6.164241091010745 2.9879779594336504e-19 4.8890720651935033e-11 4.6337602516279006e-11 2.5531181356560133e-12
6.187401249150058 3.291806322542864e-19 5.406447483586592e-11 5.14382104286947e-11 2.6262644071712176e-12
6.1990139391386085 3.4391859489497443e-19 5.659104371220859e-11 5.392757854258621e-11 2.6634651696223944e-12
6.204828454712694 3.51637769733771e-19 5.7915489182348986e-11 5.5233244758872003e-11 2.682244423476983e-12
6.210648424152782 3.5721081590395015e-19 5.888856594783483e-11 5.61904333231151e-11 2.698132624719735e-12
6.233982942956859 3.758140082963106e-19 6.218820290608733e-11 5.943514957878001e-11 2.7530533273073304e-12
6.239830258556775 3.7800297450703517e-19 6.260909499104625e-11 5.984877757845946e-11 2.7603174125868037e-12
6.245683058788269 3.7791316125290844e-19 6.265293087889323e-11 5.988534147114845e-11 2.7675894077447673e-12
6.257405133728602 3.76754451716526e-19 6.257806064669988e-11 5.97979513536431e-11 2.7801092930567844e-12
6.269149208991335 3.722798465983025e-19 6.195089225444019e-11 5.916719199819343e-11 2.783700256246767e-12
6.280915325867298 3.6203290848403776e-19 6.035877555142515e-11 5.758251195045495e-11 2.7762636009702027e-12
6.304513850009849 3.37167085250571e-19 5.642430361382062e-11 5.367287036096328e-11 2.751433252857332e-12
6.32820103803542 3.0699902840553217e-19 5.1568761546683924e-11 4.88527504825631e-11 2.716011064120821e-12
6.3519772230701035 2.7952589079193824e-19 4.7130321827658e-11 4.4446341435170027e-11 2.6839803924879886e-12
6.375842739491607 2.563220390343633e-19 4.3380342731957235e-11 4.0724903228865905e-11 2.6554395030913246e-12
6.399797922933955 2.3798441905029997e-19 4.0428182609820916e-11 3.778875703945519e-11 2.639425570365723e-12
6.42384311029221 2.2265164973312943e-19 3.796560072351325e-11 3.533968231845231e-11 2.625918405060938e-12
6.447978639727206 2.1154601524880227e-19 3.620744439462532e-11 3.3585293241802846e-11 2.62215115282247e-12
6.472204850670314 2.0224267358834427e-19 3.474517356947022e-11 3.2124865112203436e-11 2.620308457266785e-12
