Dust emission spectrum from A.P. Jones, M. Kohler, N. Ysard, M. Bocchio, and L. Verstraete (2017), A&A, 602A, 46J 
inside the DustPedia framework.

lambda    nu*dP/dnu     j_nu    j_nu(carb.) j_nu(sil)
 (um)   (erg s-1 H-1) (Jy cm2 sr-1 H-1)
0.9927057738263894 1.441908870791658e-21 3.7995117733248746e-14 3.799511571729407e-14 2.0159546735511474e-21
1.0001793341362166 1.4661707304502788e-21 3.8925289856203184e-14 3.892528742998062e-14 2.4262225591779444e-21
1.0077091589558085 1.4905242725609252e-21 3.98697664465487e-14 3.9869763530444875e-14 2.9161038171292904e-21
1.0114953028030835 1.5027342288669075e-21 4.0347393335379584e-14 4.0347390140001476e-14 3.1953781028333713e-21
1.0152956718711033 1.5149656895293272e-21 4.0828626013086485e-14 4.0828622512854684e-14 3.500231801449268e-21
1.0229392996569957 1.539479412209346e-21 4.1801626667390456e-14 4.18016224715664e-14 4.195824044165313e-21
1.0267826658714554 1.5517337850337336e-21 4.229267716417577e-14 4.229267257244881e-14 4.5917269519012836e-21
1.0306404723013447 1.5640072918156842e-21 4.278735095956746e-14 4.2787345936255424e-14 5.0233120210787034e-21
1.03451277320114 1.5762995216295711e-21 4.328565903104891e-14 4.328565353741657e-14 5.4936323506833805e-21
1.0383996230291617 1.5886100749079453e-21 4.3787612623111507e-14 4.3787606617124237e-14 6.005987281789729e-21
1.0403485208654093 1.5947721011604204e-21 4.4039960079507267e-14 4.4039953800476626e-14 6.279030639254694e-21
1.0423010764483396 1.6009385637387807e-21 4.429322326040852e-14 4.429321669646758e-14 6.563940953798396e-21
1.0462171883269815 1.6132846121610911e-21 4.480250276110681e-14 4.480249558976466e-14 7.171342152131915e-21
1.0471985131304309 1.6163738250566257e-21 4.4930397310170574e-14 4.4930389978772116e-14 7.331398462689822e-21
1.048180758391296 1.61946410707146e-21 4.505852211199621e-14 4.505851461712488e-14 7.49487134478553e-21
1.0501480137395462 1.6256478564587864e-21 4.5315463250434275e-14 4.531545541808873e-14 7.832345529043581e-21
1.0521189612883777 1.6318358168197254e-21 4.5573327742307215e-14 4.557331955797167e-14 8.184335548819529e-21
1.0531058218030118 1.6349272422013613e-21 4.570249155597387e-14 4.5702483190003326e-14 8.365970545899848e-21
1.0540936079674168 1.6380062048725205e-21 4.583150887172505e-14 4.5831500320225255e-14 8.551499801842973e-21
1.058054026499678 1.6503317724210796e-21 4.6349871897092934e-14 4.6349862563344176e-14 9.333748745194677e-21
1.0590464539527713 1.6534155684251955e-21 4.648003710029825e-14 4.648002756054666e-14 9.539751595353927e-21
1.06003981227728 1.6565003162205139e-21 4.6610432489708234e-14 4.661042273960904e-14 9.750099188881488e-21
1.0620293250338977 1.662672647898237e-21 4.687191465358086e-14 4.687190446940241e-14 1.0184178444204076e-20
1.0660195594769086 1.675028523605318e-21 4.7397650389134286e-14 4.7397639280718413e-14 1.1108415860083105e-20
1.070024785945596 1.687399105669794e-21 4.7927092732672644e-14 4.792708062014824e-14 1.2112524402947212e-20
1.0740450607676866 1.6997841143242243e-21 4.846025570879817e-14 4.846024250576271e-14 1.3203035447429646e-20
1.07808044048254 1.712183284182542e-21 4.899715375268493e-14 4.899713936570299e-14 1.4386981939972432e-20
1.0861967418109137 1.737004042185708e-21 5.008166488641116e-14 5.008164782037101e-14 1.706604015513295e-20
1.0902777775684922 1.749381797445978e-21 5.0628049564472405e-14 5.062803098640747e-14 1.8578064927190666e-20
1.0943741465085532 1.7617720503771944e-21 5.117819604845303e-14 5.11781758310268e-14 2.0217426227906536e-20
1.1026131145906286 1.7865893222182995e-21 5.228984094653641e-14 5.228981702711388e-14 2.3919422525945206e-20
1.1109141095355224 1.8114545661721314e-21 5.3416737767967755e-14 5.3416709505547955e-14 2.8262419806140434e-20
1.1192775983109025 1.8363471649136208e-21 5.455845125715176e-14 5.4558417906519456e-14 3.335063233796057e-20
1.1277040513999907 1.861176312054582e-21 5.5712428558967824e-14 5.571238925492338e-14 3.9304044446249436e-20
1.1361939428280308 1.8860482657691447e-21 5.688197999669783e-14 5.688193373609245e-14 4.626060537143409e-20
1.1447477501889525 1.910962871224473e-21 5.806727967885769e-14 5.806722530015226e-14 5.437870542790739e-20
1.1533659546722406 1.935929302148541e-21 5.926878905052848e-14 5.926872521047904e-14 6.384004944712785e-20
1.1707974979042381 1.9860936464045475e-21 6.172355631397614e-14 6.172346865861998e-14 8.765535617854215e-20
1.1884924949847024 2.0364698645278446e-21 6.424567027838773e-14 6.424555052637068e-14 1.197520170494135e-19
1.2064549276569216 2.087400686341039e-21 6.684768265365884e-14 6.684751985992234e-14 1.6279373649696596e-19
1.2246888378427687 2.1385500821655976e-21 6.95207770972674e-14 6.952055687606205e-14 2.202212053526292e-19
1.2431983285522175 2.189875346552968e-21 7.226520599194159e-14 7.226490952889005e-14 2.964630515324285e-19
1.2619875648066055 2.241449926164149e-21 7.50850630511549e-14 7.508466586066557e-14 3.9719048935656908e-19
1.3004222497298317 2.3450225129184028e-21 8.094701548952757e-14 8.094631258466658e-14 7.029048609877262e-19
1.3400274889804893 2.449578988874375e-21 8.713137924468594e-14 8.71301581248366e-14 1.2211198493226628e-18
1.3808389325824078 2.5555110477732613e-21 9.366777828373151e-14 9.366569481028698e-14 2.083473444519187e-18
1.4228933163050095 2.663736879389367e-21 1.0060813443043816e-13 1.0060464141360745e-13 3.493016830740685e-18
1.466228494730424 2.776202051266833e-21 1.0804935013835963e-13 1.0804359290764387e-13 5.757230715760428e-18
1.5108834753276823 2.8927135430305598e-21 1.1601277982810838e-13 1.1600344689442555e-13 9.33293368279617e-18
1.5568984535646726 3.0132287608320075e-21 1.2452651221155328e-13 1.2451161612004467e-13 1.4896091508556166e-17
1.6043148490894465 3.138552492678177e-21 1.3365599179905797e-13 1.336325394047086e-13 2.3452394349357603e-17
1.6531753430134553 3.2695563104242992e-21 1.434753106358667e-13 1.434389318492033e-13 3.6378786663414176e-17
1.7035239163302658 3.407278334909674e-21 1.5407255338112322e-13 1.5401694288121965e-13 5.561049990354097e-17
1.755405889504358 3.554481640438745e-21 1.656239963390802e-13 1.6554017986851775e-13 8.381647056245672e-17
1.8088679632656115 3.711370116433411e-21 1.7820117637332132e-13 1.7807657620214397e-13 1.246001711773624e-16
1.8639582606462262 3.878128942422213e-21 1.9187918305949217e-13 1.9169641678958892e-13 1.8276626990324736e-16
1.9207263702978936 4.0555380875845726e-21 2.0676804260832694e-13 2.06503421969997e-13 2.6462063832999293e-16
1.979223391128241 4.244671567036878e-21 2.230017854400473e-13 2.2262345810531668e-13 3.7832733473064094e-16
2.039501978296691 4.446558130749704e-21 2.407229729124393e-13 2.401886779556801e-13 5.342949567592111e-16
2.1016163906111602 4.663628044603532e-21 2.601637507794351e-13 2.5941809025923953e-13 7.456605201955753e-16
2.1656225393682647 4.897327190817022e-21 2.8152133683212745e-13 2.8049262135418464e-13 1.0287154779427307e-15
2.231578038680979 5.1476539094625785e-21 3.049234692459299e-13 3.035200854289809e-13 1.4033838169490992e-15
2.299542257339062 5.4153691456514605e-21 3.3055131866311417e-13 3.2865760079178927e-13 1.8937178713249036e-15
2.369576372248914 5.701797081941045e-21 3.58634364210682e-13 3.561059417549537e-13 2.5284224557282793e-15
2.4417434235010123 6.0084500725205326e-21 3.894322523504593e-13 3.8609101262386783e-13 3.3412397265915007e-15
2.5161083711144245 6.337928269705198e-21 4.232978819355413e-13 4.1892642056410383e-13 4.371461371437631e-15
2.5927381535095444 6.694221154113165e-21 4.607105394522801e-13 4.550463225483554e-13 5.6642169039247496e-15
2.6717017477616296 7.080913674136162e-21 5.021653093190376e-13 4.94894948725826e-13 7.270360593211691e-15
2.753070231689431 7.503005555759767e-21 5.483047290235848e-13 5.390582256395905e-13 9.246503383994263e-15
2.836916847834745 7.973011684328677e-21 6.003968984447168e-13 5.887416536165492e-13 1.1655244828167508e-14
2.9233170693905177 8.51765598076803e-21 6.609451968696476e-13 6.463833236116676e-13 1.4561873257980065e-14
2.967498994190263 8.842208013307818e-21 6.964993908984897e-13 6.803072951049078e-13 1.6192095793581777e-14
3.0123486681368425 9.189631059851127e-21 7.348060905807787e-13 7.168248025331683e-13 1.7981288047610505e-14
3.0578761833420214 9.716451130126355e-21 7.88673049014812e-13 7.687249690182544e-13 1.9948079996557428e-14
3.1040917844459814 1.0325082718120452e-20 8.507413206156879e-13 8.286551657790994e-13 2.208615483658841e-14
3.127460860933648 1.085303243731796e-20 9.009743298397886e-13 8.777442784269718e-13 2.3230051412816888e-14
3.1510058709225794 1.1512881214209316e-20 9.629476312606078e-13 9.385258721382502e-13 2.4421759122357533e-14
3.162844764501044 1.2089712376370683e-20 1.0149935412035208e-12 9.899553175807892e-13 2.5038223622731378e-14
3.1747281389236908 1.2740135136034948e-20 1.073618555894757e-12 1.0479515069406916e-12 2.5667048954065555e-14
3.1986289994194426 1.4485796844221876e-20 1.2299166860202405e-12 1.2029510228587126e-12 2.696566316152788e-14
3.2227097969389145 1.845951242172565e-20 1.5791044522422705e-12 1.5507633844520956e-12 2.834106779017466e-14
3.2348180950136065 2.2165293310112775e-20 1.903236594421616e-12 1.874161697178409e-12 2.907489724320686e-14
3.240889293275058 2.492669308841896e-20 2.144362953028152e-12 2.114900979051952e-12 2.9461973976200565e-14
3.2469718861334385 2.8124404924363854e-20 2.4239926770031224e-12 2.394130192942918e-12 2.986248406020367e-14
3.2714166318528037 4.489863736871984e-20 3.8988672742009916e-12 3.867350210688904e-12 3.151706351208657e-14
3.2744851364798273 4.5951160534179153e-20 3.9940080953543145e-12 3.962296188139652e-12 3.1711907214663544e-14
3.2775565192852394 4.7031755534953256e-20 4.091766217338341e-12 4.059858505923557e-12 3.1907711414784284e-14
3.283707930232385 4.6018201865093754e-20 4.011101018415319e-12 3.97884343616228e-12 3.225758225303852e-14
3.2898708863219004 4.276061070887746e-20 3.734153669764508e-12 3.701577952459832e-12 3.257571730467683e-14
3.29141343181113 4.199099035453946e-20 3.6686644193289175e-12 3.6360088235371655e-12 3.2655595791752757e-14
3.292184975758714 4.161261721747219e-20 3.636458981665203e-12 3.6037633948652646e-12 3.26955867999383e-14
3.295272960557952 3.9247580141502987e-20 3.4329992832060796e-12 3.400148189362592e-12 3.28510938434871e-14
3.3076538914384823 3.099853194972194e-20 2.721639623055778e-12 2.6881640728360697e-12 3.347555021970846e-14
3.310756385682612 2.9304165111736383e-20 2.5752892269080443e-12 2.5416563051972305e-12 3.36329217108132e-14
3.313861789986515 2.773483185896216e-20 2.4396603157457896e-12 2.4058695188350195e-12 3.379079691077001e-14
3.3200813396944477 2.5547878007350488e-20 2.2515053875430143e-12 2.2173748933501233e-12 3.413049419289129e-14
3.345076488085796 2.176469585946758e-20 1.9325382054032996e-12 1.8968935612606113e-12 3.5644644142687454e-14
3.3482140837626964 2.1929687259583792e-20 1.9490145897829577e-12 1.9131648173837517e-12 3.584977239920681e-14
3.3513546224236106 2.2096141464672007e-20 1.9656503124182254e-12 1.9295945022332986e-12 3.605581018492643e-14
3.3576445397418455 2.3221323101980093e-20 2.069622377941632e-12 2.0331357447486272e-12 3.648663319300478e-14
3.3702598118196083 2.727157321892466e-20 2.4397369667510085e-12 2.4023466912616594e-12 3.739027548934926e-14
3.382922481734668 2.826529056545122e-20 2.538136260604652e-12 2.499868024234524e-12 3.826823637012775e-14
3.389271646505754 2.8777284144545166e-20 2.5889616452232735e-12 2.5502484740769007e-12 3.871317114637332e-14
3.395632727569191 2.933872295112937e-20 2.644425581857239e-12 2.6052538784284377e-12 3.9171703428800316e-14
3.421196662673239 3.204756792241684e-20 2.9103320997844918e-12 2.869262685619008e-12 4.106941416548255e-14
3.4276182099114902 3.1588375496613677e-20 2.874015899564772e-12 2.8325233772821966e-12 4.149252228257514e-14
3.4340518103208963 2.944262476748768e-20 2.683816387227092e-12 2.6419238718645803e-12 4.189251536251159e-14
3.4469541582030403 2.6373889559841164e-20 2.4131211383261167e-12 2.370461280360614e-12 4.2659857965501855e-14
3.472904465399547 2.558693595274004e-20 2.3587426058078657e-12 2.314314545231987e-12 4.442806057587857e-14
3.4990501388274233 2.4358744570249827e-20 2.262426609289659e-12 2.2161900248469176e-12 4.623658444274072e-14
3.5253949054701885 1.98090550319147e-20 1.8537064631189356e-12 1.8057143453210606e-12 4.799211779787486e-14
3.5519380250092896 1.548321625034763e-20 1.4598088495640065e-12 1.4100534321388035e-12 4.975541742520262e-14
3.578680990867387 1.384645622419656e-20 1.3153188875372523e-12 1.2636310156647784e-12 5.1687871872473973e-14
3.605625307711299 1.3268406463606389e-20 1.2698978666879723e-12 1.2161755001839106e-12 5.372236650406168e-14
3.660119384959845 1.3021155254261125e-20 1.2650689646594941e-12 1.2070757295756936e-12 5.799323508380018e-14
3.715437065384467 1.291502047364138e-20 1.2737213877756023e-12 1.2112309198191592e-12 6.249046795644334e-14
3.8285932144167436 1.3263351304234703e-20 1.3479132150848658e-12 1.2757752338368681e-12 7.213798124799774e-14
3.94519561050918 1.376260509186473e-20 1.4412476845483742e-12 1.3586171167707382e-12 8.263056777763631e-14
4.06534921144712 1.4321178028443044e-20 1.5454182401712353e-12 1.4514694536861155e-12 9.394878648511926e-14
4.189162171576248 1.4910421372345407e-20 1.6580076235789776e-12 1.5519016897944516e-12 1.061059337845263e-13
4.316745939156006 1.551646979618187e-20 1.7779471305937762e-12 1.6588996578587723e-12 1.1904747273500446e-13
4.448215356677963 1.6130795040950574e-20 1.9046317127294924e-12 1.7720486625073408e-12 1.3258305022215158e-13
4.58368876423945 1.674997414561592e-20 2.03797426299628e-12 1.891254562474536e-12 1.4671970052174355e-13
4.723288106065518 1.7373548148448205e-20 2.1782232646922167e-12 2.0166867657354448e-12 1.6153649895677105e-13
4.867139040275056 1.799979831494222e-20 2.325470448361532e-12 2.14884758236819e-12 1.7662286599334172e-13
4.940699165968905 1.8320911275827032e-20 2.4027296935173335e-12 2.2184189109520094e-12 1.8431078256532423e-13
5.015371051989984 1.8636080866756428e-20 2.4810018509742066e-12 2.2889323356510863e-12 1.920695153231202e-13
5.091171501069577 1.8969761338648482e-20 2.563592704339653e-12 2.363523571690917e-12 2.0006913264873622e-13
5.129500256944802 1.9133904541655882e-20 2.6052421256178215e-12 2.401155775209315e-12 2.040863504085066e-13
5.168117569889187 1.9298513867870664e-20 2.6474373053978704e-12 2.4392818922783675e-12 2.081554131195025e-13
5.20702561229733 1.948139427625813e-20 2.6926455168315645e-12 2.480038976285216e-12 2.126065405463487e-13
5.246226572918644 1.9662968948530747e-20 2.73820254208782e-12 2.521122020854938e-12 2.1708052123288226e-13
5.265937586045735 1.9753259112534302e-20 2.7611112217586476e-12 2.541785770856982e-12 2.193254509016651e-13
5.285722656980489 1.9843214226790183e-20 2.784106382681783e-12 2.5625310498948856e-12 2.2157533278689722e-13
5.305582063971359 1.9932831853806088e-20 2.8071878314204796e-12 2.5833579226168676e-12 2.2382990880361175e-13
5.3255160863122235 2.0025624514335988e-20 2.830852248378119e-12 2.6047445990860445e-12 2.2610764929207424e-13
5.365609099470188 2.0237419566623446e-20 2.882329313472932e-12 2.651508529726327e-12 2.3082078374660524e-13
5.406003951863644 2.044932361584149e-20 2.9344366601228068e-12 2.6988800365515037e-12 2.355566235713038e-13
5.446702915881641 2.0661416557008613e-20 2.987192529669474e-12 2.7468794264752917e-12 2.403131031941817e-13
5.487708281020852 2.0880434219741416e-20 3.0415851256050816e-12 2.796475731042626e-12 2.451093945624549e-13
5.529022354014368 2.1158965377625596e-20 3.10536180339997e-12 2.8552528951226915e-12 2.501089082772773e-13
5.570647458961463 2.1442353084533752e-20 3.1706445023472624e-12 2.9155130142479983e-12 2.551314880992634e-13
5.612585937458331 2.1731101026609992e-20 3.237532730155902e-12 2.9773577005046743e-12 2.601750296512271e-13
5.654840148729818 2.2035748466014404e-20 3.3076349494656374e-12 3.0423714197504595e-12 2.652635297151783e-13
5.67608639626678 2.2234763112704286e-20 3.350047286307428e-12 3.0821194097942133e-12 2.6792787651321645e-13
5.686739436050992 2.2335803610685236e-20 3.371586800690601e-12 3.102324330808323e-12 2.6926246988227724e-13
5.6974124697621304 2.2437903195053903e-20 3.393355535531871e-12 3.1227569033201008e-12 2.705986322117696e-13
5.718818669136295 2.264539493405961e-20 3.4376025154133592e-12 3.1643269854978404e-12 2.7327552991551924e-13
5.740305295436557 2.286992819105787e-20 3.4847307267379e-12 3.2087515137356658e-12 2.7597921300223444e-13
5.7835210386641895 2.343734217284514e-20 3.598074184725157e-12 3.316507911569218e-12 2.8156627315593825e-13
5.827062130521658 2.406749779937094e-20 3.722631282692337e-12 3.435398848092573e-12 2.8723243459976343e-13
5.8489554468988025 2.4505451815935253e-20 3.8046127629194725e-12 3.5143134541064737e-12 2.90299308812999e-13
5.870931020387893 2.4965926256409058e-20 3.890667293656534e-12 3.5972900417610823e-12 2.9337725189545195e-13
5.892989160043636 2.5450720873242157e-20 3.981119035607733e-12 3.684653032055414e-12 2.9646600355231907e-13
5.915130176081913 2.5995727779512836e-20 4.081649613614412e-12 3.781979588094797e-12 2.996700255196169e-13
5.95966208400165 2.751096676969217e-20 4.352080512050473e-12 4.045066392940537e-12 3.0701411910993507e-13
6.004529249263818 2.965648088270813e-20 4.7268085558112254e-12 4.411505912948709e-12 3.1530264286251597e-13
6.027089341400364 3.1138238597936125e-20 4.981625827746049e-12 4.661512404941365e-12 3.2011342280468456e-13
6.049734195844842 3.286620102161525e-20 5.2778280139156675e-12 4.95261406537227e-12 3.2521394854339804e-13
6.095279466722835 3.782826979765856e-20 6.120396153964331e-12 5.78257088256017e-12 3.3782527140416266e-13
6.141167624020661 4.535925878558571e-20 7.394117265052018e-12 7.039832296462337e-12 3.542849685896815e-13
6.164241091010745 5.015296507707657e-20 8.2062673779373e-12 7.841607541113396e-12 3.6465983682390505e-13
6.187401249150058 5.552785792528626e-20 9.119869710840451e-12 8.744564646724296e-12 3.753050641161563e-13
6.1990139391386085 5.813813159312287e-20 9.566500896345193e-12 9.185780778035831e-12 3.807201183093621e-13
6.204828454712694 5.950586983605183e-20 9.800743428060555e-12 9.417289092544943e-12 3.8345433551561136e-13
6.210648424152782 6.049601979784228e-20 9.973169044256146e-12 9.587395097745598e-12 3.857739465105498e-13
6.233982942956859 6.381103521555498e-20 1.0559195554263681e-11 1.0165376477272725e-11 3.9381907699095815e-13
6.239830258556775 6.420730085876027e-20 1.0634733771149177e-11 1.0239830039944891e-11 3.949037312042837e-13
6.245683058788269 6.420136729068564e-20 1.0643725171830878e-11 1.0247735366422448e-11 3.9598980540843284e-13
6.257405133728602 6.401702388941205e-20 1.0633082595629328e-11 1.0235210350787685e-11 3.9787224484164176e-13
6.269149208991335 6.324823485095273e-20 1.0525105289308909e-11 1.0126631041247891e-11 3.984742480610149e-13
6.280915325867298 6.146063776183523e-20 1.0246827713667968e-11 9.849333662252109e-12 3.9749405141585883e-13
6.304513850009849 5.711073878417109e-20 9.55737913258309e-12 9.163275406394881e-12 3.94103726188208e-13
6.32820103803542 5.181682816513489e-20 8.704032939881397e-12 8.314840795634827e-12 3.8919214424657015e-13
6.3519772230701035 4.6991894555757986e-20 7.923212792308965e-12 7.538446632444207e-12 3.8476615986476063e-13
6.375842739491607 4.291802584042016e-20 7.263513810011577e-12 6.882674730004705e-12 3.8083908000687133e-13
6.399797922933955 3.969672314752256e-20 6.743577494795341e-12 6.364864281650422e-12 3.7871321314491855e-13
6.42384311029221 3.700505426146573e-20 6.3099425336694735e-12 5.932995578176498e-12 3.769469554929781e-13
6.447978639727206 3.5057622438671334e-20 6.000334790343673e-12 5.623751739234424e-12 3.7658305110924854e-13
6.472204850670314 3.3428090110328133e-20 5.742926417909955e-12 5.3664297853540666e-12 3.764966325558871e-13
6.496522083828205 3.237201937588827e-20 5.582389610251362e-12 5.20484516473094e-12 3.775444455204201e-13
