Dust emission spectrum from A.P. Jones, M. Kohler, N. Ysard, M. Bocchio, and L. Verstraete (2017), A&A, 602A, 46J 
inside the DustPedia framework.

lambda    nu*dP/dnu     j_nu    j_nu(carb.) j_nu(sil)
 (um)   (erg s-1 H-1) (Jy cm2 sr-1 H-1)
0.9927057738263894 5.677539800646548e-22 1.4960639852526472e-14 1.4960639852524917e-14 1.5581798245600676e-27
1.0001793341362166 5.771338591558072e-22 1.5322296569492715e-14 1.5322296569490834e-14 1.877391379742932e-27
1.0077091589558085 5.865003621842479e-22 1.5688193001329594e-14 1.5688193001327332e-14 2.2591184390715553e-27
1.0114953028030835 5.911774441197099e-22 1.5872712826197866e-14 1.5872712826195386e-14 2.4769827355304032e-27
1.0152956718711033 5.95849801422639e-22 1.6058270408628834e-14 1.605827040862612e-14 2.714987901131652e-27
1.0229392996569957 6.051739324241475e-22 1.643234368150858e-14 1.6432343681505323e-14 3.25870695997147e-27
1.0267826658714554 6.098143981477001e-22 1.6620559350885147e-14 1.6620559350881582e-14 3.568534856623341e-27
1.0306404723013447 6.144480875236311e-22 1.6809771990760596e-14 1.6809771990756686e-14 3.9065646155083524e-27
1.03451277320114 6.190745533856343e-22 1.699997345995943e-14 1.6999973459955153e-14 4.275239146123276e-27
1.0383996230291617 6.236933510473835e-22 1.7191155515525515e-14 1.719115551552084e-14 4.677201369517967e-27
1.0403485208654093 6.259997360378266e-22 1.7287111659921604e-14 1.728711165991671e-14 4.891549725427372e-27
1.0423010764483396 6.283040383877982e-22 1.738330981467187e-14 1.7383309814666752e-14 5.115309570345754e-27
1.0462171883269815 6.32906175934434e-22 1.7576427916733035e-14 1.757642791672745e-14 5.592653842075005e-27
1.0471985131304309 6.340553231739419e-22 1.7624857038151918e-14 1.7624857038146197e-14 5.718506150897714e-27
1.048180758391296 6.352039019442779e-22 1.7673345729865926e-14 1.7673345729860076e-14 5.847072852481271e-27
1.0501480137395462 6.374993269449794e-22 1.7770501285118995e-14 1.777050128511288e-14 6.1125736965408985e-27
1.0521189612883777 6.397923967833958e-22 1.7867893500751053e-14 1.7867893500744667e-14 6.389615877064492e-27
1.0531058218030118 6.409362710730106e-22 1.791662880189743e-14 1.79166288018909e-14 6.532622643603971e-27
1.0540936079674168 6.420737681608653e-22 1.7965261373388294e-14 1.796526137338161e-14 6.678726358239547e-27
1.058054026499678 6.466172937274802e-22 1.816036583162059e-14 1.816036583161329e-14 7.295089596155561e-27
1.0590464539527713 6.477515261931456e-22 1.820928479457121e-14 1.820928479456375e-14 7.457496285970922e-27
1.06003981227728 6.488850858388579e-22 1.8258260617829194e-14 1.8258260617821576e-14 7.623365302829359e-27
1.0620293250338977 6.511501602691711e-22 1.8356382284500112e-14 1.8356382284492145e-14 7.965772797341157e-27
1.0660195594769086 6.5567194557064385e-22 1.8553301754665233e-14 1.8553301754656536e-14 8.695319927409997e-27
1.070024785945596 6.601822306072991e-22 1.8751115181028448e-14 1.8751115181018956e-14 9.488633216548918e-27
1.0740450607676866 6.646805996141379e-22 1.8949813420737982e-14 1.8949813420727626e-14 1.0350999552521547e-26
1.07808044048254 6.691666401527766e-22 1.9149387251135913e-14 1.9149387251124623e-14 1.1288118669771683e-26
1.0861967418109137 6.780921752683511e-22 1.9550895829323805e-14 1.9550895829310394e-14 1.341166287189696e-26
1.0902777775684922 6.825128341673753e-22 1.9752288292391168e-14 1.975228829237656e-14 1.4611837560060508e-26
1.0943741465085532 6.869192341650384e-22 1.9954503891706538e-14 1.9954503891690625e-14 1.591432651819527e-26
1.1026131145906286 6.956876908990328e-22 2.036136578965221e-14 2.036136578963335e-14 1.88599052517464e-26
1.1109141095355224 7.043944502090699e-22 2.0771403453711733e-14 2.0771403453689412e-14 2.2322247112279474e-26
1.1192775983109025 7.130283946153472e-22 2.1184297640373725e-14 2.1184297640347336e-14 2.638670893843022e-26
1.1277040513999907 7.215494202445926e-22 2.159885136447117e-14 2.1598851364440015e-14 3.1151818379489483e-26
1.1361939428280308 7.2999868606812225e-22 2.2016282092128176e-14 2.2016282092091437e-14 3.673113710884719e-26
1.1447477501889525 7.383733738825628e-22 2.243650771780177e-14 2.243650771775852e-14 4.325539750395583e-26
1.1533659546722406 7.466752950141422e-22 2.285958505835909e-14 2.285958505830821e-14 5.0874969129508516e-26
1.1707974979042381 7.630876471799768e-22 2.371513722350379e-14 2.3715137223433666e-14 7.011655379159459e-26
1.1884924949847024 7.791735713782603e-22 2.458103074754193e-14 2.4581030747445776e-14 9.616045550466599e-26
1.2064549276569216 7.950588459976948e-22 2.5461255127495366e-14 2.5461255127364125e-14 1.312385468904559e-25
1.2246888378427687 8.105699726719529e-22 2.635030849256558e-14 2.6350308492387332e-14 1.7824985755597035e-25
1.2431983285522175 8.2567065359429685e-22 2.724687501387408e-14 2.724687501363313e-14 2.4094725447357657e-25
1.2619875648066055 8.403552290899572e-22 2.81505844163865e-14 2.8150584416062332e-14 3.241640673406271e-25
1.3004222497298317 8.682319288298662e-22 2.9970195596983194e-14 2.9970195596404587e-14 5.786126278177358e-25
1.3400274889804893 8.940908791665773e-22 3.180275950508364e-14 3.180275950406951e-14 1.0141378243057687e-24
1.3808389325824078 9.178360793804477e-22 3.36416727523555e-14 3.3641672750609297e-14 1.746189608999397e-24
1.4228933163050095 9.395829463894978e-22 3.5487621960834105e-14 3.5487621957878924e-14 2.9551770625991666e-24
1.466228494730424 9.598546338471355e-22 3.735739240130254e-14 3.7357392396384544e-14 4.918008853991509e-24
1.5108834753276823 9.782569749700241e-22 3.9233166148076416e-14 3.9233166140024475e-14 8.051930181650572e-24
1.5568984535646726 9.944709979223528e-22 4.1098109269546295e-14 4.1098109256563595e-14 1.298270467256707e-23
1.6043148490894465 1.0085261696212775e-21 4.294832276041164e-14 4.294832273975903e-14 2.0652612394011866e-23
1.6531753430134553 1.0204650674103937e-21 4.478024803333534e-14 4.4780248000958074e-14 3.2377264979496397e-23
1.7035239163302658 1.030429368971924e-21 4.659463312104573e-14 4.659463307101141e-14 5.0034324682175343e-23
1.755405889504358 1.0392383817735473e-21 4.842416738915772e-14 4.84241673129009e-14 7.625679685074864e-23
1.8088679632656115 1.046689646215475e-21 5.025673010284896e-14 5.025672998818451e-14 1.1466445135842137e-22
1.8639582606462262 1.0526459878120837e-21 5.208203625794893e-14 5.208203608777445e-14 1.7017447523200476e-22
1.9207263702978936 1.0572066648954232e-21 5.3900752011700984e-14 5.390075176233149e-14 2.493694942984385e-22
1.979223391128241 1.0606028889333456e-21 5.5720762876388023e-14 5.5720762515437844e-14 3.6095017093818016e-22
2.039501978296691 1.0631114004822733e-21 5.755357949589013e-14 5.755357897963277e-14 5.162573558072614e-22
2.1016163906111602 1.0655075511921286e-21 5.944008363246755e-14 5.944008290253099e-14 7.299365708228408e-22
2.1656225393682647 1.0682408937229254e-21 6.140749693496654e-14 6.14074959143572e-14 1.0206093395905988e-21
2.231578038680979 1.0713435384752927e-21 6.346149027338208e-14 6.346148886171819e-14 1.41166388862659e-21
2.299542257339062 1.075084637526175e-21 6.562260762852996e-14 6.56226056963809e-14 1.9321490522218914e-21
2.369576372248914 1.0800594493472154e-21 6.793409662949891e-14 6.79340940117004e-14 2.617798523357067e-21
2.4417434235010123 1.0869708912426282e-21 7.045103434444096e-14 7.045103083241361e-14 3.512027353368613e-21
2.5161083711144245 1.0970228258913202e-21 7.326801738264821e-14 7.326801271545447e-14 4.667193745610572e-21
2.5927381535095444 1.1121853607656697e-21 7.654296231525704e-14 7.654295616946759e-14 6.145789473931289e-21
2.6717017477616296 1.1348106575511838e-21 8.047867423510867e-14 8.047866621377429e-14 8.021334374316705e-21
2.753070231689431 1.168440166253572e-21 8.538728433249344e-14 8.538727395286364e-14 1.0379629771556409e-20
2.836916847834745 1.2210973578978344e-21 9.195309067738161e-14 9.195307735697103e-14 1.332041059209051e-20
2.9233170693905177 1.3104532702946e-21 1.0168734176151119e-13 1.0168732480554243e-13 1.695596873839286e-20
2.967498994190263 1.3863393826066103e-21 1.0920174396608349e-13 1.0920172492068198e-13 1.9045401521289842e-20
3.0123486681368425 1.4749660877538666e-21 1.179388005484523e-13 1.179387791836352e-13 2.1364817106793177e-20
3.0578761833420214 1.6732745237069892e-21 1.3581774896794414e-13 1.3581772502555386e-13 2.3942390274073237e-20
3.1040917844459814 1.928817522414025e-21 1.589260649084558e-13 1.589260381248677e-13 2.6783588158006233e-20
3.127460860933648 2.199149738247341e-21 1.8256440981617393e-13 1.8256438149667722e-13 2.8319496752516815e-20
3.1510058709225794 2.5593304324371835e-21 2.1406467518199177e-13 2.1406464525063342e-13 2.9931358325485754e-20
3.162844764501044 2.894604287448715e-21 2.4301691923149373e-13 2.4301688846153787e-13 3.076995586441031e-20
3.1747281389236908 3.2845002553992377e-21 2.7678673604204526e-13 2.7678670441345067e-13 3.162859449862498e-20
3.1986289994194426 4.372032594208434e-21 3.712074590902602e-13 3.712074256782108e-13 3.341204937622057e-20
3.2227097969389145 6.935614511852759e-21 5.933016812412082e-13 5.933016459252421e-13 3.531596602428132e-20
3.2348180950136065 9.366693620260894e-21 8.042769304876534e-13 8.042768941506223e-13 3.633703131973376e-20
3.240889293275058 1.1184241224477068e-20 9.621441742964881e-13 9.621441374196768e-13 3.6876811516176794e-20
3.2469718861334385 1.328686350079341e-20 1.1451712458585215e-12 1.1451712084223352e-12 3.743618603647716e-20
3.2714166318528037 2.450262032987624e-20 2.1277363887858724e-12 2.1277363490250726e-12 3.976079916344105e-20
3.2744851364798273 2.520375253671369e-20 2.190673543273537e-12 2.1906735032368486e-12 4.0036688384527736e-20
3.2775565192852394 2.592502322746103e-20 2.255478942243619e-12 2.2554789019293715e-12 4.0314247299974433e-20
3.283707930232385 2.5231385698765098e-20 2.1992523125749088e-12 2.1992522717621853e-12 4.081272346141625e-20
3.2898708863219004 2.3031648535029377e-20 2.0112835965635827e-12 2.011283555295181e-12 4.1268402108776994e-20
3.29141343181113 2.2512895700804104e-20 1.966904298666399e-12 1.9669042572834477e-12 4.138295153624935e-20
3.292184975758714 2.225799894526896e-20 1.945090349770957e-12 1.945090308330636e-12 4.1440320975041964e-20
3.295272960557952 2.0649064842918053e-20 1.806180777236037e-12 1.8061807355723197e-12 4.166371742481887e-20
3.3076538914384823 1.5075225495623462e-20 1.3235894881066303e-12 1.3235894455435502e-12 4.2563080567806954e-20
3.310756385682612 1.3940807422210724e-20 1.2251368033153857e-12 1.2251367605251012e-12 4.2790284781940647e-20
3.313861789986515 1.289413033676173e-20 1.1342162897766572e-12 1.1342162467582178e-12 4.3018439520270483e-20
3.3200813396944477 1.1426281626053824e-20 1.0069851841801536e-12 1.0069851406712765e-12 4.3508877343913184e-20
3.345076488085796 8.807770787990827e-21 7.820625503858422e-13 7.820625046862305e-13 4.569961204680097e-20
3.3482140837626964 8.90595918296102e-21 7.915226595863448e-13 7.915226135890205e-13 4.59973243395365e-20
3.3513546224236106 9.005233156660977e-21 8.010963993913028e-13 8.010963530946188e-13 4.6296684146780256e-20
3.3576445397418455 9.730759994510087e-21 8.672631852445997e-13 8.672631383213185e-13 4.692328140061962e-20
3.3702598118196083 1.2406818387832338e-20 1.1099239936607607e-12 1.1099239454194214e-12 4.8241339278643663e-20
3.382922481734668 1.3016309775293524e-20 1.1688246311650075e-12 1.1688245816370192e-12 4.952798825165809e-20
3.389271646505754 1.3332068648438991e-20 1.1994257070584229e-12 1.1994256568761563e-12 5.0182266426371496e-20
3.395632727569191 1.367231382196769e-20 1.2323445875342672e-12 1.232344536677103e-12 5.085716397683669e-20
3.421196662673239 1.5306041973529302e-20 1.3899858293163022e-12 1.3899857756520275e-12 5.3664274777363517e-20
3.4276182099114902 1.497679934437994e-20 1.3626392229303952e-12 1.3626391686319697e-12 5.429842613959587e-20
3.4340518103208963 1.3534080967509273e-20 1.2336871652411135e-12 1.2336871103397232e-12 5.490139041407469e-20
3.4469541582030403 1.1479384286042392e-20 1.0503245951934735e-12 1.0503245391274242e-12 5.606604929217423e-20
3.472904465399547 1.0903527320306687e-20 1.0051463173042924e-12 1.0051462585509683e-12 5.875332417712758e-20
3.4990501388274233 1.0022785321693319e-20 9.309107103447166e-13 9.309106488165876e-13 6.152812886629225e-20
3.5253949054701885 6.888444010007073e-21 6.446119293227483e-13 6.446118650700855e-13 6.425266267330332e-20
3.5519380250092896 3.942526926341254e-21 3.7171448125890027e-13 3.7171441423881944e-13 6.702008079380582e-20
3.578680990867387 2.774427003510028e-21 2.6355163954753123e-13 2.635515694744632e-13 7.007306806224878e-20
3.605625307711299 2.3019248557961655e-21 2.2031352986280407e-13 2.2031345654621146e-13 7.331659255301618e-20
3.660119384959845 1.957160078531272e-21 1.9014768089875947e-13 1.9014760066332785e-13 8.023543165096428e-20
3.715437065384467 1.712970389202721e-21 1.6893871951707668e-13 1.6893863183770077e-13 8.767937589693806e-20
3.8285932144167436 1.5888393863972567e-21 1.6146881406122592e-13 1.6146870983305604e-13 1.0422816987804952e-19
3.94519561050918 1.5647955630545521e-21 1.6386853847728714e-13 1.638684153322104e-13 1.2314507676025007e-19
4.06534921144712 1.5818834261052678e-21 1.7070324073008018e-13 1.7070309604607343e-13 1.4468400673280577e-19
4.189162171576248 1.6228250496087762e-21 1.8045474616677743e-13 1.804545769725634e-13 1.691942140654802e-19
4.316745939156006 1.68119229077456e-21 1.9263859941225331e-13 1.9263840243880942e-13 1.9697344392509896e-19
4.448215356677963 1.7548393813592146e-21 2.0720136409881521e-13 2.0720113596595427e-13 2.281328609998432e-19
4.58368876423945 1.844047265317138e-21 2.2436577118231776e-13 2.2436550799744064e-13 2.63184877215945e-19
4.723288106065518 1.9508927180837647e-21 2.445948213421362e-13 2.4459451847157694e-13 3.0287055930531678e-19
4.867139040275056 2.0795139985231608e-21 2.6866125197110355e-13 2.686609048408538e-13 3.471302497361289e-19
4.940699165968905 2.1571611199389338e-21 2.8290487293702657e-13 2.829045016361961e-13 3.713008305028283e-19
5.015371051989984 2.237614149544373e-21 2.9789121900026904e-13 2.9789082208988377e-13 3.9691038533769704e-19
5.091171501069577 2.3358048927731538e-21 3.1566303207379987e-13 3.1566260762222274e-13 4.244515770399814e-19
5.129500256944802 2.386218491618272e-21 3.2490372896749783e-13 3.2490329013487134e-13 4.38832626420862e-19
5.168117569889187 2.438786511352426e-21 3.3456122239571867e-13 3.3456076868191055e-13 4.537138081771876e-19
5.20702561229733 2.5032926488186794e-21 3.459957553640611e-13 3.459952856504451e-13 4.697136159411796e-19
5.246226572918644 2.569457311058152e-21 3.5781445616590295e-13 3.5781396995384025e-13 4.862120626219238e-19
5.265937586045735 2.603178231578381e-21 3.638723405844463e-13 3.638718459313688e-13 4.946530775372388e-19
5.285722656980489 2.637334042958902e-21 3.7003171252128164e-13 3.7003120929669606e-13 5.032245855035554e-19
5.305582063971359 2.671931804854991e-21 3.762944725559445e-13 3.7629396062733834e-13 5.119286061789271e-19
5.3255160863122235 2.709100556175015e-21 3.829625086119191e-13 3.8296198780402694e-13 5.208078921324598e-19
5.365609099470188 2.801652118020431e-21 3.9902735619722837e-13 3.9902681689636125e-13 5.393008672291294e-19
5.406003951863644 2.8977392403296193e-21 4.1581973164689133e-13 4.15819173259024e-13 5.583878673326703e-19
5.446702915881641 2.997532889681177e-21 4.333782163864646e-13 4.333776382981733e-13 5.780882911849363e-19
5.487708281020852 3.1053687069240393e-21 4.5234898705169816e-13 4.5234838857104553e-13 5.9848065255575975e-19
5.529022354014368 3.2551980500669273e-21 4.77743949516035e-13 4.777433294638492e-13 6.200521859576574e-19
5.570647458961463 3.41387095844952e-21 5.04803327482671e-13 5.048026851350861e-13 6.423475848267459e-19
5.612585937458331 3.582023869214295e-21 5.336554048771114e-13 5.336547394848975e-13 6.653922139019698e-19
5.654840148729818 3.766864954671731e-21 5.654182426889465e-13 5.654175533899078e-13 6.892990389065565e-19
5.67608639626678 3.892715736806719e-21 5.865041927523148e-13 5.865034908178092e-13 7.019345058260289e-19
5.686739436050992 3.9575866178336896e-21 5.973972119317208e-13 5.97396503596195e-13 7.083355258907862e-19
5.6974124697621304 4.023795868585362e-21 6.085314597276749e-13 6.085307449349093e-13 7.147927655555287e-19
5.718818669136295 4.160358380874783e-21 6.315482011579277e-13 6.315474732799054e-13 7.278780223335335e-19
5.740305295436557 4.310886482146916e-21 6.568572694377814e-13 6.568565281468959e-13 7.412908857120249e-19
5.7835210386641895 4.701333837200973e-21 7.217434378291634e-13 7.217426682174409e-13 7.696117225400804e-19
5.827062130521658 5.151121691774836e-21 7.967478343867254e-13 7.967470351535849e-13 7.992331404793766e-19
5.8489554468988025 5.4666074085069545e-21 8.487223362578893e-13 8.487215207987629e-13 8.154591265073503e-19
5.870931020387893 5.805163249747313e-21 9.046713732213582e-13 9.046705411914833e-13 8.320298749699359e-19
5.892989160043636 6.168646068144073e-21 9.64928043025868e-13 9.64927194072009e-13 8.489538593064846e-19
5.915130176081913 6.58202364830755e-21 1.0334588248030537e-12 1.0334579581479222e-12 8.6665513141973e-19
5.95966208400165 7.737729385308272e-21 1.2240653535454516e-12 1.224064446555323e-12 9.069901285704943e-19
6.004529249263818 9.40342123116392e-21 1.498767574789328e-12 1.498766621114319e-12 9.536750093565092e-19
6.027089341400364 1.056124242719779e-20 1.6896317973458878e-12 1.6896308162078884e-12 9.811379991090034e-19
6.049734195844842 1.1929478934302506e-20 1.9156986859987343e-12 1.915697675253536e-12 1.0107451980426115e-18
6.095279466722835 1.5881648698156745e-20 2.5695592775122806e-12 2.569558192730854e-12 1.0847814262612138e-18
6.141167624020661 2.1963853226767686e-20 3.580378310827248e-12 3.5803771272643913e-12 1.1835628560758478e-18
6.164241091010745 2.5847942862756194e-20 4.229363707119581e-12 4.229362461165895e-12 1.245953685359961e-18
6.187401249150058 3.0272548047406345e-20 4.971949293973779e-12 4.9719479815750584e-12 1.3123987220089549e-18
6.1990139391386085 3.243302671300134e-20 5.336782772665101e-12 5.336781426205799e-12 1.3464593001352973e-18
6.204828454712694 3.357109051846645e-20 5.5292300688687215e-12 5.529228704944752e-12 1.3639239682712682e-18
6.210648424152782 3.4401907908548084e-20 5.671382087009957e-12 5.671380708148766e-12 1.3788611911642813e-18
6.233982942956859 3.7224682474465094e-20 6.1597919602068084e-12 6.159790527862233e-12 1.432344574886228e-18
6.239830258556775 3.7585603778080915e-20 6.225349523523124e-12 6.225348083056732e-12 1.4404663947210155e-18
6.245683058788269 3.7617042608926263e-20 6.236400877470896e-12 6.236399428833891e-12 1.448637005022373e-18
6.257405133728602 3.753982290086731e-20 6.235279512833435e-12 6.235278049475159e-12 1.4633582759517966e-18
6.269149208991335 3.6985075504894056e-20 6.1546668415235e-12 6.15466537099574e-12 1.4705277575711953e-18
6.280915325867298 3.559344294917431e-20 5.9342026200537824e-12 5.9342011517566806e-12 1.4682971020247506e-18
6.304513850009849 3.2161451213831636e-20 5.382160855356634e-12 5.382159400177114e-12 1.455179520629251e-18
6.32820103803542 2.79072813627194e-20 4.687780106291566e-12 4.687778674279348e-12 1.4320122184538148e-18
6.3519772230701035 2.4005932077277607e-20 4.047593950490767e-12 4.047592539360551e-12 1.4111302157420306e-18
6.375842739491607 2.0723879562814852e-20 3.5073417859717815e-12 3.507340392442538e-12 1.3935292433584205e-18
6.399797922933955 1.8093544362214792e-20 3.073684901110728e-12 3.0736835153875444e-12 1.385723183247557e-18
6.42384311029221 1.5906777547799834e-20 2.7123552235133295e-12 2.7123538430974388e-12 1.3804158900803197e-18
6.447978639727206 1.4313407143466053e-20 2.449830561143667e-12 2.4498291776246374e-12 1.383519030047201e-18
6.472204850670314 1.2986183260285094e-20 2.2310187230908845e-12 2.231017334516111e-12 1.38857477282108e-18
6.496522083828205 1.2123839667541394e-20 2.0906943064184206e-12 2.0906929056299487e-12 1.4007884713665523e-18
