Dust emission spectrum from A.P. Jones, M. Kohler, N. Ysard, M. Bocchio, and L. Verstraete (2017), A&A, 602A, 46J 
inside the DustPedia framework.

lambda    nu*dP/dnu     j_nu    j_nu(carb.) j_nu(sil)
 (um)   (erg s-1 H-1) (Jy cm2 sr-1 H-1)
0.9927057738263894 1.7153992332585273e-20 4.520174412367547e-13 4.520173785115629e-13 6.272519173106893e-20
1.0001793341362166 1.7441653133171994e-20 4.63057534623931e-13 4.63057459158914e-13 7.546501694489231e-20
1.0077091589558085 1.773056076099756e-20 4.742715898834304e-13 4.742714992128584e-13 9.067057213015262e-20
1.0114953028030835 1.7875470973120655e-20 4.799442539826092e-13 4.79944154646341e-13 9.933626813598676e-20
1.0152956718711033 1.8020679747406014e-20 4.856608958167423e-13 4.856607870231433e-13 1.0879359909182725e-19
1.0229392996569957 1.8311834696720978e-20 4.97222938817194e-13 4.972228084518607e-13 1.3036533328271256e-19
1.0267826658714554 1.8457451162488865e-20 5.030598874740054e-13 5.03059744834952e-13 1.4263905337936173e-19
1.0306404723013447 1.860334319793329e-20 5.089412169601697e-13 5.089410609442345e-13 1.5601593529192197e-19
1.03451277320114 1.8749507241141422e-20 5.148671088862716e-13 5.148669382962182e-13 1.7059005343977801e-19
1.0383996230291617 1.8895939881207203e-20 5.208377491347902e-13 5.208375626717512e-13 1.86463039071486e-19
1.0403485208654093 1.896925590137021e-20 5.238399091797676e-13 5.238397142591957e-13 1.9492057194544875e-19
1.0423010764483396 1.9042637861992026e-20 5.268533280368562e-13 5.268531242922093e-13 2.0374464695679583e-19
1.0462171883269815 1.9189598085871756e-20 5.329140405517929e-13 5.329138179984317e-13 2.2255336128211933e-19
1.0471985131304309 1.9226378769717535e-20 5.344362941097335e-13 5.344360666008151e-13 2.275089182480079e-19
1.048180758391296 1.926317561522714e-20 5.359613841492065e-13 5.359611515792515e-13 2.325699550822245e-19
1.0501480137395462 1.9336817617468273e-20 5.390200864494226e-13 5.390198434323793e-13 2.4301704320918587e-19
1.0521189612883777 1.941052375163327e-20 5.420901732056705e-13 5.420899192934835e-13 2.5391218695378236e-19
1.0531058218030118 1.9447352410860796e-20 5.436281422203791e-13 5.436278826865471e-13 2.5953383182940705e-19
1.0540936079674168 1.9484038571355245e-20 5.451645323343561e-13 5.451642670586839e-13 2.652756722898632e-19
1.058054026499678 1.9630935188927542e-20 5.51338431721575e-13 5.513381422402189e-13 2.894813561461211e-19
1.0590464539527713 1.9667697151171427e-20 5.528890078944703e-13 5.528887120395792e-13 2.958548913248311e-19
1.06003981227728 1.970447416456362e-20 5.5444243131091e-13 5.544421289484576e-13 3.0236245235598897e-19
1.0620293250338977 1.9778073206408377e-20 5.575578334766631e-13 5.575575176862577e-13 3.1579040547430206e-19
1.0660195594769086 1.9925450421311894e-20 5.638229556130832e-13 5.638226112373028e-13 3.44375780292431e-19
1.070024785945596 2.0073064813386812e-20 5.701340219439465e-13 5.701336465201489e-13 3.7542379774946045e-19
1.0740450607676866 2.0220914548207417e-20 5.764912622809557e-13 5.764908531458641e-13 4.091350915607493e-19
1.07808044048254 2.036899798073886e-20 5.828949126359933e-13 5.828944669103587e-13 4.457256347056347e-19
1.0861967418109137 2.0665635722305598e-20 5.958359438282211e-13 5.958354153364979e-13 5.28491723257316e-19
1.0902777775684922 2.0813677109935912e-20 6.023590035515393e-13 6.023584283653166e-13 5.751862227093608e-19
1.0943741465085532 2.09619388533238e-20 6.089290700016528e-13 6.089284442014836e-13 6.258001691970811e-19
1.1026131145906286 2.1259121206410545e-20 6.222113010090622e-13 6.222105609576269e-13 7.40051435111239e-19
1.1109141095355224 2.1557180515794074e-20 6.356848690178488e-13 6.35683995002386e-13 8.74015462824413e-19
1.1192775983109025 2.1855887149594456e-20 6.493452744209446e-13 6.493442435372418e-13 1.0308837028269053e-18
1.1277040513999907 2.2154184907679318e-20 6.631630952731848e-13 6.631618809451102e-13 1.2143280746382696e-18
1.1361939428280308 2.24533400593609e-20 6.771780252372136e-13 6.771765966696371e-13 1.428567576570599e-18
1.1447477501889525 2.2753365234471853e-20 6.913928274591136e-13 6.913911490160446e-13 1.6784430690456145e-18
1.1533659546722406 2.3054379997537283e-20 7.058135765847914e-13 7.05811607080579e-13 1.9695042121280344e-18
1.1707974979042381 2.3660307032227844e-20 7.353119003997926e-13 7.353091988849134e-13 2.701514878952873e-18
1.1884924949847024 2.4270443737641243e-20 7.656734592731998e-13 7.656697723115076e-13 3.6869616923224506e-18
1.2064549276569216 2.488892258782944e-20 7.970519553958209e-13 7.970469484543941e-13 5.006941426798207e-18
1.2246888378427687 2.5511968315405e-20 8.2935250259455e-13 8.293457365371848e-13 6.7660573651401835e-18
1.2431983285522175 2.6139199596831277e-20 8.625854646488662e-13 8.625763658964797e-13 9.098752386384031e-18
1.2619875648066055 2.677167675161649e-20 8.968092543206123e-13 8.967970773767291e-13 1.2176943882930788e-17
1.3004222497298317 2.804923768456041e-20 9.682218677277816e-13 9.68200365978378e-13 2.1501749403779514e-17
1.3400274889804893 2.9349826233942676e-20 1.0439715771445327e-12 1.0439343079272069e-12 3.726921732570432e-17
1.3808389325824078 3.0679794657243925e-20 1.1245140991462876e-12 1.1244506576922275e-12 6.344145406050057e-17
1.4228933163050095 3.205190011471706e-20 1.2105857378194405e-12 1.210479627267079e-12 1.0611055236140929e-16
1.466228494730424 3.349126971957684e-20 1.3034749854959277e-12 1.3033005139346394e-12 1.744715612884691e-16
1.5108834753276823 3.4998420348232055e-20 1.4036177360089677e-12 1.4033355968909308e-12 2.8213911803702164e-16
1.5568984535646726 3.657606612900813e-20 1.5115646062686848e-12 1.5111154108697996e-12 4.491953988849998e-16
1.6043148490894465 3.8237468329108964e-20 1.6283515299918125e-12 1.6276460940163736e-12 7.054359754384427e-16
1.6531753430134553 3.999744240980911e-20 1.7551756047421712e-12 1.754084139078846e-12 1.091465663324908e-15
1.7035239163302658 4.187353361252475e-20 1.89346499130163e-12 1.891800837639323e-12 1.6641536623060246e-15
1.755405889504358 4.3904679162692206e-20 2.045774646345522e-12 2.0432730108725267e-12 2.50163547299569e-15
1.8088679632656115 4.610100947812614e-20 2.2135367433778033e-12 2.209827763815814e-12 3.7089795619891994e-15
1.8639582606462262 4.847364138798628e-20 2.3983428213803276e-12 2.3929171183189848e-12 5.425703061342432e-15
1.9207263702978936 5.104234286944078e-20 2.6023489601951068e-12 2.5945148349754177e-12 7.83412521968924e-15
1.979223391128241 5.383215309307192e-20 2.828173172940498e-12 2.817003930549744e-12 1.1169242390754147e-14
2.039501978296691 5.686924217168799e-20 3.078725756035054e-12 3.0629965015455403e-12 1.572925448951366e-14
2.1016163906111602 6.019847997297666e-20 3.358214289647908e-12 3.3363255557335867e-12 2.188873391432063e-14
2.1656225393682647 6.385507387034577e-20 3.67068914513244e-12 3.640579340476765e-12 3.0109804655675324e-14
2.231578038680979 6.785857541283108e-20 4.01963158302677e-12 3.9786770059791176e-12 4.0954577047653164e-14
2.299542257339062 7.223964119152377e-20 4.409470160456773e-12 4.354372385496617e-12 5.50977749601562e-14
2.369576372248914 7.703675447805019e-20 4.8454946863322274e-12 4.772154851343241e-12 7.333983498898604e-14
2.4417434235010123 8.229160995291723e-20 5.3336562052959495e-12 5.237040593967588e-12 9.66156113283632e-14
2.5161083711144245 8.805935846147175e-20 5.88131299931506e-12 5.755306575534955e-12 1.260064237801035e-13
2.5927381535095444 9.441042684939542e-20 6.497526401107857e-12 6.3347811787556775e-12 1.6274522235218018e-13
2.6717017477616296 1.0140796876566324e-19 7.191665701084405e-12 6.983455617158868e-12 2.0821008392553546e-13
2.753070231689431 1.0912739413543182e-19 7.974813003376332e-12 7.710891467551919e-12 2.6392153582441236e-13
2.836916847834745 1.1772399058114101e-19 8.865046436138945e-12 8.533500819839357e-12 3.3154561629958783e-13
2.9233170693905177 1.2749503335048667e-19 9.893241768393353e-12 9.48045009739748e-12 4.1279167099587135e-13
2.967498994190263 1.3303239594880603e-19 1.0478941753989305e-11 1.0020799069406138e-11 4.581426845831659e-13
3.0123486681368425 1.3891816517752489e-19 1.1107944725955689e-11 1.0600120455820456e-11 5.078242701352373e-13
3.0578761833420214 1.4684507954526624e-19 1.1919244492333657e-11 1.1356898483022299e-11 5.623460093113589e-13
3.1040917844459814 1.5571764382507755e-19 1.2830447713355001e-11 1.220897276839747e-11 6.214749449575255e-13
3.127460860933648 1.6256522653847867e-19 1.3495499703118436e-11 1.2842445640534617e-11 6.530540625838151e-13
3.1510058709225794 1.7081924971007053e-19 1.428747407547395e-11 1.3601561351287342e-11 6.85912724186608e-13
3.162844764501044 1.7758197142166062e-19 1.490891994911817e-11 1.420602505022469e-11 7.028948988934778e-13
3.1747281389236908 1.8510923414598488e-19 1.5599262215396617e-11 1.4879055456128036e-11 7.202067592685802e-13
3.1986289994194426 2.0483225842639443e-19 1.7391284385872187e-11 1.663535914083794e-11 7.559252450342523e-13
3.2227097969389145 2.4805892106966253e-19 2.1220005042955507e-11 2.0426290038589137e-11 7.937150043663663e-13
3.2348180950136065 2.8776434257833716e-19 2.4709062934659766e-11 2.3895195768607725e-11 8.138671660520337e-13
3.240889293275058 3.1718974992113575e-19 2.7286810424410346e-11 2.6462313388664914e-11 8.244970357454371e-13
3.2469718861334385 3.5121398493082487e-19 3.027051167208513e-11 2.9435015892705294e-11 8.354957793798323e-13
3.2714166318528037 5.287184567863604e-19 4.59123752799353e-11 4.503147522377407e-11 8.809000561612303e-13
3.2744851364798273 5.399206078651543e-19 4.692911459892404e-11 4.604287742804295e-11 8.862371708810779e-13
3.2775565192852394 5.514132518546975e-19 4.797299377980729e-11 4.708139406026227e-11 8.915997195450193e-13
3.283707930232385 5.410582749970334e-19 4.716045629563877e-11 4.625929437035521e-11 9.011619252835643e-13
3.2898708863219004 5.071333095667342e-19 4.428640465102827e-11 4.337656608742642e-11 9.09838563601862e-13
3.29141343181113 4.991204330231923e-19 4.360710138369658e-11 4.2695084712715687e-11 9.120166709808937e-13
3.292184975758714 4.951813306570843e-19 4.3273091620509876e-11 4.2359984552645145e-11 9.131070678647292e-13
3.295272960557952 4.705359436707151e-19 4.115794022256377e-11 4.0240596537507355e-11 9.173436850564108e-13
3.3076538914384823 3.84567814765971e-19 3.376466356912203e-11 3.2830316193287765e-11 9.343473758342735e-13
3.310756385682612 3.66911441324949e-19 3.224466823984036e-11 3.130603752530921e-11 9.386307145311444e-13
3.313861789986515 3.505592937331362e-19 3.083651639158008e-11 2.989358936260306e-11 9.429270289770202e-13
3.3200813396944477 3.278959825055907e-19 2.889709943630699e-11 2.7944919510899835e-11 9.52179925407155e-13
3.345076488085796 2.8967021868011574e-19 2.572049562196576e-11 2.4727048517390597e-11 9.934471045751605e-13
3.3482140837626964 2.9160350206673615e-19 2.5916442548057585e-11 2.4917403721927757e-11 9.99038826129829e-13
3.3513546224236106 2.935521778275155e-19 2.6114103721695708e-11 2.5109449345042194e-11 1.0046543766535125e-12
3.3576445397418455 3.0578225017696527e-19 2.7253132173576715e-11 2.6236732393362992e-11 1.016399780213718e-12
3.3702598118196083 3.490847080908024e-19 3.122939993302659e-11 3.018836579891248e-11 1.0410341341141093e-12
3.382922481734668 3.603292058990051e-19 3.2356455743109214e-11 3.129152027531475e-11 1.0649354677944678e-12
3.389271646505754 3.6610865829847295e-19 3.293713435771063e-11 3.1860092446431614e-11 1.0770419112790175e-12
3.395632727569191 3.724393689497416e-19 3.356956594811672e-11 3.248004755908587e-11 1.0895183890308539e-12
3.421196662673239 4.027469780919094e-19 3.657461499948013e-11 3.5433495668046006e-11 1.141119331434129e-12
3.4276182099114902 3.9827517707081366e-19 3.6236405744455e-11 3.508381770647314e-11 1.1525880379818627e-12
3.4340518103208963 3.7603970353707294e-19 3.4277566167105354e-11 3.3114153544246776e-11 1.1634126228585642e-12
3.4469541582030403 3.443841079395908e-19 3.150997385831225e-11 3.0325831003474596e-11 1.1841428548376595e-12
3.472904465399547 3.3751457759736835e-19 3.1113925314488634e-11 2.988195792527552e-11 1.231967389213103e-12
3.4990501388274233 3.2606002138630227e-19 3.0284272922295334e-11 2.900346856150899e-11 1.280804360786341e-12
3.5253949054701885 2.798405808764001e-19 2.6187129702945735e-11 2.4859045919000346e-11 1.328083783945395e-12
3.5519380250092896 2.359267844929822e-19 2.2243957733542793e-11 2.0868486738658066e-11 1.3754709948847288e-12
3.578680990867387 2.2037753041622293e-19 2.0934362081666337e-11 1.9506969476572084e-11 1.4273926050942517e-12
3.605625307711299 2.1600065613101438e-19 2.067307578919483e-11 1.9191079487431663e-11 1.481996301763162e-12
3.660119384959845 2.1684497798727426e-19 2.1067550953606845e-11 1.947120211939754e-11 1.5963488342093017e-12
3.715437065384467 2.192160625344677e-19 2.1619802149286075e-11 1.990343464681616e-11 1.716367502469906e-12
3.8285932144167436 2.299909799027235e-19 2.33732692477368e-11 2.1400809939066345e-11 1.9724593086704533e-12
3.94519561050918 2.4248981730419746e-19 2.5394021363209802e-11 2.3145082097841928e-11 2.248939265367879e-12
4.06534921144712 2.5568960329958505e-19 2.759182072707501e-11 2.504699027832694e-11 2.5448304487480674e-12
4.189162171576248 2.6922739294501813e-19 2.9937522141865365e-11 2.7077489539980486e-11 2.8600326018848843e-12
4.316745939156006 2.8288187527184264e-19 3.241388183285863e-11 2.922126680658867e-11 3.192615026269961e-12
4.448215356677963 2.9646873513783865e-19 3.5005326975070955e-11 3.146823154731622e-11 3.5370954277547277e-12
4.58368876423945 3.098860385328657e-19 3.7703925122603897e-11 3.381070538010101e-11 3.893219742502884e-12
4.723288106065518 3.230701469342649e-19 4.050519238596661e-11 3.624259589899102e-11 4.262596486975588e-12
4.867139040275056 3.358849879349108e-19 4.339440919415725e-11 3.8760385412979336e-11 4.6340237811779275e-12
4.940699165968905 3.4221450634383537e-19 4.4880352487138586e-11 4.005882706072902e-11 4.821525426409556e-12
5.015371051989984 3.483579532879452e-19 4.637652804193931e-11 4.136701430162458e-11 5.009513740314717e-12
5.091171501069577 3.5458794006878036e-19 4.791937230939963e-11 4.271706345202511e-11 5.202308857374519e-12
5.129500256944802 3.5762147017562414e-19 4.869317274467197e-11 4.3394559731706916e-11 5.298613012965057e-12
5.168117569889187 3.6062840320843096e-19 4.947225960386391e-11 4.4076342686122116e-11 5.395916917741786e-12
5.20702561229733 3.6383433328978994e-19 5.0287821934597425e-11 4.478487223148117e-11 5.502949703116249e-12
5.246226572918644 3.6698801058582096e-19 5.110558360399251e-11 4.54954086905535e-11 5.610174913439008e-12
5.265937586045735 3.685448655025999e-19 5.1515213669983845e-11 4.58513721219655e-11 5.663841548018348e-12
5.285722656980489 3.7008819825658196e-19 5.1925303186530267e-11 4.620776873038898e-11 5.717534456141289e-12
5.305582063971359 3.716178640702047e-19 5.2335822306008865e-11 4.656457602207957e-11 5.771246283929279e-12
5.3255160863122235 3.7317296512414257e-19 5.275228877877702e-11 4.692682845782935e-11 5.82546032094767e-12
5.365609099470188 3.7654388987575716e-19 5.3629539478836884e-11 4.7691844901359123e-11 5.937694577477765e-12
5.406003951863644 3.7987191983266257e-19 5.4510853691251854e-11 4.846076973323305e-11 6.0500839580188135e-12
5.446702915881641 3.8315686899808866e-19 5.539616964812536e-11 4.9233600253840726e-11 6.162569394284626e-12
5.487708281020852 3.864707242469653e-19 5.629593685556746e-11 5.0020295648870905e-11 6.275641206696561e-12
5.529022354014368 3.9037902096475177e-19 5.729335432603527e-11 5.0899844056196305e-11 6.3935102698389565e-12
5.570647458961463 3.9428493345914835e-19 5.830224657257053e-11 5.179074070493701e-11 6.5115058676335225e-12
5.612585937458331 3.9819227274701616e-19 5.932329495569684e-11 5.269372695823801e-11 6.629567997458837e-12
5.654840148729818 4.022118488633215e-19 6.037325986187101e-11 5.362495464863714e-11 6.748305213233871e-12
5.67608639626678 4.046957222024796e-19 6.097433100917574e-11 5.4163765787082766e-11 6.8105652220929725e-12
5.686739436050992 4.059472101872552e-19 6.127768131833665e-11 5.4435971455263965e-11 6.8417098630726685e-12
5.6974124697621304 4.072053910752745e-19 6.158296770833286e-11 5.471010471874786e-11 6.8728629895849935e-12
5.718818669136295 4.0974284895324454e-19 6.219953559369447e-11 5.526434472350887e-11 6.9351908701856e-12
5.740305295436557 4.124415927726774e-19 6.284444268091895e-11 5.584637720753766e-11 6.998065473381287e-12
5.7835210386641895 4.190198851460541e-19 6.432745746133794e-11 5.7199525541751173e-11 7.127931919586778e-12
5.827062130521658 4.261598239680184e-19 6.591611248309618e-11 5.865685531775932e-11 7.2592571653368546e-12
5.8489554468988025 4.3098205994839734e-19 6.691245108171118e-11 5.958185916347997e-11 7.330591918231219e-12
5.870931020387893 4.360014453652873e-19 6.794606961695361e-11 6.054401109463829e-11 7.4020585223153e-12
5.892989160043636 4.412346033161699e-19 6.901994985445209e-11 6.15463007028744e-11 7.473649151577673e-12
5.915130176081913 4.470598827108968e-19 7.01939108228203e-11 6.264591368222231e-11 7.547997140597997e-12
5.95966208400165 4.630165532211839e-19 7.324661960809898e-11 6.552684059386044e-11 7.719779014238545e-12
6.004529249263818 4.852412571009388e-19 7.734034711565091e-11 6.942591658594989e-11 7.914430529701032e-12
6.027089341400364 5.004558568739643e-19 8.006502405101893e-11 7.203694439124447e-11 8.028079659774464e-12
6.049734195844842 5.18071274673764e-19 8.319461944749616e-11 7.504589629211773e-11 8.148723155378432e-12
6.095279466722835 5.683274947535239e-19 9.195211495760644e-11 8.350286463322287e-11 8.449250324383586e-12
6.141167624020661 6.439270556667541e-19 1.04968032706317e-10 9.612380699635338e-11 8.844225709963625e-12
6.164241091010745 6.919318301367205e-19 1.1321718659467156e-10 1.0412269998040726e-10 9.094486614264304e-12
6.187401249150058 7.453380715944207e-19 1.2241398025142973e-10 1.1306297693883934e-10 9.351003312590433e-12
6.1990139391386085 7.712116473551586e-19 1.269011699125139e-10 1.174197272572617e-10 9.481442655252207e-12
6.204828454712694 7.84733665887799e-19 1.2924730518043974e-10 1.1970002840213135e-10 9.547276778308375e-12
6.210648424152782 7.944925775213839e-19 1.3097735696506358e-10 1.2137450904481342e-10 9.602847920250188e-12
6.233982942956859 8.269448234274758e-19 1.3683953055549603e-10 1.2704513303633814e-10 9.79439751915788e-12
6.239830258556775 8.306912417381464e-19 1.375884063611934e-10 1.2776908953725244e-10 9.819316823940941e-12
6.245683058788269 8.304759448784555e-19 1.376817674159607e-10 1.2783750869145824e-10 9.844258724502466e-12
6.257405133728602 8.283202412014351e-19 1.3758211496275414e-10 1.2769516881244533e-10 9.886946150308838e-12
6.269149208991335 8.203327117771703e-19 1.3651113243026664e-10 1.266131975022755e-10 9.897934927991136e-12
6.280915325867298 8.022369693163234e-19 1.337503857668079e-10 1.2388059543556136e-10 9.869790331246514e-12
6.304513850009849 7.583915551519363e-19 1.2691545894596772e-10 1.1713726303401928e-10 9.778195911948438e-12
6.32820103803542 7.054673388200104e-19 1.1850225443230496e-10 1.088532050460322e-10 9.64904938627279e-12
6.3519772230701035 6.573686323808968e-19 1.108376584213451e-10 1.0130569549367018e-10 9.531962927674924e-12
6.375842739491607 6.166279888415128e-19 1.0435908513694447e-10 9.493178393032177e-11 9.427301206622698e-12
6.399797922933955 5.846996940419616e-19 9.932728410105992e-11 8.996026296833645e-11 9.367021132723475e-12
6.42384311029221 5.579291201198497e-19 9.513567149347508e-11 8.582002891706526e-11 9.315642576409788e-12
6.447978639727206 5.386741821677961e-19 9.21975083043838e-11 8.289877319711969e-11 9.298735107264082e-12
6.472204850670314 5.225198719957347e-19 8.976860977887846e-11 8.047997464057516e-11 9.28863513830329e-12
6.496522083828205 5.121179491206266e-19 8.831212798925912e-11 7.900578572250362e-11 9.306342266755495e-12
