Dust emission spectrum from A.P. Jones, M. Kohler, N. Ysard, M. Bocchio, and L. Verstraete (2017), A&A, 602A, 46J 
inside the DustPedia framework.

lambda    nu*dP/dnu     j_nu    j_nu(carb.) j_nu(sil)
 (um)   (erg s-1 H-1) (Jy cm2 sr-1 H-1)
0.9927057738263894 1.4172779746516646e-22 3.7346079629890205e-15 3.734607597687153e-15 3.653018666504793e-22
1.0001793341362166 1.4411264487915503e-22 3.826039053543511e-15 3.82603861389889e-15 4.396446216798927e-22
1.0077091589558085 1.4650652161045805e-22 3.918876671138843e-15 3.9188761427250926e-15 5.284137494358654e-22
1.0114953028030835 1.4770672915082037e-22 3.96582535011808e-15 3.965824771098323e-15 5.790197572066007e-22
1.0152956718711033 1.4890905569407062e-22 4.0131286054299655e-15 4.013127971169073e-15 6.342608926451869e-22
1.0229392996569957 1.5131871938822098e-22 4.1087711634781355e-15 4.108770403172176e-15 7.6030596103165e-22
1.0267826658714554 1.5252331599919929e-22 4.157039967666534e-15 4.15703913562083e-15 8.320457045416288e-22
1.0306404723013447 1.5372980006597825e-22 4.205665116005302e-15 4.205664205754054e-15 9.102512482760366e-22
1.03451277320114 1.5493813161244086e-22 4.25464770106042e-15 4.2546467055845905e-15 9.954758302482156e-22
1.0383996230291617 1.5614827180284485e-22 4.303988842490187e-15 4.303987754172877e-15 1.0883173088668953e-21
1.0403485208654093 1.5675400832268252e-22 4.328794229476718e-15 4.328793091682479e-15 1.1377942388133241e-21
1.0423010764483396 1.5736018297231546e-22 4.353689688387549e-15 4.3536884989660245e-15 1.1894215254265963e-21
1.0462171883269815 1.5857382865723826e-22 4.4037514166445095e-15 4.4037501171586096e-15 1.2994859006171937e-21
1.0471985131304309 1.5887750694025832e-22 4.41632337756095e-15 4.416322049071983e-15 1.3284889678900298e-21
1.048180758391296 1.5918129088403932e-22 4.428917988238003e-15 4.4289166301268686e-15 1.3581111363642358e-21
1.0501480137395462 1.5978917362554157e-22 4.454175236338501e-15 4.454173817075221e-15 1.419263279849017e-21
1.0521189612883777 1.6039747267511332e-22 4.479523317184457e-15 4.4795218341386865e-15 1.4830457710694137e-21
1.0531058218030118 1.6070137201426337e-22 4.49222014774571e-15 4.492218631786698e-15 1.5159590127970234e-21
1.0540936079674168 1.6100404702031643e-22 4.5049025989309694e-15 4.504901049353055e-15 1.549577915247301e-21
1.058054026499678 1.6221570860002891e-22 4.555858063786413e-15 4.555856372460767e-15 1.6913256454620764e-21
1.0590464539527713 1.6251886196456067e-22 4.568653445549546e-15 4.568651716895072e-15 1.7286544736772134e-21
1.06003981227728 1.628221095677737e-22 4.581471474244087e-15 4.5814697074734946e-15 1.7667705928386125e-21
1.0620293250338977 1.6342888563474153e-22 4.607175555022587e-15 4.6071737095944896e-15 1.84542809656327e-21
1.0660195594769086 1.646435485258636e-22 4.658856396701048e-15 4.6588543837961434e-15 2.0129049042903445e-21
1.070024785945596 1.658596690698148e-22 4.710901951654214e-15 4.710899756799424e-15 2.19485479127953e-21
1.0740450607676866 1.670772204872743e-22 4.763313623005293e-15 4.763311230544015e-15 2.3924612778632135e-21
1.07808044048254 1.6829617745224986e-22 4.8160928557096545e-15 4.816090248710882e-15 2.606998771892437e-21
1.0861967418109137 1.707363390431607e-22 4.922705939781611e-15 4.922702847323031e-15 3.0924585789522374e-21
1.0902777775684922 1.7195323705590756e-22 4.976419110538274e-15 4.976415744092647e-15 3.3664456278185086e-21
1.0943741465085532 1.7317138058486822e-22 5.030502591783187e-15 5.030498928276445e-15 3.6635067428936594e-21
1.1026131145906286 1.7561133674372972e-22 5.139787164593978e-15 5.139782830265528e-15 4.334328451213372e-21
1.1109141095355224 1.7805608914697633e-22 5.250573544360224e-15 5.250568423057228e-15 5.121302996885377e-21
1.1192775983109025 1.805036208262927e-22 5.3628192897032794e-15 5.36281324638871e-15 6.0433145679660196e-21
1.1277040513999907 1.8294501697268702e-22 5.476273860942561e-15 5.476266738837591e-15 7.122104971654285e-21
1.1361939428280308 1.8539073337847521e-22 5.591263054610681e-15 5.591254671939328e-15 8.382671354806782e-21
1.1447477501889525 1.8784076772770008e-22 5.707804457627506e-15 5.7077946039126085e-15 9.853714897200104e-21
1.1533659546722406 1.9029603598268411e-22 5.825943954302569e-15 5.825932386141076e-15 1.156816149492808e-20
1.1707974979042381 1.9522980969594532e-22 6.067326268703046e-15 6.0673103850794425e-15 1.5883623602275232e-20
1.1884924949847024 2.001851793648919e-22 6.315355435460167e-15 6.315333735748393e-15 2.1699711772909992e-20
1.2064549276569216 2.051960104419336e-22 6.5712720502469864e-15 6.5712425511433594e-15 2.949910362646808e-20
1.2246888378427687 2.1022948713095616e-22 6.834217929235439e-15 6.8341780239645275e-15 3.9905270910493467e-20
1.2431983285522175 2.1528166893943724e-22 7.1042281820679454e-15 7.104174461363042e-15 5.3720704904006213e-20
1.2619875648066055 2.2036008172789894e-22 7.381717716447989e-15 7.381645743387742e-15 7.197306024851493e-20
1.3004222497298317 2.3056523755011457e-22 7.958801142633268e-15 7.958673772478986e-15 1.2737015428238862e-19
1.3400274889804893 2.4087935613267034e-22 8.568064400754796e-15 8.567843127247901e-15 2.2127350689673285e-19
1.3808389325824078 2.5134623341862016e-22 9.21265563880873e-15 9.212278102176393e-15 3.775366323385012e-19
1.4228933163050095 2.620633671124614e-22 9.898014579348332e-15 9.897381625847315e-15 6.329535010146839e-19
1.466228494730424 2.732317643840708e-22 1.063413758569358e-14 1.063309434441698e-14 1.0432412766007553e-18
1.5108834753276823 2.8484541985570715e-22 1.1423775111912673e-14 1.1422083933960914e-14 1.6911779517566977e-18
1.5568984535646726 2.9691711601658345e-22 1.2270576118903447e-14 1.2267876866730138e-14 2.6992521733072873e-18
1.6043148490894465 3.0954797863713803e-22 1.3182173052914627e-14 1.3177923352489492e-14 4.249700425135135e-18
1.6531753430134553 3.228515800423551e-22 1.4167436293472503e-14 1.4160844260998274e-14 6.592032474229916e-18
1.7035239163302658 3.369651238917077e-22 1.523711065998318e-14 1.5227033737279187e-14 1.0076922703993706e-17
1.755405889504358 3.5220399450458036e-22 1.641123488521823e-14 1.6396046888407474e-14 1.5187996810754416e-17
1.8088679632656115 3.6864163442131175e-22 1.770030227467351e-14 1.7677724051207858e-14 2.2578223465650105e-17
1.8639582606462262 3.8636067175230476e-22 1.9116066320333764e-14 1.9082948085865325e-14 3.311823446843346e-17
1.9207263702978936 4.0551450120570515e-22 2.067480019982605e-14 2.0626849512043027e-14 4.795068778302785e-17
1.979223391128241 4.262991817347134e-22 2.2396427416605908e-14 2.2327872461777215e-14 6.855495482869825e-17
2.039501978296691 4.48920557761009e-22 2.430317744379073e-14 2.4206360314116742e-14 9.681712967398295e-17
2.1016163906111602 4.737380751991665e-22 2.642780971211074e-14 2.6292692001634055e-14 1.351177104766851e-16
2.1656225393682647 5.010303698600213e-22 2.8801575639253335e-14 2.8615166842827986e-14 1.864087964253389e-16
2.231578038680979 5.309477913298274e-22 3.1450918295643036e-14 3.119661757416129e-14 2.543007214817468e-16
2.299542257339062 5.6373065903124165e-22 3.4409826495989814e-14 3.4066674597596315e-14 3.4315189839349504e-16
2.369576372248914 5.99688691191e-22 3.7719506569392856e-14 3.726134277490067e-14 4.581637944921857e-16
2.4417434235010123 6.391609825952595e-22 4.142664049169463e-14 4.082118982106996e-14 6.054506706246654e-16
2.5161083711144245 6.826053834621959e-22 4.5589883747735365e-14 4.4797751355113956e-14 7.921323926214109e-16
2.5927381535095444 7.3062190356562835e-22 5.028295354726224e-14 4.92565668753478e-14 1.0263866719144241e-15
2.6717017477616296 7.837717544333433e-22 5.558364409075497e-14 5.42662155142269e-14 1.3174285765280773e-15
2.753070231689431 8.427491416427036e-22 6.158643177180347e-14 5.991091545664153e-14 1.6755163151619424e-15
2.836916847834745 9.089858006971875e-22 6.844995054272654e-14 6.633795727826685e-14 2.111993264459684e-15
2.9233170693905177 9.8527754206656e-22 7.645465612638017e-14 7.381596610380424e-14 2.638690022575954e-15
2.967498994190263 1.0293967283776621e-21 8.108542495594648e-14 7.815132981185496e-14 2.934095144091491e-15
3.0123486681368425 1.0765463867800696e-21 8.60810229101342e-14 8.282271647361272e-14 3.2583064365214793e-15
3.0578761833420214 1.1422542173613975e-21 9.271544767649397e-14 8.910074792434469e-14 3.614699752149266e-15
3.1040917844459814 1.216775665652859e-21 1.0025695337760778e-13 9.62548229255785e-14 4.002130452029246e-15
3.127460860933648 1.2763522718180208e-21 1.0595754130307525e-13 1.017481306179967e-13 4.209410685078522e-15
3.1510058709225794 1.3491067245374671e-21 1.1284048714996946e-13 1.084151325964561e-13 4.425354553513381e-15
3.162844764501044 1.4098739780287155e-21 1.183661725821511e-13 1.1382911133420444e-13 4.537061247946677e-15
3.1747281389236908 1.4779259138931578e-21 1.245456714902038e-13 1.1989466369854432e-13 4.651007791659512e-15
3.1986289994194426 1.6579492557636067e-21 1.4076819357382296e-13 1.3588186987934712e-13 4.886323694475847e-15
3.2227097969389145 2.057495595820096e-21 1.760068403542725e-13 1.7087128591823556e-13 5.135554436036936e-15
3.2348180950136065 2.4265473278823134e-21 2.083569844038355e-13 2.0308845611054289e-13 5.2685282932926005e-15
3.240889293275058 2.700526044466844e-21 2.323175393904471e-13 2.269788707041417e-13 5.338668686305415e-15
3.2469718861334385 3.0174460795951624e-21 2.600683363740858e-13 2.546570930990669e-13 5.411243275018855e-15
3.2714166318528037 4.67676752339201e-21 4.0611690943437245e-13 4.004058474331587e-13 5.711062001213807e-15
3.2744851364798273 4.781429085862065e-21 4.155948675570663e-13 4.0984849882540344e-13 5.746368731662618e-15
3.2775565192852394 4.888853423881635e-21 4.253306102191118e-13 4.1954876070966173e-13 5.781849509450016e-15
3.283707930232385 4.7913439998673336e-21 4.176296338954495e-13 4.1178438590190785e-13 5.8452479935415615e-15
3.2898708863219004 4.473027926026572e-21 3.9061588148607924e-13 3.8471298570425394e-13 5.90289578182518e-15
3.29141343181113 4.397851126932717e-21 3.842309937121891e-13 3.783136235174136e-13 5.917370194775454e-15
3.292184975758714 4.360895582710303e-21 3.810915767920622e-13 3.7516696001077793e-13 5.924616781284097e-15
3.295272960557952 4.129361040191099e-21 3.6119662511586066e-13 3.552438296190374e-13 5.9527954968231586e-15
3.3076538914384823 3.322264361376155e-21 2.9169143683491605e-13 2.856254864726249e-13 6.0659503622912085e-15
3.310756385682612 3.1566536672622363e-21 2.774109465798909e-13 2.713164796541013e-13 6.094466925789554e-15
3.313861789986515 3.003333898356839e-21 2.6418456632494843e-13 2.5806149156089803e-13 6.123074764050335e-15
3.3200813396944477 2.7904239816370572e-21 2.4591688696718577e-13 2.397322572223203e-13 6.1846297448655565e-15
3.345076488085796 2.42790900108405e-21 2.1557971377745993e-13 2.0912071189005346e-13 6.4590018874064296e-15
3.3482140837626964 2.445424875344534e-21 2.1733865621734936e-13 2.1084248398281558e-13 6.496172234533804e-15
3.3513546224236106 2.463088762728404e-21 2.1911387577382055e-13 2.1258036838055973e-13 6.533507393260855e-15
3.3576445397418455 2.5764488339648007e-21 2.296284384390005e-13 2.230168635915895e-13 6.611574847410967e-15
3.3702598118196083 2.980373166694596e-21 2.6662659066737503e-13 2.598512709590464e-13 6.77531970832863e-15
3.382922481734668 3.0834311388754116e-21 2.7688264383961933e-13 2.699482328814721e-13 6.934410958147196e-15
3.389271646505754 3.1364721598411796e-21 2.821741649542919e-13 2.751591294134436e-13 7.015035540848281e-15
3.395632727569191 3.194473547095367e-21 2.8793167250587635e-13 2.8083354844082327e-13 7.098124065053089e-15
3.421196662673239 3.4725015113214595e-21 3.1534788035755734e-13 3.079058808653611e-13 7.441999492196215e-15
3.4276182099114902 3.429695775593389e-21 3.120451759471525e-13 3.045265069806889e-13 7.518668966463662e-15
3.4340518103208963 3.2205716020731588e-21 2.9356835235106953e-13 2.859772024798194e-13 7.591149871250133e-15
3.4469541582030403 2.9227483998403257e-21 2.6742153180177335e-13 2.596913353096295e-13 7.730196492143736e-15
3.472904465399547 2.855245710760155e-21 2.6321204385157844e-13 2.5516143950371363e-13 8.05060434786483e-15
3.4990501388274233 2.7443962660978e-21 2.548979944737425e-13 2.465196758408738e-13 8.37831863286874e-15
3.5253949054701885 2.306101708690273e-21 2.158020983394473e-13 2.071056675882812e-13 8.696430751166158e-15
3.5519380250092896 1.889824612314812e-21 1.7817891635525592e-13 1.691629661953574e-13 9.015950159898539e-15
3.578680990867387 1.739289988659776e-21 1.6522068433588688e-13 1.558545630009799e-13 9.366121334907029e-15
3.605625307711299 1.6934476559741522e-21 1.6207715459787096e-13 1.5234237185586228e-13 9.734782742008677e-15
3.660119384959845 1.6919125425909548e-21 1.6437758453494497e-13 1.5386889735706053e-13 1.0508687177884477e-14
3.715437065384467 1.704915773390949e-21 1.6814434706906482e-13 1.568207370237773e-13 1.1323610045287466e-14
3.8285932144167436 1.788047740712304e-21 1.8171374063953574e-13 1.6864194911966366e-13 1.3071791519872058e-14
3.94519561050918 1.88830745066918e-21 1.9774735399485723e-13 1.8277424916893394e-13 1.4973104825923255e-14
4.06534921144712 1.996382202183119e-21 2.154323801770677e-13 1.9840835303866499e-13 1.7024027138402838e-14
4.189162171576248 2.1091436211557933e-21 2.345323526258737e-13 2.15305384786576e-13 1.9226967839297744e-14
4.316745939156006 2.224841397385335e-21 2.5493236737913606e-13 2.333603228385422e-13 2.1572044540593906e-14
4.448215356677963 2.342134111722212e-21 2.765457557006296e-13 2.525209914699798e-13 2.4024764230649665e-14
4.58368876423945 2.4603208097607793e-21 2.99347953938126e-13 2.7276155237993375e-13 2.658640155819223e-14
4.723288106065518 2.5790187202813896e-21 3.233466490893766e-13 2.940753636908794e-13 2.927128539849712e-14
4.867139040275056 2.697403070460748e-21 3.484889673718694e-13 3.164839508476922e-13 3.2005016524177165e-14
4.940699165968905 2.7571047098023276e-21 3.6158558134164105e-13 3.2818747284421263e-13 3.339810849742846e-14
5.015371051989984 2.8159077758058156e-21 3.7487884142041903e-13 3.4007480867470183e-13 3.4804032745717207e-14
5.091171501069577 2.8763794898128467e-21 3.8871682902900377e-13 3.524632224513103e-13 3.625360657769349e-14
5.129500256944802 2.9061902465217655e-21 3.9570225924430734e-13 3.587207111283094e-13 3.698154811599793e-14
5.168117569889187 2.9359657607448005e-21 4.0276600237633977e-13 3.650471181370815e-13 3.771888423925825e-14
5.20702561229733 2.967720367172783e-21 4.101872190747729e-13 3.716617665238034e-13 3.852545255096952e-14
5.246226572918644 2.999224359514775e-21 4.1766244899291887e-13 3.783262869962534e-13 3.9336161996665525e-14
5.265937586045735 3.0148793289728767e-21 4.214199337967974e-13 3.8167697842865563e-13 3.974295536814194e-14
5.285722656980489 3.030468040183553e-21 4.25190461422185e-13 3.8503981531422136e-13 4.0150646107963606e-14
5.305582063971359 3.0459893458646954e-21 4.289738803327681e-13 3.8841469288302636e-13 4.055918744974168e-14
5.3255160863122235 3.0618154504068803e-21 4.3282281387520476e-13 3.918508875563911e-13 4.097192631881362e-14
5.365609099470188 3.096147880482462e-21 4.409711309973423e-13 3.9914515927941803e-13 4.182597171792424e-14
5.406003951863644 3.130345910367829e-21 4.491983192604419e-13 4.065141878078033e-13 4.268413145263859e-14
5.446702915881641 3.1644102936883045e-21 4.575050681560558e-13 4.139590369258915e-13 4.354603123016435e-14
5.487708281020852 3.1990415187508957e-21 4.659940017160387e-13 4.2157885660523485e-13 4.441514511080405e-14
5.529022354014368 3.2397494654591064e-21 4.754766626378001e-13 4.3015557866041666e-13 4.5321083977383456e-14
5.570647458961463 3.280770259414444e-21 4.851219521228678e-13 4.3889074957581365e-13 4.6231202547054275e-14
5.612585937458331 3.3221465600284223e-21 4.949384851368805e-13 4.477933656415678e-13 4.714511949531277e-14
5.654840148729818 3.364971828049196e-21 5.050928240349394e-13 4.570256408663751e-13 4.8067183168564214e-14
5.67608639626678 3.3911824605809315e-21 5.109396282684647e-13 4.623896510811304e-13 4.854997718733417e-14
5.686739436050992 3.4044219018625486e-21 5.138970662694514e-13 4.651052535611018e-13 4.879181270834951e-14
5.6974124697621304 3.417754252196025e-21 5.168778566320538e-13 4.678439240985921e-13 4.9033932533461563e-14
5.718818669136295 3.4447085928385e-21 5.229115658211583e-13 4.733925649770842e-13 4.95190008440742e-14
5.740305295436557 3.473369043502191e-21 5.292432809616289e-13 4.79234358150998e-13 5.000892281063098e-14
5.7835210386641895 3.542773952320994e-21 5.438826384901246e-13 4.928613102274014e-13 5.102132826272317e-14
5.827062130521658 3.618318356746771e-21 5.596620478726094e-13 5.076139805771507e-13 5.2048067295458737e-14
5.8489554468988025 3.668768087802229e-21 5.695974102369887e-13 5.169936087828131e-13 5.260380145417555e-14
5.870931020387893 3.721390088363122e-21 5.799380545720847e-13 5.267765132203604e-13 5.316154135172438e-14
5.892989160043636 3.776360317862756e-21 5.907156823429453e-13 5.369944425216634e-13 5.372123982128186e-14
5.915130176081913 3.837445379502216e-21 6.025262144365e-13 5.482243885433288e-13 5.430182589317123e-14
5.95966208400165 4.0033737030759155e-21 6.333112471643967e-13 5.776786318782024e-13 5.563261528619429e-14
6.004529249263818 4.233603799473202e-21 6.747744191365925e-13 6.176398786151622e-13 5.713454052143026e-14
6.027089341400364 4.3906404360043836e-21 7.02433046350777e-13 6.444267665411833e-13 5.80062798095937e-14
6.049734195844842 4.572532170459005e-21 7.342813478170928e-13 6.753508252173371e-13 5.893052259975574e-14
6.095279466722835 5.090307371560799e-21 8.235824114092938e-13 7.623666490470124e-13 6.121576236228133e-14
6.141167624020661 5.869269363445597e-21 9.56763119490943e-13 8.925647711699658e-13 6.41983483209775e-14
6.164241091010745 6.364014615664506e-21 1.0413104280670783e-12 9.752320976316604e-13 6.607833043541752e-14
6.187401249150058 6.915995081004868e-21 1.1358798343066589e-12 1.0678725312365258e-12 6.800730307013305e-14
6.1990139391386085 7.183988242849743e-21 1.1821093674892866e-12 1.1131208273757967e-12 6.898854011348938e-14
6.204828454712694 7.324172148586582e-21 1.2063067433350002e-12 1.1368227483079358e-12 6.948399502706414e-14
6.210648424152782 7.425895391360564e-21 1.2242079774914885e-12 1.1543036564338469e-12 6.990432105764223e-14
6.233982942956859 7.766272065867944e-21 1.2851317204633721e-12 1.2137695783453746e-12 7.136214211799825e-14
6.239830258556775 7.806944707314282e-21 1.2930738002988616e-12 1.221515112983839e-12 7.155868731502297e-14
6.245683058788269 7.806812038427386e-21 1.2942646755315621e-12 1.2225091857095152e-12 7.175548982204711e-14
6.257405133728602 7.788897308263736e-21 1.2937181920657995e-12 1.2216215940594693e-12 7.209659800633033e-14
6.269149208991335 7.711274118774589e-21 1.2832290451439017e-12 1.211023360905382e-12 7.22056842385194e-14
6.280915325867298 7.529795234172896e-21 1.2553809607826612e-12 1.1833528934660832e-12 7.202806731657822e-14
6.304513850009849 7.087702836564803e-21 1.186114286564076e-12 1.1147005644753517e-12 7.14137220887247e-14
6.32820103803542 6.550688272582687e-21 1.1003646599468782e-12 1.0298409430123224e-12 7.052371693455614e-14
6.3519772230701035 6.062013446446092e-21 1.0221044063043711e-12 9.523827016254842e-13 6.972170467888678e-14
6.375842739491607 5.6487320136964085e-21 9.560002396917492e-13 8.869901430763677e-13 6.901009661538131e-14
6.399797922933955 5.324530883442878e-21 9.045176475270111e-13 8.35892769459591e-13 6.862487806741999e-14
6.42384311029221 5.0533753955636666e-21 8.61679815999356e-13 7.933749933503488e-13 6.830482264900723e-14
6.447978639727206 4.858984110053053e-21 8.316459980217474e-13 7.63407116810846e-13 6.82388812109014e-14
6.472204850670314 4.696512552187157e-21 8.068581219860953e-13 7.386349002833333e-13 6.822322170276193e-14
6.496522083828205 4.593069715184842e-21 7.92051442929315e-13 7.23638351862532e-13 6.841309106678263e-14
6.520930681187647 4.505950904693636e-21 7.799476827957369e-13 7.113139752479011e-13 6.863370754783585e-14
6.57002334288761 4.418947461780717e-21 7.706464528461523e-13 7.012882757278576e-13 6.935817711829468e-14
