Dust emission spectrum from A.P. Jones, M. Kohler, N. Ysard, M. Bocchio, and L. Verstraete (2017), A&A, 602A, 46J 
inside the DustPedia framework.

lambda    nu*dP/dnu     j_nu    j_nu(carb.) j_nu(sil)
 (um)   (erg s-1 H-1) (Jy cm2 sr-1 H-1)
0.9927057738263894 4.0518310356646486e-20 1.0676804918384733e-12 1.06768033394837e-12 1.5789010334885503e-19
1.0001793341362166 4.119717048506599e-20 1.0937415193755253e-12 1.0937413294323598e-12 1.8994316583277918e-19
1.0077091589558085 4.1879022337750756e-20 1.1202144576600104e-12 1.1202142294639118e-12 2.2819609859930695e-19
1.0114953028030835 4.22210448589772e-20 1.1336063764517694e-12 1.133606126456845e-12 2.499949240760513e-19
1.0152956718711033 4.256378554882709e-20 1.1471024683167484e-12 1.1471021945328498e-12 2.7378389896322874e-19
1.0229392996569957 4.3251049265210654e-20 1.1743997354031466e-12 1.1743994073620211e-12 3.2804112583166764e-19
1.0267826658714554 4.359479430248712e-20 1.1881809748916792e-12 1.1881806159820839e-12 3.5890959521954176e-19
1.0306404723013447 4.3939205014398636e-20 1.202067404463879e-12 1.2020670119131629e-12 3.9255071583454696e-19
1.03451277320114 4.428427344600924e-20 1.2160594699921204e-12 1.2160590407913755e-12 4.2920074503468554e-19
1.0383996230291617 4.4629992003951703e-20 1.2301576277960112e-12 1.2301571586811105e-12 4.691149003764819e-19
1.0403485208654093 4.480309280842372e-20 1.2372466368616018e-12 1.2372461464802887e-12 4.903813127874547e-19
1.0423010764483396 4.497635346531244e-20 1.244362345064469e-12 1.2443618324956896e-12 5.125687798329834e-19
1.0462171883269815 4.532335098648219e-20 1.2586741002843707e-12 1.2586735404244907e-12 5.598598801238563e-19
1.0471985131304309 4.541019898596336e-20 1.2622688209528276e-12 1.2622682486335282e-12 5.723192991513963e-19
1.048180758391296 4.549708623675317e-20 1.265870269849508e-12 1.2658696848057675e-12 5.850437408126304e-19
1.0501480137395462 4.567097811196849e-20 1.2730933836757192e-12 1.2730927723664998e-12 6.113092193023922e-19
1.0521189612883777 4.584502586727376e-20 1.2803435049462658e-12 1.2803428662458636e-12 6.387004024118921e-19
1.0531058218030118 4.593199400967799e-20 1.283975527589752e-12 1.283974874756422e-12 6.528333301276793e-19
1.0540936079674168 4.6018627504471957e-20 1.287603873820466e-12 1.2876032065522304e-12 6.672682355798519e-19
1.058054026499678 4.636553190532107e-20 1.3021845062702237e-12 1.3021837781514244e-12 7.281187993536478e-19
1.0590464539527713 4.6452350209954623e-20 1.3058465169837434e-12 1.3058457728431063e-12 7.441406372072724e-19
1.06003981227728 4.653920524175683e-20 1.3095152852097711e-12 1.3095145247106145e-12 7.604991563774109e-19
1.0620293250338977 4.6713025191044536e-20 1.316873127571424e-12 1.3168723333181946e-12 7.942532296674752e-19
1.0660195594769086 4.7061102656337985e-20 1.3316702725940283e-12 1.3316694064883793e-12 8.661056491257674e-19
1.070024785945596 4.7409760031158627e-20 1.3465764902993522e-12 1.3465755461556803e-12 9.441436720707144e-19
1.0740450607676866 4.7758993489192884e-20 1.3615923442143977e-12 1.36159131534359e-12 1.0288708073187021e-18
1.07808044048254 4.810879965626115e-20 1.3767184129124076e-12 1.3767172920833882e-12 1.1208290190842306e-18
1.0861967418109137 4.880958932951981e-20 1.4072883175150472e-12 1.4072869886995525e-12 1.3288154949736874e-18
1.0902777775684922 4.915936447822457e-20 1.422698432666397e-12 1.4226969865206186e-12 1.4461457781867541e-18
1.0943741465085532 4.950968300881886e-20 1.4382202639550368e-12 1.438218690638122e-12 1.57331691431968e-18
1.1026131145906286 5.021194716168296e-20 1.4696017143101893e-12 1.4695998539552112e-12 1.8603549781982613e-18
1.1109141095355224 5.09163807716905e-20 1.501438131855934e-12 1.501435934978745e-12 2.1968771892117e-18
1.1192775983109025 5.16224467299728e-20 1.5337191123251557e-12 1.5337165214381129e-12 2.5908870432755842e-18
1.1277040513999907 5.232765887174347e-20 1.5663754893440484e-12 1.5663724377525366e-12 3.0515915118726204e-18
1.1361939428280308 5.303500797440215e-20 1.599501093093397e-12 1.5994975035256604e-12 3.589567736571044e-18
1.1447477501889525 5.374452848112916e-20 1.6331026696098857e-12 1.6330984526599246e-12 4.216949961452001e-18
1.1533659546722406 5.445650589476042e-20 1.6671947455536629e-12 1.6671897979067205e-12 4.947646942514839e-18
1.1707974979042381 5.589003093072874e-20 1.7369430075907045e-12 1.736936222626136e-12 6.7849645684885426e-18
1.1884924949847024 5.733403779616964e-20 1.8087494208196126e-12 1.8087401630696586e-12 9.257749954075268e-18
1.2064549276569216 5.879829691883063e-20 1.882978154948938e-12 1.882965585848134e-12 1.2569100804090811e-17
1.2246888378427687 6.02739619405595e-20 1.959408249441381e-12 1.959391268543447e-12 1.69808979343368e-17
1.2431983285522175 6.176016580009241e-20 2.038066281108385e-12 2.038043451494056e-12 2.282961432920864e-17
1.2619875648066055 6.325946385486672e-20 2.119092992745748e-12 2.119062447377527e-12 3.054536822119275e-17
1.3004222497298317 6.629013604714407e-20 2.2882461212421527e-12 2.2881922127112233e-12 5.3908530929409187e-17
1.3400274889804893 6.937853958368227e-20 2.467790535175223e-12 2.4676971440380655e-12 9.339113715784256e-17
1.3808389325824078 7.25400195516816e-20 2.6588272721360272e-12 2.658668382481223e-12 1.5888965480381053e-16
1.4228933163050095 7.580499930213778e-20 2.8631204603200393e-12 2.8628548506635217e-12 2.656096565180983e-16
1.466228494730424 7.923303714507591e-20 3.0837374279395043e-12 3.083300943640207e-12 4.364842992976852e-16
1.5108834753276823 8.282573208220534e-20 3.3217403926169774e-12 3.321034949422248e-12 7.054431947297927e-16
1.5568984535646726 8.658983810365314e-20 3.5784639627008182e-12 3.577341464795879e-12 1.1224979049396521e-15
1.6043148490894465 9.055695122208996e-20 3.856388943031269e-12 3.854627139587894e-12 1.7618034433761895e-15
1.6531753430134553 9.47623452815063e-20 4.158379802941206e-12 4.155655493786451e-12 2.7243091547552232e-15
1.7035239163302658 9.924768837877817e-20 4.487847267721894e-12 4.4836959791807805e-12 4.151288541111692e-15
1.755405889504358 1.041050752056037e-19 4.850861627352303e-12 4.8446249474703925e-12 6.236679881910641e-15
1.8088679632656115 1.0935877552127493e-19 5.2508539523847866e-12 5.241612918904915e-12 9.241033479871325e-15
1.8639582606462262 1.1503535575978296e-19 5.691633881662238e-12 5.678123874954126e-12 1.3510006708109153e-14
1.9207263702978936 1.211818397037075e-19 6.178349519615778e-12 6.158854655887716e-12 1.9494863728062716e-14
1.979223391128241 1.2785773901897305e-19 6.717246230539954e-12 6.689469555961094e-12 2.777667457886105e-14
2.039501978296691 1.351252209023833e-19 7.315263611675197e-12 7.276171590385075e-12 3.909202129012064e-14
2.1016163906111602 1.430906042177308e-19 7.98240938997211e-12 7.928044236497106e-12 5.4365153475003116e-14
2.1656225393682647 1.5183744263659821e-19 8.728328364986241e-12 8.65359331287286e-12 7.4735052113382e-14
2.231578038680979 1.6141230432212375e-19 9.56132651466855e-12 9.459741038056678e-12 1.015854766118714e-13
2.299542257339062 1.7188800318994614e-19 1.0491954396577184e-11 1.035537906814178e-11 1.3657532843540524e-13
2.369576372248914 1.8335557016117757e-19 1.1532786485424233e-11 1.1351116471922386e-11 1.8167001350184697e-13
2.4417434235010123 1.9591342053493551e-19 1.2697951002960911e-11 1.2458789250872434e-11 2.3916175208848026e-13
2.5161083711144245 2.096912898796989e-19 1.4004872742199209e-11 1.3693174730792305e-11 3.116980114069069e-13
2.5927381535095444 2.248541339372902e-19 1.5474939796494962e-11 1.507264708318693e-11 4.0229271330803095e-13
2.6717017477616296 2.415487579560342e-19 1.7130191432452248e-11 1.6615882862710325e-11 5.143085697419252e-13
2.753070231689431 2.5994939828273406e-19 1.8996585211887854e-11 1.8345136470539698e-11 6.514487413481511e-13
2.836916847834745 2.8041524026152477e-19 2.1116291709514198e-11 2.0298528983209795e-11 8.177627263044077e-13
2.9233170693905177 3.0363195101105634e-19 2.356095152117453e-11 2.2543561562944656e-11 1.0173899582298715e-12
2.967498994190263 3.167487496493366e-19 2.4950251211754765e-11 2.3821547725054936e-11 1.128703486699832e-12
3.0123486681368425 3.3067990941345413e-19 2.644128038298446e-11 2.5190681352704625e-11 1.2505990302798413e-12
3.0578761833420214 3.493530639161125e-19 2.8356582296503958e-11 2.6972258706485015e-11 1.3843235900189406e-12
3.1040917844459814 3.702133540444654e-19 3.050394910411771e-11 2.8974674862372593e-11 1.5292742417451346e-12
3.127460860933648 3.8622875245492964e-19 3.206313013599842e-11 3.045647093558749e-11 1.606659200410935e-12
3.1510058709225794 4.054957566509086e-19 3.391602597890933e-11 3.2228867387122427e-11 1.6871585917868955e-12
3.162844764501044 4.2123429834828576e-19 3.536478609636343e-11 3.3636031479896163e-11 1.7287546164672747e-12
3.1747281389236908 4.38736237079321e-19 3.697255643227021e-11 3.520140391457428e-11 1.7711525176959247e-12
3.1986289994194426 4.84528040208154e-19 4.11388567646798e-11 3.9280244481613586e-11 1.8586122830662158e-12
3.2227097969389145 5.846887165157068e-19 5.001673578003748e-11 4.80656132144311e-11 1.9511225656063917e-12
3.2348180950136065 6.766090525464804e-19 5.809745401996884e-11 5.609700359421319e-11 2.000450425755661e-12
3.240889293275058 7.447108621758586e-19 6.406507184498956e-11 6.203860182298113e-11 2.0264700220084342e-12
3.2469718861334385 8.234496643378632e-19 7.097166896877223e-11 6.891827640407838e-11 2.053392564693842e-12
3.2714166318528037 1.2340061310240903e-18 1.0715750860994081e-10 1.0499299360908897e-10 2.164515000851826e-12
3.2744851364798273 1.2599162724381257e-18 1.0951009143378533e-10 1.0733251949438867e-10 2.177571939396634e-12
3.2775565192852394 1.2864964554734671e-18 1.1192528697593906e-10 1.0973459633041506e-10 2.190690645523983e-12
3.283707930232385 1.2625686102654981e-18 1.1004972018032231e-10 1.0783564748470037e-10 2.2140726956219612e-12
3.2898708863219004 1.1841439500008503e-18 1.0340767830771691e-10 1.0117239866707775e-10 2.2352796406391645e-12
3.29141343181113 1.1656204420986303e-18 1.0183780392565565e-10 9.959720091457388e-11 2.240603011081732e-12
3.292184975758714 1.1565143406142475e-18 1.0106590843282618e-10 9.882264048914264e-11 2.2432679436835434e-12
3.295272960557952 1.0995526215551035e-18 9.617824457040477e-11 9.392462415988562e-11 2.253620410519165e-12
3.3076538914384823 9.008451116621181e-19 7.909328590503526e-11 7.679812045907774e-11 2.2951654459575284e-12
3.310756385682612 8.600300076431098e-19 7.55805874371729e-11 7.327495747492788e-11 2.3056299622450298e-12
3.313861789986515 8.222283038271219e-19 7.23262997782264e-11 7.00101739793939e-11 2.3161257988324884e-12
3.3200813396944477 7.6985257008658625e-19 6.784623007300574e-11 6.550749495270433e-11 2.3387351203014027e-12
3.345076488085796 6.816387666483805e-19 6.052429895357168e-11 5.808471487148083e-11 2.439584082090858e-12
3.3482140837626964 6.861309418556867e-19 6.098031405321721e-11 5.85270642565261e-11 2.4532497966911153e-12
3.3513546224236106 6.906585377581945e-19 6.144028235378885e-11 5.897330910568147e-11 2.4669732481073896e-12
3.3576445397418455 7.189794072284295e-19 6.407971948645265e-11 6.158404065642042e-11 2.4956788300322416e-12
3.3702598118196083 8.191580319972862e-19 7.328253915648466e-11 7.072665493404072e-11 2.5558842224439237e-12
3.382922481734668 8.452363691129337e-19 7.589962934432364e-11 7.328534844505928e-11 2.6142808992643527e-12
3.389271646505754 8.586372461621857e-19 7.724769600592789e-11 7.460383943669027e-11 2.6438565692375937e-12
3.395632727569191 8.733194482414986e-19 7.871604684055843e-11 7.604171053000602e-11 2.6743363105524242e-12
3.421196662673239 9.435917066783409e-19 8.56902851312939e-11 8.288990686271047e-11 2.8003782685834372e-12
3.4276182099114902 9.332838480180672e-19 8.491328141576833e-11 8.208490833571662e-11 2.8283730800517363e-12
3.4340518103208963 8.819077348338571e-19 8.038951857930413e-11 7.75347322474694e-11 2.854786331834707e-12
3.4469541582030403 8.087708317310756e-19 7.399977867062876e-11 7.109442687940368e-11 2.9053517912250784e-12
3.472904465399547 7.930015445938926e-19 7.310318567099688e-11 7.008114930829661e-11 3.0220363627002446e-12
3.4990501388274233 7.6664733251984065e-19 7.12057766372824e-11 6.806462580002846e-11 3.1411508372539342e-12
3.5253949054701885 6.599942390131555e-19 6.176143104801579e-11 5.850503061679183e-11 3.2564004312239533e-12
3.5519380250092896 5.586657162718955e-19 5.2672851904617476e-11 4.9300991702506765e-11 3.371860202110724e-12
3.578680990867387 5.229047231747139e-19 4.9672381700975495e-11 4.617401830943021e-11 3.4983633915452682e-12
3.605625307711299 5.129665709085723e-19 4.9095206411244056e-11 4.5463835219265406e-11 3.6313711919786535e-12
3.660119384959845 5.152632175902506e-19 5.00603435314009e-11 4.6150563780911055e-11 3.909779750489839e-12
3.715437065384467 5.210768695047257e-19 5.1390298197196304e-11 4.718851618891864e-11 4.201782008277655e-12
3.8285932144167436 5.46606392606922e-19 5.554991066318957e-11 5.072576287544752e-11 4.824147787742059e-12
3.94519561050918 5.760586974526378e-19 6.032602536552729e-11 5.483099807737445e-11 5.495027288152846e-12
4.06534921144712 6.070567842115238e-19 6.550834193087509e-11 5.929651567611581e-11 6.211826254759286e-12
4.189162171576248 6.387498843144359e-19 7.102764913926346e-11 6.405355837395922e-11 6.974090765304256e-12
4.316745939156006 6.706128891349582e-19 7.684185111938884e-11 6.906494201446094e-11 7.77690910492792e-12
4.448215356677963 7.022038954631817e-19 8.291220641673634e-11 7.430543455576117e-11 8.60677186097518e-12
4.58368876423945 7.332780654739813e-19 8.921815711857766e-11 7.97552826581018e-11 9.462874460475884e-12
4.723288106065518 7.636814464038345e-19 9.57472059913803e-11 8.539828492744203e-11 1.0348921063938269e-11
4.867139040275056 7.930823731521965e-19 1.0246168260401349e-10 9.122410090407396e-11 1.1237581699939541e-11
4.940699165968905 8.075452829796703e-19 1.0590701527140727e-10 9.422169988526264e-11 1.1685315386144666e-11
5.015371051989984 8.215400624442812e-19 1.0937076470888263e-10 9.72371634113075e-11 1.2133601297575117e-11
5.091171501069577 8.356961031972973e-19 1.1293681533234861e-10 1.0034396435810585e-10 1.2592850974242755e-11
5.129500256944802 8.425710540823272e-19 1.1472313970954531e-10 1.0190113846947442e-10 1.2822001240070891e-11
5.168117569889187 8.493752733049005e-19 1.1652025644179905e-10 1.0346684150833838e-10 1.3053414933460714e-11
5.20702561229733 8.566346081647752e-19 1.184008343822035e-10 1.050925408464337e-10 1.3308293535769812e-11
5.246226572918644 8.637630066154758e-19 1.2028489017436217e-10 1.0672143365289569e-10 1.3563456521466487e-11
5.265937586045735 8.672772040771892e-19 1.2122803669565006e-10 1.0753693645002196e-10 1.3691100245628037e-11
5.285722656980489 8.70757605744832e-19 1.221718306427337e-10 1.0835306903748758e-10 1.3818761605246137e-11
5.305582063971359 8.742038778536937e-19 1.23116198746386e-10 1.0916977612943841e-10 1.3946422616947605e-11
5.3255160863122235 8.777060648774405e-19 1.2407384276054374e-10 1.099985879858826e-10 1.4075254774661161e-11
5.365609099470188 8.853024801006814e-19 1.2608985455304418e-10 1.1174785154007861e-10 1.434200301296557e-11
5.406003951863644 8.927887883959192e-19 1.2811338896246435e-10 1.1350445576856237e-10 1.4608933193901927e-11
5.446702915881641 9.001645439204287e-19 1.30144261583086e-10 1.1526836072322699e-10 1.4875900859859003e-11
5.487708281020852 9.0759491241126e-19 1.3220640704181303e-10 1.1706231694365457e-10 1.5144090098158435e-11
5.529022354014368 9.163767278851548e-19 1.344905687736676e-10 1.1906689196836468e-10 1.5423676805302858e-11
5.570647458961463 9.251398201525552e-19 1.3679886125860878e-10 1.2109549866793777e-10 1.5703362590671038e-11
5.612585937458331 9.338928285582477e-19 1.391327846303268e-10 1.2314978372363065e-10 1.5983000906696175e-11
5.654840148729818 9.428893832765807e-19 1.4153065335700863e-10 1.2526659461003372e-10 1.62640587469749e-11
5.67608639626678 9.484677242084086e-19 1.4290288183097768e-10 1.2649139715479304e-10 1.6411484676184613e-11
5.686739436050992 9.512772573796457e-19 1.4359518469458698e-10 1.2710997250843915e-10 1.6485212186147796e-11
5.6974124697621304 9.541011032754848e-19 1.4429174741116683e-10 1.2773280112615933e-10 1.6558946285007514e-11
5.718818669136295 9.597940397365022e-19 1.4569807304683077e-10 1.2899164814741486e-10 1.670642489941592e-11
5.740305295436557 9.658516657058154e-19 1.4716849781242588e-10 1.3031333618284856e-10 1.6855161629577325e-11
5.7835210386641895 9.806521949125198e-19 1.5054861258103434e-10 1.3338625648282158e-10 1.7162356098212788e-11
5.827062130521658 9.967163226815106e-19 1.5416672699898373e-10 1.3669390331160985e-10 1.7472823687373906e-11
5.8489554468988025 1.007601570366266e-18 1.5643595651072033e-10 1.3879435164591164e-10 1.7641604864808644e-11
5.870931020387893 1.0189300872466414e-18 1.5878914021687528e-10 1.4097850182148164e-10 1.7810638395393655e-11
5.892989160043636 1.0307395522653587e-18 1.6123303040078754e-10 1.432531253560835e-10 1.797990504470405e-11
5.915130176081913 1.0438943909788906e-18 1.6390428357044013e-10 1.4574854343495905e-10 1.8155740135481077e-11
5.95966208400165 1.0800122368137773e-18 1.7085187328972495e-10 1.522891495059795e-10 1.8562723783745394e-11
6.004529249263818 1.1303859385847827e-18 1.8016695733399294e-10 1.6114265229706706e-10 1.9024305036925904e-11
6.027089341400364 1.1649081851706278e-18 1.8636689046963037e-10 1.6707274190333616e-10 1.929414856629426e-11
6.049734195844842 1.2048839551223523e-18 1.9348662437986053e-10 1.7390594506463822e-10 1.9580679315222327e-11
6.095279466722835 1.319014285864439e-18 2.1340891363549503e-10 1.9311335096374214e-10 2.029556267175293e-11
6.141167624020661 1.4907472719738518e-18 2.430101469169922e-10 2.217736566171909e-10 2.1236490299801288e-11
6.164241091010745 1.5998031928503507e-18 2.617674295514061e-10 2.3993411363164526e-10 2.183331591976079e-11
6.187401249150058 1.7210850829794827e-18 2.8267021823826263e-10 2.6022527875002344e-10 2.2444939488239195e-11
6.1990139391386085 1.7798210716933162e-18 2.928656186760264e-10 2.701096866131401e-10 2.2755932062886346e-11
6.204828454712694 1.810514155988838e-18 2.981955354086382e-10 2.7528265513754224e-10 2.2912880271095906e-11
6.210648424152782 1.8326424945813932e-18 3.0212323814399783e-10 2.7907801081307357e-10 2.304522733092427e-11
6.233982942956859 1.9061456665725615e-18 3.154213809611665e-10 2.919205335194579e-10 2.3500847441708535e-11
6.239830258556775 1.914575610979466e-18 3.1711350010321904e-10 2.9355381878735177e-10 2.3559681315867312e-11
6.245683058788269 1.9140018821329816e-18 3.173158278631566e-10 2.9369726399087894e-10 2.3618563872277726e-11
6.257405133728602 1.9089288700243926e-18 3.1706875938523345e-10 2.9334969170154137e-10 2.371906768369206e-11
6.269149208991335 1.890585612305035e-18 3.1461135120774514e-10 2.908677660266913e-10 2.374358518105388e-11
6.280915325867298 1.84925619111639e-18 3.08311307510872e-10 2.8463699708732055e-10 2.3674310423551474e-11
6.304513850009849 1.7492101536040326e-18 2.927271643908622e-10 2.6927598919609594e-10 2.3451175194766293e-11
6.32820103803542 1.628574779361293e-18 2.735630301307902e-10 2.5042495443496497e-10 2.3138075695825185e-11
6.3519772230701035 1.5189558651311328e-18 2.5610822154190105e-10 2.3325431194243987e-10 2.2853909599461265e-11
6.375842739491607 1.4260790160221485e-18 2.4135184282612354e-10 2.1875227537774826e-10 2.259956744837535e-11
6.399797922933955 1.3532892478659279e-18 2.2989330585153693e-10 2.074417802837026e-10 2.24515255678343e-11
6.42384311029221 1.292228462986362e-18 2.2034523403757894e-10 1.980204064495832e-10 2.2324827587995708e-11
6.447978639727206 1.2482725383396654e-18 2.1364977481667378e-10 1.9136911875491556e-10 2.2280656061758184e-11
6.472204850670314 1.2113664040684535e-18 2.0811204291757902e-10 1.8585926188205355e-10 2.2252781035525556e-11
6.496522083828205 1.1875428011758946e-18 2.0478569835377184e-10 1.8249425199900607e-10 2.229144635476576e-11
6.520930681187647 1.1673171649240866e-18 2.0205420279254744e-10 1.7971430239268203e-10 2.233990039986538e-11
