Dust emission spectrum from A.P. Jones, M. Kohler, N. Ysard, M. Bocchio, and L. Verstraete (2017), A&A, 602A, 46J 
inside the DustPedia framework.

lambda    nu*dP/dnu     j_nu    j_nu(carb.) j_nu(sil)
 (um)   (erg s-1 H-1) (Jy cm2 sr-1 H-1)
0.9927057738263894 1.0237128257031625e-23 2.697541441455528e-16 2.697541246874652e-16 1.9458087639908083e-23
1.0001793341362166 1.0409462269181997e-23 2.7636026805055674e-16 2.763602446283999e-16 2.3422156892626063e-23
1.0077091589558085 1.0582332033980097e-23 2.8306490167362996e-16 2.830648735170949e-16 2.815653515796265e-23
1.0114953028030835 1.0668957501616962e-23 2.86454262188975e-16 2.864542313329772e-16 3.0855997743624214e-23
1.0152956718711033 1.0755704641537992e-23 2.898683748098654e-16 2.8986834100680855e-16 3.3803056817565965e-23
1.0229392996569957 1.0929463810916783e-23 2.967687403126964e-16 2.96768699784045e-16 4.052865140106014e-23
1.0267826658714554 1.1016276810264225e-23 3.0024985160555255e-16 3.00249807248291e-16 4.435726158178208e-23
1.0306404723013447 1.1103191615990352e-23 3.0375571708056533e-16 3.0375566854911585e-16 4.85314494365731e-23
1.03451277320114 1.1190204540542419e-23 3.0728638281185887e-16 3.072863297310216e-16 5.308083736659661e-23
1.0383996230291617 1.127731197146665e-23 3.1084189621872703e-16 3.1084183818128493e-16 5.803744213482906e-23
1.0403485208654093 1.1320900018983178e-23 3.1262898600830243e-16 3.126289253291475e-16 6.067915504572584e-23
1.0423010764483396 1.1364510373527836e-23 3.144223061529238e-16 3.1442224271706807e-16 6.343585577804306e-23
1.0462171883269815 1.1451796290820231e-23 3.180276629873878e-16 3.1802759367394873e-16 6.931343915096851e-23
1.0471985131304309 1.1473631047132773e-23 3.189329062043702e-16 3.1893283534200647e-16 7.086236373124431e-23
1.048180758391296 1.1495471009916635e-23 3.1983971267186867e-16 3.1983964022746617e-16 7.24444024989079e-23
1.0501480137395462 1.1539166348869128e-23 3.216580187063923e-16 3.2165794299586333e-16 7.571052890467872e-23
1.0521189612883777 1.158288189893515e-23 3.234825878557886e-16 3.2348250873842684e-16 7.911736171560484e-23
1.0531058218030118 1.160471747143416e-23 3.2439639426007023e-16 3.243963133846196e-16 8.087545072318593e-23
1.0540936079674168 1.1626460788150264e-23 3.25309048997371e-16 3.253089663260817e-16 8.267128919756427e-23
1.058054026499678 1.1713478113980103e-23 3.289751910041121e-16 3.2897510076038714e-16 9.024372488497267e-23
1.0590464539527713 1.1735243218994272e-23 3.29895611615293e-16 3.2989551937722924e-16 9.223806384858187e-23
1.06003981227728 1.1757012538190584e-23 3.3081758803542273e-16 3.3081749376089114e-16 9.427453166683106e-23
1.0620293250338977 1.1800563631496735e-23 3.326662118961605e-16 3.326661134189079e-16 9.847725258917412e-23
1.0660195594769086 1.1887714344533108e-23 3.363821693109513e-16 3.363820618844116e-16 1.074265396889902e-22
1.070024785945596 1.1974927349779679e-23 3.4012312299531306e-16 3.401230058448092e-16 1.171505038032906e-22
1.0740450607676866 1.2062199838805039e-23 3.4388913490435117e-16 3.4388900719173055e-16 1.2771262057816034e-22
1.07808044048254 1.214952910006323e-23 3.476802693017365e-16 3.476801301204846e-16 1.3918125197467903e-22
1.0861967418109137 1.2324210832102357e-23 3.5533423175352654e-16 3.5533406661544583e-16 1.6513808064768271e-22
1.0902777775684922 1.241124740670126e-23 3.5918817137618295e-16 3.591879915854329e-16 1.7979075008380359e-22
1.0943741465085532 1.2498325489285307e-23 3.6306726062039295e-16 3.630670649407834e-16 1.956796096363502e-22
1.1026131145906286 1.2672597607715051e-23 3.7090119427340354e-16 3.709009627060382e-16 2.3156736536403724e-22
1.1109141095355224 1.2847011152849699e-23 3.788366756026713e-16 3.7883640192169333e-16 2.7368097786114786e-22
1.1192775983109025 1.3021411603464934e-23 3.86870230118154e-16 3.868699070831905e-16 3.2303496351479617e-22
1.1277040513999907 1.319514170062101e-23 3.949832074263721e-16 3.9498282662858435e-16 3.8079778776967953e-22
1.1361939428280308 1.336895535327002e-23 4.031989343980723e-16 4.0319848608473384e-16 4.483133385419622e-22
1.1447477501889525 1.354284435194576e-23 4.1151826781845294e-16 4.1151774069323947e-16 5.271252135069474e-22
1.1533659546722406 1.3716869453935445e-23 4.1994417936474783e-16 4.199435603598693e-16 6.190048785466989e-22
1.1707974979042381 1.4065861947222145e-23 4.37137001860756e-16 4.3713615147674988e-16 8.50384006258126e-22
1.1884924949847024 1.4415338589874734e-23 4.547688655393545e-16 4.547677031273069e-16 1.1624120475189031e-21
1.2064549276569216 1.476772026506165e-23 4.729268722850085e-16 4.729252911818441e-16 1.5811031645277489e-21
1.2246888378427687 1.5120515280939918e-23 4.915433036656147e-16 4.915411635796702e-16 2.1400859443474628e-21
1.2431983285522175 1.5473379199652996e-23 5.106167056560822e-16 5.106138229766376e-16 2.8826794445939898e-21
1.2619875648066055 1.5826757492142782e-23 5.30171595769948e-16 5.30167731368787e-16 3.864401161006186e-21
1.3004222497298317 1.6532516700067348e-23 5.706801866630057e-16 5.706733395704296e-16 6.847092575945578e-21
1.3400274889804893 1.7239603445245382e-23 6.132116713272086e-16 6.131997614268316e-16 1.1909900377026184e-20
1.3808389325824078 1.795045916101083e-23 6.579426178766889e-16 6.57922271310969e-16 2.03465657197463e-20
1.4228933163050095 1.8671428646785156e-23 7.052113960049689e-16 7.051772397925478e-16 3.415621242119534e-20
1.466228494730424 1.9416374275157068e-23 7.556822535724881e-16 7.55625881923025e-16 5.637164946301196e-20
1.5108834753276823 2.0183944802403163e-23 8.094806172790655e-16 8.093891100684192e-16 9.150721064637435e-20
1.5568984535646726 2.0974173068805133e-23 8.667913477829065e-16 8.666450930168443e-16 1.4625476606207057e-19
1.6043148490894465 2.1793516539951248e-23 9.280819979055983e-16 9.27851411963881e-16 2.3058594171710295e-19
1.6531753430134553 2.2649271058692407e-23 9.938997503915532e-16 9.935415612972325e-16 3.5818909432055605e-19
1.7035239163302658 2.355049483973843e-23 1.0649217694285186e-15 1.0643734286781042e-15 5.483407504144961e-19
1.755405889504358 2.4519129651967494e-23 1.142489018233791e-15 1.141661335569154e-15 8.276826646372907e-19
1.8088679632656115 2.5559427740366372e-23 1.2272341339912568e-15 1.2260018656247053e-15 1.2322683665514578e-18
1.8639582606462262 2.667639488579608e-23 1.3198748503864728e-15 1.3180645674728134e-15 1.810282913659254e-18
1.9207263702978936 2.7880066021061464e-23 1.4214406459684346e-15 1.4188155222745529e-15 2.6251236938818345e-18
1.979223391128241 2.918347852115232e-23 1.533208803740574e-15 1.529449723179075e-15 3.7590805614989735e-18
2.039501978296691 3.060041046159239e-23 1.6566120496019382e-15 1.6512946969681654e-15 5.317352633772554e-18
2.1016163906111602 3.2155543565464e-23 1.793819477525214e-15 1.786386393102102e-15 7.433084423111331e-18
2.1656225393682647 3.386768433435579e-23 1.946873344932811e-15 1.93660145710457e-15 1.0271887828240793e-17
2.231578038680979 3.574654712699119e-23 2.1174619263910942e-15 2.1034249819638906e-15 1.4036944427203506e-17
2.299542257339062 3.780809592439334e-23 2.3077865290097968e-15 2.2888121706185393e-15 1.897435839125733e-17
2.369576372248914 4.007354750396164e-23 2.5205651874684593e-15 2.4951863127115217e-15 2.537887475693744e-17
2.4417434235010123 4.256631804126581e-23 2.7588973710356963e-15 2.7252990859828194e-15 3.359828505287666e-17
2.5161083711144245 4.5318712341641173e-23 3.026748509912542e-15 2.9827093110348045e-15 4.403919887773825e-17
2.5927381535095444 4.837417215145973e-23 3.3292134266826357e-15 3.2720427593000273e-15 5.717066738260805e-17
2.6717017477616296 5.1774878544392797e-23 3.671778685025762e-15 3.598254877642775e-15 7.352380738298667e-17
2.753070231689431 5.557473561141347e-23 4.061291188380014e-15 3.9675982030567575e-15 9.369298532325562e-17
2.836916847834745 5.988602655967475e-23 4.5096365125462705e-15 4.3912974594993035e-15 1.183390530469667e-16
2.9233170693905177 6.493273134321736e-23 5.038590076639485e-15 4.890432364299902e-15 1.4815771233958242e-16
2.967498994190263 6.792016883773484e-23 5.350061450036829e-15 5.185132637426356e-15 1.649288126104735e-16
3.0123486681368425 7.113343405887605e-23 5.687854087934962e-15 5.504497680818231e-15 1.8335640711673133e-16
3.0578761833420214 7.580236210896594e-23 6.15278966017149e-15 5.949155134401048e-15 2.0363452577043942e-16
3.1040917844459814 8.117704661682049e-23 6.68863095123433e-15 6.462920420242412e-15 2.2571053099191703e-16
3.127460860933648 8.564314277167833e-23 7.109743162543688e-15 6.8722090649691736e-15 2.3753409757451535e-16
3.1510058709225794 9.117285761641512e-23 7.625778955195896e-15 7.37591788559295e-15 2.49861069602946e-16
3.162844764501044 9.588107036295437e-23 8.04970905116718e-15 7.793467759027877e-15 2.562412921393027e-16
3.1747281389236908 1.0118801463374826e-22 8.527172513081605e-15 8.26442058320913e-15 2.627519298724735e-16
3.1986289994194426 1.1536402828552752e-22 9.794983657490538e-15 9.51877873821327e-15 2.7620491927726884e-16
3.2227097969389145 1.472079487142489e-22 1.2592788038460637e-14 1.2302325138401368e-14 2.904629000592651e-16
3.2348180950136065 1.7677924842211694e-22 1.5179259305258924e-14 1.488118685306598e-14 2.9807245219294347e-16
3.240889293275058 1.9876684990200963e-22 1.709927055739312e-14 1.6797184245901333e-14 3.0208631149178194e-16
3.2469718861334385 2.242056572935154e-22 1.9323888732356737e-14 1.901764923215955e-14 3.0623950019718797e-16
3.2714166318528037 3.5788177858398526e-22 3.1077414289772e-14 3.075400943633236e-14 3.2340485343965034e-16
3.2744851364798273 3.663037332724649e-22 3.183858816711531e-14 3.151315970661517e-14 3.2542846050015204e-16
3.2775565192852394 3.74951891048574e-22 3.262084231109504e-14 3.2293380064266905e-14 3.2746224682813455e-16
3.283707930232385 3.670273187726003e-22 3.199133369945336e-14 3.166023291513016e-14 3.311007843232039e-16
3.2898708863219004 3.4127934461188714e-22 2.980288391514321e-14 2.946847050221388e-14 3.3441341292932953e-16
3.29141343181113 3.35199638489245e-22 2.9285686684559655e-14 2.8950441418547314e-14 3.352452660123424e-16
3.292184975758714 3.322111431881293e-22 2.9031391828642194e-14 2.869573008099153e-14 3.3566174765066104e-16
3.295272960557952 3.1346063994740605e-22 2.7418509583851107e-14 2.708122754559579e-14 3.372820382553128e-16
3.3076538914384823 2.481616663764626e-22 2.1788342274698848e-14 2.144455169061467e-14 3.4379058408417697e-16
3.310756385682612 2.3477985711798266e-22 2.0632767882160087e-14 2.0287336627425517e-14 3.454312547345703e-16
3.313861789986515 2.2239768619908503e-22 1.956293847724433e-14 1.9215861127624905e-14 3.4707734961943333e-16
3.3200813396944477 2.0516935800298795e-22 1.8081341815142616e-14 1.773072451814766e-14 3.506172969949576e-16
3.345076488085796 1.7555824716224982e-22 1.5588227012467085e-14 1.5221836023690924e-14 3.6639098877616414e-16
3.3482140837626964 1.7692318718257836e-22 1.572415826126519e-14 1.5355630557275244e-14 3.6852770398994887e-16
3.3513546224236106 1.7830031748072901e-22 1.5861415230374754e-14 1.5490741110201124e-14 3.706741201736301e-16
3.3576445397418455 1.873460213488335e-22 1.66973912941599e-14 1.6322229778557766e-14 3.7516151560212904e-16
3.3702598118196083 2.1978830112838814e-22 1.966243893660766e-14 1.9277864798907223e-14 3.845741377004403e-16
3.382922481734668 2.279053657701582e-22 2.046520171119885e-14 2.007147483151394e-14 3.9372687968490964e-16
3.389271646505754 2.3208835940510283e-22 2.087993633396785e-14 2.04815695167944e-14 3.9836681717345086e-16
3.395632727569191 2.3665261847960786e-22 2.1330520737504896e-14 2.092737216087962e-14 4.0314857662527678e-16
3.421196662673239 2.5854933176856966e-22 2.3479610728824127e-14 2.3056663699328714e-14 4.2294702949540866e-16
3.4276182099114902 2.5501306556500843e-22 2.3201940381807772e-14 2.2774570799121497e-14 4.2736958268627506e-16
3.4340518103208963 2.3807947907650844e-22 2.1701924079595064e-14 2.1270369494166995e-14 4.3155458542806654e-16
3.4469541582030403 2.1395881180047235e-22 1.9576503128800105e-14 1.9136911825570625e-14 4.395913032294838e-16
3.472904465399547 2.08245753059406e-22 1.919722358030773e-14 1.8739125378523947e-14 4.580982017837744e-16
3.4990501388274233 1.9900651054252503e-22 1.848361370081372e-14 1.8006567916668157e-14 4.770457841455629e-16
3.5253949054701885 1.632388652658182e-22 1.5275687764405185e-14 1.4780219670049696e-14 4.954680943554886e-16
3.5519380250092896 1.2930909426102608e-22 1.2191689186483717e-14 1.1677693104787913e-14 5.139960816958042e-16
3.578680990867387 1.1679124086465859e-22 1.1094371189341022e-14 1.0560066244333797e-14 5.343049450072266e-16
3.605625307711299 1.1270392288192795e-22 1.0786711398063772e-14 1.0231010503532337e-14 5.557008945314366e-16
3.660119384959845 1.117978992423649e-22 1.0861713103325596e-14 1.0261030805587596e-14 6.006822977379982e-16
3.715437065384467 1.1207503330395103e-22 1.1053204851378485e-14 1.0405060173943185e-14 6.481446774353e-16
3.8285932144167436 1.1723139807708442e-22 1.191386302499014e-14 1.1163561846065368e-14 7.503011789247712e-16
3.94519561050918 1.2378451673510253e-22 1.2962963547712582e-14 1.2101044904878e-14 8.619186428345827e-16
4.06534921144712 1.3099927427272597e-22 1.4136313891789163e-14 1.3153398563276026e-14 9.829153285131353e-16
4.189162171576248 1.3863968329643663e-22 1.541644237247396e-14 1.4302884125774927e-14 1.1135582466990315e-15
4.316745939156006 1.4658505990027876e-22 1.679637765941762e-14 1.5542970023271265e-14 1.2534076361463597e-15
4.448215356677963 1.5475234516435947e-22 1.8272268878938678e-14 1.6871692093256536e-14 1.4005767856821424e-15
4.58368876423945 1.6310325095446122e-22 1.984482034219836e-14 1.8289544625781805e-14 1.555275716416555e-15
4.723288106065518 1.716236000550743e-22 2.1517453730001933e-14 1.9798958395851222e-14 1.7184953341507162e-15
4.867139040275056 1.8027915051355362e-22 2.3291029690425477e-14 2.1405031689448533e-14 1.8859980009769457e-15
4.940699165968905 1.847129542516349e-22 2.4224521000944453e-14 2.2252655803979543e-14 1.9718651969649112e-15
5.015371051989984 1.8912137824087512e-22 2.5177530234449407e-14 2.3118646030182924e-14 2.058884204266485e-15
5.091171501069577 1.9371031092032267e-22 2.6178207040431087e-14 2.4029294537869713e-14 2.148912502561375e-15
5.129500256944802 1.9599033400558317e-22 2.6685733340711224e-14 2.4491459066857947e-14 2.194274273853272e-15
5.168117569889187 1.9827999614747352e-22 2.7200740031537302e-14 2.4960443211022767e-14 2.240296820514541e-15
5.20702561229733 2.007341629001023e-22 2.7744725872449953e-14 2.5454236016379424e-14 2.2904898560705323e-15
5.246226572918644 2.031827602425955e-22 2.829458522062442e-14 2.595353743576608e-14 2.3410477848583407e-15
5.265937586045735 2.04404810799937e-22 2.857171131436396e-14 2.6205253784121756e-14 2.3664575302421987e-15
5.285722656980489 2.0562528074296846e-22 2.8850298646895983e-14 2.6458347465754724e-14 2.3919511811412596e-15
5.305582063971359 2.0684411077972312e-22 2.913034510301936e-14 2.6712818858895186e-14 2.4175262441241715e-15
5.3255160863122235 2.0809126148458444e-22 2.941609211836396e-14 2.6972711701842096e-14 2.4433804165218687e-15
5.365609099470188 2.1081354887957766e-22 3.002527420121316e-14 2.752840264522244e-14 2.4968715559907048e-15
5.406003951863644 2.1354238217398772e-22 3.0642900787969105e-14 2.809216240218924e-14 2.5507383857798628e-15
5.446702915881641 2.162781787305655e-22 3.126913191318971e-14 2.8664170822229634e-14 2.6049610909600727e-15
5.487708281020852 2.1907840302416654e-22 3.191244037203132e-14 2.925269158219348e-14 2.659748789837834e-15
5.529022354014368 2.223947260063087e-22 3.2639407224886346e-14 2.9922538974416506e-14 2.716868250469841e-15
5.570647458961463 2.2575951960931467e-22 3.3382678518531503e-14 3.060829700863421e-14 2.7743815098972923e-15
5.612585937458331 2.2917697996292524e-22 3.414313764956987e-14 3.1310869199479506e-14 2.8322684500903578e-15
5.654840148729818 2.327379201733511e-22 3.493469169057707e-14 3.204389951842337e-14 2.8907921721537056e-15
5.67608639626678 2.3492404030277883e-22 3.539532396704641e-14 3.247390900238149e-14 2.9214149646649165e-15
5.686739436050992 2.360311666345932e-22 3.562887549727987e-14 3.2692108013435794e-14 2.9367674838440725e-15
5.6974124697621304 2.3714799264451687e-22 3.586464593349046e-14 3.291249893462615e-14 2.952146998864314e-15
5.718818669136295 2.394117494599489e-22 3.6343037273560795e-14 3.3360051525216364e-14 2.9829857483444255e-15
5.740305295436557 2.4182519407335454e-22 3.6847325328125334e-14 3.383316659116818e-14 3.0141587369571606e-15
5.7835210386641895 2.4768479014940917e-22 3.802428802776969e-14 3.494568317180717e-14 3.0786048559625155e-15
5.827062130521658 2.5410070876521893e-22 3.9302932747268084e-14 3.6158844091810984e-14 3.144088655457087e-15
5.8489554468988025 2.5838287649345936e-22 4.011543214998434e-14 3.6935967990952704e-14 3.179464159031626e-15
5.870931020387893 2.628645376889645e-22 4.0964571029526894e-14 3.7749562997409097e-14 3.215008032117808e-15
5.892989160043636 2.675615203084117e-22 4.1853205926904177e-14 3.860248796879106e-14 3.2507179581131122e-15
5.915130176081913 2.727882333198612e-22 4.283111427278669e-14 3.954337477747005e-14 3.2877394953166438e-15
5.95966208400165 2.869730553909248e-22 4.539752645938727e-14 4.202531746434155e-14 3.3722089950457202e-15
6.004529249263818 3.066936574662073e-22 4.88824756334989e-14 4.541514796127593e-14 3.467327672222971e-15
6.027089341400364 3.2014858876298154e-22 5.121871211442985e-14 4.769636883173458e-14 3.5223432826952594e-15
6.049734195844842 3.3576612147707533e-22 5.3919095817920816e-14 5.0338463310172985e-14 3.58063250774784e-15
6.095279466722835 3.8024732798933707e-22 6.15218273589981e-14 5.779772329077262e-14 3.724104068225497e-15
6.141167624020661 4.473279296767379e-22 7.29199562893614e-14 6.900940052629568e-14 3.910555763065715e-15
6.164241091010745 4.899704678329279e-22 8.017130512923224e-14 7.614360825355005e-14 4.027696875682193e-15
6.187401249150058 5.3770759147827e-22 8.83128462007274e-14 8.416486910036605e-14 4.147977100361346e-15
6.1990139391386085 5.609251773515881e-22 9.229899662876859e-14 8.808981833167161e-14 4.2091782970969925e-15
6.204828454712694 5.730835011327475e-22 9.438807252009695e-14 9.014798276349063e-14 4.240089756606332e-15
6.210648424152782 5.819366443077041e-22 9.593610531936017e-14 9.166970568480063e-14 4.266399634559541e-15
6.233982942956859 6.116980044269714e-22 1.0122134560391439e-13 9.686332980620377e-14 4.358015797710594e-15
6.239830258556775 6.153388692955928e-22 1.0191932952287854e-13 9.754868504386303e-14 4.370644479015526e-15
6.245683058788269 6.154548710084175e-22 1.020341587589304e-13 9.765086567984373e-14 4.383293079086695e-15
6.257405133728602 6.141696961217618e-22 1.0201219472302522e-13 9.760681160395019e-14 4.405383119075017e-15
6.269149208991335 6.077452815053155e-22 1.0113457066427161e-13 9.672130815535636e-14 4.413262508915259e-15
6.280915325867298 5.923592801592709e-22 9.875920116392848e-14 9.435563032383026e-14 4.403570840098219e-15
6.304513850009849 5.547230739104497e-22 9.283190593961475e-14 8.846361522998577e-14 4.36829070962898e-15
6.32820103803542 5.087612226080903e-22 8.546016027848512e-14 8.114406336319654e-14 4.31609691528857e-15
6.3519772230701035 4.668737157386788e-22 7.871867759118167e-14 7.444939196824698e-14 4.26928562293469e-15
6.375842739491607 4.314890180662019e-22 7.30258761958355e-14 6.879788250912406e-14 4.227993686711441e-15
6.399797922933955 4.036597787628259e-22 6.857268771286338e-14 6.436592404126203e-14 4.206763671601367e-15
6.42384311029221 3.8042277423897993e-22 6.486805361738713e-14 6.067852321276234e-14 4.189530404624778e-15
6.447978639727206 3.637654379237432e-22 6.226076558719313e-14 5.807282189292527e-14 4.187943694267867e-15
6.472204850670314 3.4987264237754654e-22 6.0107916251942e-14 5.591845469148717e-14 4.189461560454831e-15
6.496522083828205 3.410614593623457e-22 5.881430889725836e-14 5.4610649915241304e-14 4.203658982017062e-15
