Dust emission spectrum from A.P. Jones, M. Kohler, N. Ysard, M. Bocchio, and L. Verstraete (2017), A&A, 602A, 46J 
inside the DustPedia framework.

lambda    nu*dP/dnu     j_nu    j_nu(carb.) j_nu(sil)
 (um)   (erg s-1 H-1) (Jy cm2 sr-1 H-1)
0.9927057738263894 4.520846063695333e-25 1.1912686156767356e-17 1.1912686156750719e-17 1.663816681322488e-29
1.0001793341362166 4.5954934748228655e-25 1.2200551533642598e-17 1.2200551533622553e-17 2.004282268697488e-29
1.0077091589558085 4.670033356207751e-25 1.2491788469146473e-17 1.2491788469122359e-17 2.4113152365913693e-29
1.0114953028030835 4.707253793134137e-25 1.2638656701408084e-17 1.2638656701381647e-17 2.643574449419042e-29
1.0152956718711033 4.7444363606697265e-25 1.2786350156408838e-17 1.2786350156379863e-17 2.897269026874374e-29
1.0229392996569957 4.818636860289392e-25 1.3084089172096871e-17 1.3084089172062105e-17 3.476701922961693e-29
1.0267826658714554 4.855564760554609e-25 1.3233895842734404e-17 1.3233895842696335e-17 3.806809175194054e-29
1.0306404723013447 4.892438464930478e-25 1.338449524772021e-17 1.3384495247678544e-17 4.166909661243732e-29
1.03451277320114 4.929254415303564e-25 1.3535880901463806e-17 1.353588090141821e-17 4.5595954863765405e-29
1.0383996230291617 4.966009073364355e-25 1.368804623752218e-17 1.3688046237472304e-17 4.987670378367467e-29
1.0403485208654093 4.984362317638308e-25 1.3764419212680376e-17 1.3764419212628213e-17 5.215916714994993e-29
1.0423010764483396 5.002698921285672e-25 1.3840984610154378e-17 1.3840984610099836e-17 5.454165873659016e-29
1.0462171883269815 5.039320462386136e-25 1.3994689295878108e-17 1.3994689295818484e-17 5.962358651002517e-29
1.0471985131304309 5.048464767019158e-25 1.403323440854544e-17 1.403323440848448e-17 6.096330861426159e-29
1.048180758391296 5.057604531107544e-25 1.4071826884187053e-17 1.4071826884124724e-17 6.233187053716776e-29
1.0501480137395462 5.0758702217785405e-25 1.414915349502757e-17 1.4149153494962413e-17 6.515789086873904e-29
1.0521189612883777 5.094117103547487e-25 1.42266682667935e-17 1.4226668266725395e-17 6.810651757642539e-29
1.0531058218030118 5.10321933861447e-25 1.4265456756184217e-17 1.4265456756114588e-17 6.962848053577397e-29
1.0540936079674168 5.112270782449975e-25 1.4304163380061905e-17 1.4304163379990726e-17 7.118334180988251e-29
1.058054026499678 5.148424961544592e-25 1.4459446362673653e-17 1.4459446362595913e-17 7.774210146184959e-29
1.0590464539527713 5.157450342887924e-25 1.449838067683721e-17 1.4498380676757737e-17 7.947010332822349e-29
1.06003981227728 5.16647035344973e-25 1.4537360196162543e-17 1.4537360196081305e-17 8.123487041850622e-29
1.0620293250338977 5.184494052190863e-25 1.461545440369576e-17 1.4615454403610884e-17 8.487769236552913e-29
1.0660195594769086 5.220474695415769e-25 1.4772180353445853e-17 1.477218035335321e-17 9.263824445434023e-29
1.070024785945596 5.256363557704456e-25 1.49296169957815e-17 1.4929616995680423e-17 1.0107567056227479e-28
1.0740450607676866 5.292157331548387e-25 1.5087757049664228e-17 1.5087757049553982e-17 1.102459440334239e-28
1.07808044048254 5.327852735978379e-25 1.5246593170720635e-17 1.524659317060042e-17 1.2020939513188906e-28
1.0861967418109137 5.398872328014597e-25 1.556614193919291e-17 1.5566141939050126e-17 1.4278087432080906e-28
1.0902777775684922 5.434046555000375e-25 1.5726422826844652e-17 1.572642282668912e-17 1.5553435130078999e-28
1.0943741465085532 5.469107056207098e-25 1.588735801959274e-17 1.5887358019423364e-17 1.6937255949984324e-28
1.1026131145906286 5.538874420977988e-25 1.6211160499726142e-17 1.6211160499525482e-17 2.0065898775846908e-28
1.1109141095355224 5.608149803594686e-25 1.6537487222499342e-17 1.6537487222261922e-17 2.374206057217537e-28
1.1192775983109025 5.676844715804868e-25 1.6866084019370506e-17 1.686608401908994e-17 2.8055904659807413e-28
1.1277040513999907 5.744639893743486e-25 1.7195997907574623e-17 1.719599790724351e-17 3.311145461802434e-28
1.1361939428280308 5.811863061902626e-25 1.752819821373314e-17 1.7528198213342853e-17 3.902854849168433e-28
1.1447477501889525 5.878491810621504e-25 1.7862619582896993e-17 1.786261958243754e-17 4.594507338904567e-28
1.1533659546722406 5.944540591336378e-25 1.8199307274248085e-17 1.819930727370789e-17 5.401954707175262e-28
1.1707974979042381 6.075111824929638e-25 1.888015237944967e-17 1.8880152378705698e-17 7.439717287534554e-28
1.1884924949847024 6.2030819911331045e-25 1.9569214710895774e-17 1.956921470987622e-17 1.0195590762798099e-27
1.2064549276569216 6.32945269038166e-25 2.0269670676387473e-17 2.026967067499704e-17 1.3904283907876632e-27
1.2246888378427687 6.452842874039975e-25 2.0977140298512107e-17 2.0977140296625072e-17 1.8870330018555916e-27
1.2431983285522175 6.572963860095956e-25 2.1690576501311038e-17 2.169057649876228e-17 2.5487508779916805e-27
1.2619875648066055 6.689770849024073e-25 2.2409684915707785e-17 2.240968491228154e-17 3.426239641807295e-27
1.3004222497298317 6.911500551353399e-25 2.3857568066159926e-17 2.3857568060054534e-17 6.105390515394635e-27
1.3400274889804893 7.117165198755091e-25 2.5315714369544382e-17 2.5315714358862034e-17 1.0682346265919024e-26
1.3808389325824078 7.30600317978377e-25 2.6778874095673318e-17 2.6778874077313122e-17 1.8360198512497433e-26
1.4228933163050095 7.478935937554197e-25 2.824760200694361e-17 2.8247601975929573e-17 3.101403377378243e-26
1.466228494730424 7.640130343847238e-25 2.973526794450569e-17 2.97352678929917e-17 5.1513995703039085e-26
1.5108834753276823 7.78645140144434e-25 3.1227698790100523e-17 3.1227698705928214e-17 8.417230008178355e-26
1.5568984535646726 7.915363068042614e-25 3.2711507621456654e-17 3.27115074860185e-17 1.354381485574061e-25
1.6043148490894465 8.027102834535452e-25 3.4183605121333105e-17 3.4183604906335007e-17 2.14998096746204e-25
1.6531753430134553 8.122012552536724e-25 3.5641174622020504e-17 3.564117428569857e-17 3.363219181544561e-25
1.7035239163302658 8.201222759733054e-25 3.708482862973832e-17 3.708482811116724e-17 5.185710732394398e-25
1.755405889504358 8.271257166746758e-25 3.854060325194874e-17 3.8540602463429033e-17 7.885197098112279e-25
1.8088679632656115 8.330506955898447e-25 3.9998870841635006e-17 3.9998869658801915e-17 1.1828330929538087e-24
1.8639582606462262 8.377883050953962e-25 4.1451467433183624e-17 4.145146568206709e-17 1.751116543925279e-24
1.9207263702978936 8.414177937092795e-25 4.289894619747095e-17 4.2898943637982704e-17 2.5594882332890307e-24
1.979223391128241 8.44123419921984e-25 4.434760777163463e-17 4.434760407669537e-17 3.694939275400609e-24
2.039501978296691 8.461256458063187e-25 4.580663851157461e-17 4.580663324127861e-17 5.270295995598076e-24
2.1016163906111602 8.48041712371035e-25 4.730859978491695e-17 4.730859235441416e-17 7.43050280000135e-24
2.1656225393682647 8.502295532245863e-25 4.8875182545856377e-17 4.8875172187058976e-17 1.0358797407447686e-23
2.231578038680979 8.527148541855432e-25 5.05109271502945e-17 5.051091286639828e-17 1.4283896231294311e-23
2.299542257339062 8.557119249866294e-25 5.2232211247725575e-17 5.223219175976155e-17 1.9487964036759596e-23
2.369576372248914 8.596945336957146e-25 5.4073478602714885e-17 5.407345228713806e-17 2.631557683260833e-23
2.4417434235010123 8.652220833189225e-25 5.607858609514864e-17 5.607855091313209e-17 3.518201655591332e-23
2.5161083711144245 8.73252554731286e-25 5.832283690862084e-17 5.832279032486578e-17 4.658375505592365e-23
2.5927381535095444 8.8535361737701e-25 6.093191922964287e-17 6.093185812202397e-17 6.110761887424653e-23
2.6717017477616296 9.033968345820164e-25 6.406723365838259e-17 6.406715422198238e-17 7.943640020320345e-23
2.753070231689431 9.301999571095774e-25 6.79771635020561e-17 6.79770611448584e-17 1.0235719769696293e-22
2.836916847834745 9.721471568748632e-25 7.320623133749519e-17 7.320610056473789e-17 1.307727572855377e-22
2.9233170693905177 1.0432993311696363e-24 8.095697729408763e-17 8.095681161373575e-17 1.6568035187454532e-22
2.967498994190263 1.1037094973183125e-24 8.693903055143169e-17 8.693884493144426e-17 1.8561998745440691e-22
3.0123486681368425 1.174258210848361e-24 9.389409429238198e-17 9.389388660850946e-17 2.0768387251054825e-22
3.0578761833420214 1.3320848746415475e-24 1.0812378157007214e-16 1.0812354944420069e-16 2.321258714474663e-22
3.1040917844459814 1.5354574110898025e-24 1.2651492499592046e-16 1.2651466603128945e-16 2.5896463101943056e-22
3.127460860933648 1.750584628672591e-24 1.4532637046424366e-16 1.453260970335605e-16 2.734306831474539e-22
3.1510058709225794 2.0372097300312855e-24 1.7039403494352965e-16 1.7039374636323022e-16 2.885802994199229e-22
3.162844764501044 2.304007264181457e-24 1.9343326120817132e-16 1.9343296476045766e-16 2.964477136867182e-22
3.1747281389236908 2.6142713819095784e-24 2.2030616126072577e-16 2.203058567663705e-16 3.0449435520468254e-22
3.1986289994194426 3.479687304718445e-24 2.9544287582033276e-16 2.954425546423819e-16 3.2117795090944082e-22
3.2227097969389145 5.519665613197701e-24 4.721754478428552e-16 4.721751089103136e-16 3.389325415623132e-22
3.2348180950136065 7.454199464100749e-24 6.400594390384977e-16 6.40059090610695e-16 3.4842780260040316e-22
3.240889293275058 8.900512114222156e-24 7.656823299029451e-16 7.656819764656442e-16 3.5343730074436977e-22
3.2469718861334385 1.057367174753854e-23 9.113260513065934e-16 9.113256926850823e-16 3.586215107840117e-22
3.2714166318528037 1.949856689853506e-23 1.6931989216109395e-15 1.6931985415026866e-15 3.801082530958263e-22
3.2744851364798273 2.005648390331863e-23 1.743280433899254e-15 1.7432800512420398e-15 3.826572142407841e-22
3.2775565192852394 2.0630425494534708e-23 1.794848547065545e-15 1.7948481618449823e-15 3.852205626983561e-22
3.283707930232385 2.0078450008893074e-23 1.7501051326379986e-15 1.7501047428001997e-15 3.8983779872444785e-22
3.2898708863219004 1.8328002748280004e-23 1.6005285609200882e-15 1.6005281668496456e-15 3.940704428118834e-22
3.29141343181113 1.7915203878134807e-23 1.5652136441128584e-15 1.565213248978709e-15 3.951341492557918e-22
3.292184975758714 1.7712369174455434e-23 1.547855152546712e-15 1.5478547568798755e-15 3.9566683626037233e-22
3.295272960557952 1.6432060963547412e-23 1.4373180029462218e-15 1.437317605201599e-15 3.9774462290440437e-22
3.3076538914384823 1.1996689025854007e-23 1.053297112624573e-15 1.0532967065178674e-15 4.0610670558466413e-22
3.310756385682612 1.1093979018538082e-23 9.749537153181876e-16 9.749533071002347e-16 4.0821795293355886e-22
3.313861789986515 1.0261088900220484e-23 9.026040436628153e-16 9.026036333252866e-16 4.10337528457787e-22
3.3200813396944477 9.093052380898668e-24 8.01360348554733e-16 8.01359933671913e-16 4.1488281978504745e-22
3.345076488085796 7.009380705403626e-24 6.223792924502002e-16 6.223788573424153e-16 4.351077848563376e-22
3.3482140837626964 7.087511578558036e-24 6.299069981414514e-16 6.299065602946219e-16 4.37846829473603e-22
3.3513546224236106 7.166506213920667e-24 6.375251172636993e-16 6.375246766636116e-16 4.40600087668609e-22
3.3576445397418455 7.743832462144373e-24 6.901763902212028e-16 6.901759438695898e-16 4.463516129901236e-22
3.3702598118196083 9.873262892367775e-24 8.832700727453836e-16 8.832696143242119e-16 4.584211720873739e-22
3.382922481734668 1.0358242490423478e-23 9.301383546792482e-16 9.301378844652682e-16 4.702139799780854e-22
3.389271646505754 1.0609494992922823e-23 9.54488112008726e-16 9.544876358046358e-16 4.762040902554104e-22
3.395632727569191 1.088023121252089e-23 9.806821449876462e-16 9.806816626094407e-16 4.823782052573339e-22
3.421196662673239 1.218020083819346e-23 1.1061191778119514e-15 1.1061186698022057e-15 5.080097456102748e-22
3.4276182099114902 1.1918203882589955e-23 1.0843579929107186e-15 1.0843574791134126e-15 5.137973059513487e-22
3.4340518103208963 1.077018393091088e-23 9.817465784894073e-16 9.817460591855013e-16 5.193039061198318e-22
3.4469541582030403 9.135191136934792e-24 8.358388998774397e-16 8.358383699372203e-16 5.299402195202356e-22
3.472904465399547 8.676946202324973e-24 7.998879871169158e-16 7.998874327603054e-16 5.543566101390166e-22
3.4990501388274233 7.976098543162125e-24 7.408155839199474e-16 7.408150044148728e-16 5.795050745029968e-22
3.5253949054701885 5.48201901747613e-24 5.130004468796802e-16 5.129998426906508e-16 6.041890294001128e-22
3.5519380250092896 3.137891198580049e-24 2.9585076295458423e-16 2.9585013374630117e-16 6.292082830226451e-22
3.578680990867387 2.2084131582826985e-24 2.0978418532093237e-16 2.0978352864386301e-16 6.566770693633953e-22
3.605625307711299 1.8324334873987553e-24 1.7537926524017527e-16 1.7537857949447248e-16 6.857457028102526e-22
3.660119384959845 1.5580875384843493e-24 1.5137583038296263e-16 1.5137508296349437e-16 7.474194682434457e-22
3.715437065384467 1.3637667070850109e-24 1.344991149100921e-16 1.3449830158173347e-16 8.133283586399061e-22
3.8285932144167436 1.2649263017918728e-24 1.2855053290711824e-16 1.2854957473977443e-16 9.58167343830987e-22
3.94519561050918 1.2456732359598098e-24 1.3044940656563618e-16 1.3044828550775685e-16 1.1210578793412981e-21
4.06534921144712 1.259079139555388e-24 1.3586898118461158e-16 1.3586767797094123e-16 1.3032136703601158e-21
4.189162171576248 1.2913752457515237e-24 1.435982222694493e-16 1.4359671580009483e-16 1.506469354451328e-21
4.316745939156006 1.3374214294752647e-24 1.532477827859591e-16 1.5324605090427658e-16 1.731881682522375e-21
4.448215356677963 1.3954800450937307e-24 1.647702758369481e-16 1.6476829731184085e-16 1.978525107256607e-21
4.58368876423945 1.4657385535588617e-24 1.7833683935662655e-16 1.783345907083236e-16 2.2486483029539584e-21
4.723288106065518 1.549807024651293e-24 1.943083639584811e-16 1.9430581799039815e-16 2.5459680829679443e-21
4.867139040275056 1.6509283841670012e-24 2.1329045484662925e-16 2.1328758826760616e-16 2.866579023096806e-21
4.940699165968905 1.7119797775062232e-24 2.2452074485742055e-16 2.245177076649e-16 3.0371925205269295e-21
5.015371051989984 1.775173608293376e-24 2.3632699597439397e-16 2.3632378129588845e-16 3.2146785055191787e-21
5.091171501069577 1.8523802569684496e-24 2.503325385940495e-16 2.5032913614827542e-16 3.402445774116717e-21
5.129500256944802 1.891992616981415e-24 2.5761071695465427e-16 2.576072178986825e-16 3.499055971805019e-21
5.168117569889187 1.933290906643231e-24 2.652155758457112e-16 2.652119776792604e-16 3.598166450715664e-21
5.20702561229733 1.9840568700578032e-24 2.7422892635619603e-16 2.7422522138836265e-16 3.704967833359779e-21
5.246226572918644 2.0361116304136768e-24 2.835424323237769e-16 2.835386183065098e-16 3.814017267102546e-21
5.265937586045735 2.0626351552745116e-24 2.8831521123562414e-16 2.883113418425354e-16 3.869393088722029e-21
5.285722656980489 2.0894965197925777e-24 2.9316725258612003e-16 2.9316332724546615e-16 3.925340653882171e-21
5.305582063971359 2.1167011769349483e-24 2.9810003065422946e-16 2.9809604879099264e-16 3.981863236881808e-21
5.3255160863122235 2.1459425424487655e-24 3.0335364906260326e-16 3.033496097908196e-16 4.039271783730295e-21
5.365609099470188 2.2188877491829217e-24 3.160267138664156e-16 3.1602255561549624e-16 4.158250919310604e-21
5.406003951863644 2.2946091462633397e-24 3.2927178061929067e-16 3.2926750085295884e-16 4.279766331857818e-21
5.446702915881641 2.3732412987342923e-24 3.43119198004716e-16 3.43114794153739e-16 4.403850977001313e-21
5.487708281020852 2.4582313659090876e-24 3.580825896223885e-16 3.5807805870764e-16 4.530914748566475e-21
5.529022354014368 2.5765826585762993e-24 3.7814804402990417e-16 3.7814338007382856e-16 4.66395607560149e-21
5.570647458961463 2.7019253622545515e-24 3.995291357161844e-16 3.99524335825606e-16 4.7998905785188016e-21
5.612585937458331 2.8347640742526226e-24 4.2232749557534304e-16 4.223225568146672e-16 4.9387606757820184e-21
5.654840148729818 2.9808301505404422e-24 4.474319535619462e-16 4.474268724620677e-16 5.0810998785526565e-21
5.67608639626678 3.0804340320209458e-24 4.641200635829804e-16 4.641149080357091e-16 5.155547271395465e-21
5.686739436050992 3.1317787421375657e-24 4.727416149299896e-16 4.727364218477441e-16 5.193082245457307e-21
5.6974124697621304 3.184184838164507e-24 4.815544105352947e-16 4.815491797094274e-16 5.230825867165918e-21
5.718818669136295 3.2922836021383867e-24 4.9977323977436975e-16 4.997679328319033e-16 5.3069424664573805e-21
5.740305295436557 3.41147674057269e-24 5.198126431404165e-16 5.198072587964755e-16 5.384343941009245e-21
5.7835210386641895 3.7209171247023914e-24 5.712309762412024e-16 5.712254310475223e-16 5.545193680070471e-21
5.827062130521658 4.077497777171908e-24 6.306854541731943e-16 6.306797433440239e-16 5.7108291703276664e-21
5.8489554468988025 4.327810901441659e-24 6.719176089795574e-16 6.719118092379975e-16 5.799741559726946e-21
5.870931020387893 4.596458337112025e-24 7.163078964180549e-16 7.163020066482986e-16 5.889769756267798e-21
5.892989160043636 4.8849167902535544e-24 7.641211939691847e-16 7.641152130436747e-16 5.980925509890428e-21
5.915130176081913 5.213040225881133e-24 8.185115571372113e-16 8.185054817819446e-16 6.0753552671122686e-21
5.95966208400165 6.130836798025015e-24 9.69863966417969e-16 9.698576799397077e-16 6.2864782614146194e-21
6.004529249263818 7.45413367769109e-24 1.1880796977639702e-15 1.1880731752773911e-15 6.5224865791373246e-21
6.027089341400364 8.374183289369019e-24 1.339736916376675e-15 1.3397302594652534e-15 6.656911421457133e-21
6.049734195844842 9.461553461129774e-24 1.5193861888530885e-15 1.5193793897326513e-15 6.799120436812308e-21
6.095279466722835 1.2602973801358905e-23 2.039088565111288e-15 2.039081423528881e-15 7.141582407226288e-21
6.141167624020661 1.7438163270854684e-23 2.842635165652158e-15 2.842627588040552e-15 7.577611606283615e-21
6.164241091010745 2.0525993724535814e-23 3.3585610031737437e-15 3.358553156308176e-15 7.84686556768229e-21
6.187401249150058 2.4043705868269085e-23 3.948927134546108e-15 3.948919009228836e-15 8.125317272415273e-21
6.1990139391386085 2.576130823576094e-23 4.238966261474831e-15 4.238957994098064e-15 8.267376766859602e-21
6.204828454712694 2.6666098349939945e-23 4.391963160529283e-15 4.391954821190095e-15 8.339339187120058e-21
6.210648424152782 2.7326534647929835e-23 4.504960001471822e-15 4.504951599677422e-15 8.401794400281115e-21
6.233982942956859 2.957024412909728e-23 4.893166037687831e-15 4.89315741293221e-15 8.624755619635614e-21
6.239830258556775 2.985699430480614e-23 4.945250483847566e-15 4.945241824367671e-15 8.659479895342963e-21
6.245683058788269 2.988172778451282e-23 4.953989480594139e-15 4.953980786268469e-15 8.694325669755988e-21
6.257405133728602 2.981978205134595e-23 4.952998222525439e-15 4.9529894649596854e-15 8.757565754805514e-21
6.269149208991335 2.937808661849279e-23 4.888791846708999e-15 4.88878305520436e-15 8.791504638303113e-21
6.280915325867298 2.827088483151545e-23 4.713372602868964e-15 4.713363813845546e-15 8.789023417113668e-21
6.304513850009849 2.5540645723391685e-23 4.2741809975866885e-15 4.274172246657415e-15 8.750929274373114e-21
6.32820103803542 2.2156594114521107e-23 3.721797181289744e-15 3.721788503897976e-15 8.677391767116149e-21
6.3519772230701035 1.9053147788561278e-23 3.21251453509623e-15 3.212505920175691e-15 8.614920540094129e-21
6.375842739491607 1.6442302005095303e-23 2.7827209044157083e-15 2.782712340544018e-15 8.563871689909749e-21
6.399797922933955 1.4349593455863186e-23 2.437672125449999e-15 2.437663570162774e-15 8.555287225488808e-21
6.42384311029221 1.2609700027280765e-23 2.1501517597234424e-15 2.15014320438257e-15 8.55534087217958e-21
6.447978639727206 1.1341607702394238e-23 1.941188207904184e-15 1.9411796187424987e-15 8.589161685062088e-21
6.472204850670314 1.0285190664188544e-23 1.7669897676971833e-15 1.7669811376357142e-15 8.630061469031925e-21
6.496522083828205 9.59837756716568e-24 1.655191249703902e-15 1.655182550863317e-15 8.698840585108133e-21
