Dust emission spectrum from A.P. Jones, M. Kohler, N. Ysard, M. Bocchio, and L. Verstraete (2017), A&A, 602A, 46J 
inside the DustPedia framework.

lambda    nu*dP/dnu     j_nu    j_nu(carb.) j_nu(sil)
 (um)   (erg s-1 H-1) (Jy cm2 sr-1 H-1)
0.9927057738263894 3.2580799427611073e-25 8.585225704421878e-18 8.585225702132697e-18 2.2891800869869685e-27
1.0001793341362166 3.311874778501915e-25 8.79267898637181e-18 8.792678983614993e-18 2.75681835667732e-27
1.0077091589558085 3.3656006927269575e-25 9.002584932133772e-18 9.0025849288181e-18 3.3156692745021905e-27
1.0114953028030835 3.39243132175482e-25 9.108447673099888e-18 9.108447669465424e-18 3.634463208151761e-27
1.0152956718711033 3.4192369630526873e-25 9.214911478158417e-18 9.214911474175812e-18 3.982607322218571e-27
1.0229392996569957 3.472736706646944e-25 9.429554054059555e-18 9.429554049282047e-18 4.7775082875631105e-27
1.0267826658714554 3.4993659919811567e-25 9.537560991812616e-18 9.537560986582386e-18 5.230228861691783e-27
1.0306404723013447 3.52595874173459e-25 9.64614646881916e-18 9.646146463095184e-18 5.7239763420779395e-27
1.03451277320114 3.5525124471117727e-25 9.755306042995415e-18 9.75530603673313e-18 6.262284866803669e-27
1.0383996230291617 3.579024613928835e-25 9.865035217806882e-18 9.865035210957905e-18 6.84897595330243e-27
1.0403485208654093 3.592264345061942e-25 9.920111985684366e-18 9.920111978522624e-18 7.161743113294515e-27
1.0423010764483396 3.6054927631072707e-25 9.975329443444842e-18 9.97532943595666e-18 7.48818037118985e-27
1.0462171883269815 3.6319144311572742e-25 1.0086184118006049e-17 1.0086184109821688e-17 8.18436155625833e-27
1.0471985131304309 3.638512298325893e-25 1.0113984812640549e-17 1.0113984804272687e-17 8.367866216358636e-27
1.048180758391296 3.645107069297673e-25 1.0141820171584427e-17 1.0141820163029117e-17 8.555310353944418e-27
1.0501480137395462 3.6582871706506085e-25 1.0197594588675032e-17 1.019759457973269e-17 8.942340664631224e-27
1.0521189612883777 3.6714544318730346e-25 1.0253506779915263e-17 1.0253506770569149e-17 9.346115423011184e-27
1.0531058218030118 3.6780230745555715e-25 1.0281486182909303e-17 1.028148617335479e-17 9.554509805035422e-27
1.0540936079674168 3.6845553741368577e-25 1.0309407364623385e-17 1.030940735485599e-17 9.767396876127246e-27
1.058054026499678 3.7106492255811107e-25 1.0421426717636329e-17 1.0421426706971062e-17 1.066527013833535e-26
1.0590464539527713 3.7171636657067777e-25 1.044951483398037e-17 1.0449514823078575e-17 1.0901793607578232e-26
1.06003981227728 3.723674422580895e-25 1.0477636109563863e-17 1.0477636098420525e-17 1.1143335085346009e-26
1.0620293250338977 3.736684738834209e-25 1.053397783306139e-17 1.053397782141951e-17 1.1641879024730053e-26
1.0660195594769086 3.7626595512534914e-25 1.0647055822057862e-17 1.0647055809354092e-17 1.2703769577388564e-26
1.070024785945596 3.788571318925689e-25 1.0760655752180285e-17 1.0760655738322287e-17 1.3858000098787334e-26
1.0740450607676866 3.8144177170697576e-25 1.0874772648576005e-17 1.0874772633463826e-17 1.5112178543301123e-26
1.07808044048254 3.8401964404291475e-25 1.0989401495182455e-17 1.0989401478707949e-17 1.6474502423986833e-26
1.0861967418109137 3.8914963260325776e-25 1.1220043832588113e-17 1.1220043813028527e-17 1.9559585113193261e-26
1.0902777775684922 3.916909704526735e-25 1.1335747230813762e-17 1.1335747209511673e-17 2.130209066395534e-26
1.0943741465085532 3.9422445866398326e-25 1.1451933652983649e-17 1.1451933629791328e-17 2.319232363876015e-26
1.1026131145906286 3.9926701271589005e-25 1.1685734561645178e-17 1.1685734534180941e-17 2.746423601620712e-26
1.1109141095355224 4.0427557005786097e-25 1.1921404221255189e-17 1.1921404188774053e-17 3.248113843215968e-26
1.1192775983109025 4.0924381052118803e-25 1.2158762196614146e-17 1.215876215824895e-17 3.836519523006687e-26
1.1277040513999907 4.141488070725284e-25 1.2397125235996091e-17 1.2397125190738839e-17 4.525725252883496e-26
1.1361939428280308 4.190141930306775e-25 1.2637193532575715e-17 1.2637193479256252e-17 5.331946048412727e-26
1.1447477501889525 4.238384059216938e-25 1.2878922780705996e-17 1.2878922717967737e-17 6.273825914239651e-26
1.1533659546722406 4.286225224785716e-25 1.3122347928146946e-17 1.3122347854419109e-17 7.372783240842783e-26
1.1707974979042381 4.380859248353333e-25 1.3614776574551407e-17 1.361477647311313e-17 1.0143827461172845e-25
1.1884924949847024 4.473693802381219e-25 1.4113415668976158e-17 1.4113415530105273e-17 1.3887088656644686e-25
1.2064549276569216 4.565452591194729e-25 1.4620572273618955e-17 1.462057208443258e-17 1.8918637645596507e-25
1.2246888378427687 4.655148032314815e-25 1.5133127412270775e-17 1.5133127155791203e-17 2.5647956636029015e-25
1.2431983285522175 4.742575869441021e-25 1.565035300648685e-17 1.5650352660449745e-17 3.4603710853552427e-25
1.2619875648066055 4.827710388070554e-25 1.6172073917409777e-17 1.617207345276028e-17 4.646494954342996e-25
1.3004222497298317 4.989722254450856e-25 1.7223848487356847e-17 1.722384766128393e-17 8.260729138866965e-25
1.3400274889804893 5.140604193938212e-25 1.8285098606870194e-17 1.82850971649758e-17 1.4418943955494398e-24
1.3808389325824078 5.279856996512831e-25 1.9352390393698338e-17 1.9352387921565198e-17 2.4721331374188187e-24
1.4228933163050095 5.408194878911587e-25 2.0426506897643562e-17 2.0426502732338073e-17 4.165305491283648e-24
1.466228494730424 5.528671814227575e-25 2.151750433232928e-17 2.151749743192426e-17 6.900405028761483e-24
1.5108834753276823 5.63909515988667e-25 2.2615689230268612e-17 2.261567798562281e-17 1.1244645801020202e-23
1.5568984535646726 5.737702550595746e-25 2.3711976203749494e-17 2.3711958160554392e-17 1.8043195102909396e-23
1.6043148490894465 5.824729299099296e-25 2.4804745921832048e-17 2.4804717360593664e-17 2.8561238386035605e-23
1.6531753430134553 5.900489868558229e-25 2.5892645252692216e-17 2.5892600704031266e-17 4.454866095702368e-23
1.7035239163302658 5.9658620598342355e-25 2.6976827553555154e-17 2.697675906940131e-17 6.84841538421571e-23
1.755405889504358 6.0256123892434615e-25 2.807683666003096e-17 2.807673284486908e-17 1.0381516187893808e-22
1.8088679632656115 6.078647881736994e-25 2.918658525832221e-17 2.918643001932733e-17 1.5523899488508778e-22
1.8639582606462262 6.12423513113548e-25 3.0301035661092857e-17 3.0300806583362243e-17 2.2907773061212794e-22
1.9207263702978936 6.162994219946872e-25 3.142148400395891e-17 3.1421150292605856e-17 3.3371135305230004e-22
1.979223391128241 6.196295567018695e-25 3.255340142898303e-17 3.2552921327559884e-17 4.801014231341588e-22
2.039501978296691 6.225753996073707e-25 3.370431615843239e-17 3.3703633781645916e-17 6.823767864777645e-22
2.1016163906111602 6.255850980446092e-25 3.489870203678355e-17 3.489774346530985e-17 9.585714736973107e-22
2.1656225393682647 6.289179462952424e-25 3.6153153363072495e-17 3.615182203899515e-17 1.3313240773487227e-21
2.231578038680979 6.325897435236433e-25 3.747172257444176e-17 3.746989389387044e-17 1.828680571329522e-21
2.299542257339062 6.367525376037848e-25 3.8867044019710126e-17 3.886455905511296e-17 2.4849645971594496e-21
2.369576372248914 6.41742523054348e-25 4.0364628631120174e-17 4.036128689559442e-17 3.3417355257506853e-21
2.4417434235010123 6.479559986011696e-25 4.199668149250186e-17 4.1992232875153556e-17 4.448617348300999e-21
2.5161083711144245 6.56074549327812e-25 4.381794102178996e-17 4.3812076666945997e-17 5.864354843965627e-21
2.5927381535095444 6.672148324625516e-25 4.5919144037467584e-17 4.591148639571842e-17 7.657641749158381e-21
2.6717017477616296 6.82700784954903e-25 4.841587775620666e-17 4.840597030420649e-17 9.907452000162321e-21
2.753070231689431 7.04525848975693e-25 5.148534835032671e-17 5.147264471024436e-17 1.2703640082354439e-20
2.836916847834745 7.37226629583113e-25 5.551585766800768e-17 5.549970981356854e-17 1.6147854439143795e-20
2.9233170693905177 7.908012703088026e-25 6.136386612339911e-17 6.134351601549593e-17 2.0350107903170274e-20
2.967498994190263 8.352941870288344e-25 6.579599706442451e-17 6.577326285893541e-17 2.2734205489096878e-20
3.0123486681368425 8.87009110616407e-25 7.092555649259486e-17 7.090019271799502e-17 2.5363774599830626e-20
3.0578761833420214 1.0009161559467441e-24 8.124320144740318e-17 8.121493368472364e-17 2.826776267949965e-20
3.1040917844459814 1.1471685547517778e-24 9.452163414880373e-17 9.449019003416886e-17 3.144411463491153e-20
3.127460860933648 1.3010876192128767e-24 1.0801096859827109e-16 1.0797781736181629e-16 3.315123645478821e-20
3.1510058709225794 1.5058447200241975e-24 1.2595019258983824e-16 1.2591525719967996e-16 3.493539015827896e-20
3.162844764501044 1.6962193093865324e-24 1.4240633605618198e-16 1.4237047554182546e-16 3.586051435653777e-20
3.1747281389236908 1.917435757282044e-24 1.6158342017357953e-16 1.615466144464952e-16 3.6805727084371304e-20
3.1986289994194426 2.5339379005642714e-24 2.1514401580788581e-16 2.1510525336212348e-16 3.8762445762356166e-20
3.2227097969389145 3.986286994333596e-24 3.4100378151153725e-16 3.4096294069202984e-16 4.08408195074939e-20
3.2348180950136065 5.36312716228984e-24 4.605082248629468e-16 4.604662736175721e-16 4.195124537448127e-20
3.240889293275058 6.3924595368237055e-24 5.49922661657231e-16 5.498801246581844e-16 4.253699904652315e-20
3.2469718861334385 7.58330893680802e-24 6.535919739354539e-16 6.535488308192322e-16 4.314311622184842e-20
3.2714166318528037 1.3932820477234097e-23 1.2098856664601334e-15 1.2098400144761048e-15 4.565198402867698e-20
3.2744851364798273 1.4329800761961936e-23 1.2455254575239597e-15 1.245479508736661e-15 4.5948787298842874e-20
3.2775565192852394 1.473816327546349e-23 1.2822212972964679e-15 1.2821750501145215e-15 4.624718194624253e-20
3.283707930232385 1.4345701483462645e-23 1.2504195187566992e-15 1.2503727356555053e-15 4.678310119375842e-20
3.2898708863219004 1.3100630083817953e-23 1.1440380549466749e-15 1.1439907820106877e-15 4.7272935987092016e-20
3.29141343181113 1.2806992988777262e-23 1.11892001355102e-15 1.1188726175579753e-15 4.739599304469022e-20
3.292184975758714 1.2662707395697324e-23 1.1065734173996554e-15 1.1065259597881585e-15 4.7457611496495976e-20
3.295272960557952 1.1752215440476746e-23 1.0279703114887394e-15 1.0279226137942796e-15 4.7697694459941147e-20
3.3076538914384823 8.597315027794617e-24 7.548355280014675e-16 7.547868649114365e-16 4.8663090031071734e-20
3.310756385682612 7.955025149073998e-24 6.990982506438288e-16 6.99049343987753e-16 4.8906656075874386e-20
3.313861789986515 7.362339396833177e-24 6.476191147955935e-16 6.475699636836041e-16 4.915111198928247e-20
3.3200813396944477 6.531276384089685e-24 5.75593948040596e-16 5.755442720970233e-16 4.967594357263603e-20
3.345076488085796 5.049739951766907e-24 4.483782106192817e-16 4.483261982109347e-16 5.201240834699964e-20
3.3482140837626964 5.1054746514796774e-24 4.537522339335818e-16 4.53699905100295e-16 5.2328833286854356e-20
3.3513546224236106 5.1618225739653074e-24 4.591904958331587e-16 4.591378490272441e-16 5.264680591456742e-20
3.3576445397418455 5.572943065867359e-24 4.96693820135091e-16 4.966405088895702e-16 5.331124552070522e-20
3.3702598118196083 7.088464336058616e-24 6.341397446839433e-16 6.3408503947561e-16 5.470520833341334e-20
3.382922481734668 7.434271484933238e-24 6.675747409493162e-16 6.675186766166741e-16 5.606433264206303e-20
3.389271646505754 7.613400370521825e-24 6.849430769771203e-16 6.848863229088816e-16 5.675406823884034e-20
3.395632727569191 7.806532569659794e-24 7.0363643527352e-16 7.03578970351758e-16 5.746492176197269e-20
3.421196662673239 8.734136310182087e-24 7.93172116179081e-16 7.931117038486633e-16 6.041233041764833e-20
3.4276182099114902 8.548016473048552e-24 7.777270868492988e-16 7.776660121499124e-16 6.107469938625665e-20
3.4340518103208963 7.731161254252066e-24 7.04727157660521e-16 7.046654542400796e-16 6.170342044143941e-20
3.4469541582030403 6.567599422596712e-24 6.009129961194077e-16 6.008500813795802e-16 6.291473982749267e-20
3.472904465399547 6.2419895179210646e-24 5.754204664490059e-16 5.753547677010425e-16 6.569874796356805e-20
3.4990501388274233 5.7438585980820225e-24 5.334863828807201e-16 5.334178245223699e-16 6.855835835011161e-20
3.5253949054701885 3.969986195555456e-24 3.7150631654753794e-16 3.7143496319371387e-16 7.135335382408861e-20
3.5519380250092896 2.302013584930711e-24 2.1704145629451925e-16 2.169672798945567e-16 7.417639996258898e-20
3.578680990867387 1.6411011739013828e-24 1.5589341672997606e-16 1.5581614367594126e-16 7.727305403486912e-20
3.605625307711299 1.3743089157825253e-24 1.31532898476501e-16 1.314523553332003e-16 8.054314330073068e-20
3.660119384959845 1.1807608263804449e-24 1.1471669348622318e-16 1.1462924158833412e-16 8.745189788907063e-20
3.715437065384467 1.0440149228295691e-24 1.0296415240524863e-16 1.0286936062829568e-16 9.47917769529238e-20
3.8285932144167436 9.769301232627576e-25 9.928237540838767e-17 9.917160811857031e-17 1.1076728981736359e-19
3.94519561050918 9.66446937187422e-25 1.0120826697872752e-16 1.0107977210053925e-16 1.284948781882475e-19
4.06534921144712 9.79150650860118e-25 1.0566150862096876e-16 1.0551347355877132e-16 1.4803506219743597e-19
4.189162171576248 1.005236025562692e-24 1.117801403634649e-16 1.11610632669835e-16 1.6950769362985204e-19
4.316745939156006 1.0410306062560488e-24 1.1928598473530953e-16 1.1909305255750764e-16 1.929321778018777e-19
4.448215356677963 1.0852858583405752e-24 1.2814432629791175e-16 1.2792622457500686e-16 2.1810172290489745e-19
4.58368876423945 1.1381251481339545e-24 1.384760203091369e-16 1.382308749526428e-16 2.45145356494108e-19
4.723288106065518 1.2006885778006401e-24 1.5053734398227503e-16 1.5026301396397697e-16 2.7433001829806e-19
4.867139040275056 1.2752713621597346e-24 1.6475772752866758e-16 1.6445264075730059e-16 3.050867713670326e-19
4.940699165968905 1.3199970957350646e-24 1.7311345323002289e-16 1.7279228021543355e-16 3.2117301458932836e-19
5.015371051989984 1.3661948468454173e-24 1.818800834815675e-16 1.8154237805687008e-16 3.3770542469743153e-19
5.091171501069577 1.4223689407137565e-24 1.922203750589145e-16 1.91865362115541e-16 3.5501294337351267e-19
5.129500256944802 1.4511479662712647e-24 1.9758600781162614e-16 1.9722217553237077e-16 3.6383227925538116e-19
5.168117569889187 1.481115190717662e-24 2.031845372314188e-16 2.0281170508098498e-16 3.728321504337588e-19
5.20702561229733 1.5178538178361652e-24 2.0979208263255984e-16 2.0940951091270874e-16 3.8257171985111826e-19
5.246226572918644 1.5554871465189062e-24 2.16612194726639e-16 2.1621974127342682e-16 3.9245345321219253e-19
5.265937586045735 1.5746482469987706e-24 2.2010438481779612e-16 2.197069374728022e-16 3.9744734499396763e-19
5.285722656980489 1.5940438893590286e-24 2.236526661415401e-16 2.23250189715347e-16 4.0247642619315584e-19
5.305582063971359 1.6136778644949002e-24 2.2725806841026982e-16 2.2685052783880435e-16 4.075405714654723e-19
5.3255160863122235 1.6347657919844223e-24 2.310929386745363e-16 2.3068026650236975e-16 4.126721721666054e-19
5.365609099470188 1.687291027126928e-24 2.4031366112844934e-16 2.398903674923887e-16 4.2329363606066076e-19
5.406003951863644 1.7417588722786277e-24 2.499388822791752e-16 2.4950481198921126e-16 4.340702899639441e-19
5.446702915881641 1.798263577567602e-24 2.599898951974071e-16 2.595448938326809e-16 4.450013647262065e-19
5.487708281020852 1.8592777655266827e-24 2.708349614036065e-16 2.7037883692533054e-16 4.561244782759553e-19
5.529022354014368 1.9441663640746768e-24 2.853324753220988e-16 2.8486473542045117e-16 4.67739901647672e-19
5.570647458961463 2.0339725491078432e-24 3.007600824093164e-16 3.0028055566452673e-16 4.795267447896593e-19
5.612585937458331 2.1290510945889456e-24 3.17189294480089e-16 3.166978100114653e-16 4.914844686236476e-19
5.654840148729818 2.2335057534016287e-24 3.352562179214239e-16 3.3475255673431164e-16 5.03661187112298e-19
5.67608639626678 2.304738387072437e-24 3.472482499644459e-16 3.467382241037366e-16 5.100258607093704e-19
5.686739436050992 2.3414426462946802e-24 3.5344047872289774e-16 3.52927252436129e-16 5.132262867687563e-19
5.6974124697621304 2.378895353027313e-24 3.59767917905347e-16 3.5925147913681405e-16 5.1643876853294725e-19
5.718818669136295 2.456118239627046e-24 3.7284217225091107e-16 3.723192723642977e-16 5.228998866133942e-19
5.740305295436557 2.5412453913306435e-24 3.872139792206908e-16 3.866845285679935e-16 5.294506526972548e-19
5.7835210386641895 2.7622401658199955e-24 4.2405597696837166e-16 4.2351295434391253e-16 5.430226244591214e-19
5.827062130521658 3.016662750337872e-24 4.666011904251211e-16 4.660442827809745e-16 5.5690764414653695e-19
5.8489554468988025 3.195349205794898e-24 4.960963977185863e-16 4.955320256808528e-16 5.643720377335047e-19
5.870931020387893 3.387000033302279e-24 5.278270118177527e-16 5.272551097996244e-16 5.719020181285643e-19
5.892989160043636 3.5926572557032855e-24 5.619800028584638e-16 5.614005051162058e-16 5.794977422576692e-19
5.915130176081913 3.826540239737217e-24 6.008139731064727e-16 6.002266093821064e-16 5.873637243665107e-19
5.95966208400165 4.4808773117738284e-24 7.088496376268275e-16 7.082445599956792e-16 6.050776311483818e-19
6.004529249263818 5.42402849919418e-24 8.645106753682287e-16 8.638857683788716e-16 6.249069893571389e-19
6.027089341400364 6.079781629845945e-24 9.726689292021805e-16 9.720326707347053e-16 6.362584674755599e-19
6.049734195844842 6.854477292675508e-24 1.1007281386808017e-15 1.1000798740282882e-15 6.482646525134475e-19
6.095279466722835 9.092566964367451e-24 1.4711249596147858e-15 1.47044755558981e-15 6.774040249755618e-19
6.141167624020661 1.2536372776398637e-23 2.0435830052971247e-15 2.0428682401588737e-15 7.14765138251053e-19
6.164241091010745 1.4735861137030753e-23 2.4111518899986512e-15 2.410413900253828e-15 7.379897448240553e-19
6.187401249150058 1.724035980557393e-23 2.831548722920312e-15 2.8307868197966957e-15 7.619031236156349e-19
6.1990139391386085 1.8463217323059288e-23 3.0380815521659466e-15 3.0373074671982356e-15 7.740849677118053e-19
6.204828454712694 1.9107282199235525e-23 3.147010050574885e-15 3.1462298058030863e-15 7.80244771798875e-19
6.210648424152782 1.9577416421944686e-23 3.227466601576566e-15 3.2266810546246245e-15 7.855469519420921e-19
6.233982942956859 2.1174249534542102e-23 3.5038303452488863e-15 3.503026080553065e-15 8.042646958212743e-19
6.239830258556775 2.1378140323074835e-23 3.5408875286360945e-15 3.5400804935438855e-15 8.070350922097085e-19
6.245683058788269 2.1395455045925382e-23 3.547079338731323e-15 3.5462695262145646e-15 8.098125167580018e-19
6.257405133728602 2.1350747636297925e-23 3.5463107983178473e-15 3.5454960221532977e-15 8.147761645498923e-19
6.269149208991335 2.1035647390426862e-23 3.5005309497531973e-15 3.4997138584638933e-15 8.170912893044711e-19
6.280915325867298 2.024668210741195e-23 3.3755631389962855e-15 3.3747470158695247e-15 8.161231267610672e-19
6.304513850009849 1.830150492109446e-23 3.0627238405855556e-15 3.0619126332867937e-15 8.112072987614388e-19
6.32820103803542 1.5891244392172496e-23 2.669362821753003e-15 2.668559700550432e-15 8.031212025710912e-19
6.3519772230701035 1.368099388021278e-23 2.3067260162193323e-15 2.3059299766564564e-15 7.960395628755763e-19
6.375842739491607 1.1821166905752764e-23 2.0006327735028554e-15 1.9998427931313617e-15 7.89980371493669e-19
6.399797922933955 1.033096963949718e-23 1.7549986204509941e-15 1.7542109007891936e-15 7.877196618006361e-19
6.42384311029221 9.091653229659003e-24 1.5502695661478136e-15 1.5494833514982694e-15 7.862146495444883e-19
6.447978639727206 8.188586767876852e-24 1.4015286448187751e-15 1.400740951205e-15 7.876936137751882e-19
6.472204850670314 7.436062730989483e-24 1.277511247639028e-15 1.2767214712977522e-15 7.897763412753771e-19
6.496522083828205 6.946885960521429e-24 1.197955047515529e-15 1.19716075045944e-15 7.9429705608895465e-19
