Dust emission spectrum from A.P. Jones, M. Kohler, N. Ysard, M. Bocchio, and L. Verstraete (2017), A&A, 602A, 46J 
inside the DustPedia framework.

lambda    nu*dP/dnu     j_nu    j_nu(carb.) j_nu(sil)
 (um)   (erg s-1 H-1) (Jy cm2 sr-1 H-1)
0.9927057738263894 2.33699513667256e-24 6.158114923806e-17 6.158114913803761e-17 1.0002238702050112e-25
1.0001793341362166 2.375662480474104e-24 6.307133864591706e-17 6.307133852546189e-17 1.2045515955004288e-25
1.0077091589558085 2.4142986132592878e-24 6.457964061027371e-17 6.45796404654004e-17 1.4487333578143192e-25
1.0114953028030835 2.433600567195979e-24 6.534052224250982e-17 6.534052208370724e-17 1.5880257201432685e-25
1.0152956718711033 2.452889444913154e-24 6.610585737352289e-17 6.61058571995087e-17 1.7401422159753068e-25
1.0229392996569957 2.491402089522608e-24 6.764927104489166e-17 6.76492708361454e-17 2.087462605710539e-25
1.0267826658714554 2.510579471790921e-24 6.842612316593474e-17 6.842612293740753e-17 2.285272261381758e-25
1.0306404723013447 2.529735886014078e-24 6.920728423474172e-17 6.920728398464091e-17 2.5010080257032535e-25
1.03451277320114 2.5488696324587127e-24 6.999272683350476e-17 6.999272655988334e-17 2.736214088793746e-25
1.0383996230291617 2.5679790224091126e-24 7.078242322241513e-17 7.078242292315912e-17 2.9925602069904836e-25
1.0403485208654093 2.5775240590778305e-24 7.117885783376809e-17 7.117885752084617e-17 3.1292192584205354e-25
1.0423010764483396 2.5870623785318852e-24 7.157634534913572e-17 7.157634502195061e-17 3.2718512598638176e-25
1.0462171883269815 2.6061180352338686e-24 7.23744648583289e-17 7.237446450072517e-17 3.576037480620853e-25
1.0471985131304309 2.6108774273344958e-24 7.257464722567214e-17 7.257464686005041e-17 3.656217166950243e-25
1.048180758391296 2.615634959100973e-24 7.277508968981489e-17 7.27750893160031e-17 3.738118150542137e-25
1.0501480137395462 2.62514433901325e-24 7.317675310123748e-17 7.317675271051493e-17 3.9072254031528974e-25
1.0521189612883777 2.634645970228743e-24 7.357945146723544e-17 7.357945105887053e-17 4.0836488981035625e-25
1.0531058218030118 2.639386631134437e-24 7.378098676730918e-17 7.37809863498388e-17 4.1747037856163705e-25
1.0540936079674168 2.6441017376668727e-24 7.398212038949764e-17 7.398211996272548e-17 4.267721688128458e-25
1.058054026499678 2.662940550239059e-24 7.478917599222124e-17 7.478917552621783e-17 4.660034321976748e-25
1.0590464539527713 2.6676447246377325e-24 7.499156784260461e-17 7.499156736626663e-17 4.763379804119083e-25
1.06003981227728 2.6723466375833837e-24 7.5194209937958e-17 7.519420945106621e-17 4.868917831940115e-25
1.0620293250338977 2.6817435796364436e-24 7.560024298613539e-17 7.560024247746045e-17 5.086749339103888e-25
1.0660195594769086 2.700509235094876e-24 7.641529131823616e-17 7.641529076316346e-17 5.550726937175491e-25
1.070024785945596 2.719235939915219e-24 7.723429070006642e-17 7.723429009456129e-17 6.055051138571535e-25
1.0740450607676866 2.737922131768596e-24 7.805721061761607e-17 7.805720995731146e-17 6.60304612805682e-25
1.07808044048254 2.7565662629947186e-24 7.88840203412573e-17 7.888401962142792e-17 7.19829368946845e-25
1.0861967418109137 2.7936897771855492e-24 8.054824964111449e-17 8.054824878648689e-17 8.546275600039411e-25
1.0902777775684922 2.812092347613316e-24 8.1383464125839e-17 8.138346319507521e-17 9.30763800037776e-25
1.0943741465085532 2.8304455294556234e-24 8.222238295807534e-17 8.222238194472058e-17 1.0133547745265831e-24
1.1026131145906286 2.8669978993353548e-24 8.391120571803236e-17 8.39112045180226e-17 1.2000097587993694e-24
1.1109141095355224 2.9033353979046864e-24 8.561446060999134e-17 8.561445919077535e-17 1.4192159968512752e-24
1.1192775983109025 2.9394136951488106e-24 8.733090445832138e-17 8.733090278201009e-17 1.676311281593378e-24
1.1277040513999907 2.9750697324202288e-24 8.905570033955424e-17 8.905569836210457e-17 1.97744967888339e-24
1.1361939428280308 3.0104733476848832e-24 9.079390376776482e-17 9.079390143804869e-17 2.3297161034107482e-24
1.1447477501889525 3.0456142682401398e-24 9.25452493980171e-17 9.254524665676032e-17 2.74125678123615e-24
1.1533659546722406 3.0805008350874e-24 9.431003186022496e-17 9.431002863879479e-17 3.221430165868582e-24
1.1707974979042381 3.1496229022093643e-24 9.788356501932544e-17 9.788356058712796e-17 4.432197545120507e-24
1.1884924949847024 3.2175998362920907e-24 1.015074476528742e-16 1.0150744158511323e-16 6.067760959893884e-24
1.2064549276569216 3.284954280129497e-24 1.0519857672117201e-16 1.0519856845494907e-16 8.266222946973723e-24
1.2246888378427687 3.350991473884411e-24 1.0893527032804006e-16 1.0893525912153929e-16 1.1206500788221641e-23
1.2431983285522175 3.4155714764320585e-24 1.1271279742615826e-16 1.1271278230657119e-16 1.5119587047739408e-23
1.2619875648066055 3.478687799025513e-24 1.165305946281423e-16 1.1653057432595993e-16 2.030218239490037e-23
1.3004222497298317 3.599581228322154e-24 1.24252690897277e-16 1.2425265480322517e-16 3.6094051825958156e-23
1.3400274889804893 3.713337487377294e-24 1.3208319402872417e-16 1.320831310272504e-16 6.300147379864428e-23
1.3808389325824078 3.819688518695791e-24 1.4000398769313265e-16 1.4000387967687882e-16 1.0801625386860846e-22
1.4228933163050095 3.9192392296298454e-24 1.4802788906464254e-16 1.4802770706769077e-16 1.819969517683162e-22
1.466228494730424 4.014278100389225e-24 1.562350765585598e-16 1.5623477505542064e-16 3.015031391530058e-22
1.5108834753276823 4.103355730150675e-24 1.6456579533265867e-16 1.6456530401425153e-16 4.9131840715755135e-22
1.5568984535646726 4.1853299982654284e-24 1.7296547607439917e-16 1.7296468770329046e-16 7.8837110871111835e-22
1.6043148490894465 4.260493663942311e-24 1.8143411892464453e-16 1.8143287098296669e-16 1.2479416778016645e-21
1.6531753430134553 4.329206161894148e-24 1.8997507304098548e-16 1.8997312655218359e-16 1.9464888019380584e-21
1.7035239163302658 4.3922253920569306e-24 1.9861053740347164e-16 1.986075450881997e-16 2.9923152719588732e-21
1.755405889504358 4.453111642210679e-24 2.0749640058233044e-16 2.0749186453016655e-16 4.5360521638878285e-21
1.8088679632656115 4.511221337292615e-24 2.1660597675947124e-16 2.1659919381788994e-16 6.782941581233604e-21
1.8639582606462262 4.566145555619275e-24 2.2592035797441293e-16 2.2591034875692077e-16 1.000921749218935e-20
1.9207263702978936 4.618449174351893e-24 2.3546756929498835e-16 2.3545298826391334e-16 1.4581031074977852e-20
1.979223391128241 4.669230658772936e-24 2.453067939634837e-16 2.452858166317411e-16 2.0977331742675774e-20
2.039501978296691 4.719740399853589e-24 2.5551222024306296e-16 2.554824047842783e-16 2.9815458784762195e-20
2.1016163906111602 4.773311768540039e-24 2.662825339983922e-16 2.6624065061555555e-16 4.1883382836534805e-20
2.1656225393682647 4.831891823362566e-24 2.7775980499973897e-16 2.777016347356181e-16 5.817026412081806e-20
2.231578038680979 4.89560893028701e-24 2.899934776792948e-16 2.899135761488472e-16 7.990153044766232e-20
2.299542257339062 4.9655860468424466e-24 3.0309679203253564e-16 3.0298821512946913e-16 1.085769030665254e-19
2.369576372248914 5.0442271408279035e-24 3.172742150566393e-16 3.1712820279892076e-16 1.4601225771846296e-19
2.4417434235010123 5.134347286025972e-24 3.3277807151816514e-16 3.3258369567644265e-16 1.9437584172256572e-19
2.5161083711144245 5.240787586562268e-24 3.50021993096661e-16 3.4976575867512e-16 2.5623442154089666e-19
2.5927381535095444 5.371446884287499e-24 3.6967440046088587e-16 3.693398109926696e-16 3.3458946821621814e-19
2.6717017477616296 5.5355028812006004e-24 3.925676324409699e-16 3.921347408107412e-16 4.328916302286628e-19
2.753070231689431 5.746724220460137e-24 4.199591807650734e-16 4.194041138006306e-16 5.550669644427049e-19
2.836916847834745 6.036676089987095e-24 4.545837564075767e-16 4.538781995620493e-16 7.055568455274718e-19
2.9233170693905177 6.47488585196322e-24 5.024322083208207e-16 5.015430402057644e-16 8.891681150562246e-19
2.967498994190263 6.818252327794905e-24 5.3707270697026055e-16 5.3607936923484e-16 9.933377354206194e-19
3.0123486681368425 7.21238899865796e-24 5.767051287843028e-16 5.755968959196701e-16 1.1082328646327595e-18
3.0578761833420214 8.041169457961632e-24 6.526923821385917e-16 6.514572638225644e-16 1.2351183160274565e-18
3.1040917844459814 9.09405740056728e-24 7.4931025870966e-16 7.479363544172146e-16 1.3739042924455068e-18
3.127460860933648 1.0183924960024879e-23 8.45427765833213e-16 8.439792713959595e-16 1.4484944372538039e-18
3.1510058709225794 1.1626702651377419e-23 9.72467757566821e-16 9.709413071953511e-16 1.5264503714700178e-18
3.162844764501044 1.2962588940147834e-23 1.088276018645527e-15 1.0867091463552504e-15 1.5668722902764342e-18
3.1747281389236908 1.4511274796415348e-23 1.2228735193752577e-15 1.2212653474290846e-15 1.6081719461733827e-18
3.1986289994194426 1.881562380221646e-23 1.597540675261949e-15 1.595847007426081e-15 1.6936678358679945e-18
3.2227097969389145 2.893412050354632e-23 2.475146551275656e-15 2.473362072031525e-15 1.7844792441314925e-18
3.2348180950136065 3.851651011493662e-23 3.3072439202377837e-15 3.305410922620495e-15 1.8329976172891466e-18
3.240889293275058 4.5679308935619424e-23 3.929643513241613e-15 3.927784922012343e-15 1.8585912292693216e-18
3.2469718861334385 5.396732022488655e-23 4.651347801826118e-15 4.649462727236791e-15 1.8850745893272838e-18
3.2714166318528037 9.810614385476412e-23 8.519252611881673e-15 8.51725791618427e-15 1.9946956974017e-18
3.2744851364798273 1.0086730217845232e-22 8.767239320487496e-15 8.765231656426372e-15 2.0076640611194372e-18
3.2775565192852394 1.0370723861891373e-22 9.022537446193142e-15 9.020516744235804e-15 2.0207019573400437e-18
3.283707930232385 1.0098535304919413e-22 8.80222251291191e-15 8.800178394770443e-15 2.044118141468871e-18
3.2898708863219004 9.233761965182988e-23 8.063562600349297e-15 8.06149707960108e-15 2.0655207482162782e-18
3.29141343181113 9.029779297852761e-23 7.88912805931095e-15 7.88705716176662e-15 2.070897544329985e-18
3.292184975758714 8.929542328088345e-23 7.803381900118087e-15 7.801308310246645e-15 2.07358987144018e-18
3.295272960557952 8.297455293841854e-23 7.257812576850178e-15 7.255728496905475e-15 2.0840799447023856e-18
3.3076538914384823 6.105923688959137e-23 5.3609389871042455e-15 5.358812725612881e-15 2.1262614913625292e-18
3.310756385682612 5.659402133016596e-23 4.973558293957636e-15 4.971421390204382e-15 2.1369037532536447e-18
3.313861789986515 5.247225527448711e-23 4.615657290508602e-15 4.6135097056119466e-15 2.147584896656356e-18
3.3200813396944477 4.669527747187446e-23 4.115201613632746e-15 4.113031096997379e-15 2.1705166353684117e-18
3.345076488085796 3.6418818543636955e-23 3.2337120024865005e-15 3.231439397536037e-15 2.272604950463783e-18
3.3482140837626964 3.680978888372512e-23 3.271492873198979e-15 3.2692064425423622e-15 2.286430656616752e-18
3.3513546224236106 3.720500135513636e-23 3.3097191495705266e-15 3.3074188255840677e-15 2.300323986460372e-18
3.3576445397418455 4.00716861585527e-23 3.571426917896976e-15 3.56909756224146e-15 2.3293556555162903e-18
3.3702598118196083 5.062028503009207e-23 4.528531583564361e-15 4.526141320859027e-15 2.390262705332131e-18
3.382922481734668 5.30420458265363e-23 4.763012767805817e-15 4.760563120246037e-15 2.44964755977939e-18
3.389271646505754 5.429606768974545e-23 4.884770780631265e-15 4.882290996132711e-15 2.47978449855327e-18
3.395632727569191 5.565024435377375e-23 5.015996437570256e-15 5.01348559342015e-15 2.510844150104662e-18
3.421196662673239 6.215850757592605e-23 5.64479339932615e-15 5.642153772701451e-15 2.6396266246998847e-18
3.4276182099114902 6.087142391078856e-23 5.538285441981908e-15 5.535616874155115e-15 2.6685678267929288e-18
3.4340518103208963 5.519198992573125e-23 5.03097696540693e-15 5.028280926563554e-15 2.6960388433748897e-18
3.4469541582030403 4.7098579409539014e-23 4.309359728697303e-15 4.306610763070015e-15 2.7489656272882403e-18
3.472904465399547 4.484834219352595e-23 4.1343635567427875e-15 4.1314929481473506e-15 2.8706085954369486e-18
3.4990501388274233 4.140020492826197e-23 3.845227942253679e-15 3.842232387370185e-15 2.995554883493534e-18
3.5253949054701885 2.9083136175566245e-23 2.7215633158450714e-15 2.7184456378760273e-15 3.1176779690444313e-18
3.5519380250092896 1.7486599222795748e-23 1.6486944237857026e-15 1.6454533970887072e-15 3.2410266969955957e-18
3.578680990867387 1.2903819271312863e-23 1.2257748072221868e-15 1.2223984769825735e-15 3.3763302396132423e-18
3.605625307711299 1.1067954444951901e-23 1.0592961390499825e-15 1.055776927324155e-15 3.5192117258274936e-18
3.660119384959845 9.765573294128984e-24 9.487732428708516e-16 9.449521638912602e-16 3.8210789795915404e-18
3.715437065384467 8.856043532526472e-24 8.73411860358464e-16 8.692700768992037e-16 4.141783459259964e-18
3.8285932144167436 8.478515765587639e-24 8.616452344960617e-16 8.568054264771814e-16 4.839808018880101e-18
3.94519561050918 8.496665626643114e-24 8.897879129017379e-16 8.84173526789689e-16 5.6143861120492035e-18
4.06534921144712 8.677720621355994e-24 9.364249019681792e-16 9.29956740176949e-16 6.468161791230159e-18
4.189162171576248 8.953412167024618e-24 9.956006781608821e-16 9.881943067270607e-16 7.406371433821821e-18
4.316745939156006 9.297979012563081e-24 1.0654043943536394e-15 1.0569745319058137e-15 8.429862447825686e-18
4.448215356677963 9.702540114063562e-24 1.1456202591603002e-15 1.1360906604044914e-15 9.529598755808649e-18
4.58368876423945 1.0167857109416943e-23 1.2371261542656854e-15 1.2264149370125404e-15 1.0711217253144736e-17
4.723288106065518 1.0701871913484155e-23 1.3417562249533655e-15 1.3297698444534917e-15 1.1986380499873157e-17
4.867139040275056 1.1320332953389094e-23 1.4625219287521812e-15 1.4491917003718612e-15 1.333022838032093e-17
4.940699165968905 1.1681926134710684e-23 1.5320477447199732e-15 1.5180146657921867e-15 1.4033078927786042e-17
5.015371051989984 1.2053517884097119e-23 1.6046721622967777e-15 1.5899167402056856e-15 1.475542209109292e-17
5.091171501069577 1.2495588897468218e-23 1.6886665025517587e-15 1.6731548724072987e-15 1.551163014446001e-17
5.129500256944802 1.2721231896597847e-23 1.732102778845663e-15 1.7162058109811733e-15 1.5896967864489663e-17
5.168117569889187 1.2955141013207876e-23 1.777231337598371e-15 1.7609411444698505e-15 1.6290193128521103e-17
5.20702561229733 1.3237226103379916e-23 1.8295999258117686e-15 1.812884188206876e-15 1.6715737604892284e-17
5.246226572918644 1.3525314640688773e-23 1.8834923163746814e-15 1.8663448234135287e-15 1.7147492961152518e-17
5.265937586045735 1.3671668337873205e-23 1.9110262591508623e-15 1.8936605719581926e-15 1.736568719266945e-17
5.285722656980489 1.3819593735848917e-23 1.9389610315299138e-15 1.9213756127637644e-15 1.7585418766150043e-17
5.305582063971359 1.396911559065149e-23 1.967303571785021e-15 1.949496889586032e-15 1.780668219898978e-17
5.3255160863122235 1.4128926336896612e-23 1.997286169993826e-15 1.979255277244324e-15 1.8030892749502363e-17
5.365609099470188 1.4522070041510917e-23 2.0683164686661568e-15 2.049821501980043e-15 1.8494966686114423e-17
5.406003951863644 1.4928327984739693e-23 2.1421849316728493e-15 2.1232191112441437e-15 1.8965820428705326e-17
5.446702915881641 1.5348328561182136e-23 2.2190352870710367e-15 2.199591866757622e-15 1.9443420313414048e-17
5.487708281020852 1.5799715839377104e-23 2.3014933588115562e-15 2.2815639489477854e-15 1.9929409863770183e-17
5.529022354014368 1.6420586322090682e-23 2.4099411594091164e-15 2.3895042511245913e-15 2.0436908284524085e-17
5.570647458961463 1.7074849438216647e-23 2.5248291214241067e-15 2.5038772261266512e-15 2.095189529745691e-17
5.612585937458331 1.776489551830577e-23 2.6466413559942378e-15 2.6251670087240433e-15 2.147434727019426e-17
5.654840148729818 1.85198668391131e-23 2.7798900913656917e-15 2.75788372512936e-15 2.200636623633197e-17
5.67608639626678 1.9032004728795634e-23 2.8674969673170236e-15 2.8452125197262068e-15 2.2284447590817962e-17
5.686739436050992 1.9295489256952195e-23 2.9126517239113327e-15 2.8902274454311284e-15 2.2424278480204236e-17
5.6974124697621304 1.9564074252058523e-23 2.9587372351001827e-15 2.936172599090907e-15 2.256463600927571e-17
5.718818669136295 2.0117033965190023e-23 3.0537937961674573e-15 3.030946865736817e-15 2.2846930430641392e-17
5.740305295436557 2.0725400269600496e-23 3.157965278249442e-15 3.1348321370795033e-15 2.3133141169937367e-17
5.7835210386641895 2.2299956260444162e-23 3.42346398962285e-15 3.399737875274441e-15 2.3726114348407695e-17
5.827062130521658 2.41056649293672e-23 3.728534769348037e-15 3.704202006640132e-15 2.4332762707905097e-17
5.8489554468988025 2.5372342280124595e-23 3.939202508453699e-15 3.9145436219224714e-15 2.465888653122818e-17
5.870931020387893 2.6727880659889236e-23 4.16524866909317e-15 4.140260793902932e-15 2.4987875190239145e-17
5.892989160043636 2.8179372523829936e-23 4.4079473003866095e-15 4.382627564877545e-15 2.531973550906277e-17
5.915130176081913 2.982790875088252e-23 4.6833492510994094e-15 4.657685848539093e-15 2.5663402560317397e-17
5.95966208400165 3.443636232926468e-23 5.447639214344438e-15 5.421201890817076e-15 2.6437323527361567e-17
6.004529249263818 4.106585082616356e-23 6.54529496619937e-15 6.517991306875558e-15 2.730365932381478e-17
6.027089341400364 4.5672116600864187e-23 7.306816503158744e-15 7.279016908045477e-15 2.779959511326678e-17
6.049734195844842 5.1105953650451454e-23 8.206863752729894e-15 8.178539621473662e-15 2.832413125623113e-17
6.095279466722835 6.679660922251604e-23 1.08073066087905e-14 1.0777709428932805e-14 2.95971798576919e-17
6.141167624020661 9.091061929768585e-23 1.481954947507218e-14 1.4788320079742322e-14 3.1229395329864075e-17
6.164241091010745 1.0631460041045045e-22 1.739570204485255e-14 1.7363458031624462e-14 3.224401322808812e-17
6.187401249150058 1.238284365147475e-22 2.0337525157751777e-14 2.030423644723952e-14 3.3288710512259936e-17
6.1990139391386085 1.323798350486283e-22 2.1782808906100702e-14 2.17489880115984e-14 3.382089450230002e-17
6.204828454712694 1.3688142225260557e-22 2.254466161509716e-14 2.2510571620601855e-14 3.408999449531146e-17
6.210648424152782 1.401684067951325e-22 2.3107689072823573e-14 2.3073367443587713e-14 3.4321629235860694e-17
6.233982942956859 1.5132729781479175e-22 2.5041037571745463e-14 2.5005898226926617e-14 3.5139344818845985e-17
6.239830258556775 1.5274962919264641e-22 2.530010790640353e-14 2.5264847530973408e-14 3.526037543011935e-17
6.245683058788269 1.5286751411356453e-22 2.5343382494625102e-14 2.530800078165824e-14 3.53817129668532e-17
6.257405133728602 1.5254848499884887e-22 2.533795766002735e-14 2.5302359099146375e-14 3.5598560880960677e-17
6.269149208991335 1.5033918330628426e-22 2.501786393147885e-14 2.4982164224660697e-14 3.5699706818149176e-17
6.280915325867298 1.4481700907758898e-22 2.414415137989669e-14 2.4108493959009744e-14 3.565742088694077e-17
6.304513850009849 1.312055423455196e-22 2.1957010873756577e-14 2.192156818499962e-14 3.54426887569621e-17
6.32820103803542 1.1435198592572965e-22 1.920849823278283e-14 1.917340876539084e-14 3.508946739198445e-17
6.3519772230701035 9.890059536723048e-23 1.667543881319414e-14 1.6640658683632992e-14 3.478012956115063e-17
6.375842739491607 8.589098041784606e-23 1.453632384537357e-14 1.4501808389439195e-14 3.451545593436754e-17
6.399797922933955 7.548102182502551e-23 1.2822522357117156e-14 1.278810562956881e-14 3.441672754834309e-17
6.42384311029221 6.681722012590023e-23 1.1393384705640321e-14 1.1359033695040558e-14 3.4351010599764835e-17
6.447978639727206 6.051124284863604e-23 1.0356883622292967e-14 1.0322467970489983e-14 3.441565180298965e-17
6.472204850670314 5.525368980648495e-23 9.492551738055297e-15 9.458045070083768e-15 3.450666797153117e-17
6.496522083828205 5.1841514176074724e-23 8.939804673778628e-15 8.90510048483913e-15 3.470418893949469e-17
6.520930681187647 4.896558195764062e-23 8.47558994591468e-15 8.440671087357388e-15 3.4918858557289266e-17
6.57002334288761 4.6025468585479736e-23 8.026654404188995e-15 7.991155429596709e-15 3.549897459228783e-17
