Dust emission spectrum from A.P. Jones, M. Kohler, N. Ysard, M. Bocchio, and L. Verstraete (2017), A&A, 602A, 46J 
inside the DustPedia framework.

lambda    nu*dP/dnu     j_nu    j_nu(carb.) j_nu(sil)
 (um)   (erg s-1 H-1) (Jy cm2 sr-1 H-1)
0.9927057738263894 2.6146643727614543e-24 6.889789132197993e-17 6.889789015353005e-17 1.168449873736385e-24
1.0001793341362166 2.6584722440439535e-24 7.057964023214492e-17 7.057963882539804e-17 1.406746858255647e-24
1.0077091589558085 2.702346947189996e-24 7.228459383415044e-17 7.228459214273283e-17 1.6914176145549626e-24
1.0114953028030835 2.724305728706345e-24 7.314575837194024e-17 7.31457565181792e-17 1.8537610304162427e-24
1.0152956718711033 2.746276884374218e-24 7.40127070965779e-17 7.401270506556148e-17 2.0310164358907926e-24
1.0229392996569957 2.790229258522162e-24 7.576335276467623e-17 7.576335032906203e-17 2.4356141980010506e-24
1.0267826658714554 2.812159145687453e-24 7.664571077200478e-17 7.664570810602694e-17 2.6659778528626986e-24
1.0306404723013447 2.8340946919270486e-24 7.753378444633268e-17 7.753378152916595e-17 2.9171667359799995e-24
1.03451277320114 2.8560345359535798e-24 7.842756748183452e-17 7.842756429086517e-17 3.1909693476310677e-24
1.0383996230291617 2.8779773322065574e-24 7.932705359939195e-17 7.932705011007288e-17 3.489319084677996e-24
1.0403485208654093 2.8889494213477374e-24 7.977893336313877e-17 7.977892971479315e-17 3.648345618131037e-24
1.0423010764483396 2.8999217513278668e-24 8.023223656335028e-17 8.023223274904506e-17 3.814305219272275e-24
1.0462171883269815 2.9218664806326175e-24 8.114311019849786e-17 8.114310603031323e-17 4.168184646808177e-24
1.0471985131304309 2.9273525592200142e-24 8.137171705814535e-17 8.137171279669482e-17 4.2614505292175125e-24
1.048180758391296 2.932838556063641e-24 8.16006791087698e-17 8.160067475205626e-17 4.356713534590247e-24
1.0501480137395462 2.9438102245752163e-24 8.205966840726609e-17 8.205966385387163e-17 4.553394452182778e-24
1.0521189612883777 2.9547813269778274e-24 8.252007734678017e-17 8.252007258821778e-17 4.758562394053903e-24
1.0531058218030118 2.9602588393575033e-24 8.275059655074886e-17 8.275059168630462e-17 4.864444224807807e-24
1.0540936079674168 2.9657106710417507e-24 8.298075704871828e-17 8.29807520761152e-17 4.97260307796189e-24
1.058054026499678 2.9875145499674517e-24 8.390489657637276e-17 8.390489114766141e-17 5.428711347804442e-24
1.0590464539527713 2.9929645614974666e-24 8.413680535909019e-17 8.413679981024419e-17 5.548845987952855e-24
1.06003981227728 2.998414151509101e-24 8.436906351094002e-17 8.436905783941743e-17 5.671522612128534e-24
1.0620293250338977 3.0093119911058985e-24 8.483462754464354e-17 8.483462161993622e-17 5.9247073004451005e-24
1.0660195594769086 3.031101781780618e-24 8.57699439275767e-17 8.576993746368052e-17 6.463896191615907e-24
1.070024785945596 3.0528827290198432e-24 8.671083987426337e-17 8.671083282442249e-17 7.049840893716655e-24
1.0740450607676866 3.0746536599874968e-24 8.765730972737265e-17 8.765730204099201e-17 7.686380608191796e-24
1.07808044048254 3.09641342240862e-24 8.86093480418873e-17 8.860933966423646e-17 8.37765082899224e-24
1.0861967418109137 3.1398593874439668e-24 9.052908445425999e-17 9.052907451172341e-17 9.942536582772453e-24
1.0902777775684922 3.1614625479886193e-24 9.149442552190143e-17 9.1494414695795e-17 1.082610640035085e-23
1.0943741465085532 3.18304872678679e-24 9.24652492565061e-17 9.246523747214643e-17 1.1784359679925453e-23
1.1026131145906286 3.226166021815267e-24 9.442332720223653e-17 9.442331325300987e-17 1.3949226650434665e-23
1.1109141095355224 3.2692032726565706e-24 9.640328672150858e-17 9.640327023109383e-17 1.6490414761552842e-23
1.1192775983109025 3.3121164737354544e-24 9.840402111482295e-17 9.840400164542846e-17 1.9469394464598482e-23
1.1277040513999907 3.354731162330195e-24 1.004204808568308e-16 1.0042045789983906e-16 2.2956991731103408e-23
1.1361939428280308 3.3972388007542275e-24 1.0245849643179853e-16 1.0245846939710244e-16 2.703469608769352e-23
1.1447477501889525 3.439633064771944e-24 1.0451806163914602e-16 1.0451802984300207e-16 3.1796143948754776e-23
1.1533659546722406 3.4819266130677805e-24 1.0659974705186884e-16 1.0659970970303204e-16 3.734883681536484e-23
1.1707974979042381 3.566342325222582e-24 1.1083431626917103e-16 1.1083426493020213e-16 5.1338968908125774e-23
1.1884924949847024 3.65028226137894e-24 1.1515752561453747e-16 1.1515745539682689e-16 7.021771059776365e-23
1.2064549276569216 3.734348855614793e-24 1.1959015288807227e-16 1.1959005732140345e-16 9.556666880834944e-23
1.2246888378427687 3.817842042207046e-24 1.241118212859789e-16 1.241116918538833e-16 1.294320956370276e-22
1.2431983285522175 3.90064121157004e-24 1.287199479634616e-16 1.2871977351131807e-16 1.7445214355562373e-22
1.2619875648066055 3.982805198043006e-24 1.3341773819025134e-16 1.3341750417953058e-16 2.3401072077116487e-22
1.3004222497298317 4.1443848254172025e-24 1.4305857654223827e-16 1.4305816137836102e-16 4.151638772617495e-22
1.3400274889804893 4.302647741129719e-24 1.530449247774353e-16 1.530442016794247e-16 7.2309801054610285e-22
1.3808389325824078 4.457773907113553e-24 1.6339188920131921e-16 1.6339065219784106e-16 1.2370034781674071e-21
1.4228933163050095 4.6109191942138574e-24 1.741523277800991e-16 1.7415024829968658e-16 2.0794804125485017e-21
1.466228494730424 4.7651306867540276e-24 1.8545814192204907e-16 1.8545470503376512e-16 3.436888283906838e-21
1.5108834753276823 4.919408688880963e-24 1.9729374119420063e-16 1.972881540026543e-16 5.5871915462976016e-21
1.5568984535646726 5.073069737939287e-24 2.0965274488390496e-16 2.0964380165330094e-16 8.943230604008337e-21
1.6043148490894465 5.227018649408116e-24 2.225938114365163e-16 2.2257969020142056e-16 1.4121235095738487e-20
1.6531753430134553 5.382265270398841e-24 2.3618561917194735e-16 2.361636496569677e-16 2.1969514979691133e-20
1.7035239163302658 5.540205914094754e-24 2.5052067590022904e-16 2.504869906089554e-16 3.3685291273699285e-20
1.755405889504358 5.705397103603938e-24 2.6584767192204663e-16 2.6579674481795915e-16 5.092710408746042e-20
1.8088679632656115 5.8776919776273255e-24 2.822169689127568e-16 2.821410238130511e-16 7.594509970565597e-20
1.8639582606462262 6.057060026952863e-24 2.996867167052254e-16 2.995749623302141e-16 1.117543750112934e-19
1.9207263702978936 6.244556991313843e-24 3.183732462044547e-16 3.182109134141582e-16 1.6233279029663385e-19
1.979223391128241 6.441798083214935e-24 3.384319496370411e-16 3.3819909133728615e-16 2.3285829975494516e-19
2.039501978296691 6.650435091683728e-24 3.600340891442252e-16 3.5970411876563247e-16 3.299703785926239e-19
2.1016163906111602 6.87456420224112e-24 3.8350236998395337e-16 3.830402716954302e-16 4.620982885230714e-19
2.1656225393682647 7.116580740222982e-24 4.0909443980341975e-16 4.084546777966228e-16 6.397620067970585e-19
2.231578038680979 7.37650669842929e-24 4.3695051240065316e-16 4.360745985197882e-16 8.759138808650074e-19
2.299542257339062 7.655590880030648e-24 4.672932892435384e-16 4.661069877109044e-16 1.1863015326340812e-18
2.369576372248914 7.956307248927707e-24 5.004396246792865e-16 4.988497647383021e-16 1.5898599409844679e-18
2.4417434235010123 8.281513066092019e-24 5.36758772607235e-16 5.346497445327331e-16 2.109028074501966e-18
2.5161083711144245 8.636205245196737e-24 5.767953237537087e-16 5.740251654700821e-16 2.7701582836266884e-18
2.5927381535095444 9.028409072087983e-24 6.213543171399082e-16 6.177505177978122e-16 3.6037993420961365e-18
2.6717017477616296 9.466514167054116e-24 6.713476867025522e-16 6.667029541903345e-16 4.644732512217845e-18
2.753070231689431 9.962860502882268e-24 7.28066038034471e-16 7.221339235863126e-16 5.932114448158371e-18
2.836916847834745 1.0546926802747621e-23 7.94222107179353e-16 7.867123533853004e-16 7.509753794052406e-18
2.9233170693905177 1.1283202751842236e-23 8.755435393229013e-16 8.661192944764274e-16 9.424244846474045e-18
2.967498994190263 1.1771048422098168e-23 9.272037079300717e-16 9.1669928932896e-16 1.0504418601111483e-17
3.0123486681368425 1.2308533749272097e-23 9.841946326440143e-16 9.725017627216593e-16 1.1692869922354926e-17
3.0578761833420214 1.3260121654323897e-23 1.0763086681924124e-15 1.0633063733114326e-15 1.3002294880979726e-17
3.1040917844459814 1.4415045489831225e-23 1.1877362314233003e-15 1.173306036275063e-15 1.443019514823691e-17
3.127460860933648 1.5522251195431017e-23 1.2885937593184212e-15 1.2733978599338695e-15 1.5195899384552164e-17
3.1510058709225794 1.6953333374077e-23 1.4179918919331986e-15 1.40199699689968e-15 1.5994895033518767e-17
3.162844764501044 1.8250036312987043e-23 1.532184423230451e-15 1.5157757164832347e-15 1.6408706747216224e-17
3.1747281389236908 1.9736169185554848e-23 1.6631783912524962e-15 1.6463472277737637e-15 1.683116347873284e-17
3.1986289994194426 2.3810165233046384e-23 2.0216022516361483e-15 2.0038975909584523e-15 1.7704660677695843e-17
3.2227097969389145 3.3276777270637444e-23 2.8466357043370756e-15 2.828004561417966e-15 1.863114291911045e-17
3.2348180950136065 4.2191359225868555e-23 3.622787107916351e-15 3.6036613133781395e-15 1.9125794538211366e-17
3.240889293275058 4.8848458054262254e-23 4.202275183176077e-15 4.182888468751933e-15 1.9386714424144733e-17
3.2469718861334385 5.655516507365962e-23 4.87438956855918e-15 4.854732873596408e-15 1.9656694962773394e-17
3.2714166318528037 9.735423230971137e-23 8.45395879701542e-15 8.433185669495482e-15 2.077312751994012e-17
3.2744851364798273 9.991072915520243e-23 8.684095383441205e-15 8.663190476112332e-15 2.0904907328873672e-17
3.2775565192852394 1.0253831668812303e-22 8.920841151578736e-15 8.899803786147466e-15 2.1037365431270518e-17
3.283707930232385 1.000443743058327e-22 8.72020364553267e-15 8.698928974377704e-15 2.1274671154969543e-17
3.2898708863219004 9.20790747738021e-23 8.040984664976501e-15 8.019493637793815e-15 2.149102718268641e-17
3.29141343181113 9.019886505162807e-23 7.880484934620871e-15 7.858939568964149e-15 2.1545365656719345e-17
3.292184975758714 8.927472858849752e-23 7.801573424587543e-15 7.780000852217825e-15 2.1572572369716174e-17
3.295272960557952 8.346790099160359e-23 7.30096590010856e-15 7.27928742438111e-15 2.167847572745104e-17
3.3076538914384823 6.328198987726701e-23 5.556094441992745e-15 5.533990405705194e-15 2.2104036287550554e-17
3.310756385682612 5.915458992363176e-23 5.198584486936274e-15 5.17637314299561e-15 2.2211343940666867e-17
3.313861789986515 5.533900426199843e-23 4.867827333420751e-15 4.845508313915075e-15 2.231901950567522e-17
3.3200813396944477 5.00028519671674e-23 4.4066943862892194e-15 4.384143949992833e-15 2.2550436296386965e-17
3.345076488085796 4.06108817829976e-23 3.6059350935804705e-15 3.582353843257481e-15 2.3581250322990478e-17
3.3482140837626964 4.098767920267799e-23 3.642805472861955e-15 3.619084601540096e-15 2.3720871321859775e-17
3.3513546224236106 4.1368268035724657e-23 3.68007912687529e-15 3.656217983400896e-15 2.3861143474395356e-17
3.3576445397418455 4.405369778754229e-23 3.926327469445562e-15 3.9021731201946304e-15 2.4154349250931958e-17
3.3702598118196083 5.385035174708636e-23 4.817495960912949e-15 4.792726557026017e-15 2.476940388693288e-17
3.382922481734668 5.61617381129598e-23 5.043151551299469e-15 5.017783501076531e-15 2.5368050222938778e-17
3.389271646505754 5.735629413204318e-23 5.1600854644287864e-15 5.1344138196407305e-15 2.5671644788054404e-17
3.395632727569191 5.865514866260854e-23 5.2868414173790935e-15 5.2608568947941915e-15 2.5984522584902996e-17
3.421196662673239 6.49119799335521e-23 5.89484416784837e-15 5.867563559667712e-15 2.728060818065985e-17
3.4276182099114902 6.3750659137442e-23 5.8002478787927556e-15 5.7726771268925786e-15 2.757075190017662e-17
3.4340518103208963 5.850533535111486e-23 5.3330020334643135e-15 5.305156418820116e-15 2.7845614644196534e-17
3.4469541582030403 5.101754948863422e-23 4.6679321537798764e-15 4.6395580845559545e-15 2.8374069223922123e-17
3.472904465399547 4.899631248511178e-23 4.516745967534771e-15 4.487155859451244e-15 2.9590108083527113e-17
3.4990501388274233 4.5878815482626215e-23 4.2611987925418496e-15 4.230362259604801e-15 3.083653293704871e-17
3.5253949054701885 3.4593023098212613e-23 3.237171606251079e-15 3.2051209330403205e-15 3.205067321075801e-17
3.5519380250092896 2.3916662107328597e-23 2.2549420244341378e-15 2.221668399731162e-15 3.327362470297673e-17
3.578680990867387 1.9759768364227808e-23 1.8770432031130045e-15 1.8424287714587167e-15 3.461443165428789e-17
3.605625307711299 1.8163041309985034e-23 1.738355504512207e-15 1.7023273440081236e-15 3.602816050408333e-17
3.660119384959845 1.7174256156162003e-23 1.6685630445242444e-15 1.6295576161256195e-15 3.900542839862466e-17
3.715437065384467 1.654027904054409e-23 1.6312561963579691e-15 1.5891017512938607e-15 4.2154445064108445e-17
3.8285932144167436 1.6624320752024924e-23 1.6894781054551068e-15 1.6405192818953997e-15 4.895882355970751e-17
3.94519561050918 1.7079015144205328e-23 1.7885488151878223e-15 1.7321150944457194e-15 5.643372074210261e-17
4.06534921144712 1.7686836647335116e-23 1.9086111429823745e-15 1.84402713284489e-15 6.45840101374845e-17
4.189162171576248 1.838320856749701e-23 2.044174285193793e-15 1.9707360564215515e-15 7.343822877224223e-17
4.316745939156006 1.9141811937881918e-23 2.1933551933119078e-15 2.1103761669907044e-15 8.297902632120245e-17
4.448215356677963 1.995132870977895e-23 2.3557384044163062e-15 2.2626460876847643e-15 9.30923167315417e-17
4.58368876423945 2.0810242626000138e-23 2.5319883188952163e-15 2.4281838284041293e-15 1.0380449049108791e-16
4.723288106065518 2.1723863524119553e-23 2.72364772716058e-15 2.608451931588726e-15 1.1519579557185385e-16
4.867139040275056 2.270181206598126e-23 2.9329435896996685e-15 2.8059484918882956e-15 1.2699509781137305e-16
4.940699165968905 2.3233893682915875e-23 3.047051830965584e-15 2.913965461459218e-15 1.330863695063662e-16
5.015371051989984 2.3769587839555295e-23 3.1644202366618454e-15 3.025130521035334e-15 1.392897156265111e-16
5.091171501069577 2.4367409654506588e-23 3.293036348679721e-15 3.147302451622088e-15 1.4573389705763288e-16
5.129500256944802 2.4667776919205747e-23 3.3587254203838614e-15 3.2097317074612353e-15 1.4899371292262597e-16
5.168117569889187 2.4974258658123855e-23 3.426055731485611e-15 3.2737481412982524e-15 1.5230759018735914e-16
5.20702561229733 2.5326651398454458e-23 3.5005551131170315e-15 3.3446445341220852e-15 1.5591057899494683e-16
5.246226572918644 2.5682174168313103e-23 3.576417924378188e-15 3.416868996373841e-15 1.5954892800434633e-16
5.265937586045735 2.5861137538286332e-23 3.614870673118256e-15 3.4534896427783256e-15 1.6138103033992989e-16
5.285722656980489 2.6040918180777154e-23 3.653676551055579e-15 3.4904549808812815e-15 1.632215701742977e-16
5.305582063971359 2.6221528636623276e-23 3.692839865897791e-15 3.5277694565354135e-15 1.6507040936237844e-16
5.3255160863122235 2.6411423199686217e-23 3.733558306467471e-15 3.566617398932205e-15 1.6694090753526604e-16
5.365609099470188 2.685996599874852e-23 3.825550342631765e-15 3.654739425474815e-15 1.708109171569505e-16
5.406003951863644 2.73170589583762e-23 3.919942818651349e-15 3.745224522273204e-15 1.7471829637814362e-16
5.446702915881641 2.7783135064812087e-23 4.016838501242654e-15 3.838176532847027e-15 1.7866196839562696e-16
5.487708281020852 2.8275028784673245e-23 4.118731730981345e-15 3.936075276173324e-15 1.826564548080217e-16
5.529022354014368 2.892430433427986e-23 4.245029389034723e-15 4.058206760812262e-15 1.8682262822245989e-16
5.570647458961463 2.9598210669002917e-23 4.3766373758988405e-15 4.185608492133241e-15 1.910288837656e-16
5.612585937458331 3.0298569884161137e-23 4.5139273687408676e-15 4.318653222741808e-15 1.9527414599905884e-16
5.654840148729818 3.105258908220587e-23 4.661091003017627e-15 4.461514209284411e-15 1.995767937332159e-16
5.67608639626678 3.1553666493218267e-23 4.7540994375720634e-15 4.552272543497552e-15 2.0182689407451057e-16
5.686739436050992 3.180998263922125e-23 4.801712956738575e-15 4.598756820904672e-15 2.0295613583390262e-16
5.6974124697621304 3.207027380533236e-23 4.850089609413072e-15 4.646001459166496e-15 2.0408815024657743e-16
5.718818669136295 3.26031657166037e-23 4.9492059999036475e-15 4.742845568795539e-15 2.0636043110810898e-16
5.740305295436557 3.3184890870705106e-23 5.0564395268108214e-15 4.847779855212077e-15 2.0865967159874513e-16
5.7835210386641895 3.4671828991578956e-23 5.322779857536273e-15 5.109363750526742e-15 2.1341610700953306e-16
5.827062130521658 3.6352775877467463e-23 5.6228521062833906e-15 5.4045916892118075e-15 2.1826041707158216e-16
5.8489554468988025 3.7524618475793076e-23 5.82591349259877e-15 5.605041278487662e-15 2.208722141111078e-16
5.870931020387893 3.876894058001354e-23 6.041716520958261e-15 5.818216455193659e-15 2.235000657646002e-16
5.892989160043636 4.0091468685461487e-23 6.271292272784628e-15 6.045148402367463e-15 2.2614387041716666e-16
5.915130176081913 4.158610973501698e-23 6.5295317050300145e-15 6.300648359971811e-15 2.2888334505820494e-16
5.95966208400165 4.574818639846432e-23 7.237106283947463e-15 7.002003633405805e-15 2.3510265054165776e-16
6.004529249263818 5.168953372199531e-23 8.238554372291699e-15 7.996464830104405e-15 2.420895421872951e-16
6.027089341400364 5.580449393594642e-23 8.927836666844556e-15 8.681721605293717e-15 2.4611506155083733e-16
6.049734195844842 6.063401856576985e-23 9.736930701915828e-15 9.486553604734552e-15 2.503770971812768e-16
6.095279466722835 7.454271661868736e-23 1.2060582166179492e-14 1.1799768493853177e-14 2.6081367232631035e-16
6.141167624020661 9.580484255784604e-23 1.5617368083132634e-14 1.5343057760292503e-14 2.7431032284013006e-16
6.164241091010745 1.0937220485518252e-22 1.7896001869018067e-14 1.761324424738581e-14 2.827576216322568e-16
6.187401249150058 1.247119705585491e-22 2.0482636380579857e-14 2.0191197182790396e-14 2.914391977894664e-16
6.1990139391386085 1.321900033659352e-22 2.175157252280329e-14 2.1455714338143904e-14 2.9585818465938403e-16
6.204828454712694 1.3611918773438785e-22 2.2419119967430377e-14 2.2121029006643726e-14 2.9809096078665017e-16
6.210648424152782 1.3898251069318726e-22 2.2912186255726732e-14 2.261218744799059e-14 2.9999880773613823e-16
6.233982942956859 1.486612352842662e-22 2.4599868179576573e-14 2.42931940914969e-14 3.066740880796707e-16
6.239830258556775 1.4987227707597648e-22 2.4823528556121396e-14 2.4515910445922017e-14 3.0761811019937927e-16
6.245683058788269 1.4993960365334797e-22 2.485797423026256e-14 2.454941029980415e-14 3.085639304583972e-16
6.257405133728602 1.4958683079243928e-22 2.4846033607905728e-14 2.453580373079443e-14 3.1022987711130544e-16
6.269149208991335 1.4757676307853708e-22 2.4558171043307788e-14 2.424727865345131e-14 3.1089238985647363e-16
6.280915325867298 1.4266600518086725e-22 2.3785532153937038e-14 2.3475219001783713e-14 3.103131521533171e-16
6.304513850009849 1.3060987380607208e-22 2.1857326818007154e-14 2.1549296882820055e-14 3.0802993518709445e-16
6.32820103803542 1.1576743151763791e-22 1.944626047128412e-14 1.9141710516887252e-14 3.0454995439686165e-16
6.3519772230701035 1.021880547995945e-22 1.7229731013475556e-14 1.6928281197247567e-14 3.0144981622799244e-16
6.375842739491607 9.074114792666525e-23 1.535717377943551e-14 1.5058435556523782e-14 2.987382229117275e-16
6.399797922933955 8.162734515930023e-23 1.386664399805762e-14 1.3569193873367227e-14 2.9745012469039005e-16
6.42384311029221 7.403060897915186e-23 1.2623380716872406e-14 1.2326935559060871e-14 2.9644515781153473e-16
6.447978639727206 6.852002430415782e-23 1.1727637445656005e-14 1.143108451839412e-14 2.965529272618869e-16
6.472204850670314 6.392074740137307e-23 1.0981547186582326e-14 1.0684664604202255e-14 2.9688258238006867e-16
6.496522083828205 6.094547813762776e-23 1.0509736819220572e-14 1.0211620531283212e-14 2.98116287937361e-16
