Dust emission spectrum from A.P. Jones, M. Kohler, N. Ysard, M. Bocchio, and L. Verstraete (2017), A&A, 602A, 46J 
inside the DustPedia framework.

lambda    nu*dP/dnu     j_nu    j_nu(carb.) j_nu(sil)
 (um)   (erg s-1 H-1) (Jy cm2 sr-1 H-1)
0.9927057738263894 9.919032777245192e-26 2.6137214757855475e-18 2.6137214757852556e-18 2.91667917453792e-31
1.0001793341362166 1.0082085669292916e-25 2.6766876386338266e-18 2.6766876386334754e-18 3.5148652445605193e-31
1.0077091589558085 1.0244881649404983e-25 2.7403850185714667e-18 2.740385018571044e-18 4.2304010724487935e-31
1.0114953028030835 1.0326163195664018e-25 2.7725046791203173e-18 2.7725046791198528e-18 4.638867761830114e-31
1.0152956718711033 1.040735645766555e-25 2.804803221166822e-18 2.8048032211663137e-18 5.085161557567922e-31
1.0229392996569957 1.0569366284779581e-25 2.8699097892656924e-18 2.8699097892650815e-18 6.10494563395233e-31
1.0267826658714554 1.0649985452390598e-25 2.9026653984422476e-18 2.9026653984415816e-18 6.686180002476951e-31
1.0306404723013447 1.0730480615294237e-25 2.9355927076172323e-18 2.9355927076165004e-18 7.320420241070533e-31
1.03451277320114 1.0810843989368084e-25 2.9686902796105805e-18 2.968690279609779e-18 8.012268918164968e-31
1.0383996230291617 1.0891067834830983e-25 3.0019566596997907e-18 3.001956659698914e-18 8.766706569861295e-31
1.0403485208654093 1.0931125028141083e-25 3.0186526934672704e-18 3.018652693466354e-18 9.169063153328924e-31
1.0423010764483396 1.0971144457722726e-25 3.0353903759632133e-18 3.0353903759622527e-18 9.589120819776476e-31
1.0462171883269815 1.1051066211350718e-25 3.0689899396237228e-18 3.068989939622674e-18 1.048533758217458e-30
1.0471985131304309 1.1071021559953766e-25 3.077415568151514e-18 3.0774155681504417e-18 1.0721650552916247e-30
1.048180758391296 1.1090966635872665e-25 3.0858514444607526e-18 3.085851444459656e-18 1.0963070526200809e-30
1.0501480137395462 1.113082549770348e-25 3.1027538453926313e-18 3.1027538453914854e-18 1.1461654484860647e-30
1.0521189612883777 1.1170641854924623e-25 3.1196969517347873e-18 3.1196969517335898e-18 1.1981956237742588e-30
1.0531058218030118 1.119050305025268e-25 3.1281751136071877e-18 3.1281751136059628e-18 1.2250548510892086e-30
1.0540936079674168 1.1210252520521834e-25 3.1366351746424574e-18 3.1366351746412048e-18 1.2524968667440562e-30
1.058054026499678 1.1289134148885356e-25 3.1705741256033157e-18 3.170574125601947e-18 1.368278290147541e-30
1.0590464539527713 1.1308824915037535e-25 3.179083417681649e-18 3.1790834176802497e-18 1.3987890317306595e-30
1.06003981227728 1.1328503594462876e-25 3.1876024823459068e-18 3.1876024823444773e-18 1.4299515902985841e-30
1.0620293250338977 1.1367824234169048e-25 3.2046698306754818e-18 3.2046698306739876e-18 1.4942854774761651e-30
1.0660195594769086 1.144631543658359e-25 3.2389207088796678e-18 3.2389207088780365e-18 1.631376135790523e-30
1.070024785945596 1.1524600473003857e-25 3.2733251648691226e-18 3.273325164867343e-18 1.7804758219077992e-30
1.0740450607676866 1.1602672118161233e-25 3.3078815892744986e-18 3.307881589272556e-18 1.942582961410315e-30
1.07808044048254 1.1680523205802534e-25 3.3425883590479833e-18 3.342588359045864e-18 2.1187742109866564e-30
1.0861967418109137 1.1835396947826232e-25 3.41240647311813e-18 3.4124064731156114e-18 2.5181419306321298e-30
1.0902777775684922 1.1912090878502653e-25 3.447423131381677e-18 3.447423131378932e-18 2.7439173022692654e-30
1.0943741465085532 1.1988530730065141e-25 3.482580938350205e-18 3.482580938347215e-18 2.9889864212210686e-30
1.1026131145906286 1.2140621004268325e-25 3.553313195206712e-18 3.553313195203168e-18 3.54337220733061e-30
1.1109141095355224 1.2291614056678447e-25 3.624589526405313e-18 3.624589526401119e-18 4.1952720692402635e-30
1.1192775983109025 1.244131618022495e-25 3.6963541282540945e-18 3.696354128249135e-18 4.960844816709086e-30
1.1277040513999907 1.2589027877833156e-25 3.768398037993434e-18 3.768398037987575e-18 5.858752615388091e-30
1.1361939428280308 1.2735467879814904e-25 3.84093367246249e-18 3.840933672455579e-18 6.910516431920712e-30
1.1447477501889525 1.2880587364057142e-25 3.913946629519882e-18 3.913946629511741e-18 8.140924826589392e-30
1.1533659546722406 1.3024418377961213e-25 3.987446775522693e-18 3.987446775513113e-18 9.578505501176119e-30
1.1707974979042381 1.3308684819380077e-25 4.1360555097745e-18 4.136055509761289e-18 1.3211214594957924e-29
1.1884924949847024 1.3587184500891074e-25 4.286426186121118e-18 4.286426186102986e-18 1.8132503356687907e-29
1.2064549276569216 1.386211502976461e-25 4.4392543917503694e-18 4.439254391725603e-18 2.4766907589187843e-29
1.2246888378427687 1.413045215894567e-25 4.5935796548233196e-18 4.593579654789653e-18 3.3666520829882506e-29
1.2431983285522175 1.4391567119192282e-25 4.749172431446102e-18 4.749172431400555e-18 4.554691729751346e-29
1.2619875648066055 1.4645364115640107e-25 4.9059676738432194e-18 4.90596767378189e-18 6.133081759555097e-29
1.3004222497298317 1.5126764538281976e-25 5.221555173314251e-18 5.2215551732045826e-18 1.0966840774590383e-28
1.3400274889804893 1.5572783008566625e-25 5.53922967325144e-18 5.539229673058865e-18 1.925767657434167e-28
1.3808389325824078 1.5981780308680366e-25 5.857841451466886e-18 5.857841451134652e-18 3.322342725730058e-28
1.4228933163050095 1.6355801681980875e-25 6.177512152459812e-18 6.177512151896414e-18 5.633980111974187e-28
1.466228494730424 1.670398915121258e-25 6.501166482760644e-18 6.501166481821066e-18 9.39577812493528e-28
1.5108834753276823 1.7019503427726534e-25 6.825701454959844e-18 6.825701453418183e-18 1.54165959728899e-27
1.5568984535646726 1.7296821880133956e-25 7.148189108890718e-18 7.14818910639939e-18 2.4913278253823494e-27
1.6043148490894465 1.7536488185034887e-25 7.46795449976129e-18 7.467954495788952e-18 3.9723372361251245e-27
1.6531753430134553 1.7739271364552133e-25 7.784381817705295e-18 7.784381811462903e-18 6.242393529350186e-27
1.7035239163302658 1.7907662719585874e-25 8.097604742254456e-18 8.097604732583812e-18 9.670644859146555e-27
1.755405889504358 1.8055934747114713e-25 8.41331134315739e-18 8.413311328380586e-18 1.4776803404503633e-26
1.8088679632656115 1.8180579473886327e-25 8.72939250938577e-18 8.729392487107308e-18 2.22784651993662e-26
1.8639582606462262 1.827922951259311e-25 9.04406139637704e-18 9.044061363222175e-18 3.315486473132423e-26
1.9207263702978936 1.8353624539694637e-25 9.357434054086363e-18 9.35743400536307e-18 4.872329114333839e-26
1.979223391128241 1.8407796621305402e-25 9.670881357338972e-18 9.670881286605118e-18 7.073385451584818e-26
2.039501978296691 1.8446566281047361e-25 9.986403291328153e-18 9.986403189847784e-18 1.0148037023353036e-25
2.1016163906111602 1.8483407475151583e-25 1.0311098076280839e-17 1.0311097932338593e-17 1.439422417930164e-25
2.1656225393682647 1.8526131435166223e-25 1.064968927895053e-17 1.0649689077018794e-17 2.0193173451654982e-25
2.231578038680979 1.8575301590421457e-25 1.100315892027808e-17 1.1003158640008603e-17 2.802694781934314e-25
2.299542257339062 1.863559598721811e-25 1.1375070954478664e-17 1.1375070569492304e-17 3.8498636074814873e-25
2.369576372248914 1.8717355522867584e-25 1.1772931939141778e-17 1.1772931415583153e-17 5.235586278828101e-25
2.4417434235010123 1.8832791633047867e-25 1.220630341466427e-17 1.220630270951818e-17 7.051460888740281e-25
2.5161083711144245 1.9002811408045673e-25 1.2691607537269314e-17 1.2691606596375515e-17 9.408937991955724e-25
2.5927381535095444 1.9261633281339816e-25 1.325626574844415e-17 1.3256264504211875e-17 1.244232271541574e-24
2.6717017477616296 1.9650136363323349e-25 1.3935513493254583e-17 1.3935511862124187e-17 1.631130399175085e-24
2.753070231689431 2.0229866967269856e-25 1.478358458252382e-17 1.47835824620856e-17 2.1204382121748138e-24
2.836916847834745 2.1140253280288565e-25 1.5919382793290998e-17 1.5919380058963472e-17 2.7343275247577496e-24
2.9233170693905177 2.268837845204352e-25 1.7605518227664815e-17 1.760551472949767e-17 3.4981671450746454e-24
2.967498994190263 2.4004744153539507e-25 1.890850074602549e-17 1.8908496806163284e-17 3.939862211348413e-24
3.0123486681368425 2.5542563733923913e-25 2.042392265641083e-17 2.0423918224693527e-17 4.431717298171327e-24
3.0578761833420214 2.8986173332504108e-25 2.352774011340142e-17 2.3527735133417797e-17 4.979983630658758e-24
3.1040917844459814 3.342510565086065e-25 2.7540814247644596e-17 2.7540808661101054e-17 5.5865435491795435e-24
3.127460860933648 3.8121718066091337e-25 3.164708995878196e-17 3.1647084043462594e-17 5.915319355092668e-24
3.1510058709225794 4.438024954674903e-25 3.712003570665838e-17 3.7120029445651616e-17 6.261006759104685e-24
3.162844764501044 5.020562632074605e-25 4.215020577928121e-17 4.2150199338183836e-17 6.44109737227399e-24
3.1747281389236908 5.698092611330777e-25 4.801815597252353e-17 4.801814934685363e-17 6.625669894244437e-24
3.1986289994194426 7.5881469554433715e-25 6.442716722343217e-17 6.442716021385663e-17 7.009575534758023e-24
3.2227097969389145 1.2043458161468188e-24 1.030248143541707e-16 1.0302480693417708e-16 7.419993612673278e-24
3.2348180950136065 1.6268575266331483e-24 1.396911259092512e-16 1.3969111826906159e-16 7.640189572223709e-24
3.240889293275058 1.9427350687670752e-24 1.6712722759635623e-16 1.6712721983980944e-16 7.75654682285909e-24
3.2469718861334385 2.3081501320718575e-24 1.9893537419236695e-16 1.9893536631527186e-16 7.877095118832276e-24
3.2714166318528037 4.257391656834501e-24 3.696995271364879e-16 3.6969951875803397e-16 8.378453994076236e-24
3.2744851364798273 4.379227685744899e-24 3.8063610635590045e-16 3.806360979177535e-16 8.438147131430987e-24
3.2775565192852394 4.504563352138424e-24 3.9189734549547634e-16 3.9189733699726117e-16 8.498214886117966e-24
3.283707930232385 4.3839640481913626e-24 3.8212102919507877e-16 3.821210205885077e-16 8.606571139732739e-24
3.2898708863219004 4.0016137908232444e-24 3.4944872335232267e-16 3.494487146462582e-16 8.706064366669925e-24
3.29141343181113 3.911447502457311e-24 3.4173493311730864e-16 3.417349243862245e-16 8.731084120694013e-24
3.292184975758714 3.867143194563292e-24 3.379433581349104e-16 3.3794334939129453e-16 8.743616035106712e-24
3.295272960557952 3.5874889612910736e-24 3.137988887013798e-16 3.137988799088732e-16 8.792506528649281e-24
3.3076538914384823 2.618731433649683e-24 2.299219602890444e-16 2.299219512995207e-16 8.989523644884052e-24
3.310756385682612 2.4215765046318634e-24 2.1281138229781672e-16 2.128113732584846e-16 9.039332095765983e-24
3.313861789986515 2.2396747919272882e-24 1.970102338397836e-16 1.9701022475041987e-16 9.089363649603855e-24
3.3200813396944477 1.984571911711878e-24 1.7489806197995175e-16 1.7489805278326908e-16 9.196682757088956e-24
3.345076488085796 1.5294471178485754e-24 1.3580318362687375e-16 1.3580317395162765e-16 9.675246105888097e-24
3.3482140837626964 1.5465001656566054e-24 1.3744616374541457e-16 1.374461540052001e-16 9.740214447340591e-24
3.3513546224236106 1.5637417687508095e-24 1.3910888021788302e-16 1.3910887041232348e-16 9.805559601556194e-24
3.3576445397418455 1.6897961844504637e-24 1.5060468269359094e-16 1.506046727513894e-16 9.942201509846697e-24
3.3702598118196083 2.1547807131422388e-24 1.92768422961648e-16 1.9276841273213777e-16 1.0229510223991797e-23
3.382922481734668 2.2606259443329242e-24 2.0299726506220096e-16 2.0299725455140783e-16 1.0510793108338492e-23
3.389271646505754 2.3154608905498636e-24 2.0831150731728887e-16 2.083114966633473e-16 1.0653941544515157e-23
3.395632727569191 2.3745420868530217e-24 2.1402771518482492e-16 2.1402770438323637e-16 1.0801588551240245e-23
3.421196662673239 2.658207537136295e-24 2.4139949533597584e-16 2.413994839196743e-16 1.1416301494406777e-23
3.4276182099114902 2.600967580354975e-24 2.366447170097135e-16 2.3664470545376307e-16 1.1555950483017668e-23
3.4340518103208963 2.3502785718963878e-24 2.1423756188916863e-16 2.1423755020002594e-16 1.1689142683452086e-23
3.4469541582030403 1.9932621155704767e-24 1.8237670004623767e-16 1.8237668809902776e-16 1.1947209855328955e-23
3.472904465399547 1.89315180507365e-24 1.7452100674098468e-16 1.7452099420009232e-16 1.2540892275870538e-23
3.4990501388274233 1.7400730691461273e-24 1.6161701611472443e-16 1.6161700295917818e-16 1.3155546229754256e-23
3.5253949054701885 1.1954773615682767e-24 1.118712683710126e-16 1.1187125460883213e-16 1.3762180481047938e-23
3.5519380250092896 6.837047875275232e-25 6.446194919608824e-17 6.446193481543831e-17 1.43806499367696e-23
3.578680990867387 4.807824543852943e-25 4.567105350352478e-17 4.5671038440804356e-17 1.5062720418612998e-23
3.605625307711299 3.986891455128192e-25 3.8157897615443375e-17 3.8157881827053286e-17 1.5788390080503082e-23
3.660119384959845 3.3876329693063474e-25 3.291251236501695e-17 3.291249502317955e-17 1.7341837404376846e-23
3.715437065384467 2.9632509232628627e-25 2.922454583799458e-17 2.9224526816047144e-17 1.902194744249776e-23
3.8285932144167436 2.7469906391853737e-25 2.791681302364504e-17 2.7916790235537e-17 2.2788108027522598e-23
3.94519561050918 2.7045369448973557e-25 2.832245482298229e-17 2.832242768049267e-17 2.71424896214332e-23
4.06534921144712 2.7334702955107106e-25 2.949725815333481e-17 2.949722599347071e-17 3.21598640993237e-23
4.189162171576248 2.80376343755523e-25 3.117726211816199e-17 3.117722417840979e-17 3.793975220187659e-23
4.316745939156006 2.9042325580464583e-25 3.327800724637973e-17 3.3277962672197346e-17 4.457418237236058e-23
4.448215356677963 3.0311277255329877e-25 3.5789816786634575e-17 3.5789764671228435e-17 5.2115406146512047e-23
4.58368876423945 3.1849084042812253e-25 3.875087389089826e-17 3.8750813178427456e-17 6.071247079607637e-23
4.723288106065518 3.369144266551339e-25 4.224093064238012e-17 4.224086006765895e-17 7.057472114867569e-23
4.867139040275056 3.5909749267167536e-25 4.639333134057861e-17 4.6393249612252223e-17 8.17283263804176e-23
4.940699165968905 3.7249339554895976e-25 4.8851333247023835e-17 4.8851245366943265e-17 8.788008056951566e-23
5.015371051989984 3.8637112470915345e-25 5.143718158447956e-17 5.1437087142701185e-17 9.444177836683672e-23
5.091171501069577 4.033162070047757e-25 5.4504559512452384e-17 5.450445797347215e-17 1.015389802173739e-22
5.129500256944802 4.1201533475430826e-25 5.609935516117916e-17 5.609924989781238e-17 1.0526336678151514e-22
5.168117569889187 4.2108631621089565e-25 5.776608654748668e-17 5.776597741960157e-17 1.0912788513262954e-22
5.20702561229733 4.322231566226732e-25 5.974026953343753e-17 5.974015625607961e-17 1.1327735793606338e-22
5.246226572918644 4.4364603615149725e-25 6.178073652849796e-17 6.178061895862089e-17 1.1756987706159194e-22
5.265937586045735 4.494676091590113e-25 6.282659749440985e-17 6.282647772312161e-17 1.197712882338363e-22
5.285722656980489 4.55364184096919e-25 6.388996847482958e-17 6.388984646453497e-17 1.220102946189185e-22
5.305582063971359 4.613369779751318e-25 6.497117721428037e-17 6.497105292674905e-17 1.2428753132325354e-22
5.3255160863122235 4.677545647615596e-25 6.6122485238673e-17 6.612235862570082e-17 1.2661297219079706e-22
5.365609099470188 4.837422228458542e-25 6.889734061612857e-17 6.889720915895495e-17 1.3145717363142066e-22
5.406003951863644 5.003410537655343e-25 7.179793123312272e-17 7.179779476092125e-17 1.364722014929548e-22
5.446702915881641 5.1758064919282205e-25 7.483093158226912e-17 7.483078991819736e-17 1.4166407177648244e-22
5.487708281020852 5.36211517891645e-25 7.810819257079358e-17 7.810804551862499e-17 1.470521685723066e-22
5.529022354014368 5.621111946554782e-25 8.249735287116049e-17 8.249720012316233e-17 1.5274799815280002e-22
5.570647458961463 5.8954182372122955e-25 8.717455285417154e-17 8.717439420313938e-17 1.5865103214338201e-22
5.612585937458331 6.186137191377416e-25 9.216201979731623e-17 9.21618550283968e-17 1.647689194779188e-22
5.654840148729818 6.505747994719251e-25 9.765331762130725e-17 9.765314649254854e-17 1.7112875870440823e-22
5.67608639626678 6.7234268087852355e-25 1.0129992220419998e-16 1.0129974772481691e-16 1.7447938303586395e-22
5.686739436050992 6.835636235013558e-25 1.0318384467379842e-16 1.0318366849559862e-16 1.7617819977367963e-22
5.6974124697621304 6.9501640792468245e-25 1.0510954408772828e-16 1.0510936619484122e-16 1.7789288706729784e-22
5.718818669136295 7.186398515049833e-25 1.0909053113903668e-16 1.0909034976855146e-16 1.8137048522719295e-22
5.740305295436557 7.446814575869196e-25 1.1346840861090917e-16 1.1346822367679053e-16 1.8493411864629309e-22
5.7835210386641895 8.122418801864095e-25 1.2469445209693635e-16 1.2469425966652383e-16 1.9243041251823154e-22
5.827062130521658 8.900812573531516e-25 1.3767298787693564e-16 1.3767278760474923e-16 2.002721864526264e-22
5.8489554468988025 9.446855131676988e-25 1.4666787567678183e-16 1.4666767115240652e-16 2.0452437532795296e-22
5.870931020387893 1.0032872093414838e-24 1.5635136831852098e-16 1.5635115945107442e-16 2.0886744654876159e-22
5.892989160043636 1.0662082653755264e-24 1.667812099448827e-16 1.6678099664138228e-16 2.1330350042398827e-22
5.915130176081913 1.1377709092800237e-24 1.7864405380888915e-16 1.7864383588208603e-16 2.1792680316899565e-22
5.95966208400165 1.3378585483414906e-24 2.1164171237092025e-16 2.1164148406357823e-16 2.28307341972932e-22
6.004529249263818 1.6262682323711416e-24 2.5920332979554623e-16 2.5920308967198403e-16 2.40123562311338e-22
6.027089341400364 1.8267502844430554e-24 2.9225116151647515e-16 2.922509145734375e-16 2.469430376742368e-22
6.049734195844842 2.063678663190635e-24 3.3139641095556967e-16 3.3139615671939844e-16 2.5423617130576774e-22
6.095279466722835 2.7480644226080684e-24 4.446209941121251e-16 4.446207220691287e-16 2.7204299640131155e-22
6.141167624020661 3.801332488690456e-24 6.19663965800104e-16 6.1966367062416965e-16 2.95175934285503e-22
6.164241091010745 4.473925526331886e-24 7.320450354557265e-16 7.320447258944409e-16 3.0956128578826685e-22
6.187401249150058 5.240138533306822e-24 8.606379297903816e-16 8.606376050355301e-16 3.2475485180601843e-22
6.1990139391386085 5.614256232981458e-24 9.23813439018083e-16 9.23813106477456e-16 3.3254062722875254e-22
6.204828454712694 5.8113303150814745e-24 9.57138473074084e-16 9.571381365550107e-16 3.3651907327705975e-22
6.210648424152782 5.9551864935045626e-24 9.817518869548897e-16 9.817515469845655e-16 3.3997032416320193e-22
6.233982942956859 6.443921737289664e-24 1.0663144631733793e-15 1.066314110731041e-15 3.524423385844961e-22
6.239830258556775 6.506393514363263e-24 1.0776619155474802e-15 1.077661561101165e-15 3.5444631506119683e-22
6.245683058788269 6.511802182896802e-24 1.0795694193593515e-15 1.0795690628973937e-15 3.564619577157295e-22
6.257405133728602 6.4983562062516856e-24 1.0793622395858185e-15 1.0793618794315885e-15 3.601542298419039e-22
6.269149208991335 6.402209265202319e-24 1.0653882556443925e-15 1.0653878933887825e-15 3.6225561013841986e-22
6.280915325867298 6.161129678955123e-24 1.0271945856868776e-15 1.0271942233147514e-15 3.623721258103986e-22
6.304513850009849 5.566638436426545e-24 9.315669025399422e-16 9.31566541754964e-16 3.607849781272363e-22
6.32820103803542 4.8297779933314416e-24 8.112913938363542e-16 8.112910366957671e-16 3.571405870897136e-22
6.3519772230701035 4.154042470603102e-24 7.004050965390223e-16 7.004047425095441e-16 3.5402947824629454e-22
6.375842739491607 3.585589814817634e-24 6.068308275362594e-16 6.068304759407531e-16 3.515955061802798e-22
6.399797922933955 3.1299941646012057e-24 5.317153793476964e-16 5.317150279925316e-16 3.5135516485751373e-22
6.42384311029221 2.75123803386488e-24 4.691292645451065e-16 4.691289129026196e-16 3.5164248686638126e-22
6.447978639727206 2.475238713739902e-24 4.236528302636929e-16 4.23652476484682e-16 3.5377901108664408e-22
6.472204850670314 2.2453411131260546e-24 3.857482959161613e-16 3.8574793956826233e-16 3.563478988615968e-22
6.496522083828205 2.095941149636329e-24 3.614343597651169e-16 3.6143399927529647e-16 3.6048982040959314e-22
6.520930681187647 1.970104029556917e-24 3.410108332780281e-16 3.4101046833524736e-16 3.649427806893957e-22
