Dust emission spectrum from A.P. Jones, M. Kohler, N. Ysard, M. Bocchio, and L. Verstraete (2017), A&A, 602A, 46J 
inside the DustPedia framework.

lambda    nu*dP/dnu     j_nu    j_nu(carb.) j_nu(sil)
 (um)   (erg s-1 H-1) (Jy cm2 sr-1 H-1)
0.9927057738263894 9.758324583150707e-26 2.571373953837331e-18 2.5713739534865123e-18 3.5081882444495703e-28
1.0001793341362166 9.919358666173829e-26 2.6334853318881683e-18 2.633485331465643e-18 4.225251874538883e-28
1.0077091589558085 1.0080163871089748e-25 2.6963249554653543e-18 2.6963249549571245e-18 5.082288718331557e-28
1.0114953028030835 1.0160460926295543e-25 2.7280147453027048e-18 2.728014744745582e-18 5.571229103020643e-28
1.0152956718711033 1.0240677164072212e-25 2.759882820729489e-18 2.759882820118967e-18 6.1052203211777905e-28
1.0229392996569957 1.040075719665444e-25 2.8241272078382397e-18 2.8241272071057815e-18 7.324583860144229e-28
1.0267826658714554 1.048042672201431e-25 2.856451977600761e-18 2.856451976798849e-18 8.019119345013204e-28
1.0306404723013447 1.0559980352733944e-25 2.8889480748777224e-18 2.8889480740000573e-18 8.776649261874238e-28
1.03451277320114 1.0639410449783172e-25 2.921614113950852e-18 2.9216141129905913e-18 9.602605828670023e-28
1.0383996230291617 1.071870941721591e-25 2.954448691935588e-18 2.9544486908853017e-18 1.0502863559126258e-27
1.0403485208654093 1.075830736573522e-25 2.970928740008027e-18 2.970928738909746e-18 1.0982820335976092e-27
1.0423010764483396 1.079786970363639e-25 2.9874503891206513e-18 2.987450387972274e-18 1.1483772980033045e-27
1.0462171883269815 1.0876883803633371e-25 3.0206177693081635e-18 3.0206177680529425e-18 1.2552196728957243e-27
1.0471985131304309 1.0896613611955751e-25 3.028935332477518e-18 3.0289353311941345e-18 1.2833832855524612e-27
1.048180758391296 1.0916333701201618e-25 3.037263137291738e-18 3.037263135979587e-18 1.312152053336629e-27
1.0501480137395462 1.095574425918213e-25 3.053949380154155e-18 3.053949378782599e-18 1.3715548185681117e-27
1.0521189612883777 1.0995114552950688e-25 3.0706763138855035e-18 3.070676312451974e-18 1.4335299191586286e-27
1.0531058218030118 1.1014754070473358e-25 3.079046528205916e-18 3.0790465267403986e-18 1.4655171229363878e-27
1.0540936079674168 1.1034284094024382e-25 3.087399106572806e-18 3.0873991050746124e-18 1.4981945209699599e-27
1.058054026499678 1.1112293694443913e-25 3.120908158150239e-18 3.1209081565142164e-18 1.6360214749490084e-27
1.0590464539527713 1.1131767903859904e-25 3.1293099874227192e-18 3.12930998575039e-18 1.672330447512334e-27
1.06003981227728 1.1151230610837585e-25 3.1377215957888296e-18 3.1377215940794192e-18 1.7094104543323275e-27
1.0620293250338977 1.1190121066848994e-25 3.1545740544393994e-18 3.1545740526534522e-18 1.785946172358494e-27
1.0660195594769086 1.126775900472393e-25 3.1883952687886568e-18 3.1883952668396823e-18 1.9489755866372e-27
1.070024785945596 1.1345200356859106e-25 3.2223702605205812e-18 3.222370258394386e-18 2.1261956035051725e-27
1.0740450607676866 1.142243802853816e-25 3.2564974752745343e-18 3.2564974729557574e-18 2.3187767910063316e-27
1.07808044048254 1.1499464982692878e-25 3.2907753453487675e-18 3.2907753428207872e-18 2.527980558538189e-27
1.0861967418109137 1.165272269785564e-25 3.359737450201571e-18 3.3597374471997748e-18 3.0017959351400947e-27
1.0902777775684922 1.1728629996182812e-25 3.394328565879788e-18 3.3943285626103413e-18 3.269446933850161e-27
1.0943741465085532 1.1804293620448164e-25 3.429061398672189e-18 3.429061395112376e-18 3.5598129399642585e-27
1.1026131145906286 1.1954863138491066e-25 3.4989456405859295e-18 3.4989456363698085e-18 4.216120868562672e-27
1.1109141095355224 1.2104378490924862e-25 3.56937691824241e-18 3.569376913255396e-18 4.987013771124901e-27
1.1192775983109025 1.2252649118927252e-25 3.640300551543154e-18 3.640300545651846e-18 5.891307175943002e-27
1.1277040513999907 1.2398986556699274e-25 3.7115110925796734e-18 3.7115110856289745e-18 6.950698804691869e-27
1.1361939428280308 1.2544098283253586e-25 3.7832178559526834e-18 3.7832178477625076e-18 8.190173707319497e-27
1.1447477501889525 1.2687936331855023e-25 3.855406918802568e-18 3.855406909164101e-18 9.638466215456508e-27
1.1533659546722406 1.2830532188352786e-25 3.9280882046339774e-18 3.928088193305383e-18 1.1328594084700348e-26
1.1707974979042381 1.3112459000190742e-25 4.0750727085711675e-18 4.075072692979685e-18 1.5591482899867158e-26
1.1884924949847024 1.3388815416601728e-25 4.223845565584248e-18 4.223845544232108e-18 2.1352138699013247e-26
1.2064549276569216 1.3661764831953298e-25 4.375093511999176e-18 4.375093482900847e-18 2.909832927845233e-26
1.2246888378427687 1.3928332149268058e-25 4.527873734457567e-18 4.5278736949952826e-18 3.9462283545432673e-26
1.2431983285522175 1.4187897476169915e-25 4.681962082096837e-18 4.681962028836186e-18 5.326065205049219e-26
1.2619875648066055 1.4440368937522055e-25 4.837297498817193e-18 4.8372974272742816e-18 7.154291005840514e-26
1.3004222497298317 1.4919856178761445e-25 5.1501331972319096e-18 5.150133069945294e-18 1.2728661535147138e-25
1.3400274889804893 1.5364958515912212e-25 5.465306624564093e-18 5.465306402216753e-18 2.2234734032202654e-25
1.3808389325824078 1.5774071178646759e-25 5.781709310475175e-18 5.781708928957216e-18 3.8151796039538422e-25
1.4228933163050095 1.6149222466201525e-25 6.099488119108484e-18 6.099487475762002e-18 6.433464809758846e-25
1.466228494730424 1.649944481060713e-25 6.421558144935187e-18 6.421557078246234e-18 1.0666889524404427e-24
1.5108834753276823 1.6818025567714096e-25 6.744898408732969e-18 6.7448966689929736e-18 1.7397399944747005e-24
1.5568984535646726 1.709954584920765e-25 7.066661624507458e-18 7.066658830440167e-18 2.7940672902750038e-24
1.6043148490894465 1.7344572418032402e-25 7.386226721620142e-18 7.386222294788683e-18 4.426831458793265e-24
1.6531753430134553 1.7553901684857657e-25 7.703037531656941e-18 7.703030620463517e-18 6.911193421845012e-24
1.7035239163302658 1.7730030763211028e-25 8.017281955588184e-18 8.017271320983182e-18 1.063460500413543e-23
1.755405889504358 1.788709693491663e-25 8.334639975520388e-18 8.334623838784685e-18 1.6136735705010763e-23
1.8088679632656115 1.8021694253900505e-25 8.653103882216955e-18 8.653079728137038e-18 2.4154079916793598e-23
1.8639582606462262 1.813153237619676e-25 8.970984904355457e-18 8.970949224848645e-18 3.5679506814452606e-23
1.9207263702978936 1.821838243619418e-25 9.288482057051418e-18 9.28843002568072e-18 5.2031370701159206e-23
1.979223391128241 1.828628130144131e-25 9.607041003945206e-18 9.606966066635572e-18 7.493730963279961e-23
2.039501978296691 1.8340040454948293e-25 9.928733487411302e-18 9.92862685891923e-18 1.0662849207261083e-22
2.1016163906111602 1.839304114024222e-25 1.0260686584606635e-17 1.0260536626081683e-17 1.4995852495182567e-22
2.1656225393682647 1.8453062694010627e-25 1.0607685939395565e-17 1.0607477421909221e-17 2.085174863431071e-22
2.231578038680979 1.8520694905732356e-25 1.097081241829431e-17 1.0970525654918615e-17 2.867633756946969e-22
2.299542257339062 1.8600604621119644e-25 1.135371240643774e-17 1.1353322240780518e-17 3.901656572229569e-22
2.369576372248914 1.8703043459741732e-25 1.1763929869117328e-17 1.1763404504759438e-17 5.253643578947688e-22
2.4417434235010123 1.884010577548019e-25 1.221104400987111e-17 1.2210343699013837e-17 7.003108572718297e-22
2.5161083711144245 1.9032478940352864e-25 1.2711421904130982e-17 1.2710497457469839e-17 9.244466611465326e-22
2.5927381535095444 1.931398252201754e-25 1.3292293609426497e-17 1.3291084760437098e-17 1.2088489893974773e-21
2.6717017477616296 1.9724920982355446e-25 1.398854936274376e-17 1.3986983062653517e-17 1.566300090242592e-21
2.753070231689431 2.0325935215537726e-25 1.485378934839107e-17 1.485177794622353e-17 2.0114021675419603e-21
2.836916847834745 2.125444166430173e-25 1.6005370816781135e-17 1.600281007255266e-17 2.5607442284775395e-21
2.9233170693905177 2.2813019294734444e-25 1.7702235876858867e-17 1.769900348047455e-17 3.2323963843133655e-21
2.967498994190263 2.4127257701409858e-25 1.9005004482807173e-17 1.900139023002392e-17 3.614252783255808e-21
3.0123486681368425 2.5660014291371978e-25 2.0517836529985138e-17 2.051380069214856e-17 4.035837836582162e-21
3.0578761833420214 2.907150271765705e-25 2.3597000983916663e-17 2.359249913146419e-17 4.501852452464274e-21
3.1040917844459814 3.3462897114435507e-25 2.757195274842702e-17 2.7566940569564534e-17 5.012178862482268e-21
3.127460860933648 3.809991060159584e-25 3.162898629437037e-17 3.162369960161246e-17 5.286692757895619e-21
3.1510058709225794 4.427509961812886e-25 3.703208737052247e-17 3.7026513599497727e-17 5.573771024743501e-21
3.162844764501044 5.002038953364876e-25 4.1994689968281005e-17 4.198896727208065e-17 5.722696200342359e-21
3.1747281389236908 5.670033120722457e-25 4.77816970224074e-17 4.7775822119072816e-17 5.874903334578404e-21
3.1986289994194426 7.532797154548873e-25 6.39572196988319e-17 6.395102955783589e-17 6.190140996030544e-21
3.2227097969389145 1.1922733184675997e-24 1.019920820479532e-16 1.0198555688081617e-16 6.525167137020261e-21
3.2348180950136065 1.608532429585914e-24 1.3811763013779166e-16 1.3811092592354512e-16 6.704214246550496e-21
3.240889293275058 1.919733368429484e-24 1.6514846555657722e-16 1.6514166689203536e-16 6.798664541805709e-21
3.2469718861334385 2.2797485060573064e-24 1.9648748832031377e-16 1.9648059191998865e-16 6.896400325099682e-21
3.2714166318528037 4.199926430242786e-24 3.647094137501278e-16 3.6470211264208347e-16 7.301108044283351e-21
3.2744851364798273 4.319966794678904e-24 3.7548523582501493e-16 3.7547788679789425e-16 7.349027120479633e-21
3.2775565192852394 4.443453453522667e-24 3.8658077978669484e-16 3.865733825795148e-16 7.397207180002336e-21
3.283707930232385 4.324721668940274e-24 3.76957264464679e-16 3.769497806438267e-16 7.483820852359028e-21
3.2898708863219004 3.94814694145172e-24 3.447796265250883e-16 3.4477206346298095e-16 7.563062107300771e-21
3.29141343181113 3.8593401279691216e-24 3.3718242151528593e-16 3.371748385439299e-16 7.58297135608199e-21
3.292184975758714 3.815703440844886e-24 3.334481216674143e-16 3.334405287265635e-16 7.592940850911222e-21
3.295272960557952 3.5402810788764315e-24 3.0966959905073536e-16 3.0966196725179796e-16 7.631798937463615e-21
3.3076538914384823 2.5860904969962594e-24 2.270561192010309e-16 2.2704833110908066e-16 7.788091950288035e-21
3.310756385682612 2.3918763092454995e-24 2.102012894006492e-16 2.1019346186784122e-16 7.82753280797844e-21
3.313861789986515 2.2126787230042474e-24 1.9463555789555567e-16 1.9462769077429793e-16 7.867121257804226e-21
3.3200813396944477 1.961384417974393e-24 1.7285457456942996e-16 1.7284662248764154e-16 7.952081788417627e-21
3.345076488085796 1.5131893505190597e-24 1.3435961847431138e-16 1.343512882364598e-16 8.330237851545372e-21
3.3482140837626964 1.5300137379095878e-24 1.3598092222910899e-16 1.359725407798314e-16 8.3814492775705e-21
3.3513546224236106 1.547023886514294e-24 1.376216743863256e-16 1.376132414705385e-16 8.432915787138585e-21
3.3576445397418455 1.6712686891134564e-24 1.4895340215336156e-16 1.4894486170468052e-16 8.540448681059222e-21
3.3702598118196083 2.1294609786310977e-24 1.905032990621479e-16 1.9049453300153842e-16 8.766060609511872e-21
3.382922481734668 2.2338735152633062e-24 2.0059497911634736e-16 2.0058599293497855e-16 8.986181368838663e-21
3.389271646505754 2.287964471914398e-24 2.0583777932855102e-16 2.058286814086525e-16 9.097919898559714e-21
3.395632727569191 2.346257318985119e-24 2.1147828711832834e-16 2.1146907403632326e-16 9.213082005094131e-21
3.421196662673239 2.626168146680014e-24 2.3848990585548304e-16 2.384802151012212e-16 9.690754261833705e-21
3.4276182099114902 2.569829566642234e-24 2.3381167652933564e-16 2.338018782681076e-16 9.798261228082696e-21
3.4340518103208963 2.3228419218107636e-24 2.1173659834763939e-16 2.117266979637548e-16 9.900383884528921e-21
3.4469541582030403 1.971076396535138e-24 1.8034678225759798e-16 1.8033668496192688e-16 1.009729567108771e-20
3.472904465399547 1.8725561873950838e-24 1.726223909395032e-16 1.7261184127350551e-16 1.0549665997733371e-20
3.4990501388274233 1.72184813857075e-24 1.5992429472806689e-16 1.599132800196014e-16 1.1014708465478773e-20
3.5253949054701885 1.185341476968517e-24 1.1092276503444599e-16 1.1091129519281204e-16 1.1469841633976226e-20
3.5519380250092896 6.8104290538152095e-25 6.421097814134093e-17 6.419904810318705e-17 1.19300381539023e-20
3.578680990867387 4.811435142755294e-25 4.570535173012291e-17 4.569291677926733e-17 1.243495085558038e-20
3.605625307711299 4.003510077826906e-25 3.831695178347987e-17 3.8303983311022164e-17 1.2968472457708338e-20
3.660119384959845 3.4154223481046857e-25 3.3182499781482476e-17 3.3168402702407924e-17 1.4097079074556737e-20
3.715437065384467 2.999474069371171e-25 2.958179030403966e-17 2.9566492068970255e-17 1.5298235069402272e-20
3.8285932144167436 2.791410376037193e-25 2.8368237018529663e-17 2.835031687084185e-17 1.7920147687809678e-20
3.94519561050918 2.754838333208086e-25 2.884922107797905e-17 2.882837976565986e-17 2.0841312319190755e-20
4.06534921144712 2.7888093022722515e-25 3.0094429072321993e-17 3.00703539714548e-17 2.407510086720091e-20
4.189162171576248 2.8637337596954166e-25 3.184411953831064e-17 3.181647455383167e-17 2.7644984478972167e-20
4.316745939156006 2.9685871302523372e-25 3.4015410976074654e-17 3.39838524174058e-17 3.155855866885839e-20
4.448215356677963 3.09967341903177e-25 3.6599165000888e-17 3.656337848160147e-17 3.5786519286543116e-20
4.58368876423945 3.2574518163819688e-25 3.9633511711864346e-17 3.959315647510347e-17 4.0355236760866414e-20
4.723288106065518 3.445456592703528e-25 4.319770287328636e-17 4.315238817651285e-17 4.5314696773492935e-20
4.867139040275056 3.670736359846255e-25 4.742380319596403e-17 4.7373225992171e-17 5.0577203793045137e-20
4.940699165968905 3.806209825145688e-25 4.9917240627115765e-17 4.9863896815128316e-17 5.334381198744154e-20
5.015371051989984 3.9464567270420904e-25 5.2538763458827847e-17 5.248256601716879e-17 5.619744165906281e-20
5.091171501069577 4.1170870920499546e-25 5.563873073514478e-17 5.557953660845833e-17 5.919412668645226e-20
5.129500256944802 4.20463964529933e-25 5.724970720497073e-17 5.718898165909034e-17 6.072554588040173e-20
5.168117569889187 4.295872295616725e-25 5.893227143036882e-17 5.886998069760403e-17 6.229073276478507e-20
5.20702561229733 4.407577334597273e-25 6.091988685099036e-17 6.085590481244455e-17 6.398203854580934e-20
5.246226572918644 4.522102961187132e-25 6.297336814352596e-17 6.290766688641578e-17 6.570125711016498e-20
5.265937586045735 4.58045158541768e-25 6.40255676350329e-17 6.395899630296818e-17 6.657133206470589e-20
5.285722656980489 4.639539555097991e-25 6.509515817560344e-17 6.502770979334075e-17 6.744838226269263e-20
5.305582063971359 4.699378790033809e-25 6.618246243871989e-17 6.611413003303423e-17 6.833240568565809e-20
5.3255160863122235 4.763623787009515e-25 6.733929869817354e-17 6.727006990030438e-17 6.922879786915531e-20
5.365609099470188 4.923349418118034e-25 7.012116491232677e-17 7.005008021534376e-17 7.108469698301975e-20
5.406003951863644 5.089097998767791e-25 7.302752900332197e-17 7.29545576221543e-17 7.297138116767984e-20
5.446702915881641 5.261160160864686e-25 7.606496043756754e-17 7.599007154740848e-17 7.488889015907187e-20
5.487708281020852 5.446976128657376e-25 7.93443345004125e-17 7.926749080521566e-17 7.684369519683966e-20
5.529022354014368 5.704810494612282e-25 8.372574126113651e-17 8.364685493393474e-17 7.888632720178356e-20
5.570647458961463 5.977732117081284e-25 8.839171428064639e-17 8.831075098801712e-17 8.096329262922871e-20
5.612585937458331 6.266826033198306e-25 9.336413452695474e-17 9.328105983200088e-17 8.307469495384683e-20
5.654840148729818 6.584456424121628e-25 9.883475582981816e-17 9.874952698473939e-17 8.522884507875419e-20
5.67608639626678 6.8005984404358095e-25 1.0246264480160516e-16 1.0237629001738293e-16 8.635478422221428e-20
5.686739436050992 6.911991174522979e-25 1.0433642154412124e-16 1.042495001504405e-16 8.692139368075125e-20
5.6974124697621304 7.025669003478903e-25 1.062514290953226e-16 1.0616393866159168e-16 8.749043373091516e-20
5.718818669136295 7.260099924736773e-25 1.1020932881100077e-16 1.1012069299348137e-16 8.863581751941752e-20
5.740305295436557 7.518450891032986e-25 1.145599436018198e-16 1.1447014555819535e-16 8.979804362447493e-20
5.7835210386641895 8.188372333936849e-25 1.2570696324001876e-16 1.256147555792802e-16 9.220766073861124e-20
5.827062130521658 8.959787835713872e-25 1.3858518555421455e-16 1.384905081802042e-16 9.467737401036554e-20
5.8489554468988025 9.50081850574589e-25 1.4750568818991097e-16 1.4740968427853468e-16 9.600391137622534e-20
5.870931020387893 1.0081273893402572e-24 1.5710565757753876e-16 1.570083140623005e-16 9.734351523821285e-20
5.892989160043636 1.070432519997418e-24 1.674419873181534e-16 1.673432910679488e-16 9.869625020456882e-20
5.915130176081913 1.1412809891631054e-24 1.791951796061761e-16 1.790950826220085e-16 1.0009698416757304e-19
5.95966208400165 1.3393457317565545e-24 2.1187697643898182e-16 2.1177373373421759e-16 1.0324270476423387e-19
6.004529249263818 1.6247590997044954e-24 2.58962796158775e-16 2.5885603586967675e-16 1.067602890982438e-19
6.027089341400364 1.8231394234709077e-24 2.916734808547165e-16 2.9156471135787785e-16 1.0876949683870414e-19
6.049734195844842 2.0575374820507224e-24 3.30410227677574e-16 3.302993336710026e-16 1.1089400657128676e-19
6.095279466722835 2.734574509058121e-24 4.424384038046637e-16 4.423223700083001e-16 1.1603379636355278e-19
6.141167624020661 3.776380232594565e-24 6.155964410534419e-16 6.154738376413281e-16 1.2260341211396355e-19
6.164241091010745 4.441692851137088e-24 7.267709713889618e-16 7.266442945148516e-16 1.2667687411024544e-19
6.187401249150058 5.1994735220697826e-24 8.539591271473794e-16 8.538282524929261e-16 1.308746544530218e-19
6.1990139391386085 5.569488070654846e-24 9.164469369773478e-16 9.163139231309013e-16 1.3301384644681245e-19
6.204828454712694 5.764388239604682e-24 9.494070133206805e-16 9.492729174139209e-16 1.340959067597746e-19
6.210648424152782 5.906674335703803e-24 9.737543368339828e-16 9.736193068471487e-16 1.3502998683449755e-19
6.233982942956859 6.390076054195576e-24 1.0574042943346706e-15 1.0572659552994672e-15 1.3833903520353595e-19
6.239830258556775 6.451870625877769e-24 1.068631222842413e-15 1.0684923856241904e-15 1.3883721822212845e-19
6.245683058788269 6.4572363492031715e-24 1.0705231363576639e-15 1.0703837995638788e-15 1.393367937849635e-19
6.257405133728602 6.4439733097297124e-24 1.0703293637135098e-15 1.070189129416924e-15 1.402342965854731e-19
6.269149208991335 6.348926915953842e-24 1.0565215681040448e-15 1.0563808932829303e-15 1.4067482111410298e-19
6.280915325867298 6.110551639875578e-24 1.0187621243357344e-15 1.0186215759234211e-15 1.4054841231304435e-19
6.304513850009849 5.52269814933632e-24 9.242135747445712e-16 9.240737939536566e-16 1.397807909147243e-19
6.32820103803542 4.7940755970657855e-24 8.052942140757825e-16 8.051557487161771e-16 1.3846535960560085e-19
6.3519772230701035 4.1258946514882935e-24 6.956591469961404e-16 6.955218234763508e-16 1.3732351978964655e-19
6.375842739491607 3.563739811524825e-24 6.031328988091497e-16 6.02996540697541e-16 1.3635811160872758e-19
6.399797922933955 3.113269405669933e-24 5.28874220204266e-16 5.28738168933279e-16 1.3605127098703955e-19
6.42384311029221 2.738730246456457e-24 4.669964904863832e-16 4.668606148019789e-16 1.3587568440420555e-19
6.447978639727206 2.46584957018026e-24 4.220458186972067e-16 4.2190960004612106e-16 1.362186510856763e-19
6.472204850670314 2.238531063949735e-24 3.845783334327269e-16 3.844416660574029e-16 1.3666737532400406e-19
6.496522083828205 2.090848515099123e-24 3.6055616091693256e-16 3.604186200616718e-16 1.375408552607549e-19
