Dust emission spectrum from A.P. Jones, M. Kohler, N. Ysard, M. Bocchio, and L. Verstraete (2017), A&A, 602A, 46J 
inside the DustPedia framework.

lambda    nu*dP/dnu     j_nu    j_nu(carb.) j_nu(sil)
 (um)   (erg s-1 H-1) (Jy cm2 sr-1 H-1)
0.9927057738263894 1.4780340810243065e-25 3.894703754158882e-18 3.894703754156656e-18 2.2264933478384882e-30
1.0001793341362166 1.5024467687177397e-25 3.988838049433232e-18 3.988838049430549e-18 2.682358222476354e-30
1.0077091589558085 1.5268244779197902e-25 4.084075412938132e-18 4.084075412934904e-18 3.227426730267524e-30
1.0114953028030835 1.5389972131245906e-25 4.132102983160994e-18 4.132102983157457e-18 3.538483029909801e-30
1.0152956718711033 1.5511576102692751e-25 4.180400546015878e-18 4.180400546012e-18 3.878271027491538e-30
1.0229392996569957 1.5754247053374294e-25 4.2777652531636135e-18 4.277765253158959e-18 4.654424674158455e-30
1.0267826658714554 1.5875019665507532e-25 4.326754293576562e-18 4.326754293571465e-18 5.096652674564155e-30
1.0306404723013447 1.5995615497260167e-25 4.376002705850706e-18 4.376002705845126e-18 5.579097290701049e-30
1.03451277320114 1.6116022910478107e-25 4.425508369870973e-18 4.425508369864868e-18 6.105238121549852e-30
1.0383996230291617 1.6236230331645676e-25 4.475269139048555e-18 4.475269139041876e-18 6.67883924451654e-30
1.0403485208654093 1.6296255446708556e-25 4.50024451014838e-18 4.5002445101413955e-18 6.984696809435424e-30
1.0423010764483396 1.6356226254104591e-25 4.525282840828734e-18 4.52528284082143e-18 7.303971011826152e-30
1.0462171883269815 1.6475999240224008e-25 4.575547277199355e-18 4.57554727719137e-18 7.985033395482378e-30
1.0471985131304309 1.6505906319347998e-25 4.588152303609471e-18 4.588152303601304e-18 8.164587161970306e-30
1.048180758391296 1.6535798577294372e-25 4.600772827141497e-18 4.6007728271331484e-18 8.348009805467931e-30
1.0501480137395462 1.659553792352125e-25 4.626060225199707e-18 4.6260602251909795e-18 8.726780981333099e-30
1.0521189612883777 1.6655215869551122e-25 4.651409189689227e-18 4.651409189680105e-18 9.122001042982776e-30
1.0531058218030118 1.6684985546080057e-25 4.664093859030291e-18 4.664093859020967e-18 9.326003936444214e-30
1.0540936079674168 1.6714589185247253e-25 4.676751774517962e-18 4.676751774508428e-18 9.534420558880178e-30
1.058054026499678 1.6832835280119743e-25 4.72753280241247e-18 4.7275328024020565e-18 1.0413614872062299e-29
1.0590464539527713 1.6862353823590354e-25 4.740265219985407e-18 4.740265219974763e-18 1.0645263353606245e-29
1.06003981227728 1.6891854830146235e-25 4.753012429136613e-18 4.75301242912573e-18 1.0881845314463585e-29
1.0620293250338977 1.6950803545432228e-25 4.778551076157134e-18 4.778551076145763e-18 1.1370211673082794e-29
1.0660195594769086 1.7068482993213808e-25 4.8298042581623285e-18 4.8298042581499186e-18 1.2410677454119312e-29
1.070024785945596 1.7185862718626615e-25 4.8812899890666566e-18 4.881289989053115e-18 1.35419877429624e-29
1.0740450607676866 1.7302931901758746e-25 4.933005888247819e-18 4.933005888233047e-18 1.4771664529778693e-29
1.07808044048254 1.7419679809367947e-25 4.9849495543325615e-18 4.984949554316454e-18 1.610781623456497e-29
1.0861967418109137 1.7651962931641466e-25 5.089450978003566e-18 5.0894509779844296e-18 1.913517167717556e-29
1.0902777775684922 1.7767007825230522e-25 5.141867567739554e-18 5.1418675677187075e-18 2.084592959416337e-29
1.0943741465085532 1.7881681206853115e-25 5.1944982682880746e-18 5.194498268265372e-18 2.2702359152531162e-29
1.1026131145906286 1.8109872668569823e-25 5.300391923454224e-18 5.300391923427324e-18 2.690008466629118e-29
1.1109141095355224 1.8336456771579996e-25 5.407111617659483e-18 5.407111617627649e-18 3.1833321074794595e-29
1.1192775983109025 1.8561144140179475e-25 5.514574243898943e-18 5.5145742438613215e-18 3.762337047142037e-29
1.1277040513999907 1.8782890841862008e-25 5.622468206695292e-18 5.62246820665088e-18 4.4410216518144463e-29
1.1361939428280308 1.9002768349221156e-25 5.731110432009413e-18 5.731110431957056e-18 5.235516272500072e-29
1.1447477501889525 1.9220703333565829e-25 5.840479545159181e-18 5.840479545097538e-18 6.164385359817342e-29
1.1533659546722406 1.9436742985187333e-25 5.9505903368470054e-18 5.9505903367745134e-18 7.24897634872824e-29
1.1707974979042381 1.986383436203069e-25 6.173256236310211e-18 6.173256236210343e-18 9.987009719764958e-29
1.1884924949847024 2.0282424299461697e-25 6.398611473151797e-18 6.39861147301488e-18 1.369143945662522e-28
1.2064549276569216 2.0695787253560425e-25 6.627694566004444e-18 6.627694565817656e-18 1.8678723954330714e-28
1.2246888378427687 2.109940711573703e-25 6.859073309577357e-18 6.85907330932376e-18 2.535968791108201e-28
1.2431983285522175 2.1492339392256825e-25 7.092405217835503e-18 7.092405217492843e-18 3.4265847381893473e-28
1.2619875648066055 2.187443704662186e-25 7.327593918927633e-18 7.32759391846682e-18 4.608134863579477e-28
1.3004222497298317 2.2599775058456244e-25 7.801137650657392e-18 7.801137649835569e-18 8.218230088342703e-28
1.3400274889804893 2.327258181269593e-25 8.278043537827643e-18 8.278043536388503e-18 1.4391385486508735e-27
1.3808389325824078 2.3890361515694583e-25 8.756593275228204e-18 8.756593272752504e-18 2.475698588782793e-27
1.4228933163050095 2.4456121610445586e-25 9.236966269712396e-18 9.236966265526614e-18 4.185778673069423e-27
1.466228494730424 2.498348231197626e-25 9.723532286745581e-18 9.723532279786464e-18 6.959115165118865e-27
1.5108834753276823 2.5462186576575177e-25 1.0211654217775496e-17 1.0211654206393406e-17 1.1382091192018972e-26
1.5568984535646726 2.588393518319909e-25 1.069695143153917e-17 1.0696951413206296e-17 1.8332875141109382e-26
1.6043148490894465 2.624949838486517e-25 1.1178410267285823e-17 1.1178410238153735e-17 2.9132088684081417e-26
1.6531753430134553 2.6559987600353e-25 1.1655105799205181e-17 1.1655105753585418e-17 4.561976072620589e-26
1.7035239163302658 2.681909353261593e-25 1.2127234155195145e-17 1.2127234084777563e-17 7.041758356684998e-26
1.755405889504358 2.7048143803718868e-25 1.2603305132764972e-17 1.2603305025569827e-17 1.0719514507120238e-25
1.8088679632656115 2.724187134498699e-25 1.3080165459090645e-17 1.3080165298103514e-17 1.6098713191861157e-25
1.8639582606462262 2.7396708634403095e-25 1.3555139989762324e-17 1.3555139751143913e-17 2.3861841021597277e-25
1.9207263702978936 2.751524162686614e-25 1.4028403950881717e-17 1.402840360167696e-17 3.492047511266774e-25
1.979223391128241 2.760349056989671e-25 1.450201172045355e-17 1.4502011215687453e-17 5.04766101618882e-25
2.039501978296691 2.7668660407128475e-25 1.4978961241164953e-17 1.49789605202359e-17 7.209290556689533e-25
2.1016163906111602 2.773093266267726e-25 1.5469894650973163e-17 1.5469893633154936e-17 1.0178182245097886e-24
2.1656225393682647 2.7802009237169956e-25 1.5981898905475184e-17 1.5981897484531356e-17 1.4209438263524583e-24
2.231578038680979 2.7882727439521278e-25 1.6516452217715504e-17 1.6516450255475482e-17 1.962240026338426e-24
2.299542257339062 2.798009366958778e-25 1.7078903782997924e-17 1.7078901101771414e-17 2.681226513216102e-24
2.369576372248914 2.81096012133431e-25 1.768051162552289e-17 1.7680507999197374e-17 3.626325519654722e-24
2.4417434235010123 2.82895450518372e-25 1.8335612536570853e-17 1.8335607680461908e-17 4.856108944803707e-24
2.5161083711144245 2.8551257176983724e-25 1.9068828448852552e-17 1.9068822007979035e-17 6.4408735148049226e-24
2.5927381535095444 2.8946011475725767e-25 1.9921260823269283e-17 1.992125235920286e-17 8.464066428295494e-24
2.6717017477616296 2.953502510539913e-25 2.0945693875596732e-17 2.0945682852347177e-17 1.1023249549550368e-23
2.753070231689431 3.0410466425219363e-25 2.2223364262286308e-17 2.222335003080211e-17 1.4231484202237934e-23
2.836916847834745 3.1781152244020886e-25 2.3932368334307946e-17 2.3932350115133485e-17 1.8219174459464263e-23
2.9233170693905177 3.410698619825444e-25 2.6466023937025654e-17 2.6466000805479266e-17 2.3131546380149194e-23
2.967498994190263 3.6082134750316156e-25 2.842184309404298e-17 2.8421817148880465e-17 2.5945162509725114e-23
3.0123486681368425 3.838887784409194e-25 3.0695880026828026e-17 3.069585096407944e-17 2.906274859422635e-23
3.0578761833420214 4.355019992175896e-25 3.534919128137642e-17 3.5349158760452396e-17 3.252092401835234e-23
3.1040917844459814 5.020115825147903e-25 4.136354238823462e-17 4.136350606386918e-17 3.632436544396177e-23
3.127460860933648 5.723692661409288e-25 4.75157536808813e-17 4.751571530397844e-17 3.8376902872133116e-23
3.1510058709225794 6.661113540788263e-25 5.571414649656438e-17 5.571410596828501e-17 4.0528279369943274e-23
3.162844764501044 7.533703430456203e-25 6.324931549406613e-17 6.324927384778625e-17 4.1646279896913156e-23
3.1747281389236908 8.548457090867358e-25 7.203834228623157e-17 7.203829949597454e-17 4.2790257061190207e-23
3.1986289994194426 1.1378905064045127e-24 9.661260169123326e-17 9.661255652747579e-17 4.5163757435995995e-23
3.2227097969389145 1.805095069678026e-24 1.544154361246491e-16 1.544153884325899e-16 4.769205917307561e-23
3.2348180950136065 2.437813957469875e-24 2.0932440050913274e-16 2.09324351464033e-16 4.904509972613586e-23
3.240889293275058 2.9108531639262923e-24 2.5041130262595276e-16 2.50411252866794e-16 4.975915873859253e-23
3.2469718861334385 3.458086278315883e-24 2.9804633511804993e-16 2.9804628461976856e-16 5.0498281352057874e-23
3.2714166318528037 6.3771231139436066e-24 5.537708507347149e-16 5.53770797170791e-16 5.356392408861243e-23
3.2744851364798273 6.559600247350873e-24 5.701509207960109e-16 5.70150866868105e-16 5.392790589484824e-23
3.2775565192852394 6.747318613375717e-24 5.870172194467795e-16 5.87017165152788e-16 5.429399143276714e-23
3.283707930232385 6.5667882480601636e-24 5.723833170780979e-16 5.723832621244138e-16 5.495368412701838e-23
3.2898708863219004 5.994277336864691e-24 5.234619511735013e-16 5.234618956147976e-16 5.555870363610732e-23
3.29141343181113 5.859265062114968e-24 5.119116523641225e-16 5.119115966533501e-16 5.571077237447488e-23
3.292184975758714 5.792924825030292e-24 5.062342846642125e-16 5.062342288772834e-16 5.578692913457993e-23
3.295272960557952 5.3741788794592245e-24 4.700812680549187e-16 4.700812119709089e-16 5.608400969656483e-23
3.3076538914384823 3.923517155848525e-24 3.444808215568495e-16 3.4448076427689034e-16 5.72799591576982e-23
3.310756385682612 3.6282710649821695e-24 3.188573143211142e-16 3.188572567391171e-16 5.758199716746475e-23
3.313861789986515 3.355860794632935e-24 2.9519416045017507e-16 2.9519410256491356e-16 5.788526148834776e-23
3.3200813396944477 2.9738353469783456e-24 2.6208072167329017e-16 2.620806631377006e-16 5.853558956725242e-23
3.345076488085796 2.2923348458892138e-24 2.0354176772615654e-16 2.0354170629570827e-16 6.143044823713009e-23
3.3482140837626964 2.3178890412241343e-24 2.060038296656316e-16 2.0600376784295238e-16 6.182267925550198e-23
3.3513546224236106 2.3437257616308284e-24 2.0849546437499082e-16 2.0849540215799355e-16 6.2216997295546e-23
3.3576445397418455 2.5325510155807585e-24 2.2571600386878064e-16 2.257159408279069e-16 6.304087375731276e-23
3.3702598118196083 3.2290219232867066e-24 2.8887090925965476e-16 2.8887084448919136e-16 6.477046340265597e-23
3.382922481734668 3.387645247473061e-24 3.0420013623302846e-16 3.042000697718262e-16 6.646120236821898e-23
3.389271646505754 3.469823090766953e-24 3.121642352552758e-16 3.1216416793491713e-16 6.732035870271631e-23
3.395632727569191 3.558373391770253e-24 3.207315343163271e-16 3.2073146611030035e-16 6.820602674453094e-23
3.421196662673239 3.983557401809085e-24 3.6175834016127023e-16 3.617582682761813e-16 7.188508899576157e-23
3.4276182099114902 3.897867173607948e-24 3.54640973308101e-16 3.5464090059111997e-16 7.271698097714708e-23
3.4340518103208963 3.522385223348004e-24 3.2107990572182217e-16 3.2107983221287757e-16 7.350894467717819e-23
3.4469541582030403 2.9876300726469644e-24 2.7335798405635693e-16 2.7335790901659332e-16 7.503976362637322e-23
3.472904465399547 2.8377548851502824e-24 2.615996446314075e-16 2.6159956607624987e-16 7.855515757923469e-23
3.4990501388274233 2.6085309333030915e-24 2.4227889814436256e-16 2.4227881596433235e-16 8.218003024816407e-23
3.5253949054701885 1.792789927793827e-24 1.6776702729189818e-16 1.6776694154952018e-16 8.574237801493905e-23
3.5519380250092896 1.0260921414732382e-24 9.674336160983893e-17 9.67432722520856e-17 8.935775332809872e-23
3.578680990867387 7.220855478446764e-25 6.859320133032071e-17 6.859310799956777e-17 9.333075297271712e-23
3.605625307711299 5.991130651092765e-25 5.734014897523508e-17 5.734005143527759e-17 9.753995748162821e-23
3.660119384959845 5.093838963605433e-25 4.948913869774896e-17 4.948903220995093e-17 1.064877980308238e-22
3.715437065384467 4.458303267701953e-25 4.3969239048838683e-17 4.3969122973843046e-17 1.1607499562254719e-22
3.8285932144167436 4.1351771132530994e-25 4.202452117731908e-17 4.2024383942442503e-17 1.3723487657455076e-22
3.94519561050918 4.0724904622923295e-25 4.264793917972466e-17 4.2647778003024244e-17 1.6117670043524966e-22
4.06534921144712 4.1167937153881898e-25 4.442489358171112e-17 4.442470545403658e-17 1.8812767454369061e-22
4.189162171576248 4.223102625873455e-25 4.696001658169897e-17 4.695979816721822e-17 2.1841448074557053e-22
4.316745939156006 4.3746662671273155e-25 5.01269002492971e-17 5.012664798581283e-17 2.522634842695435e-22
4.448215356677963 4.565874505668077e-25 5.391122606022552e-17 5.3910936437372056e-17 2.896228534793775e-22
4.58368876423945 4.79742785325721e-25 5.83704452826197e-17 5.837011436421724e-17 3.309184024786987e-22
4.723288106065518 5.074695044041541e-25 6.362441748628588e-17 6.362404067368779e-17 3.7681259808857876e-22
4.867139040275056 5.4084033858270935e-25 6.987346206050939e-17 6.98730351933425e-17 4.268671668840874e-22
4.940699165968905 5.60986341146094e-25 7.357158818337864e-17 7.357113444759657e-17 4.537357820938e-22
5.015371051989984 5.818550145302826e-25 7.746174629577617e-17 7.746126443729278e-17 4.81858483386202e-22
5.091171501069577 6.073313100258981e-25 8.207536656390866e-17 8.20748547916535e-17 5.11772255151985e-22
5.129500256944802 6.204091804159188e-25 8.447393099619281e-17 8.447340375672978e-17 5.272394630278215e-22
5.168117569889187 6.34045347292517e-25 8.698054768511399e-17 8.698000453334111e-17 5.431517729049163e-22
5.20702561229733 6.507856581949318e-25 8.994916175442447e-17 8.994860147648874e-17 5.602779357840612e-22
5.246226572918644 6.679550039210306e-25 9.301729024362377e-17 9.301671242160969e-17 5.778220140639121e-22
5.265937586045735 6.767048625795113e-25 9.458982840463601e-17 9.458924165141423e-17 5.867532217753528e-22
5.285722656980489 6.855672119657685e-25 9.618865314744923e-17 9.618805735557756e-17 5.957918717144733e-22
5.305582063971359 6.945438754683668e-25 9.781425589210149e-17 9.781365095312536e-17 6.049389761485496e-22
5.3255160863122235 7.041888575491143e-25 9.95451906755093e-17 9.954457643345138e-17 6.142420579157623e-22
5.365609099470188 7.282162987109754e-25 1.0371674004254538e-16 1.0371610649590467e-16 6.335466406482216e-22
5.406003951863644 7.531607469305613e-25 1.0807704686361425e-16 1.0807639353223383e-16 6.533313804427106e-22
5.446702915881641 7.790665717928846e-25 1.1263612235655196e-16 1.1263544875047894e-16 6.736060729941394e-22
5.487708281020852 8.070618504642603e-25 1.1756208199418404e-16 1.175613875544676e-16 6.944397164294085e-22
5.529022354014368 8.459810826503682e-25 1.241590641874858e-16 1.2415834787887526e-16 7.16308610502407e-22
5.570647458961463 8.871980049110561e-25 1.311884691794248e-16 1.311877304426118e-16 7.387368130089337e-22
5.612585937458331 9.308780959840433e-25 1.3868364515185757e-16 1.3868288341504926e-16 7.617368083380332e-22
5.654840148729818 9.788968602959947e-25 1.4693548857806685e-16 1.4693470317744754e-16 7.854006193520719e-22
5.67608639626678 1.0116036578822851e-24 1.5241538988876786e-16 1.5241459208530973e-16 7.978034580692139e-22
5.686739436050992 1.028462920782448e-24 1.5524635106708056e-16 1.5524554700084106e-16 8.040662395098116e-22
5.6974124697621304 1.0456701903167634e-24 1.5814003197207082e-16 1.581392216018112e-16 8.103702596634107e-22
5.718818669136295 1.081162282795269e-24 1.6412194151302419e-16 1.6412111841000466e-16 8.231030195293313e-22
5.740305295436557 1.1202872923222038e-24 1.7070012278637625e-16 1.7069928670738685e-16 8.36078989430508e-22
5.7835210386641895 1.2217943114421967e-24 1.8756847677624523e-16 1.8756761363273538e-16 8.6314350991004e-22
5.827062130521658 1.3387378699415291e-24 2.0706878278387128e-16 2.070678916454193e-16 8.911384519465955e-22
5.8489554468988025 1.420780193992356e-24 2.2058432139787998e-16 2.2058341517959735e-16 9.06218282611635e-22
5.870931020387893 1.5088245064881816e-24 2.351338419800885e-16 2.351329204542088e-16 9.215258796269988e-22
5.892989160043636 1.6033539807140988e-24 2.5080401789912784e-16 2.508030808343424e-16 9.370647853804096e-22
5.915130176081913 1.710865147747423e-24 2.6862691164019023e-16 2.6862595844689294e-16 9.531932972816337e-22
5.95966208400165 2.0114775891466674e-24 3.1820446331226587e-16 3.1820347398553586e-16 9.893267300176041e-22
6.004529249263818 2.4447850462304537e-24 3.8966291784064806e-16 3.896618878568056e-16 1.0299838425645697e-21
6.027089341400364 2.7459956493720155e-24 4.3931588508980763e-16 4.393148318250807e-16 1.0532647268517291e-21
6.049734195844842 3.1019563326866612e-24 4.981285187122662e-16 4.98127440721431e-16 1.077990835202906e-21
6.095279466722835 4.130198205052723e-24 6.68242278711878e-16 6.682411408147015e-16 1.1378971767120096e-21
6.141167624020661 5.71267212502913e-24 9.312358429164277e-16 9.312346280955063e-16 1.2148209214678551e-21
6.164241091010745 6.723244590171428e-24 1.1000893500399454e-15 1.1000880875524486e-15 1.2624874968223444e-21
6.187401249150058 7.874464875278653e-24 1.293298470143725e-15 1.2932971579820053e-15 1.312161719062722e-21
6.1990139391386085 8.436586497912657e-24 1.388221638411272e-15 1.388220300869715e-15 1.3375415565047836e-21
6.204828454712694 8.732693845796684e-24 1.4382932650890117e-15 1.4382919146495312e-15 1.35043948009473e-21
6.210648424152782 8.948852866609716e-24 1.4752775916351795e-15 1.4752762300174757e-15 1.3616177039127602e-21
6.233982942956859 9.683256401895794e-24 1.602346641208681e-15 1.602345239553965e-15 1.4016547166199655e-21
6.239830258556775 9.77714627831997e-24 1.619400696195571e-15 1.6193992882693263e-15 1.4079262446908473e-21
6.245683058788269 9.785303756584306e-24 1.6222720528115307e-15 1.6222706385869199e-15 1.4142246110122244e-21
6.257405133728602 9.765164757832513e-24 1.6219717369137981e-15 1.6219703112384816e-15 1.4256753170139753e-21
6.269149208991335 9.620771402904895e-24 1.6009874776516527e-15 1.6009860457828351e-15 1.4318688175225313e-21
6.280915325867298 9.258619328734551e-24 1.5436136132464734e-15 1.5436121817253617e-15 1.4315211115477884e-21
6.304513850009849 8.36551956909526e-24 1.3999546121271026e-15 1.3999531872723531e-15 1.4248547493231841e-21
6.32820103803542 7.258488135363225e-24 1.2192587246482485e-15 1.2192573129891767e-15 1.411659071146316e-21
6.3519772230701035 6.243264650577758e-24 1.0526648225798508e-15 1.0526634222267342e-15 1.4003531166475279e-21
6.375842739491607 5.389194216114268e-24 9.120756569542455e-16 9.120742657932967e-16 1.3911609484936854e-21
6.399797922933955 4.704691334337483e-24 7.992208949916045e-16 7.992195055756674e-16 1.389415937235702e-21
6.42384311029221 4.135612900326417e-24 7.051869065825338e-16 7.051855173006695e-16 1.3892818641611262e-21
6.447978639727206 3.720930321496777e-24 6.36860862415288e-16 6.368594672214346e-16 1.3951938532240088e-21
6.472204850670314 3.375502257753493e-24 5.799093225424162e-16 5.799079201240888e-16 1.4024183273354535e-21
6.496522083828205 3.151030019883669e-24 5.433790533836929e-16 5.433776386991942e-16 1.4146844986539756e-21
