Dust emission spectrum from A.P. Jones, M. Kohler, N. Ysard, M. Bocchio, and L. Verstraete (2017), A&A, 602A, 46J 
inside the DustPedia framework.

lambda    nu*dP/dnu     j_nu    j_nu(carb.) j_nu(sil)
 (um)   (erg s-1 H-1) (Jy cm2 sr-1 H-1)
0.9927057738263894 2.2795855826557117e-25 6.006837488174036e-18 6.006837488173963e-18 7.497181266629783e-32
1.0001793341362166 2.3172535402244236e-25 6.15206427534174e-18 6.15206427534165e-18 9.033933010704077e-32
1.0077091589558085 2.3548679781434096e-25 6.298994121023039e-18 6.29899412102293e-18 1.087190182261038e-31
1.0114953028030835 2.3736504950229795e-25 6.3730903524852575e-18 6.3730903524851366e-18 1.1921002248924068e-31
1.0152956718711033 2.3924140879709246e-25 6.447603450118489e-18 6.447603450118359e-18 1.3067172472502793e-31
1.0229392996569957 2.429858765093704e-25 6.597817947247816e-18 6.5978179472476596e-18 1.5685877325777752e-31
1.0267826658714554 2.4484944451962817e-25 6.6733988850228474e-18 6.6733988850226764e-18 1.7178261758515465e-31
1.0306404723013447 2.467102962258454e-25 6.74938031631512e-18 6.749380316314931e-18 1.8806616031570496e-31
1.03451277320114 2.4856825205697566e-25 6.825758973370119e-18 6.825758973369914e-18 2.0582732206519964e-31
1.0383996230291617 2.5042313343684565e-25 6.902531547544019e-18 6.902531547543795e-18 2.25193692461401e-31
1.0403485208654093 2.5134936568298215e-25 6.941064508611265e-18 6.941064508611027e-18 2.3552152843358097e-31
1.0423010764483396 2.522747628183998e-25 6.979694690086321e-18 6.979694690086076e-18 2.463032736644898e-31
1.0462171883269815 2.541229637171922e-25 7.05724501292354e-18 7.057245012923271e-18 2.693052769533585e-31
1.0471985131304309 2.545844576635204e-25 7.076692689833397e-18 7.076692689833123e-18 2.7537009014337905e-31
1.048180758391296 2.550457236327914e-25 7.096164297620408e-18 7.096164297620126e-18 2.815658391271628e-31
1.0501480137395462 2.5596756074411753e-25 7.13517908944349e-18 7.135179089443192e-18 2.9436097584341817e-31
1.0521189612883777 2.5688845330392607e-25 7.174288954173352e-18 7.174288954173045e-18 3.077128808455792e-31
1.0531058218030118 2.5734783170896023e-25 7.19385964221298e-18 7.193859642212667e-18 3.146052344918648e-31
1.0540936079674168 2.578046498509593e-25 7.213389095638849e-18 7.213389095638528e-18 3.216469917124836e-31
1.058054026499678 2.596293301722634e-25 7.291737573808312e-18 7.29173757380796e-18 3.5135544038618865e-31
1.0590464539527713 2.60084838846041e-25 7.311382080612119e-18 7.311382080611758e-18 3.591837908638004e-31
1.06003981227728 2.605400776362449e-25 7.331049430304447e-18 7.33104943030408e-18 3.671792058422184e-31
1.0620293250338977 2.61449734963292e-25 7.37045243325059e-18 7.370452433250205e-18 3.8368487717642504e-31
1.0660195594769086 2.6326569466396543e-25 7.449530070256525e-18 7.449530070256107e-18 4.188548437873882e-31
1.070024785945596 2.6507704099452387e-25 7.5289668474751e-18 7.528966847474642e-18 4.57102219790357e-31
1.0740450607676866 2.668836069832042e-25 7.608759094700846e-18 7.608759094700347e-18 4.986825024731699e-31
1.07808044048254 2.6868522699315715e-25 7.688903109659856e-18 7.688903109659313e-18 5.438711740088502e-31
1.0861967418109137 2.722697901724587e-25 7.850139699705273e-18 7.850139699704624e-18 6.462844852281928e-31
1.0902777775684922 2.740451703323613e-25 7.931014537105082e-18 7.931014537104378e-18 7.041738857437322e-31
1.0943741465085532 2.7581482923118523e-25 8.012220082866012e-18 8.012220082865244e-18 7.670042156009417e-31
1.1026131145906286 2.7933635408569142e-25 8.175607759476717e-18 8.17560775947581e-18 9.091155004048829e-31
1.1109141095355224 2.828331216078511e-25 8.340271388063447e-18 8.34027138806237e-18 1.0761905142629426e-30
1.1192775983109025 2.863006675393477e-25 8.506082789400156e-18 8.506082789398881e-18 1.2723591972500318e-30
1.1277040513999907 2.8972288879282845e-25 8.672561346941789e-18 8.672561346940287e-18 1.50239000841219e-30
1.1361939428280308 2.9311631132294837e-25 8.840195905897674e-18 8.8401959058959e-18 1.7717804165036626e-30
1.1447477501889525 2.9647980320043095e-25 9.008953502346642e-18 9.008953502344554e-18 2.086860822164115e-30
1.1533659546722406 2.998140913050788e-25 9.178856951137348e-18 9.17885695113489e-18 2.4549144758165168e-30
1.1707974979042381 3.0640581924988975e-25 9.522439625965295e-18 9.522439625961908e-18 3.3846582208340696e-30
1.1884924949847024 3.1286652955740065e-25 9.870177923673067e-18 9.870177923668423e-18 4.643632817350374e-30
1.2064549276569216 3.1924672287530525e-25 1.0223673757814555e-17 1.0223673757808214e-17 6.340079682342344e-30
1.2246888378427687 3.2547673185409406e-25 1.0580717989387448e-17 1.058071798937883e-17 8.61467789414243e-30
1.2431983285522175 3.315419777343734e-25 1.0940782247566478e-17 1.0940782247554831e-17 1.1649649442334348e-29
1.2619875648066055 3.3744018509082692e-25 1.1303717864845412e-17 1.1303717864829733e-17 1.5679819742127353e-29
1.3004222497298317 3.486374387746566e-25 1.2034494339075596e-17 1.2034494339047584e-17 2.801220323237569e-29
1.3400274889804893 3.5902461667920825e-25 1.2770484306133302e-17 1.2770484306084162e-17 4.914232367545747e-29
1.3808389325824078 3.68563138326408e-25 1.3509035836254882e-17 1.3509035836170184e-17 8.469647583587346e-29
1.4228933163050095 3.7729931659034814e-25 1.4250424153280475e-17 1.4250424153136995e-17 1.4347906429217871e-28
1.466228494730424 3.8544319616989664e-25 1.500138898118217e-17 1.5001388980943144e-17 2.3902398832733663e-28
1.5108834753276823 3.9283647130573435e-25 1.5754775015260367e-17 1.5754775014868608e-17 3.9175613972145534e-28
1.5568984535646726 3.993510248043907e-25 1.6503821718889e-17 1.650382171825664e-17 6.323546399292685e-28
1.6043148490894465 4.049986579120283e-25 1.72469625493914e-17 1.7246962548384323e-17 1.0070817089478792e-27
1.6531753430134553 4.0979643815589254e-25 1.798276759278642e-17 1.7982767591205743e-17 1.5806729359997649e-27
1.7035239163302658 4.1380122997490625e-25 1.8711536254983802e-17 1.871153625253811e-17 2.445691318819447e-27
1.755405889504358 4.173420179099056e-25 1.944639467540548e-17 1.9446394671673277e-17 3.732201790514671e-27
1.8088679632656115 4.2033748016319395e-25 2.018247468966026e-17 2.0182474684040833e-17 5.619420881156441e-27
1.8639582606462262 4.227325074873567e-25 2.091564499108751e-17 2.091564498273612e-17 8.351394993767062e-27
1.9207263702978936 4.245669396200598e-25 2.1646172016037517e-17 2.1646172003781805e-17 1.2255709155868567e-26
1.979223391128241 4.259336069615417e-25 2.2377221259935926e-17 2.237722124216929e-17 1.7766634737116264e-26
2.039501978296691 4.269436264877039e-25 2.3113414018678293e-17 2.311341399322619e-17 2.545210678285952e-26
2.1016163906111602 4.279083575898075e-25 2.3871166876023066e-17 2.3871166839974813e-17 3.60482598680046e-26
2.1656225393682647 4.2900832522284205e-25 2.466141070894993e-17 2.4661410658454853e-17 5.0495079771562943e-26
2.231578038680979 4.30256412876554e-25 2.5486421656759165e-17 2.5486421586780192e-17 6.997896753428644e-26
2.299542257339062 4.317606992268532e-25 2.635444872506021e-17 2.6354448629078368e-17 9.598184894307565e-26
2.369576372248914 4.337602251226702e-25 2.7282858425364e-17 2.7282858295025274e-17 1.3033872355298154e-25
2.4417434235010123 4.365372644971986e-25 2.8293767626621364e-17 2.8293767451324853e-17 1.7529650818644723e-25
2.5161083711144245 4.405752669175077e-25 2.9425163773278453e-17 2.942516353968867e-17 2.335897813559932e-25
2.5927381535095444 4.466653923038389e-25 3.07404624235525e-17 3.0740462115034416e-17 3.085180828287503e-25
2.6717017477616296 4.55752207812328e-25 3.2321104159885445e-17 3.232110375587078e-17 4.0401465909320576e-25
2.753070231689431 4.692578724355069e-25 3.429243236937471e-17 3.429243184463289e-17 5.247418189384148e-25
2.836916847834745 4.904044473525211e-25 3.6929245915025954e-17 3.6929245238806805e-17 6.762191584893021e-25
2.9233170693905177 5.262882988160369e-25 4.0838433021545015e-17 4.08384321567268e-17 8.648182378847217e-25
2.967498994190263 5.567628229560753e-25 4.385612354744434e-17 4.3856122573500076e-17 9.739442583708476e-25
3.0123486681368425 5.923535899378621e-25 4.736479874207066e-17 4.736479764648775e-17 1.0955829139273417e-24
3.0578761833420214 6.719910651677513e-25 5.4544733995864764e-17 5.454473276450273e-17 1.2313620293152167e-24
3.1040917844459814 7.746123882632964e-25 6.382464762242119e-17 6.382464624062918e-17 1.381792011561248e-24
3.127460860933648 8.83173611972863e-25 7.331745830256419e-17 7.331745683910119e-17 1.463463012657627e-24
3.1510058709225794 1.0278162709152826e-24 8.596746765939385e-17 8.596746610995266e-17 1.5494412036149283e-24
3.162844764501044 1.1624576328848466e-24 9.759429774416626e-17 9.759429614982681e-17 1.5943394531034244e-24
3.1747281389236908 1.3190339724400858e-24 1.111557556922421e-16 1.111557540518542e-16 1.6403878880497846e-24
3.1986289994194426 1.7557694190267967e-24 1.4907361524447213e-16 1.4907361350811892e-16 1.7363532344039546e-24
3.2227097969389145 2.7852648351489204e-24 2.3826328677463175e-16 2.382632849348975e-16 1.8397342539516233e-24
3.2348180950136065 3.761549280370134e-24 3.2298775125409385e-16 3.2298774935832546e-16 1.895768399791577e-24
3.240889293275058 4.491449348709323e-24 3.8638489087224467e-16 3.863848889465629e-16 1.9256817141505542e-24
3.2469718861334385 5.335831633512156e-24 4.598858834574125e-16 4.598858815005273e-16 1.9568852356313032e-24
3.2714166318528037 9.839914023348732e-24 8.544695566488111e-16 8.544695545611324e-16 2.087678617460031e-24
3.2744851364798273 1.0121479619130842e-23 8.797442995091143e-16 8.797442974060368e-16 2.1030773809682185e-24
3.2775565192852394 1.0411132580152858e-23 9.057693061029891e-16 9.057693039844042e-16 2.1185847604799724e-24
3.283707930232385 1.0132581277203405e-23 8.831898125727381e-16 8.831898104270227e-16 2.145715355548056e-24
3.2898708863219004 9.249202270339352e-24 8.077046147755684e-16 8.077046126056943e-16 2.1698739336339897e-24
3.29141343181113 9.040879388537254e-24 7.898825974840376e-16 7.8988259530809e-16 2.175947689029358e-24
3.292184975758714 8.938516893645187e-24 7.811224627086006e-16 7.811224605296108e-16 2.1789896985606285e-24
3.295272960557952 8.292394362735877e-24 7.253385763070443e-16 7.253385741163682e-16 2.190676078889143e-24
3.3076538914384823 6.0540250770239155e-24 5.315372532907772e-16 5.3153725105313045e-16 2.2376467002160566e-24
3.310756385682612 5.598459212441331e-24 4.920000840191127e-16 4.920000817695965e-16 2.249516111020088e-24
3.313861789986515 5.17812857359999e-24 4.55487700631547e-16 4.554876983701105e-16 2.2614365336276634e-24
3.3200813396944477 4.58866164084689e-24 4.0439352352497724e-16 4.0439352123746333e-16 2.287513939381915e-24
3.345076488085796 3.537106917664027e-24 3.140679887795707e-16 3.140679863729543e-16 2.406616485825504e-24
3.3482140837626964 3.5765385141976314e-24 3.178670841302342e-16 3.1786708170714293e-16 2.423091397532938e-24
3.3513546224236106 3.616406071342411e-24 3.2171181268597546e-16 3.2171181024630774e-16 2.4396677778890134e-24
3.3576445397418455 3.90776928763688e-24 3.48283632677101e-16 3.4828363020234785e-16 2.4747532374846822e-24
3.3702598118196083 4.98244181131e-24 4.45733268636791e-16 4.457332660874192e-16 2.549371940945192e-24
3.382922481734668 5.227209521641312e-24 4.693873568337726e-16 4.693873542124658e-16 2.6213066924981784e-24
3.389271646505754 5.3540162415592585e-24 4.81676541388526e-16 4.816765387305583e-16 2.6579676893794305e-24
3.395632727569191 5.490656898928957e-24 4.94896577090781e-16 4.948965743948658e-16 2.695915209659936e-24
3.421196662673239 6.146755061602672e-24 5.582045604397292e-16 5.582045575852193e-16 2.8545095232409704e-24
3.4276182099114902 6.014536765104654e-24 5.472226418633246e-16 5.472226389735217e-16 2.8898029380687334e-24
3.4340518103208963 5.435157855815515e-24 4.954370011437142e-16 4.9543699822076295e-16 2.9229511870600656e-24
3.4469541582030403 4.61001462747266e-24 4.2180064947590803e-16 4.2180064648954447e-16 2.986363503701047e-24
3.472904465399547 4.378758414973092e-24 4.0365771239720137e-16 4.0365770925999473e-16 3.137206583252708e-24
3.4990501388274233 4.025063052791287e-24 3.7384561131387885e-16 3.73845608020557e-16 3.2933219488077826e-24
3.5253949054701885 2.7663432251598853e-24 2.5887092076943455e-16 2.5887091732495077e-16 3.444483768226969e-24
3.5519380250092896 1.5832864144004255e-24 1.492774809680975e-16 1.4927747737044371e-16 3.597653810782605e-24
3.578680990867387 1.1141840591889451e-24 1.0583988520349216e-16 1.0583988143333429e-16 3.7701578691877494e-24
3.605625307711299 9.244279520279057e-25 8.847551417775088e-17 8.847551022218558e-17 3.955565334789207e-24
3.660119384959845 7.859666819959917e-25 7.63605100495323e-17 7.636050569411171e-17 4.355420573736418e-24
3.715437065384467 6.878930948406649e-25 6.78422577176656e-17 6.78422529271529e-17 4.79051266462179e-24
3.8285932144167436 6.380222589269034e-25 6.484022134370309e-17 6.484021556560192e-17 5.778101139692575e-24
3.94519561050918 6.283384280190109e-25 6.58008638953444e-17 6.580085695513188e-17 6.94021252583872e-24
4.06534921144712 6.351633659275129e-25 6.854136225689047e-17 6.854135395003014e-17 8.306860327899549e-24
4.189162171576248 6.515557302943855e-25 7.245163238768556e-17 7.245162246989417e-17 9.917791419880716e-24
4.316745939156006 6.749307951173294e-25 7.733661627231172e-17 7.733660445632369e-17 1.1815988026624426e-23
4.448215356677963 7.044229486769063e-25 8.31742194862946e-17 8.317420544469474e-17 1.4041599848955393e-23
4.58368876423945 7.4014039083763755e-25 9.005309825662704e-17 9.005308159161697e-17 1.6665010099157434e-23
4.723288106065518 7.829117157337926e-25 9.815821724152342e-17 9.815819746137318e-17 1.9780150259651483e-23
4.867139040275056 8.343924915151583e-25 1.0779871237459916e-16 1.0779868892265901e-16 2.34519401634239e-23
4.940699165968905 8.654731813474982e-25 1.1350407632344556e-16 1.1350405078251753e-16 2.5540928037935195e-23
5.015371051989984 8.976688830458056e-25 1.1950571455028341e-16 1.195056867329788e-16 2.7817304609098463e-23
5.091171501069577 9.369752459550937e-25 1.2662378096362836e-16 1.266237506369603e-16 3.032666803931665e-23
5.129500256944802 9.571526110304673e-25 1.3032438295450284e-16 1.3032435128909005e-16 3.166541280805733e-23
5.168117569889187 9.781915202193545e-25 1.34191717568681e-16 1.3419168450024455e-16 3.3068436430507895e-23
5.20702561229733 1.0040209800651385e-24 1.387720279380586e-16 1.3877199336191894e-16 3.457613962607696e-23
5.246226572918644 1.030512497098495e-24 1.4350589407909395e-16 1.4350585792641698e-16 3.615267693786224e-23
5.265937586045735 1.044013159494099e-24 1.4593219447588267e-16 1.4593215750812482e-16 3.6967757891349303e-23
5.285722656980489 1.0576874104468066e-24 1.483990565566481e-16 1.4839901875538293e-16 3.7801265149904574e-23
5.305582063971359 1.0715380638823953e-24 1.5090723866514502e-16 1.5090720001152093e-16 3.865362411586744e-23
5.3255160863122235 1.0864201137937649e-24 1.5357797304221898e-16 1.535779335133085e-16 3.952891046035605e-23
5.365609099470188 1.1234955061302285e-24 1.6001467085334359e-16 1.6001462948491262e-16 4.1368430889915573e-23
5.406003951863644 1.161986054438481e-24 1.6674265324131709e-16 1.6674260994712906e-16 4.3294188021268516e-23
5.446702915881641 1.2019602340016411e-24 1.7377737010735284e-16 1.7377732479706413e-16 4.5310288748690234e-23
5.487708281020852 1.2451589983519521e-24 1.8137827252749157e-16 1.8137822509940927e-16 4.742808234709032e-23
5.529022354014368 1.3052165986340285e-24 1.9155803217333757e-16 1.9155798246385944e-16 4.97094781392712e-23
5.570647458961463 1.3688202110765586e-24 2.0240513062356754e-16 2.024050785209608e-16 5.210260674456059e-23
5.612585937458331 1.4362252225973398e-24 2.139710344331181e-16 2.139709798201158e-16 5.461300223614248e-23
5.654840148729818 1.510326089137623e-24 2.267046824039605e-16 2.2670462514505226e-16 5.725890826576754e-23
5.67608639626678 1.560799200158744e-24 2.351610897970418e-16 2.351610311115908e-16 5.868545104315999e-23
5.686739436050992 1.5868164664404241e-24 2.3952974993071673e-16 2.395296905183014e-16 5.941241529296823e-23
5.6974124697621304 1.613370818868805e-24 2.4399520541121105e-16 2.4399514526254554e-16 6.014866545498526e-23
5.718818669136295 1.668142535596972e-24 2.532263620543609e-16 2.532263004048567e-16 6.164950425886589e-23
5.740305295436557 1.728520938100118e-24 2.6337774104434915e-16 2.6337767783844024e-16 6.32059088174869e-23
5.7835210386641895 1.8851702701461635e-24 2.894092014700851e-16 2.894091348906899e-16 6.657939518505582e-23
5.827062130521658 2.065643127021513e-24 3.195025834272514e-16 3.1950251324675137e-16 7.018050002823486e-23
5.8489554468988025 2.1922559137157792e-24 3.4036037741956735e-16 3.4036030519254213e-16 7.222702523008407e-23
5.870931020387893 2.3281318150540388e-24 3.628139495055456e-16 3.6281387516704136e-16 7.43385042726704e-23
5.892989160043636 2.4740165364623226e-24 3.8699706687183343e-16 3.8699699035476093e-16 7.651707258176368e-23
5.915130176081913 2.63993609988598e-24 4.1450250031308314e-16 4.145024214828564e-16 7.883022688470006e-23
5.95966208400165 3.103867073187077e-24 4.910143476344203e-16 4.910142633377849e-16 8.429663533132473e-23
6.004529249263818 3.7725882768774436e-24 6.012952991700019e-16 6.01295208210365e-16 9.095963667675787e-23
6.027089341400364 4.237446536787039e-24 6.77924444729206e-16 6.779243496590798e-16 9.507012607046249e-23
6.049734195844842 4.786802147372781e-24 7.686899515359354e-16 7.68689851928722e-16 9.960721352029689e-23
6.095279466722835 6.373696207416042e-24 1.031227332443863e-15 1.0312272209041252e-15 1.1153973759156476e-22
6.141167624020661 8.815950053173255e-24 1.4371083267506895e-15 1.4371081983898916e-15 1.28360798437947e-22
6.164241091010745 1.0375582361094123e-23 1.6977022779429958e-15 1.6977021386711794e-15 1.3927181667886984e-22
6.187401249150058 1.2152284314510864e-23 1.995885556877581e-15 1.9958854056930764e-15 1.511845042295946e-22
6.1990139391386085 1.3019819099081628e-23 2.1423824204276642e-15 2.14238226311613e-15 1.5731153447665384e-22
6.204828454712694 1.3476808649035926e-23 2.2196590716542346e-15 2.2196589111698926e-15 1.6048434200787257e-22
6.210648424152782 1.3810412377468347e-23 2.276737836169047e-15 2.2767376730206604e-15 1.631483865978977e-22
6.233982942956859 1.4943838729648574e-23 2.472846819436547e-15 2.472846646789439e-15 1.7264710941863223e-22
6.239830258556775 1.508874301423635e-23 2.4991669600108596e-15 2.4991667860012098e-15 1.740096488723311e-22
6.245683058788269 1.5101334814273011e-23 2.50359866579108e-15 2.503598490408041e-15 1.7538303957266254e-22
6.257405133728602 1.507025828124952e-23 2.503135748997168e-15 2.503135571182884e-15 1.778142836532144e-22
6.269149208991335 1.4847417251689138e-23 2.47075084730172e-15 2.4707506685438393e-15 1.787578813448469e-22
6.280915325867298 1.4288504248474762e-23 2.3822050445927843e-15 2.3822048667422414e-15 1.7785054325513197e-22
6.304513850009849 1.2910170970984046e-23 2.160493827657525e-15 2.1604936533402618e-15 1.7431726311079309e-22
6.32820103803542 1.1201668421629314e-23 1.8816221365917908e-15 1.881621967913703e-15 1.686780871633205e-22
6.3519772230701035 9.634852465532445e-24 1.6245139088047749e-15 1.6245137454002617e-15 1.634045134199462e-22
6.375842739491607 8.316747621687673e-24 1.4075393735286016e-15 1.407539214706606e-15 1.5882199504861093e-22
6.399797922933955 7.260336424677231e-24 1.233367326974238e-15 1.2333671709906437e-15 1.559835942093537e-22
6.42384311029221 6.3820629939621356e-24 1.088241904838773e-15 1.0882417511710999e-15 1.5366767279885605e-22
6.447978639727206 5.7420706423389165e-24 9.827918679913491e-16 9.827917150504035e-16 1.5294094573378183e-22
6.472204850670314 5.2089607236193844e-24 8.948964194722722e-16 8.948962668682327e-16 1.526040393865882e-22
6.496522083828205 4.862523978028822e-24 8.385174560584973e-16 8.385173024142873e-16 1.5364420989611128e-22
