Dust emission spectrum from A.P. Jones, M. Kohler, N. Ysard, M. Bocchio, and L. Verstraete (2017), A&A, 602A, 46J 
inside the DustPedia framework.

lambda    nu*dP/dnu     j_nu    j_nu(carb.) j_nu(sil)
 (um)   (erg s-1 H-1) (Jy cm2 sr-1 H-1)
0.9927057738263894 7.530927840950537e-20 1.9844422609066584e-12 1.9844421304778743e-12 1.3042878425750055e-19
1.0001793341362166 7.6570947613231e-20 2.0328780738200953e-12 2.0328779169131355e-12 1.5690696042457092e-19
1.0077091589558085 7.783816237498667e-20 2.0820790453732135e-12 2.0820788568665298e-12 1.8850668332802858e-19
1.0114953028030835 7.84738016899353e-20 2.106968273221396e-12 2.106968066707287e-12 2.0651410903026674e-19
1.0152956718711033 7.911077129841089e-20 2.132050987869654e-12 2.1320507617041105e-12 2.261655438412964e-19
1.0229392996569957 8.03880084681793e-20 2.1827830186435106e-12 2.1827827476575248e-12 2.7098598532266045e-19
1.0267826658714554 8.102682936058977e-20 2.208395260086243e-12 2.2083949636006426e-12 2.9648560087015696e-19
1.0306404723013447 8.166688169927917e-20 2.2342028373690804e-12 2.2342025130934513e-12 3.2427562931279067e-19
1.03451277320114 8.23081503311582e-20 2.260206567231374e-12 2.260206212680137e-12 3.5455123652430905e-19
1.0383996230291617 8.295062075379266e-20 2.2864072850754026e-12 2.2864068975521512e-12 3.8752325089048536e-19
1.0403485208654093 8.3272302286335e-20 2.299581780839014e-12 2.299581375748149e-12 4.050908644232553e-19
1.0423010764483396 8.359427913079095e-20 2.3128058457071327e-12 2.312805422287796e-12 4.2341933651316015e-19
1.0462171883269815 8.42391123070757e-20 2.3394031240868795e-12 2.3394026616016316e-12 4.624852474620543e-19
1.0471985131304309 8.44005026880231e-20 2.346083597844792e-12 2.3460831250671525e-12 4.727776397136844e-19
1.048180758391296 8.456196552401581e-20 2.3527765615552467e-12 2.352776078266287e-12 4.832889600626446e-19
1.0501480137395462 8.488510782402971e-20 2.366200016089701e-12 2.3661995111035336e-12 5.049861681504245e-19
1.0521189612883777 8.520853776107506e-20 2.3796736030688738e-12 2.3796730754555825e-12 5.2761329066520985e-19
1.0531058218030118 8.537014833146119e-20 2.386423311411377e-12 2.386422772123253e-12 5.392881236083261e-19
1.0540936079674168 8.553113635444269e-20 2.3931661693201254e-12 2.393165618107713e-12 5.512124122690218e-19
1.058054026499678 8.617577130084892e-20 2.4202624146100495e-12 2.420261813130616e-12 6.014794327222533e-19
1.0590464539527713 8.633709996334204e-20 2.4270677536019903e-12 2.4270671388873455e-12 6.147146437234258e-19
1.06003981227728 8.649849629146858e-20 2.433885633691644e-12 2.4338850054636655e-12 6.282279781399599e-19
1.0620293250338977 8.682149135908026e-20 2.4475590779842374e-12 2.447558421872923e-12 6.561113137612838e-19
1.0660195594769086 8.746828721013121e-20 2.4750571341906573e-12 2.475056418723984e-12 7.154666724388232e-19
1.070024785945596 8.811615031200482e-20 2.502757582992344e-12 2.5027568030605516e-12 7.79931792434846e-19
1.0740450607676866 8.876507291384351e-20 2.5306614499836826e-12 2.5306606000610744e-12 8.499226088927917e-19
1.07808044048254 8.941504806987258e-20 2.558769787414989e-12 2.5587688615281647e-12 9.258868239302041e-19
1.0861967418109137 9.071714801011364e-20 2.615575839637418e-12 2.615574741938539e-12 1.0976988793845366e-18
1.0902777775684922 9.136702530488952e-20 2.6442108249026736e-12 2.64420963028039e-12 1.1946222828878986e-18
1.0943741465085532 9.201789755510578e-20 2.673052963936741e-12 2.673051664261789e-12 1.2996749513367527e-18
1.1026131145906286 9.332261768309603e-20 2.731363483861269e-12 2.731361947071863e-12 1.5367894057151348e-18
1.1109141095355224 9.463129889642291e-20 2.790517284943078e-12 2.790515470161691e-12 1.8147813882851254e-18
1.1192775983109025 9.594293444026281e-20 2.850494727871028e-12 2.8504925876086557e-12 2.1402623725966118e-18
1.1277040513999907 9.725289394574867e-20 2.9111669168646175e-12 2.9111643960266266e-12 2.5208379911225153e-18
1.1361939428280308 9.856672599904378e-20 2.972707877298761e-12 2.9727049120530232e-12 2.9652457371344442e-18
1.1447477501889525 9.988448319465689e-20 3.035129728881581e-12 3.035126245372195e-12 3.483509384572752e-18
1.1533659546722406 1.0120668354303813e-19 3.0984590040342664e-12 3.0984549169156824e-12 4.08711858413151e-18
1.1707974979042381 1.0386844437717852e-19 3.228009810799221e-12 3.2280042059217702e-12 5.6048774503800755e-18
1.1884924949847024 1.0654900749552441e-19 3.3613619937528562e-12 3.3613543461736476e-12 7.64757920768518e-18
1.2064549276569216 1.09266375511804e-19 3.499186353019736e-12 3.4991759700223075e-12 1.038299742869492e-17
1.2246888378427687 1.120039190003895e-19 3.641064827886281e-12 3.641050800421442e-12 1.4027464839152707e-17
1.2431983285522175 1.1475980049909743e-19 3.787037757978068e-12 3.787018899045312e-12 1.8858932756838243e-17
1.2619875648066055 1.1753850101492883e-19 3.937355752018639e-12 3.937330519308309e-12 2.5232710330078802e-17
1.3004222497298317 1.2314962378658095e-19 4.250958977692649e-12 4.250914445299541e-12 4.453239310823274e-17
1.3400274889804893 1.288573078120252e-19 4.583446790820997e-12 4.583369642904682e-12 7.71479163137252e-17
1.3808389325824078 1.3468548342951118e-19 4.936660325106128e-12 4.936529070619192e-12 1.3125448693491667e-16
1.4228933163050095 1.4068444546937684e-19 5.313587731420141e-12 5.313368318398985e-12 2.194130211579159e-16
1.466228494730424 1.469565050208585e-19 5.719524217937473e-12 5.719163649951909e-12 3.605679855633391e-16
1.5108834753276823 1.5349357107319212e-19 6.155886367956281e-12 6.155303620233025e-12 5.827477232568501e-16
1.5568984535646726 1.6029380154873417e-19 6.624398484263501e-12 6.623471218817679e-12 9.27265445823346e-16
1.6043148490894465 1.6739734618956756e-19 7.12865513057107e-12 7.127199751947924e-12 1.4553786231459892e-15
1.6531753430134553 1.7484638967505714e-19 7.672643530318375e-12 7.670393051514075e-12 2.2504788043061302e-15
1.7035239163302658 1.8268911021772268e-19 8.260956376173526e-12 8.257527107929127e-12 3.4292682444001787e-15
1.755405889504358 1.9106047684638996e-19 8.902620105766935e-12 8.897468151606745e-12 5.1519541601890754e-15
1.8088679632656115 1.9996179418118627e-19 9.601151551829249e-12 9.593517781653041e-12 7.633770176205392e-15
1.8639582606462262 2.0939001076797978e-19 1.0360043413585934e-11 1.0348883158998245e-11 1.1160254587686493e-14
1.9207263702978936 2.193706149218922e-19 1.1184417868505297e-11 1.1168313683876962e-11 1.6104184628335054e-14
1.979223391128241 2.299418482032842e-19 1.2080426456295296e-11 1.205748088960558e-11 2.2945566689714503e-14
2.039501978296691 2.411363336242955e-19 1.3054379005151859e-11 1.3022086133699535e-11 3.229287145232421e-14
2.1016163906111602 2.5305717840861956e-19 1.4116971608108611e-11 1.4072062011349084e-11 4.490959675952677e-14
2.1656225393682647 2.657539049471465e-19 1.527678092028753e-11 1.5215044296003796e-11 6.173662428374139e-14
2.231578038680979 2.7919799618737375e-19 1.6538412080786917e-11 1.645449504018919e-11 8.391704059772679e-14
2.299542257339062 2.9340000476502726e-19 1.7908983831457114e-11 1.7796162611699983e-11 1.128212197571402e-13
2.369576372248914 3.083958404217448e-19 1.9397629302728488e-11 1.9247556571794007e-11 1.5007273093447777e-13
2.4417434235010123 3.2422964420276243e-19 2.1014650882786097e-11 2.0817085766897408e-11 1.9756511588869274e-13
2.5161083711144245 3.4099791642897667e-19 2.2774586525185237e-11 2.251710114883167e-11 2.574853763535662e-13
2.5927381535095444 3.5886221229050143e-19 2.4697660804320768e-11 2.436533757189824e-11 3.3232323242252285e-13
2.6717017477616296 3.779539946519913e-19 2.68037986857589e-11 2.6378942155413618e-11 4.248565303452865e-13
2.753070231689431 3.9846516939206123e-19 2.911904237644234e-11 2.858089802452951e-11 5.381443519128234e-13
2.836916847834745 4.209371387148986e-19 3.1698103869754734e-11 3.102257199067731e-11 6.755318790774389e-13
2.9233170693905177 4.465503294831494e-19 3.4650999770224736e-11 3.3810561183174595e-11 8.404385870501346e-13
2.967498994190263 4.615955610539838e-19 3.63598126883779e-11 3.5427420977719565e-11 9.323917106583401e-13
3.0123486681368425 4.775922450454502e-19 3.818844175439942e-11 3.715535540095894e-11 1.033086353440478e-12
3.0578761833420214 5.017278452025518e-19 4.0724666254394293e-11 3.95811136248402e-11 1.143552629554083e-12
3.1040917844459814 5.293916523186565e-19 4.361953949541626e-11 4.2356247015922323e-11 1.2632924794939361e-12
3.127460860933648 5.533695683549004e-19 4.593847653932733e-11 4.4611258418741765e-11 1.3272181205855542e-12
3.1510058709225794 5.832433993745794e-19 4.878299701233457e-11 4.738928050123598e-11 1.3937165110985867e-12
3.162844764501044 6.094402944906148e-19 5.116564756876723e-11 4.9737569696101715e-11 1.4280778726654973e-12
3.1747281389236908 6.388794787711255e-19 5.383874315814554e-11 5.23756415151801e-11 1.463101642965426e-12
3.1986289994194426 7.176690851318901e-19 6.093369887322937e-11 5.939834906127333e-11 1.5353498119560383e-12
3.2227097969389145 8.97120840127868e-19 7.674349573707811e-11 7.513172565920853e-11 1.6117700778695608e-12
3.2348180950136065 1.064365629971478e-18 9.139241193267236e-11 8.973989343110282e-11 1.6525185015695434e-12
3.240889293275058 1.189022042783613e-18 1.0228772865437304e-10 1.006137160614441e-10 1.6740125929289107e-12
3.2469718861334385 1.3334089229522354e-18 1.1492415478227039e-10 1.1322790219812539e-10 1.6962525841449525e-12
3.2714166318528037 2.0885638973505926e-18 1.8136482322581633e-10 1.795767753743024e-10 1.7880478515138916e-12
3.2744851364798273 2.135821337279535e-18 1.8564248676548306e-10 1.8384365292685282e-10 1.7988338386302683e-12
3.2775565192852394 2.184321643128893e-18 1.9003614484501646e-10 1.8822647399472478e-10 1.8096708502917342e-12
3.283707930232385 2.1382884617851e-18 1.8638040338637784e-10 1.8455141725094127e-10 1.8289861354365483e-12
3.2898708863219004 1.991153365606464e-18 1.738813483713811e-10 1.720348437468325e-10 1.8465046245485477e-12
3.29141343181113 1.9563810277582953e-18 1.709248914252171e-10 1.6907398930696725e-10 1.8509021182498614e-12
3.292184975758714 1.9392840355489527e-18 1.694708797626625e-10 1.6761777621498793e-10 1.853103547674571e-12
3.295272960557952 1.832738050175687e-18 1.6031022523868385e-10 1.5844856979551495e-10 1.86165544316895e-12
3.3076538914384823 1.4607083133737454e-18 1.2824870641787356e-10 1.2635273173398446e-10 1.8959746838891118e-12
3.310756385682612 1.3841684008767843e-18 1.2164257051557744e-10 1.1973795137514373e-10 1.904619140433712e-12
3.313861789986515 1.3132279698582574e-18 1.155164804994237e-10 1.1360319102958475e-10 1.913289469838988e-12
3.3200813396944477 1.2143778749692497e-18 1.0702173883950912e-10 1.0508977241494317e-10 1.931966424565922e-12
3.345076488085796 1.0435446098858613e-18 9.265876448118867e-11 9.064348943118746e-11 2.0152750500012164e-12
3.3482140837626964 1.0509332518121307e-18 9.340234616317847e-11 9.13757822324715e-11 2.026563930706953e-12
3.3513546224236106 1.0583848594557514e-18 9.415284261164549e-11 9.211494210539592e-11 2.037900506249542e-12
3.3576445397418455 1.108973365848043e-18 9.88382997997497e-11 9.677668638133878e-11 2.061613418410921e-12
3.3702598118196083 1.2908474565911224e-18 1.1548025605271847e-10 1.133689085726314e-10 2.1113474800870445e-12
3.382922481734668 1.335353062067125e-18 1.199106027123171e-10 1.1775101530204557e-10 2.15958741027151e-12
3.389271646505754 1.358262018140411e-18 1.2219666913201902e-10 1.2001265005316034e-10 2.1840190788586656e-12
3.395632727569191 1.3834771655911445e-18 1.2469876124801583e-10 1.2248956367145618e-10 2.209197576559644e-12
3.421196662673239 1.5054252605094092e-18 1.3671201103601724e-10 1.343986935747863e-10 2.313317461230929e-12
3.4276182099114902 1.4845824321320542e-18 1.3507226779102527e-10 1.3273582456606445e-10 2.336443224960784e-12
3.4340518103208963 1.3878313100536188e-18 1.2650653404861396e-10 1.2414827154400693e-10 2.3582625046070102e-12
3.4469541582030403 1.2491931715481827e-18 1.1429692390558856e-10 1.1189689062970569e-10 2.4000332758828765e-12
3.472904465399547 1.2127609286439288e-18 1.1179888355273011e-10 1.0930246027851095e-10 2.496423274219171e-12
3.4990501388274233 1.1566679767709518e-18 1.0743067653642197e-10 1.0483585598603418e-10 2.594820550387788e-12
3.5253949054701885 9.521162067912913e-19 8.909783749531572e-11 8.640781234306335e-11 2.6900251522523365e-12
3.5519380250092896 7.5747030988829365e-19 7.141680667491127e-11 6.86314032992744e-11 2.7854033756368505e-12
3.578680990867387 6.8361739304546405e-19 6.493898903535881e-11 6.204908476414531e-11 2.8899042712134916e-12
3.605625307711299 6.5730750362819255e-19 6.290984519542379e-11 5.991006674375606e-11 2.999778451667733e-12
3.660119384959845 6.4537462958004785e-19 6.270130403315462e-11 5.947153973029476e-11 3.2297643028598463e-12
3.715437065384467 6.396090811621075e-19 6.308033101104161e-11 5.960935146621337e-11 3.4709795448282487e-12
3.8285932144167436 6.528302284312551e-19 6.634510931097848e-11 6.236001006987224e-11 3.98509924110624e-12
3.94519561050918 6.722471041724648e-19 7.039906877118999e-11 6.585977394868923e-11 4.5392948225007534e-12
4.06534921144712 6.937288251015074e-19 7.486124241421679e-11 6.972981916955049e-11 5.1314232446662895e-12
4.189162171576248 7.15975012091224e-19 7.961492158370646e-11 7.385381204911893e-11 5.761109534587515e-12
4.316745939156006 7.38341878190864e-19 8.460254432678302e-11 7.81782480705719e-11 6.424296256211125e-12
4.448215356677963 7.604211645948083e-19 8.978616747910872e-11 8.267634383342803e-11 7.109823645680716e-12
4.58368876423945 7.820495863735468e-19 9.51522023592693e-11 8.733517529244791e-11 7.817027066821382e-12
4.723288106065518 8.0320034079707385e-19 1.0070192073512467e-10 9.215295430773587e-11 8.54896642738882e-12
4.867139040275056 8.237571529521965e-19 1.0642468778255934e-10 9.714162261235666e-11 9.283065170202674e-12
4.940699165968905 8.341114095315766e-19 1.093910789267029e-10 9.973815295380103e-11 9.652925972901861e-12
5.015371051989984 8.440305776868887e-19 1.1236490335558749e-10 1.0234166040152276e-10 1.0023242954064724e-11
5.091171501069577 8.545644550479892e-19 1.154867034560752e-10 1.0508408664812128e-10 1.0402616807953876e-11
5.129500256944802 8.596459230506006e-19 1.1704802681393658e-10 1.0645611511067054e-10 1.0591911703266036e-11
5.168117569889187 8.647032713428177e-19 1.1862300456533243e-10 1.0783992820988621e-10 1.0783076355446197e-11
5.20702561229733 8.705119555184193e-19 1.2031890947515732e-10 1.0932528473493381e-10 1.099362474022353e-11
5.246226572918644 8.762152076068022e-19 1.220189440956336e-10 1.1081453604913531e-10 1.1204408046498272e-11
5.265937586045735 8.790270894425056e-19 1.228704360663932e-10 1.1156058495913699e-10 1.1309851107256215e-11
5.285722656980489 8.818123854890497e-19 1.2372287386049346e-10 1.1230756512430115e-10 1.1415308736192329e-11
5.305582063971359 8.845710418168602e-19 1.245762309554163e-10 1.1305546487769249e-10 1.1520766077723841e-11
5.3255160863122235 8.874513838539858e-19 1.2545145563429787e-10 1.1382426476269876e-10 1.1627190871599128e-11
5.365609099470188 8.942773084451767e-19 1.2736810105752393e-10 1.1552055661285758e-10 1.1847544444666363e-11
5.406003951863644 9.010510131596053e-19 1.292990015380291e-10 1.1723095322236178e-10 1.206804831566733e-11
5.446702915881641 9.07775966978362e-19 1.3124470820716313e-10 1.189561250551235e-10 1.228858315203963e-11
5.487708281020852 9.147327220299222e-19 1.3324614861696657e-10 1.2073602152037047e-10 1.2510127096596143e-11
5.529022354014368 9.241020749257782e-19 1.3562436700953637e-10 1.228832808247266e-10 1.2741086184809768e-11
5.570647458961463 9.3360123111365e-19 1.380500357934245e-10 1.2507790867453488e-10 1.297212711888958e-11
5.612585937458331 9.432501923814449e-19 1.4052685903127322e-10 1.2732373019145633e-10 1.3203128839816883e-11
5.654840148729818 9.53481859838172e-19 1.4312061730720302e-10 1.2968531411550418e-10 1.3435303191698834e-11
5.67608639626678 9.60488519101545e-19 1.4471402014204884e-10 1.311569323399975e-10 1.3557087802051334e-11
5.686739436050992 9.640458727729563e-19 1.4552260561364386e-10 1.3190461349088542e-10 1.3617992122758404e-11
5.6974124697621304 9.676406921688902e-19 1.4633938254537988e-10 1.326604806590035e-10 1.3678901886376375e-11
5.718818669136295 9.749472479882693e-19 1.479983511808416e-10 1.3419762116228162e-10 1.3800730018560002e-11
5.740305295436557 9.829264393252366e-19 1.4977021075995303e-10 1.3584661331349272e-10 1.3923597446460313e-11
5.7835210386641895 1.0036320720694806e-18 1.5407645725543665e-10 1.3989909468864938e-10 1.4177362566787255e-11
5.827062130521658 1.0267642394887694e-18 1.5881437737040546e-10 1.4438054584611694e-10 1.4433831524288492e-11
5.8489554468988025 1.0432724572551724e-18 1.619740674805388e-10 1.4740081034747908e-10 1.457325713305971e-11
5.870931020387893 1.0606471331598563e-18 1.6529028679784173e-10 1.505773955938343e-10 1.4712891204007437e-11
5.892989160043636 1.0789588160427566e-18 1.6877570983463473e-10 1.5392299198654608e-10 1.4852717848088595e-11
5.915130176081913 1.0996601716802642e-18 1.7266019835702485e-10 1.5766222785133814e-10 1.499797050568667e-11
5.95966208400165 1.1580816651358883e-18 1.832020186129306e-10 1.6786784981913132e-10 1.533416879379924e-11
6.004529249263818 1.2415868227676712e-18 1.978907490693747e-10 1.821752803687955e-10 1.5715468700579175e-11
6.027089341400364 1.2996358119415313e-18 2.079211804825969e-10 1.9198280127193012e-10 1.5938379210666736e-11
6.049734195844842 1.367431844354542e-18 2.1958942229155995e-10 2.034143477058037e-10 1.617507458575628e-11
6.095279466722835 1.5628900702392346e-18 2.5286661076826e-10 2.3610099019449964e-10 1.676562057376038e-11
6.141167624020661 1.860099152096827e-18 3.032190477415485e-10 2.8567615206315725e-10 1.7542895678391227e-11
6.164241091010745 2.049228339428368e-18 3.353045158138013e-10 3.172685984806389e-10 1.8035917333162487e-11
6.187401249150058 2.26105799031478e-18 3.713551188679181e-10 3.528139556911727e-10 1.8541163176745388e-11
6.1990139391386085 2.3637009533482435e-18 3.889417611000894e-10 3.7014369528939777e-10 1.879806581069149e-11
6.204828454712694 2.4174683348750252e-18 3.9816218065291474e-10 3.792344641323054e-10 1.892771652060926e-11
6.210648424152782 2.4561575551035178e-18 4.049138204171236e-10 3.858767755361716e-10 1.9037044880951972e-11
6.233982942956859 2.584958298065787e-18 4.277485873202014e-10 4.083351668724948e-10 1.9413420447706573e-11
6.239830258556775 2.5998832316720926e-18 4.306218394965484e-10 4.111598179616493e-10 1.9462021534899067e-11
6.245683058788269 2.5988324017086067e-18 4.3085153819533525e-10 4.1134087535813996e-10 1.9510662837195362e-11
6.257405133728602 2.5898711066452725e-18 4.3017172176833667e-10 4.105780354251838e-10 1.9593686343152897e-11
6.269149208991335 2.5576774512401955e-18 4.2562175108652543e-10 4.0600781149566336e-10 1.9613939590861994e-11
6.280915325867298 2.4850701353585022e-18 4.1431534817577764e-10 3.947586346061109e-10 1.955671356966667e-11
6.304513850009849 2.3093849364269367e-18 3.8647140398446303e-10 3.670990164491595e-10 1.9372387535303573e-11
6.32820103803542 2.0967407382616876e-18 3.5220412168146957e-10 3.330903772538236e-10 1.911374442764597e-11
6.3519772230701035 1.903163365462363e-18 3.208887078428614e-10 3.0200970541417435e-10 1.887900242868698e-11
6.375842739491607 1.739714749405544e-18 2.944320448189629e-10 2.7576314762707014e-10 1.866889719189274e-11
6.399797922933955 1.6103242164053562e-18 2.7355774693843533e-10 2.5501114317778766e-10 1.854660376064769e-11
6.42384311029221 1.5021163684245439e-18 2.5613441603605767e-10 2.376924740821207e-10 1.8441941953936983e-11
6.447978639727206 1.4234697959446249e-18 2.4363589842841757e-10 2.2523044538888221e-10 1.840545303953536e-11
6.472204850670314 1.3575104329772244e-18 2.3321950199376066e-10 2.148370757665812e-10 1.838242622717945e-11
6.496522083828205 1.314229800719817e-18 2.2663222518906307e-10 2.082178585775627e-10 1.8414366611500348e-11
