Dust emission spectrum from A.P. Jones, M. Kohler, N. Ysard, M. Bocchio, and L. Verstraete (2017), A&A, 602A, 46J 
inside the DustPedia framework.

lambda    nu*dP/dnu     j_nu    j_nu(carb.) j_nu(sil)
 (um)   (erg s-1 H-1) (Jy cm2 sr-1 H-1)
0.9927057738263894 2.944146745131271e-20 7.757993897617606e-13 7.757993419144601e-13 4.784730047579013e-20
1.0001793341362166 2.9935146416346987e-20 7.947466328060787e-13 7.947465752407331e-13 5.756534562148436e-20
1.0077091589558085 3.0430959742472093e-20 8.13992284467877e-13 8.139922153036066e-13 6.916427019663226e-20
1.0114953028030835 3.067964740173333e-20 8.237276940459726e-13 8.237276182714371e-13 7.577453553309719e-20
1.0152956718711033 3.0928845801613026e-20 8.335385329042018e-13 8.335384499155356e-13 8.298866662548499e-20
1.0229392996569957 3.142850271168232e-20 8.533810368944127e-13 8.53380937450647e-13 9.944376575121507e-20
1.0267826658714554 3.1678395094698484e-20 8.633981870738006e-13 8.633980782675387e-13 1.0880626201807357e-19
1.0306404723013447 3.192875828014535e-20 8.734914430288811e-13 8.734913240186219e-13 1.1901025933774064e-19
1.03451277320114 3.217958601785085e-20 8.836611120004735e-13 8.836609818729549e-13 1.3012751846354628e-19
1.0383996230291617 3.2430872308847234e-20 8.939075082799567e-13 8.93907366044392e-13 1.422355645612683e-19
1.0403485208654093 3.255668560732648e-20 8.990595793746579e-13 8.990594306876167e-13 1.4868704132102645e-19
1.0423010764483396 3.268261141140484e-20 9.042309534963098e-13 9.042307980781901e-13 1.5541811948654299e-19
1.0462171883269815 3.2934797847022506e-20 9.14631776907063e-13 9.14631607141499e-13 1.6976556396699236e-19
1.0471985131304309 3.299791373525049e-20 9.172441124376656e-13 9.17243938891961e-13 1.7354570423644515e-19
1.048180758391296 3.3061057176137536e-20 9.198613104867234e-13 9.198611330804177e-13 1.7740630543100254e-19
1.0501480137395462 3.318742640637118e-20 9.251103156931038e-13 9.251101303176723e-13 1.8537543156537803e-19
1.0521189612883777 3.331390492958236e-20 9.303788359608268e-13 9.303786422744887e-13 1.9368633826949296e-19
1.0531058218030118 3.337710200017899e-20 9.33018108054857e-13 9.33017910080281e-13 1.9797457596329618e-19
1.0540936079674168 3.34400542931193e-20 9.356546638511309e-13 9.356544614966308e-13 2.0235449985373864e-19
1.058054026499678 3.369212220772798e-20 9.462494598758443e-13 9.462492390570464e-13 2.2081879779734606e-19
1.0590464539527713 3.375520353697937e-20 9.489103300395725e-13 9.48910104358989e-13 2.256805836982363e-19
1.06003981227728 3.381831047643807e-20 9.515760799698958e-13 9.5157584932529e-13 2.306446056394899e-19
1.0620293250338977 3.3944600935165323e-20 9.569222420265072e-13 9.569220011389466e-13 2.408875605017307e-19
1.0660195594769086 3.4197486481673033e-20 9.676733772608924e-13 9.67673114568169e-13 2.6269272331414895e-19
1.070024785945596 3.445077515432531e-20 9.78503242052157e-13 9.785029556757466e-13 2.863764105129595e-19
1.0740450607676866 3.4704463566590684e-20 9.894122227058669e-13 9.894119106141997e-13 3.1209166717302713e-19
1.07808044048254 3.4958548643823627e-20 1.0004007156803468e-12 1.0004003756771074e-12 3.400032392879754e-19
1.0861967418109137 3.54675125908578e-20 1.0226067624429873e-12 1.0226063593050839e-12 4.031379033495382e-19
1.0902777775684922 3.572151054344497e-20 1.0337997165351227e-12 1.0337992777782649e-12 4.387568577790064e-19
1.0943741465085532 3.597588111057471e-20 1.0450731671549873e-12 1.045072689789388e-12 4.77365599163913e-19
1.1026131145906286 3.648573498289558e-20 1.0678633614043142e-12 1.0678627968868947e-12 5.645174196537083e-19
1.1109141095355224 3.699706748234885e-20 1.0909810760887961e-12 1.0909804093824965e-12 6.667062995924269e-19
1.1192775983109025 3.7509481336586213e-20 1.114418476137896e-12 1.114417689771192e-12 7.863667040864938e-19
1.1277040513999907 3.802116025542666e-20 1.138124937836305e-12 1.1381240115367012e-12 9.262996040333483e-19
1.1361939428280308 3.8534273730549147e-20 1.1621684488729133e-12 1.1621673591496267e-12 1.0897232866055668e-18
1.1447477501889525 3.9048839176183016e-20 1.1865535954266085e-12 1.1865523150962079e-12 1.2803304005901407e-18
1.1533659546722406 3.956505708451845e-20 1.2112906290079576e-12 1.2112891266536844e-12 1.502354273065503e-18
1.1707974979042381 4.0604022872236676e-20 1.2618864658600207e-12 1.2618844051218939e-12 2.060738127469939e-18
1.1884924949847024 4.164996030625361e-20 1.313954929337438e-12 1.3139521168922453e-12 2.8124451925413615e-18
1.2064549276569216 4.270990325635999e-20 1.3677575549973566e-12 1.3677537356605907e-12 3.8193367656783504e-18
1.2246888378427687 4.377730226932012e-20 1.42312873491519e-12 1.4231235737100847e-12 5.161205105188097e-18
1.2431983285522175 4.4851418419824913e-20 1.4800828714937144e-12 1.4800759308893514e-12 6.940604362800091e-18
1.2619875648066055 4.59339711062133e-20 1.5387161124773544e-12 1.5387068238027922e-12 9.288674562230708e-18
1.3004222497298317 4.811851049109163e-20 1.660986106784946e-12 1.6609697050708009e-12 1.640171414523068e-17
1.3400274889804893 5.0338556954165645e-20 1.7905394831211816e-12 1.7905110538507287e-12 2.8429270452069915e-17
1.3808389325824078 5.2603292185411175e-20 1.9280814746274622e-12 1.9280330809560954e-12 4.839367136681491e-17
1.4228933163050095 5.493226597337836e-20 2.0747667843549004e-12 2.074685842338744e-12 8.094201615606429e-17
1.466228494730424 5.736545452214991e-20 2.232654528398435e-12 2.2325214400333447e-12 1.3308836509007754e-16
1.5108834753276823 5.989958616545947e-20 2.4022833226438286e-12 2.402068104566623e-12 2.1521807720525775e-16
1.5568984535646726 6.253390211014365e-20 2.5843138184452715e-12 2.5839711684408683e-12 3.426500044024132e-16
1.6043148490894465 6.528416535055363e-20 2.78014144707079e-12 2.7796033346130705e-12 5.381124577179518e-16
1.6531753430134553 6.81669871978406e-20 2.99131708854163e-12 2.9904845094117646e-12 8.3257912986573e-16
1.7035239163302658 7.120142954834682e-20 3.2196330844192016e-12 3.2183636540974946e-12 1.2694303217060254e-15
1.755405889504358 7.444063466582783e-20 3.4686226152092416e-12 3.466714346763119e-12 1.9082684461215015e-15
1.8088679632656115 7.788540764373874e-20 3.7396623966374304e-12 3.736833156029894e-12 2.829240607536639e-15
1.8639582606462262 8.153495417091195e-20 4.0341258966330824e-12 4.029987124992789e-12 4.138771640292627e-15
1.9207263702978936 8.539969850327367e-20 4.354028520388033e-12 4.34805258419706e-12 5.975936190973339e-15
1.979223391128241 8.949509968349403e-20 4.7017929897191475e-12 4.693272998276975e-12 8.519991442172653e-15
2.039501978296691 9.38344906240134e-20 5.0799105466610615e-12 5.067912139879833e-12 1.1998406781228745e-14
2.1016163906111602 9.845882594168605e-20 5.4925944370647655e-12 5.475897527900686e-12 1.6696909164079318e-14
2.1656225393682647 1.033880953861992e-19 5.943232643354294e-12 5.920264632721433e-12 2.2968010632861087e-14
2.231578038680979 1.0861176299176112e-19 6.433663986517323e-12 6.402423492869101e-12 3.124049364822188e-14
2.299542257339062 1.1413451527710034e-19 6.966711504813275e-12 6.924682461596175e-12 4.202904321710127e-14
2.369576372248914 1.1997106907823285e-19 7.545997773021539e-12 7.490053533957147e-12 5.594423906439415e-14
2.4417434235010123 1.2613936596114097e-19 8.175608818148856e-12 8.101909622366397e-12 7.369919578245928e-14
2.5161083711144245 1.3267799635564221e-19 8.861304900726993e-12 8.765186147573783e-12 9.611875315320958e-14
2.5927381535095444 1.3965136865213882e-19 9.611104250334493e-12 9.486960834587437e-12 1.2414341574705843e-13
2.6717017477616296 1.4711253057068654e-19 1.0432948743404583e-11 1.0274124351278568e-11 1.5882439212601195e-13
2.753070231689431 1.5513889242152327e-19 1.133724182103297e-11 1.113592026779222e-11 2.0132155324075034e-13
2.836916847834745 1.63946865108064e-19 1.234579770077234e-11 1.2092891933779525e-11 2.529057669928155e-13
2.9233170693905177 1.7400843410693473e-19 1.3502545653107814e-11 1.3187664716581953e-11 3.148809365258575e-13
2.967498994190263 1.7993650708682708e-19 1.4173571510391694e-11 1.3824096441682132e-11 3.494750687095638e-13
3.0123486681368425 1.862449749391732e-19 1.489221286840062e-11 1.4504840271020029e-11 3.873725973805873e-13
3.0578761833420214 1.957961985310565e-19 1.589254994575264e-11 1.5463587710065205e-11 4.2896223568743044e-13
3.1040917844459814 2.067614010595662e-19 1.7036228395639008e-11 1.656216211367292e-11 4.740662819660878e-13
3.127460860933648 2.1629115366638283e-19 1.7955606264916102e-11 1.7457451168103443e-11 4.981550968126589e-13
3.1510058709225794 2.281772183418519e-19 1.908494562062681e-11 1.856172566212857e-11 5.232199584982455e-13
3.162844764501044 2.3861014744854814e-19 2.003254924403756e-11 1.9496375140745054e-11 5.361741032925052e-13
3.1747281389236908 2.5034148729799863e-19 2.109642191417692e-11 2.054704217910709e-11 5.493797350698276e-13
3.1986289994194426 2.817623524244713e-19 2.3923034574201077e-11 2.3346408479673348e-11 5.76626094527727e-13
3.2227097969389145 3.533717667079331e-19 3.022890948346347e-11 2.9623457044690774e-11 6.054524387726952e-13
3.2348180950136065 4.2013291807131727e-19 3.607497239071732e-11 3.5454147714589893e-11 6.208246761274235e-13
3.240889293275058 4.698972244460979e-19 4.042374157930785e-11 3.979480834973958e-11 6.28933229568271e-13
3.2469718861334385 5.275389286730124e-19 4.546764645781669e-11 4.483032329468254e-11 6.373231631341561e-13
3.2714166318528037 8.291409238755745e-19 7.200018983318701e-11 7.132823190825953e-11 6.719579249274694e-13
3.2744851364798273 8.480206160475257e-19 7.370871956545842e-11 7.30326904448179e-11 6.760291206404966e-13
3.2775565192852394 8.67397899663544e-19 7.54636815586401e-11 7.478356184106147e-11 6.801197175786411e-13
3.283707930232385 8.490249850585867e-19 7.400386899540605e-11 7.331645514737427e-11 6.874138480317629e-13
3.2898708863219004 7.902712168404257e-19 6.901197423406508e-11 6.831794177380946e-11 6.940324602556252e-13
3.29141343181113 7.763862992098973e-19 6.783123635610769e-11 6.71355424173399e-11 6.956939387677973e-13
3.292184975758714 7.695593594483659e-19 6.725054158370785e-11 6.655401588108411e-11 6.965257026237361e-13
3.295272960557952 7.270006729009437e-19 6.359099796626852e-11 6.289124053664361e-11 6.997574296249131e-13
3.3076538914384823 5.784121198186105e-19 5.078399668433776e-11 5.0071268697279823e-11 7.127279870579456e-13
3.310756385682612 5.478468011336071e-19 4.814550967672365e-11 4.7429514323109906e-11 7.159953536137541e-13
3.313861789986515 5.195193916364445e-19 4.5698883248367974e-11 4.497961063018864e-11 7.19272618179348e-13
3.3200813396944477 4.80043584500254e-19 4.230569429080624e-11 4.157936348589926e-11 7.26330804906974e-13
3.345076488085796 4.117880492794388e-19 3.656362316750882e-11 3.5805813413443666e-11 7.578097540651607e-13
3.3482140837626964 4.147361457451704e-19 3.685993281160134e-11 3.609785764560167e-11 7.620751659996553e-13
3.3513546224236106 4.17709538421213e-19 3.715901647400672e-11 3.639265771913585e-11 7.663587548708638e-13
3.3576445397418455 4.37910635758596e-19 3.9029199470005894e-11 3.825388122313755e-11 7.753182468683387e-13
3.3702598118196083 5.10566158573333e-19 4.5675660917831516e-11 4.488155137992731e-11 7.94109537904204e-13
3.382922481734668 5.283368960132383e-19 4.7443030188609094e-11 4.663068851361904e-11 8.123416749900409e-13
3.389271646505754 5.374857343152984e-19 4.835515207089977e-11 4.753357549964059e-11 8.215765712591822e-13
3.395632727569191 5.475517644900086e-19 4.935320108582674e-11 4.852210735306678e-11 8.310937327599567e-13
3.421196662673239 5.962292614363986e-19 5.414529934346075e-11 5.327484398058273e-11 8.704553628780278e-13
3.4276182099114902 5.879033953570657e-19 5.348941435261378e-11 5.261021056453187e-11 8.792037880819044e-13
3.4340518103208963 5.492517435544736e-19 5.006655628381096e-11 4.9179095411919065e-11 8.87460871891896e-13
3.4469541582030403 4.938739378892771e-19 4.51877845505072e-11 4.428451048440956e-11 9.032740660976508e-13
3.472904465399547 4.793306663699771e-19 4.418730195461584e-11 4.3247546934004925e-11 9.3975502061091e-13
3.4990501388274233 4.56921326026531e-19 4.243859790774663e-11 4.146158963706659e-11 9.770082706800514e-13
3.5253949054701885 3.751449784306584e-19 3.5105595395799576e-11 3.409252198599788e-11 1.0130734098017031e-12
3.5519380250092896 2.9732802980688186e-19 2.803307026896119e-11 2.69838494986182e-11 1.0492207703429846e-12
3.578680990867387 2.677801356600229e-19 2.5437286222406926e-11 2.4348459213863296e-11 1.0888270085436305e-12
3.605625307711299 2.572321032910863e-19 2.4619271357792273e-11 2.3488792193081353e-11 1.1304791647109293e-12
3.660119384959845 2.5240201065239945e-19 2.4522090710001617e-11 2.3304382477843967e-11 1.2177082321576508e-12
3.715437065384467 2.500423269028671e-19 2.4659988753046432e-11 2.3350729277688276e-11 1.3092594753581544e-12
3.8285932144167436 2.5523331286262363e-19 2.5938569178031066e-11 2.4433960732625905e-11 1.5046084454051616e-12
3.94519561050918 2.6292502892897537e-19 2.7534037823819918e-11 2.5818528156775562e-11 1.7155096670443552e-12
4.06534921144712 2.7146929206224566e-19 2.929462888919741e-11 2.735341095457169e-11 1.941217934625727e-12
4.189162171576248 2.8034897873995177e-19 3.117421918575227e-11 2.8992562414424144e-11 2.1816567713281262e-12
4.316745939156006 2.8931014357865466e-19 3.3150461824371634e-11 3.0715108400178004e-11 2.4353534241936335e-12
4.448215356677963 2.9819385571853665e-19 3.5209019313727443e-11 3.251089336029978e-11 2.698125953427661e-12
4.58368876423945 3.069371093587848e-19 3.7345128045788774e-11 3.4375347488776226e-11 2.969780557012549e-12
4.723288106065518 3.155309611572705e-19 3.95599606051025e-11 3.630841638035451e-11 3.2515442247479823e-12
4.867139040275056 3.2393456109388345e-19 4.1850482757990143e-11 3.831561068903558e-11 3.5348720689545693e-12
4.940699165968905 3.2818542224946374e-19 4.3040482383577e-11 3.936258249260209e-11 3.6778998909749e-12
5.015371051989984 3.322740338718476e-19 4.423529276143351e-11 4.041399381350679e-11 3.821298947926717e-12
5.091171501069577 3.3662215393197207e-19 4.549145782772332e-11 4.152309315322575e-11 3.96836467449756e-12
5.129500256944802 3.387266478377866e-19 4.6120483673111515e-11 4.20786573838713e-11 4.041826289240224e-12
5.168117569889187 3.4082451514693353e-19 4.675549330751091e-11 4.263944278649344e-11 4.11605052101748e-12
5.20702561229733 3.4322567134256395e-19 4.743936969277183e-11 4.324167366854841e-11 4.197696024223424e-12
5.246226572918644 3.4558796033732154e-19 4.8125480642703595e-11 4.384599233191549e-11 4.279488310788112e-12
5.265937586045735 3.4675444624269245e-19 4.8469348134449084e-11 4.4148922466287064e-11 4.320425668162028e-12
5.285722656980489 3.4791112335854267e-19 4.8813743987139894e-11 4.445236091992531e-11 4.361383067214576e-12
5.305582063971359 3.4905796955381276e-19 4.9158659029409375e-11 4.4756304131063635e-11 4.402354898345748e-12
5.3255160863122235 3.5025472082355554e-19 4.9512531468798964e-11 4.5068821649923915e-11 4.443709818875066e-12
5.365609099470188 3.5308016157241466e-19 5.028770077902422e-11 4.57583777312746e-11 4.5293230477496144e-12
5.406003951863644 3.5588858803310403e-19 5.106929399047065e-11 4.645423938395448e-11 4.615054606516163e-12
5.446702915881641 3.5868140798490383e-19 5.185754904594785e-11 4.7156689608555494e-11 4.700859437392344e-12
5.487708281020852 3.6157190362720876e-19 5.266900641699641e-11 4.7881894856103017e-11 4.787111560893403e-12
5.529022354014368 3.654410774827672e-19 5.3633376828922297e-11 4.8756353761577806e-11 4.8770230673444886e-12
5.570647458961463 3.6936765082437414e-19 5.461777011199192e-11 4.965073901650617e-11 4.967031095485759e-12
5.612585937458331 3.733597643352657e-19 5.562370980092406e-11 5.056661992610795e-11 5.057089874816124e-12
5.654840148729818 3.7759256749104007e-19 5.6677828521144e-11 5.153016490579307e-11 5.147663615350938e-12
5.67608639626678 3.8047584464928474e-19 5.732519228615428e-11 5.2130036215710034e-11 5.195156070444241e-12
5.686739436050992 3.8193994014304714e-19 5.7653786865622847e-11 5.2434873402749176e-11 5.218913462873666e-12
5.6974124697621304 3.834195974760021e-19 5.798576641570487e-11 5.274308908756658e-11 5.2426773281383e-12
5.718818669136295 3.8642743897752247e-19 5.866022386105217e-11 5.337000230468891e-11 5.290221556363256e-12
5.740305295436557 3.8970925216710457e-19 5.938067641383096e-11 5.404249358467799e-11 5.338182829152954e-12
5.7835210386641895 3.9820107776265357e-19 6.113137776720914e-11 5.569413172753693e-11 5.437246039672224e-12
5.827062130521658 4.076842912695206e-19 6.305841632534976e-11 5.752099429067378e-11 5.537422034675966e-12
5.8489554468988025 4.144318495771064e-19 6.43429354457387e-11 5.875109866537752e-11 5.591836780361179e-12
5.870931020387893 4.2153366514426743e-19 6.569142387540883e-11 6.004507177217299e-11 5.6463521032358535e-12
5.892989160043636 4.29018478883174e-19 6.710904737888865e-11 6.140808534533559e-11 5.700962033553061e-12
5.915130176081913 4.374751184102232e-19 6.86889847120283e-11 6.293130941109015e-11 5.7576753009381604e-12
5.95966208400165 4.612999391458245e-19 7.297506089747187e-11 6.708634894766043e-11 5.888711949811424e-12
6.004529249263818 4.953213251807133e-19 7.894696228456055e-11 7.290976853196195e-11 6.037193752598597e-12
6.027089341400364 5.189549101962425e-19 8.302458008143678e-11 7.690069382260002e-11 6.123886258836747e-12
6.049734195844842 5.465541432210615e-19 8.776854879931684e-11 8.15526346737601e-11 6.215914125556721e-12
6.095279466722835 6.260915005728131e-19 1.0129799836557119e-10 9.485283960385334e-11 6.445158761717838e-12
6.141167624020661 7.470206870644928e-19 1.217735630488271e-10 1.1502711376199759e-10 6.746449286829527e-12
6.164241091010745 8.239799522772472e-19 1.3482353021512033e-10 1.2788617981894462e-10 6.93735039617574e-12
6.187401249150058 9.101979309842939e-19 1.4949048733020287e-10 1.4235746385271573e-10 7.133023477487112e-12
6.1990139391386085 9.519888919311158e-19 1.5664766545485218e-10 1.4941514175664097e-10 7.232523698211181e-12
6.204828454712694 9.738818382333081e-19 1.6040041179248338e-10 1.5311766927499886e-10 7.282742517484517e-12
6.210648424152782 9.89648461820614e-19 1.631500954460659e-10 1.558249627970746e-10 7.325132648991358e-12
6.233982942956859 1.0421816320866234e-18 1.7245605903572288e-10 1.6498481075181653e-10 7.471248283906377e-12
6.239830258556775 1.0482977451291227e-18 1.7363083766545154e-10 1.6614058072759448e-10 7.490256937857003e-12
6.245683058788269 1.0479165191522488e-18 1.7373049677240087e-10 1.6622121394434466e-10 7.509282828056283e-12
6.257405133728602 1.0443656838306983e-18 1.734667733913413e-10 1.6592492823812145e-10 7.541845153219863e-12
6.269149208991335 1.0313703658779817e-18 1.71629796763811e-10 1.640795692791368e-10 7.550227484674193e-12
6.280915325867298 1.0019394407476076e-18 1.6704513982841893e-10 1.5951638127735886e-10 7.528758551060036e-12
6.304513850009849 9.306716465891358e-19 1.5574622152958462e-10 1.4828733196706187e-10 7.458889562522711e-12
6.32820103803542 8.443403574496061e-19 1.4182972103756657e-10 1.3446934552416621e-10 7.360375513400335e-12
6.3519772230701035 7.657347476091993e-19 1.2910906029919312e-10 1.2183799931495675e-10 7.271060984236413e-12
6.375842739491607 6.993674836204807e-19 1.183620466243858e-10 1.1117082247567423e-10 7.191224148711569e-12
6.399797922933955 6.468290184087452e-19 1.0988165434491291e-10 1.0273641234036002e-10 7.145242004552901e-12
6.42384311029221 6.028988728113284e-19 1.028037201127698e-10 9.569767010036723e-11 7.106050012402563e-12
6.447978639727206 5.709851469135542e-19 9.77277351819395e-11 9.06345823283048e-11 7.093152853634714e-12
6.472204850670314 5.442285306863948e-19 9.349814470236678e-11 8.641269618946546e-11 7.08544851290133e-12
6.496522083828205 5.266966130692469e-19 9.0826144220781e-11 8.372718856230973e-11 7.0989556584713035e-12
6.520930681187647 5.117968518842206e-19 8.858835285432189e-11 8.147276255331588e-11 7.115590301006011e-12
6.57002334288761 4.956981849714457e-19 8.644774603782719e-11 7.92698358531265e-11 7.177910184700709e-12
