Dust emission spectrum from A.P. Jones, M. Kohler, N. Ysard, M. Bocchio, and L. Verstraete (2017), A&A, 602A, 46J 
inside the DustPedia framework.

lambda    nu*dP/dnu     j_nu    j_nu(carb.) j_nu(sil)
 (um)   (erg s-1 H-1) (Jy cm2 sr-1 H-1)
0.9927057738263894 1.515172818274391e-23 3.992566436251019e-16 3.992564310326016e-16 2.1259250026415894e-22
1.0001793341362166 1.5406790145800674e-23 4.090340638534003e-16 4.0903380799610014e-16 2.558573001764759e-22
1.0077091589558085 1.5662834362212288e-23 4.189623472816383e-16 4.1896203976391e-16 3.075177282737874e-22
1.0114953028030835 1.579121303960658e-23 4.239833441687116e-16 4.2398300720011353e-16 3.369685980955444e-22
1.0152956718711033 1.5919823382818016e-23 4.290423998271568e-16 4.2904203071021196e-16 3.691169449080085e-22
1.0229392996569957 1.6177596497872435e-23 4.3927177188374577e-16 4.3927132941312076e-16 4.424706249204999e-22
1.0267826658714554 1.6306467044088618e-23 4.44434575721324e-16 4.444340915007578e-16 4.842205660881654e-22
1.0306404723013447 1.643554596969088e-23 4.496356745248108e-16 4.496351447914414e-16 5.297333695935562e-22
1.03451277320114 1.656482942332441e-23 4.548751988354698e-16 4.548746195044697e-16 5.793309999904704e-22
1.0383996230291617 1.669431370037166e-23 4.601532829652593e-16 4.601526496038701e-16 6.3336138929218015e-22
1.0403485208654093 1.6759130031232875e-23 4.628068280136809e-16 4.628061658585044e-16 6.621551765759717e-22
1.0423010764483396 1.6823995247536094e-23 4.654700651915573e-16 4.654693729911634e-16 6.922003938194719e-22
1.0462171883269815 1.695387066747778e-23 4.708256879569586e-16 4.708249317030713e-16 7.562538872393935e-22
1.0471985131304309 1.6986369432187183e-23 4.721706795881637e-16 4.721699064555383e-16 7.731326254823637e-22
1.048180758391296 1.7018880061868542e-23 4.735181102444017e-16 4.735173198727436e-16 7.903716582771321e-22
1.0501480137395462 1.708393672350223e-23 4.762202980742753e-16 4.762194721142769e-16 8.259599984056564e-22
1.0521189612883777 1.7149040273671126e-23 4.789322705155327e-16 4.789314074364266e-16 8.630791059699076e-22
1.0531058218030118 1.7181566220923895e-23 4.8029072172831795e-16 4.802898394948933e-16 8.82233424601863e-22
1.0540936079674168 1.721396191033233e-23 4.816476553410454e-16 4.816467535426332e-16 9.017984123025135e-22
1.058054026499678 1.7343653888785292e-23 4.870997149824056e-16 4.870987306919309e-16 9.842904746876237e-22
1.0590464539527713 1.7376103978896648e-23 4.884688235801476e-16 4.884678175656425e-16 1.00601450526801e-21
1.06003981227728 1.740856482578571e-23 4.898403746799996e-16 4.898393464832889e-16 1.0281967107606567e-21
1.0620293250338977 1.7473518632749246e-23 4.92590814606403e-16 4.925897406338645e-16 1.07397253866619e-21
1.0660195594769086 1.7603553639897403e-23 4.981211181015261e-16 4.981199466635305e-16 1.1714379954332776e-21
1.070024785945596 1.7733756594372038e-23 5.036907948696254e-16 5.036895175433636e-16 1.2773262619031072e-21
1.0740450607676866 1.786412537181164e-23 5.093000200653092e-16 5.092986277392051e-16 1.3923261041881618e-21
1.07808044048254 1.799465804444373e-23 5.149489748415266e-16 5.14947457662345e-16 1.5171791816560593e-21
1.0861967418109137 1.8256007931004127e-23 5.263610499223373e-16 5.263592502230713e-16 1.7996992659548496e-21
1.0902777775684922 1.8386366560941938e-23 5.321113315097656e-16 5.321093723599273e-16 1.9591498384158176e-21
1.0943741465085532 1.8516875555615412e-23 5.379017604389849e-16 5.378996284103004e-16 2.1320286845168434e-21
1.1026131145906286 1.877834156034006e-23 5.496039191652226e-16 5.496013967425182e-16 2.5224227044291825e-21
1.1109141095355224 1.904040212128952e-23 5.614693220039241e-16 5.61466341590441e-16 2.9804134829672495e-21
1.1192775983109025 1.9302851437352653e-23 5.734937812362862e-16 5.734902642453505e-16 3.516990935926349e-21
1.1277040513999907 1.9564747453139392e-23 5.85650906739732e-16 5.856467619317216e-16 4.144808010292699e-21
1.1361939428280308 1.982721987648218e-23 5.97975961099945e-16 5.979710826878019e-16 4.878412143226808e-21
1.1447477501889525 2.009028178018627e-23 6.104713118835372e-16 6.104655773771519e-16 5.7345063853459285e-21
1.1533659546722406 2.0354045844051937e-23 6.231424092383197e-16 6.231356769859e-16 6.732252419666371e-21
1.1707974979042381 2.0884553166602335e-23 6.49047387974191e-16 6.490381442785981e-16 9.243695592974786e-21
1.1884924949847024 2.141815771544365e-23 6.756907737870846e-16 6.756781453381169e-16 1.2628448967736714e-20
1.2064549276569216 2.195866444577958e-23 7.032122974639243e-16 7.031951300504289e-16 1.7167413495597424e-20
1.2246888378427687 2.250278529290188e-23 7.315288678352116e-16 7.315056444079833e-16 2.32234272284666e-20
1.2431983285522175 2.305036540860834e-23 7.606548962088679e-16 7.606236326977441e-16 3.1263511123590813e-20
1.2619875648066055 2.3602526809383508e-23 7.906476932464611e-16 7.906058075233735e-16 4.1885723087570944e-20
1.3004222497298317 2.4718937856057358e-23 8.532644076959308e-16 8.531902828637579e-16 7.412483217292956e-20
1.3400274889804893 2.5859654561610317e-23 9.198263779114224e-16 9.19697604717612e-16 1.2877319381015906e-19
1.3808389325824078 2.703485079737731e-23 9.9091507063881e-16 9.906953579465479e-16 2.197126922621138e-19
1.4228933163050095 2.826246803222543e-23 1.0674606058590605e-15 1.0670922497688891e-15 3.6835609017134493e-19
1.466228494730424 2.957413730374872e-23 1.151020803804434e-15 1.150413675038833e-15 6.071287656012217e-19
1.5108834753276823 3.098267197306083e-23 1.2425654488869788e-15 1.2415812443646963e-15 9.842045222823227e-19
1.5568984535646726 3.250705009859959e-23 1.3434059915009942e-15 1.341835124169741e-15 1.5708673312526816e-18
1.6043148490894465 3.418094108573778e-23 1.4556033687813484e-15 1.4531301965333194e-15 2.4731722480289526e-18
1.6531753430134553 3.6045452468919175e-23 1.5817536078213039e-15 1.5779172828707389e-15 3.836324950564639e-18
1.7035239163302658 3.8151758526924625e-23 1.72517131694178e-15 1.7193069116699056e-15 5.864405271874578e-18
1.755405889504358 4.0579045257478557e-23 1.890813998504269e-15 1.8819751325942523e-15 8.838865910016635e-18
1.8088679632656115 4.33906064734327e-23 2.0833969328147133e-15 2.0702572217530173e-15 1.3139711061695949e-17
1.8639582606462262 4.6662167508199144e-23 2.30871606235615e-15 2.28944244534856e-15 1.927361700758976e-17
1.9207263702978936 5.048979479619936e-23 2.5741777826389436e-15 2.5462722132022186e-15 2.7905569436724566e-17
1.979223391128241 5.498840614710733e-23 2.8889190967176817e-15 2.8490225876027304e-15 3.989650911495144e-17
2.039501978296691 6.028874794714632e-23 3.2638472751864974e-15 3.2075032004777716e-15 5.63440747087261e-17
2.1016163906111602 6.655443787594801e-23 3.7127858446728965e-15 3.634152214454707e-15 7.863363021818891e-17
2.1656225393682647 7.395701457992738e-23 4.251396078190319e-15 4.142912887379762e-15 1.0848319081055756e-16
2.231578038680979 8.266883839950728e-23 4.896923811636089e-15 4.748929971104982e-15 1.4799384053110663e-16
2.299542257339062 9.288747414308571e-23 5.669803154589798e-15 5.470101136314402e-15 1.997020182753964e-16
2.369576372248914 1.0483248438498856e-22 6.593803821099461e-15 6.327169030823914e-15 2.666347902755473e-16
2.4417434235010123 1.1873787139405713e-22 7.695887647925332e-15 7.343537212284452e-15 3.5235043564088344e-16
2.5161083711144245 1.3486262298665613e-22 9.007211857444758e-15 8.546219398162395e-15 4.609924592823623e-16
2.5927381535095444 1.5348674578824209e-22 1.0563284334791879e-14 9.965964340725392e-15 5.973199940664861e-16
2.6717017477616296 1.7488711477819244e-22 1.2402670916506962e-14 1.1635975039555408e-14 7.666958769515568e-16
2.753070231689431 1.9934854103089528e-22 1.4567995046636175e-14 1.3592905031521076e-14 9.75090015115101e-16
2.836916847834745 2.272335329949569e-22 1.7111514924901888e-14 1.588241108059456e-14 1.2291038443073272e-15
2.9233170693905177 2.590167369546441e-22 2.009894137372573e-14 1.856331902811488e-14 1.5356223456108537e-15
2.967498994190263 2.764189771647503e-22 2.1773481119000424e-14 2.0065943655764405e-14 1.707537463236017e-15
3.0123486681368425 2.94957752621407e-22 2.358492432162338e-14 2.1688707589092483e-14 1.8962167325309005e-15
3.0578761833420214 3.1644201996243857e-22 2.5685231097018534e-14 2.358160631935064e-14 2.1036247776679e-15
3.1040917844459814 3.3967106644372697e-22 2.798739918413738e-14 2.5658303724039202e-14 2.329095460098175e-15
3.127460860933648 3.540201809195759e-22 2.9389306361697275e-14 2.6939581288059407e-14 2.4497250736378733e-15
3.1510058709225794 3.700005982647883e-22 3.094717934068036e-14 2.8371782730435444e-14 2.575396610244915e-15
3.162844764501044 3.807256662603335e-22 3.196387806379333e-14 2.932347218961109e-14 2.640405874182241e-15
3.1747281389236908 3.9228343730304183e-22 3.305795213015298e-14 3.035123348060348e-14 2.7067186495494983e-15
3.1986289994194426 4.2030328330437504e-22 3.568585331440296e-14 3.284218930349934e-14 2.8436640109036116e-15
3.2227097969389145 4.723522001142244e-22 4.0406996955614905e-14 3.741828964948491e-14 2.9887073061300086e-15
3.2348180950136065 5.168219207085029e-22 4.4377233295753983e-14 4.131114000459446e-14 3.0660932911595173e-15
3.240889293275058 5.48786532819913e-22 4.7210334155657994e-14 4.410342168758898e-14 3.1069124680690154e-15
3.2469718861334385 5.854026107755669e-22 5.045481479287085e-14 4.730566653386054e-14 3.149148259010307e-15
3.2714166318528037 7.738822828541492e-22 6.720168992937137e-14 6.387805799412746e-14 3.323631935243897e-15
3.2744851364798273 7.863328826348453e-22 6.834691142459455e-14 6.500273224667947e-14 3.344179177915082e-15
3.2775565192852394 7.9908277859631e-22 6.952026096255911e-14 6.615543325270428e-14 3.364827709854823e-15
3.283707930232385 7.908457381161171e-22 6.893277044736414e-14 6.553104710823262e-14 3.4017233391315274e-15
3.2898708863219004 7.587401581958935e-22 6.625846308450154e-14 6.282319081347349e-14 3.4352722710280553e-15
3.29141343181113 7.511857748187062e-22 6.562951959730306e-14 6.21858237404139e-14 3.4436958568891798e-15
3.292184975758714 7.474764473101356e-22 6.532075178541867e-14 6.1872838676758e-14 3.447913108660656e-15
3.295272960557952 7.236695407819891e-22 6.329962269840727e-14 5.983531059445645e-14 3.4643121039508096e-15
3.3076538914384823 6.411794240782835e-22 5.6294902251820797e-14 5.2764738100664514e-14 3.5301641511562873e-15
3.310756385682612 6.244287256548019e-22 5.4875631638680885e-14 5.132887187691728e-14 3.5467597617636048e-15
3.313861789986515 6.089942912690828e-22 5.3569432563364044e-14 5.000602407237608e-14 3.5634084909879555e-15
3.3200813396944477 5.88343972127129e-22 5.1850084088845446e-14 4.825085282094362e-14 3.599231267901829e-15
3.345076488085796 5.592558703159385e-22 4.965763560217574e-14 4.589872965119435e-14 3.758905950981379e-15
3.3482140837626964 5.624777581116812e-22 4.999056046770467e-14 4.6210022716415266e-14 3.7805377512894e-15
3.3513546224236106 5.657198775841275e-22 5.0325865983993285e-14 4.6523600517993967e-14 3.802265465999309e-15
3.3576445397418455 5.807167806763475e-22 5.175693216341785e-14 4.790923425706642e-14 3.847697906351433e-15
3.3702598118196083 6.299706976668891e-22 5.635768742528143e-14 5.241469592049513e-14 3.942991504786322e-15
3.382922481734668 6.465846719456607e-22 5.806131720515171e-14 5.402574033561111e-14 4.035576869540599e-15
3.389271646505754 6.5507878198631305e-22 5.893446485927761e-14 5.4851967392871645e-14 4.0824974664059545e-15
3.395632727569191 6.642074845375922e-22 5.986788404860142e-14 5.573703206031464e-14 4.130851988286782e-15
3.421196662673239 7.06168800095619e-22 6.412922602301444e-14 5.979825094883567e-14 4.330975074178761e-15
3.4276182099114902 7.040068381741038e-22 6.405289333513215e-14 5.96772993944308e-14 4.375593940701353e-15
3.4340518103208963 6.834871764179184e-22 6.230266829184291e-14 5.788489308086417e-14 4.417775210978754e-15
3.4469541582030403 6.555783316830393e-22 5.998318626547094e-14 5.5484490940231114e-14 4.49869532523983e-15
3.472904465399547 6.58580483595693e-22 6.07115228208619e-14 5.6026361689200227e-14 4.685161131661673e-15
3.4990501388274233 6.569690641539573e-22 6.101892024588825e-14 5.614304122969876e-14 4.875879016189484e-15
3.5253949054701885 6.193185842331563e-22 5.79550544169347e-14 5.289404563063604e-14 5.061008786298686e-15
3.5519380250092896 5.840400863551229e-22 5.506523145939996e-14 4.9818273910757255e-14 5.2469575486427025e-15
3.578680990867387 5.786744279916896e-22 5.49701232249012e-14 4.95193786923635e-14 5.450744532537696e-15
3.605625307711299 5.851628671111034e-22 5.6004997936084625e-14 5.033970577200651e-14 5.665292164078119e-15
3.660119384959845 6.086327509772328e-22 5.913165069471546e-14 5.301597408421182e-14 6.115676610503624e-15
3.715437065384467 6.343515238806315e-22 6.256181358626952e-14 5.5971881282813617e-14 6.589932303455897e-15
3.8285932144167436 6.94000912030185e-22 7.052915806488255e-14 6.292184724647703e-14 7.60731081840554e-15
3.94519561050918 7.57863739183835e-22 7.936501498161356e-14 7.065120844986712e-14 8.71380653174644e-15
4.06534921144712 8.246231259683742e-22 8.89862284797737e-14 7.907885919330426e-14 9.90736928646942e-15
4.189162171576248 8.936200371869752e-22 9.936867625934003e-14 8.817927500341767e-14 1.1189401255922346e-14
4.316745939156006 9.642650018424716e-22 1.1048983536059791e-13 9.793568411359479e-14 1.255415124700311e-14
4.448215356677963 1.0358921869384163e-21 1.223122050216905e-13 1.0833065944967364e-13 1.3981545572016867e-14
4.58368876423945 1.1080482159118956e-21 1.3481655115141984e-13 1.1934422512090372e-13 1.547232603051613e-14
4.723288106065518 1.1803416222722539e-21 1.4798632725737257e-13 1.309514957466792e-13 1.703483151069337e-14
4.867139040275056 1.2520033779849058e-21 1.6175163775783994e-13 1.4312587341007155e-13 1.8625764347768384e-14
4.940699165968905 1.2876027595224653e-21 1.6886503827140161e-13 1.4942854468090627e-13 1.9436493590495353e-14
5.015371051989984 1.3227797776770453e-21 1.7610028097174666e-13 1.5584559021764355e-13 2.0254690754103075e-14
5.091171501069577 1.357978878824351e-21 1.8351863706944651e-13 1.6242034666961662e-13 2.1098290399829945e-14
5.129500256944802 1.3753669103260799e-21 1.8726777930565757e-13 1.6574585320664254e-13 2.1521926099014984e-14
5.168117569889187 1.3926670629366936e-21 1.9105091519797412e-13 1.6909988609043836e-13 2.195102910753574e-14
5.20702561229733 1.410369150387359e-21 1.9493595355729793e-13 1.7251553080660022e-13 2.2420422750697724e-14
5.246226572918644 1.42791754683774e-21 1.988472578519258e-13 1.7595503146756387e-13 2.289222638436191e-14
5.265937586045735 1.4366313901545842e-21 2.0081238393564663e-13 1.7768341849287975e-13 2.312896544276695e-14
5.285722656980489 1.4453035623797767e-21 2.0278362300305382e-13 1.794173962658958e-13 2.3366226737158053e-14
5.305582063971359 1.4539329985796789e-21 2.0476082130468714e-13 1.8115683825350211e-13 2.360398305118502e-14
5.3255160863122235 1.4625874972080708e-21 2.0675355727144382e-13 1.8290937509686174e-13 2.3844182174582056e-14
5.365609099470188 1.4802912610281097e-21 2.1083156773484912e-13 1.8649036196597914e-13 2.4341205768869962e-14
5.406003951863644 1.4978300763047792e-21 2.1493559244856318e-13 1.9009496869059243e-13 2.4840623757970743e-14
5.446702915881641 1.5151966558728748e-21 2.190645602113026e-13 1.9372234189431248e-13 2.534221831699022e-14
5.487708281020852 1.5325058190702389e-21 2.232351518715206e-13 1.9738714064789703e-13 2.5848011223623604e-14
5.529022354014368 1.5507008912015252e-21 2.2758614280486566e-13 2.012109078620368e-13 2.6375234942828962e-14
5.570647458961463 1.5687587835196639e-21 2.3196970933490053e-13 2.050648182365334e-13 2.6904891098367147e-14
5.612585937458331 1.5866769574865218e-21 2.363855644385704e-13 2.0894880666542857e-13 2.7436757773141846e-14
5.654840148729818 1.6046321424528486e-21 2.4086031675296833e-13 2.1288695120516648e-13 2.7973365547801843e-14
5.67608639626678 1.6143397653005028e-21 2.4322789150081323e-13 2.1497355726120641e-13 2.825433423960679e-14
5.686739436050992 1.6191907443332086e-21 2.444166431863945e-13 2.1602156940294436e-13 2.83950737834502e-14
5.6974124697621304 1.624040062323718e-21 2.456087490664688e-13 2.170727702844527e-13 2.8535978782016075e-14
5.718818669136295 1.6337344467094361e-21 2.480031662013065e-13 2.191848951717226e-13 2.881827102958385e-14
5.740305295436557 1.643643690935071e-21 2.504448473017001e-13 2.2134145937198567e-13 2.910338792971445e-14
5.7835210386641895 1.6652239862238677e-21 2.5564329745371795e-13 2.2595072609503784e-13 2.969257135868009e-14
5.827062130521658 1.687433064172973e-21 2.6100308243526173e-13 2.307129860210598e-13 3.0290096414201924e-14
5.8489554468988025 1.700516920017991e-21 2.64015061875081e-13 2.3340154824047156e-13 3.0613513634609423e-14
5.870931020387893 1.713790518625263e-21 2.6707555932487285e-13 2.3613746120225176e-13 3.093809812262114e-14
5.892989160043636 1.7272717259760674e-21 2.701878026244824e-13 2.3892398019563374e-13 3.12638224288486e-14
5.915130176081913 1.7416113818839195e-21 2.734544492935976e-13 2.418527467279257e-13 3.1601702565671956e-14
5.95966208400165 1.777010606092686e-21 2.811131027573667e-13 2.487369288015273e-13 3.2376173955839407e-14
6.004529249263818 1.821732573954416e-21 2.90357482097229e-13 2.5710724186838355e-13 3.3250240228845486e-14
6.027089341400364 1.8503660382015418e-21 2.9602930871304655e-13 2.6227174768500637e-13 3.375756102804019e-14
6.049734195844842 1.8823402022451643e-21 3.0227612386948643e-13 2.6798068689925314e-13 3.429543697023324e-14
6.095279466722835 1.9689471990230774e-21 3.1856431522558246e-13 2.829389512020362e-13 3.562536402354626e-14
6.141167624020661 2.0925243969993597e-21 3.411072223321327e-13 3.037461009405418e-13 3.7361121391590886e-14
6.164241091010745 2.1699393521840203e-21 3.5505582751814657e-13 3.1660062439606737e-13 3.8455203122079166e-14
6.187401249150058 2.2535954450426596e-21 3.7012947388293485e-13 3.30551678315881e-13 3.957779556705387e-14
6.1990139391386085 2.2941405364442055e-21 3.7749574843288253e-13 3.373469083254415e-13 4.014884010744111e-14
6.204828454712694 2.3151109111132246e-21 3.813036950781202e-13 3.408665180949706e-13 4.0437176983149684e-14
6.210648424152782 2.3305666222711257e-21 3.8420932435690625e-13 3.4352753279609557e-13 4.068179156081056e-14
6.233982942956859 2.3820934456530454e-21 3.941793208057662e-13 3.526491300094865e-13 4.1530190796279787e-14
6.239830258556775 2.388236471977299e-21 3.9556652782986244e-13 3.539219548234278e-13 4.164457300643471e-14
6.245683058788269 2.3886910814474683e-21 3.960129272047287e-13 3.5425382224300663e-13 4.1759104961722065e-14
6.257405133728602 2.3869883260016428e-21 3.9647335166695083e-13 3.5451573405464583e-13 4.195761761230502e-14
6.269149208991335 2.376546343738187e-21 3.954798193453418e-13 3.534587174834885e-13 4.202110186185324e-14
6.280915325867298 2.3511314866130434e-21 3.91984856533069e-13 3.5006712130851073e-13 4.191773522455815e-14
6.304513850009849 2.2887299716201392e-21 3.830148328766238e-13 3.4145462439922476e-13 4.156020847739906e-14
6.32820103803542 2.2139525493793994e-21 3.7189300463780177e-13 3.3085074703445974e-13 4.1042257603342074e-14
6.3519772230701035 2.1466768961048742e-21 3.61947055017984e-13 3.213715395979875e-13 4.057551541999648e-14
6.375842739491607 2.0891005062228424e-21 3.535626366849505e-13 3.134012514716888e-13 4.0161385213261685e-14
6.399797922933955 2.046538897720105e-21 3.4766077798413635e-13 3.077235760609758e-13 3.993720192316063e-14
6.42384311029221 2.0106796844960507e-21 3.4285244315932034e-13 3.031015019369895e-13 3.9750941222330856e-14
6.447978639727206 1.9867858906838087e-21 3.4005102661165554e-13 3.003384609261407e-13 3.97125656855149e-14
6.472204850670314 1.9670071229479134e-21 3.379306784596835e-13 2.982272260427205e-13 3.970345241696311e-14
6.496522083828205 1.956309924909601e-21 3.373556673261232e-13 2.9754171779289957e-13 3.981394953322359e-14
