Dust emission spectrum from A.P. Jones, M. Kohler, N. Ysard, M. Bocchio, and L. Verstraete (2017), A&A, 602A, 46J 
inside the DustPedia framework.

lambda    nu*dP/dnu     j_nu    j_nu(carb.) j_nu(sil)
 (um)   (erg s-1 H-1) (Jy cm2 sr-1 H-1)
0.9927057738263894 1.2163770640359569e-23 3.2052226525727137e-16 3.205222597983165e-16 5.458954789074629e-24
1.0001793341362166 1.2368527177319785e-23 3.283713795893609e-16 3.2837137301828886e-16 6.571072034705997e-24
1.0077091589558085 1.2573918503100094e-23 3.3633749095222913e-16 3.3633748305293013e-16 7.899299010713803e-24
1.0114953028030835 1.2676839871915984e-23 3.403645400075046e-16 3.4036453135087297e-16 8.656631616190476e-24
1.0152956718711033 1.2779905269593021e-23 3.444209834857687e-16 3.4442097400234147e-16 9.48342726759788e-24
1.0229392996569957 1.2986349035370959e-23 3.5261953478802576e-16 3.52619523417737e-16 1.1370288784535387e-23
1.0267826658714554 1.308949083566681e-23 3.5675553081049854e-16 3.5675551836609564e-16 1.2444403068956948e-23
1.0306404723013447 1.3192752905139777e-23 3.609209187380132e-16 3.609209051225442e-16 1.3615468962075525e-23
1.03451277320114 1.3296130817613425e-23 3.6511575186450236e-16 3.651157369727054e-16 1.489179701072839e-23
1.0383996230291617 1.339962023351451e-23 3.693400849896662e-16 3.6934006870729673e-16 1.6282369498519922e-23
1.0403485208654093 1.3451405423399676e-23 3.7146333161254555e-16 3.7146331458904505e-16 1.7023500467460734e-23
1.0423010764483396 1.350321690225046e-23 3.735939745172455e-16 3.7359395672035417e-16 1.7796891200569774e-23
1.0462171883269815 1.3606916664569824e-23 3.7787747855470604e-16 3.7787745910886225e-16 1.9445843682210898e-23
1.0471985131304309 1.3632857234996592e-23 3.7895298881109494e-16 3.7895296893070144e-16 1.98803935419859e-23
1.048180758391296 1.3658803931610162e-23 3.800303546639336e-16 3.8003033433970003e-16 2.0324233567124153e-23
1.0501480137395462 1.3710715454904715e-23 3.821906570143146e-16 3.8219063577377127e-16 2.1240543366651293e-23
1.0521189612883777 1.3762650741276742e-23 3.843583933936917e-16 3.8435837119736345e-16 2.2196328263551343e-23
1.0531058218030118 1.3788591906221824e-23 3.854440668040806e-16 3.8544404411452145e-16 2.2689559077656138e-23
1.0540936079674168 1.3814423385761924e-23 3.8652836972103427e-16 3.8652834652765384e-16 2.3193380481975724e-23
1.058054026499678 1.3917800975850147e-23 3.9088400471956495e-16 3.9088397940174226e-16 2.5317822761491188e-23
1.0590464539527713 1.3943657999603018e-23 3.91977524290948e-16 3.919774984136147e-16 2.5877333358724975e-23
1.06003981227728 1.3969519958562433e-23 3.930728902170207e-16 3.930728637683574e-16 2.6448663180799935e-23
1.0620293250338977 1.4021258454794903e-23 3.952691652561362e-16 3.9526913762840217e-16 2.7627734008866017e-23
1.0660195594769086 1.4124792192518497e-23 3.9968391745304597e-16 3.9968388731459477e-16 3.0138451124362345e-23
1.070024785945596 1.4228398665313102e-23 4.0412832979380653e-16 4.041282969273031e-16 3.286650341053247e-23
1.0740450607676866 1.4332074458038726e-23 4.086024732324406e-16 4.086024374027417e-16 3.5829698921723684e-23
1.07808044048254 1.4435816266296234e-23 4.131064213040275e-16 4.13106382256811e-16 3.9047216565017296e-23
1.0861967418109137 1.4643322781227487e-23 4.221993539117968e-16 4.221993075824076e-16 4.63293892438506e-23
1.0902777775684922 1.4746711946189556e-23 4.2677777053281456e-16 4.2677772009262767e-16 5.044018684489468e-23
1.0943741465085532 1.4850148610746523e-23 4.3138601091255333e-16 4.3138595601475653e-16 5.489779683989821e-23
1.1026131145906286 1.5057153817099946e-23 4.406923115526641e-16 4.40692246586579e-16 6.496608513339894e-23
1.1109141095355224 1.526431841196136e-23 4.501189867220893e-16 4.501189099410556e-16 7.678103380054454e-23
1.1192775983109025 1.5471457750763022e-23 4.596618709686045e-16 4.596617803413397e-16 9.062726480380756e-23
1.1277040513999907 1.5677789709879384e-23 4.69298762033976e-16 4.692986552013856e-16 1.0683259042121038e-22
1.1361939428280308 1.5884208821463896e-23 4.790573310579707e-16 4.79057205283933e-16 1.2577403759968067e-22
1.1447477501889525 1.6090703916435746e-23 4.889385443405674e-16 4.889383964559058e-16 1.4788466173900584e-22
1.1533659546722406 1.6297345619133372e-23 4.989458749924209e-16 4.989457013309742e-16 1.7366144652738466e-22
1.1707974979042381 1.6711696190100565e-23 5.19363889391158e-16 5.193636508164361e-16 2.385747217005133e-22
1.1884924949847024 1.712653839872907e-23 5.403006242029514e-16 5.403002980889503e-16 3.261140010833737e-22
1.2064549276569216 1.7544729098987772e-23 5.61858818351434e-16 5.618583747738918e-16 4.435775422409691e-22
1.2246888378427687 1.7963284178308207e-23 5.839570864903099e-16 5.839564860904846e-16 6.003998250560904e-22
1.2431983285522175 1.8381765942112562e-23 6.065925644550335e-16 6.065917557210484e-16 8.087339850992513e-22
1.2619875648066055 1.880066977505988e-23 6.297930009438602e-16 6.29791916788438e-16 1.0841554224225878e-21
1.3004222497298317 1.9636554828918165e-23 6.778273978782499e-16 6.778254769305445e-16 1.920947705674535e-21
1.3400274889804893 2.047266633100748e-23 7.282115262821626e-16 7.282081849667722e-16 3.3413153904818135e-21
1.3808389325824078 2.1311315063566745e-23 7.811289002441555e-16 7.811231920273754e-16 5.7082167802156876e-21
1.4228933163050095 2.2159229945491692e-23 8.369440699946628e-16 8.369344874898029e-16 9.582504859877147e-21
1.466228494730424 2.303178667473453e-23 8.963935393660616e-16 8.963777243336957e-16 1.581503236592469e-20
1.5108834753276823 2.3925921979068167e-23 9.595532628627133e-16 9.595275905697809e-16 2.567229293223832e-20
1.5568984535646726 2.4839761288413627e-23 1.026542981940613e-15 1.0265019502539233e-15 4.103168668960221e-20
1.6043148490894465 2.577848639807104e-23 1.0977828711326265e-15 1.0977181803853074e-15 6.469074731928842e-20
1.6531753430134553 2.674759870403811e-23 1.1737433671320851e-15 1.1736428773970187e-15 1.0048973506652068e-19
1.7035239163302658 2.7753855594500553e-23 1.2549921014095932e-15 1.2548382647417297e-15 1.5383666786352957e-19
1.755405889504358 2.8818321540991117e-23 1.3428134012852568e-15 1.3425811954112995e-15 2.3220587395695036e-19
1.8088679632656115 2.993991990905658e-23 1.4375631588703151e-15 1.4372174467209255e-15 3.4571214938998136e-19
1.8639582606462262 3.1117173069490455e-23 1.5395923746582388e-15 1.5390845008751634e-15 5.078737830757784e-19
1.9207263702978936 3.2353121667904736e-23 1.6494954541349037e-15 1.6487589772608229e-15 7.36476874080788e-19
1.979223391128241 3.3652731752028035e-23 1.7680094082935257e-15 1.7669548005019758e-15 1.0546077915501215e-18
2.039501978296691 3.5020130100174486e-23 1.8958820691439052e-15 1.8943902890593196e-15 1.4917800845853523e-18
2.1016163906111602 3.647047146513191e-23 2.034530746945472e-15 2.032445399579377e-15 2.0853473660955987e-18
2.1656225393682647 3.800995787613662e-23 2.1849906565947954e-15 2.1821088846400937e-15 2.881771954701575e-18
2.231578038680979 3.9632207904953786e-23 2.347630695614527e-15 2.3436926392945575e-15 3.9380563199693246e-18
2.299542257339062 4.1336333450469904e-23 2.523148314223978e-15 2.5178250693847913e-15 5.323244839186152e-18
2.369576372248914 4.312582891402142e-23 2.7125490457428794e-15 2.7054290176877296e-15 7.120028055149789e-18
2.4417434235010123 4.500526592622655e-23 2.9169755703619337e-15 2.9075495916898096e-15 9.425978672124123e-18
2.5161083711144245 4.6988089792473927e-23 3.1382429776656976e-15 3.1258878068971383e-15 1.2355170768558372e-17
2.5927381535095444 4.909996832805082e-23 3.3791642634344557e-15 3.363125067071561e-15 1.6039196362893722e-17
2.6717017477616296 5.136455932276493e-23 3.64267960426717e-15 3.622052544308761e-15 2.0627059958408724e-17
2.753070231689431 5.38197247546341e-23 3.933038484165878e-15 3.9067529734621394e-15 2.6285510703738483e-17
2.836916847834745 5.657235621839549e-23 4.260105033835059e-15 4.226905083648775e-15 3.319995018628395e-17
2.9233170693905177 5.986525727421597e-23 4.6453689071381114e-15 4.6038033500144154e-15 4.1565557123697135e-17
2.967498994190263 6.195654653424484e-23 4.880307821115405e-15 4.834037141893582e-15 4.627067922182458e-17
3.0123486681368425 6.42195456375186e-23 5.135017168963844e-15 5.0835766391820525e-15 5.144052978179135e-17
3.0578761833420214 6.80985812819523e-23 5.527482721206451e-15 5.470353177427671e-15 5.712954377878074e-17
3.1040917844459814 7.271918351653278e-23 5.99174029960812e-15 5.928417345836662e-15 6.332295377145927e-17
3.127460860933648 7.71009723955006e-23 6.4006071423111765e-15 6.3339670940433606e-15 6.664004826781871e-17
3.1510058709225794 8.27195496834236e-23 6.918736756207158e-15 6.8486383833478005e-15 7.00983728593564e-17
3.162844764501044 8.782271828724078e-23 7.373168943763182e-15 7.301280603307073e-15 7.188834045610892e-17
3.1747281389236908 9.363071341332094e-23 7.890314368634791e-15 7.81659947267687e-15 7.371489595792138e-17
3.1986289994194426 1.0945397945047834e-22 9.293190918327494e-15 9.215701794280064e-15 7.748912404743085e-17
3.2227097969389145 1.4620407888017657e-22 1.2506912784107241e-14 1.2425423592123397e-14 8.14891919838491e-17
3.2348180950136065 1.8075659526001117e-22 1.5520776647018336e-14 1.5437152599758283e-14 8.362404726005097e-17
3.240889293275058 2.0657087607891255e-22 1.7770625741125352e-14 1.768587560805216e-14 8.475013307318745e-17
3.2469718861334385 2.364785324917296e-22 2.0381666121291748e-14 2.0295750813624174e-14 8.59153076675708e-17
3.2714166318528037 3.9401906704722094e-22 3.4215471469784106e-14 3.412474043258425e-14 9.073103719984569e-17
3.2744851364798273 4.0387860647005056e-22 3.510454153996738e-14 3.501324278102332e-14 9.129875894406654e-17
3.2775565192852394 4.1400643643239884e-22 3.601859065404769e-14 3.592672131757202e-14 9.186933647565932e-17
3.283707930232385 4.043343200252108e-22 3.524313721748425e-14 3.515024709150186e-14 9.289012598239374e-17
3.2898708863219004 3.7351479164389237e-22 3.261790715348231e-14 3.2524087671536027e-14 9.381948194627304e-17
3.29141343181113 3.662342707244251e-22 3.199711716254682e-14 3.1903064304718223e-14 9.4052857828598e-17
3.292184975758714 3.626550083572198e-22 3.169183172244103e-14 3.15976620209392e-14 9.416970150183736e-17
3.295272960557952 3.402646272559556e-22 2.9763063538147235e-14 2.966843926509038e-14 9.462427305684549e-17
3.3076538914384823 2.62230948758811e-22 2.3023610979096432e-14 2.292716073742026e-14 9.645024167616238e-17
3.310756385682612 2.462186566651865e-22 2.1638024886765087e-14 2.1541114355924335e-14 9.691053084075063e-17
3.313861789986515 2.3139386572744366e-22 2.0354276326352993e-14 2.025690398458193e-14 9.737234177105827e-17
3.3200813396944477 2.1067548683627465e-22 1.8566590677262752e-14 1.8468225205383726e-14 9.836547187902721e-17
3.345076488085796 1.743578703332841e-22 1.548164274876611e-14 1.537885197714109e-14 1.0279077162502071e-16
3.3482140837626964 1.7582163281020581e-22 1.5626256931538975e-14 1.5522866705745332e-14 1.0339022579364394e-16
3.3513546224236106 1.7729933812818623e-22 1.5772369123379298e-14 1.566837672181576e-14 1.0399240156353937e-16
3.3576445397418455 1.8771048436071289e-22 1.6729874404704677e-14 1.6624623067051514e-14 1.052513376531597e-16
3.3702598118196083 2.255475179629469e-22 2.017766312620657e-14 2.0069771083082648e-14 1.0789204312392449e-16
3.382922481734668 2.345348938017437e-22 2.1060512962243596e-14 2.0950053122858606e-14 1.1045983938499218e-16
3.389271646505754 2.391732950052972e-22 2.1517335834061294e-14 2.1405574263003445e-14 1.1176157105784833e-16
3.395632727569191 2.4425257020069037e-22 2.2015537150304722e-14 2.190243405950748e-14 1.1310309079723988e-16
3.421196662673239 2.688319160410057e-22 2.4413401871704496e-14 2.4294744336857466e-14 1.1865753484702455e-16
3.4276182099114902 2.6434408602191253e-22 2.405090778613603e-14 2.393100950665017e-14 1.1989827948586052e-16
3.4340518103208963 2.440039337539247e-22 2.2241962499206067e-14 2.2120890119717038e-14 1.2107237948902514e-16
3.4469541582030403 2.148743882644847e-22 1.9660275259340392e-14 1.9536948183503895e-14 1.2332707583649697e-16
3.472904465399547 2.0687495819712206e-22 1.9070856271167476e-14 1.8942337096068016e-14 1.2851917509946135e-16
3.4990501388274233 1.9468066573938976e-22 1.8081831648292688e-14 1.794799674035301e-14 1.338349079396779e-16
3.5253949054701885 1.5108116590923654e-22 1.4137985545008904e-14 1.3998982269015418e-14 1.3900327599348567e-16
3.5519380250092896 1.096612630965651e-22 1.0339226665463534e-14 1.019502537376084e-14 1.4420129170269064e-16
3.578680990867387 9.350718129429968e-23 8.882544362638824e-15 8.732645431543905e-15 1.4989893109491793e-16
3.605625307711299 8.729089114625177e-23 8.354470957154238e-15 8.198569405283657e-15 1.559015518705811e-16
3.660119384959845 8.338643225490252e-23 8.101400026302388e-15 7.932878968805256e-15 1.6852105749713272e-16
3.715437065384467 8.079409504426017e-23 7.96817682742967e-15 7.786340227843084e-15 1.8183659958658591e-16
3.8285932144167436 8.078994450885748e-23 8.210431236537728e-15 7.99993469187528e-15 2.1049654466244706e-16
3.94519561050918 8.210518717510353e-23 8.598220330791711e-15 8.356409573734357e-15 2.4181075705735574e-16
4.06534921144712 8.38966104824735e-23 9.053399927760803e-15 8.77764362328015e-15 2.757563044806488e-16
4.189162171576248 8.591491464433201e-23 9.553558541520461e-15 9.241150444885946e-15 3.124080966345129e-16
4.316745939156006 8.805701631975286e-23 1.0089970305802339e-14 9.738327547036544e-15 3.516427587657941e-16
4.448215356677963 9.027874255947618e-23 1.0659595861679692e-14 1.0266664886490479e-14 3.929309751892144e-16
4.58368876423945 9.257371906979931e-23 1.1263471528610024e-14 1.0827139861409057e-14 4.3633166720096726e-16
4.723288106065518 9.496191722182692e-23 1.1905930532148405e-14 1.1423807699320588e-14 4.821228328278193e-16
4.867139040275056 9.747747499005606e-23 1.2593529299831121e-14 1.2064413694528658e-14 5.291156053024597e-16
4.940699165968905 9.885502802195469e-23 1.2964524941247309e-14 1.241131934573422e-14 5.532055955130872e-16
5.015371051989984 1.0021420878146944e-22 1.3341412245331981e-14 1.276379351963671e-14 5.776187256952724e-16
5.091171501069577 1.0177906290329943e-22 1.3754525344598492e-14 1.3151649233942057e-14 6.028761106564314e-16
5.129500256944802 1.0255376412779793e-22 1.3963558032013206e-14 1.3347955703692559e-14 6.156023283206449e-16
5.168117569889187 1.0334315025849983e-22 1.4176973062531346e-14 1.3548459136413877e-14 6.285139261174741e-16
5.20702561229733 1.0429944031148279e-22 1.4415878883218102e-14 1.3773283331151697e-14 6.425955520663982e-16
5.246226572918644 1.0525725301458359e-22 1.465779041466928e-14 1.4001010866077143e-14 6.567795485921329e-16
5.265937586045735 1.0573682633788056e-22 1.4779897134514464e-14 1.4115988897131356e-14 6.63908237383106e-16
5.285722656980489 1.0621689873167819e-22 1.490278451503494e-14 1.4231724049219015e-14 6.710604658159245e-16
5.305582063971359 1.066975130882456e-22 1.5026463002393628e-14 1.434822746803371e-14 6.782355343599218e-16
5.3255160863122235 1.07210860577759e-22 1.515548768528209e-14 1.4469998778399654e-14 6.854889068824353e-16
5.365609099470188 1.0848973169180563e-22 1.5451729546677487e-14 1.4751233732776214e-14 7.004958139012715e-16
5.406003951863644 1.0978727166375973e-22 1.57542518685277e-14 1.5038643747914095e-14 7.156081206136066e-16
5.446702915881641 1.1110487445704028e-22 1.606335413025461e-14 1.5332533862301663e-14 7.308202679529476e-16
5.487708281020852 1.1250582056979831e-22 1.6388357961711512e-14 1.5642167037777054e-14 7.461909239344592e-16
5.529022354014368 1.1448246105455435e-22 1.6801835787961953e-14 1.6039620033687695e-14 7.622157542742578e-16
5.570647458961463 1.1652985456510982e-22 1.7231072601014654e-14 1.645272153638529e-14 7.783510646293644e-16
5.612585937458331 1.1865386987710694e-22 1.7677235351140385e-14 1.6882644140241777e-14 7.945912108986045e-16
5.654840148729818 1.2095482453895385e-22 1.8155698480973312e-14 1.7344688475034594e-14 8.110100059387166e-16
5.67608639626678 1.225565796927267e-22 1.8465244497439755e-14 1.7645643285472594e-14 8.196012119671578e-16
5.686739436050992 1.2337552398938394e-22 1.8623520132129782e-14 1.779961178013692e-14 8.239083519928572e-16
5.6974124697621304 1.242069139415661e-22 1.8784207031780606e-14 1.7955983966095062e-14 8.282230656855429e-16
5.718818669136295 1.2590828073974734e-22 1.9113052514325714e-14 1.8276177656013932e-14 8.368748583117747e-16
5.740305295436557 1.2778103701709517e-22 1.9470218807333632e-14 1.8624598385807912e-14 8.456204215257177e-16
5.7835210386641895 1.326860283293132e-22 2.036980855954529e-14 1.950610781807796e-14 8.63700741467334e-16
5.827062130521658 1.382460030967776e-22 2.1383149180082074e-14 2.050107699803574e-14 8.820721820463421e-16
5.8489554468988025 1.4221825942836135e-22 2.2080205213334715e-14 2.118820845502847e-14 8.91996758306246e-16
5.870931020387893 1.4643042645491608e-22 2.2819584787408735e-14 2.191761621687732e-14 9.01968570531416e-16
5.892989160043636 1.5090142812982545e-22 2.360469674003029e-14 2.2692709771229887e-14 9.11986968800409e-16
5.915130176081913 1.5597296133925521e-22 2.44896770263301e-14 2.3567303687524777e-14 9.223733388053226e-16
5.95966208400165 1.7027857964132193e-22 2.6937115452192576e-14 2.5991044246021757e-14 9.460712061708208e-16
6.004529249263818 1.9083135136871123e-22 3.041572153938828e-14 2.944296484552122e-14 9.727566938670645e-16
6.027089341400364 2.0514060684002762e-22 3.2819253476383673e-14 3.1831062186074276e-14 9.88191290309399e-16
6.049734195844842 2.219263749055112e-22 3.563810851557598e-14 3.463356421822186e-14 1.0045442973541212e-15
6.095279466722835 2.704142841816869e-22 4.3751473533824045e-14 4.270667837643375e-14 1.0447951573902935e-15
6.141167624020661 3.4454778243846815e-22 5.616552772183416e-14 5.506842365355213e-14 1.0971040682820064e-15
6.164241091010745 3.918467487204402e-22 6.411583415324527e-14 6.298586621624456e-14 1.1299679370007249e-15
6.187401249150058 4.451746804463013e-22 7.311528367793365e-14 7.195157119621226e-14 1.1637124817213762e-15
6.1990139391386085 4.7111860598251245e-22 7.752152404825008e-14 7.634064160757901e-14 1.1808824406710896e-15
6.204828454712694 4.847379624564392e-22 7.983737424502157e-14 7.864781961296926e-14 1.1895546320523082e-15
6.210648424152782 4.946140084159554e-22 8.154039115421933e-14 8.034345530172489e-14 1.1969358524944478e-15
6.233982942956859 5.27816269665008e-22 8.734093075418726e-14 8.611829204220091e-14 1.2226387119863706e-15
6.239830258556775 5.3186110097700435e-22 8.80928046572606e-14 8.686662297632657e-14 1.2261816809340417e-15
6.245683058788269 5.31896369340333e-22 8.818128046276843e-14 8.695155022468882e-14 1.2297302380796054e-15
6.257405133728602 5.302590717788605e-22 8.80748301740234e-14 8.68389025885057e-14 1.2359275855176844e-15
6.269149208991335 5.228223754829483e-22 8.700259481599961e-14 8.576445667239936e-14 1.2381381436002353e-15
6.280915325867298 5.052476513899042e-22 8.423579424264554e-14 8.300037509090524e-14 1.2354191517402952e-15
6.304513850009849 4.623542112632757e-22 7.737414336888762e-14 7.614862203653986e-14 1.2255213323477445e-15
6.32820103803542 4.098666127562741e-22 6.884814498909489e-14 6.763726659437015e-14 1.2108783947247179e-15
6.3519772230701035 3.6191598796228297e-22 6.102195735397381e-14 5.982421183917576e-14 1.1977455147980246e-15
6.375842739491607 3.2147761328807125e-22 5.4407374011325365e-14 5.3221212924409835e-14 1.1861610869155147e-15
6.399797922933955 2.892936739281406e-22 4.9144467205480756e-14 4.7964262186540784e-14 1.1802050189399772e-15
6.42384311029221 2.6243032688005564e-22 4.474848949024773e-14 4.357311925399732e-14 1.1753702362504232e-15
6.447978639727206 2.4288753813035534e-22 4.15717451385654e-14 4.0396820052951684e-14 1.1749250856137305e-15
6.472204850670314 2.2653606922594306e-22 3.891876479551515e-14 3.7743413873455215e-14 1.1753509220599342e-15
