Dust emission spectrum from A.P. Jones, M. Kohler, N. Ysard, M. Bocchio, and L. Verstraete (2017), A&A, 602A, 46J 
inside the DustPedia framework.

lambda    nu*dP/dnu     j_nu    j_nu(carb.) j_nu(sil)
 (um)   (erg s-1 H-1) (Jy cm2 sr-1 H-1)
0.9927057738263894 2.780163236289608e-25 7.325888037742465e-18 7.325887999762801e-18 3.797966621814306e-26
1.0001793341362166 2.8265077465964733e-25 7.504080597986163e-18 7.50408055225657e-18 4.5729594575039906e-26
1.0077091589558085 2.8728745200390187e-25 7.684600529678025e-18 7.684600474689198e-18 5.498882404304185e-26
1.0114953028030835 2.896061754232488e-25 7.775729099461172e-18 7.775729039191464e-18 6.02697079502255e-26
1.0152956718711033 2.9192491756781412e-25 7.86743446776037e-18 7.86743440172434e-18 6.60360304164755e-26
1.0229392996569957 2.965594869446582e-25 8.052507139502881e-18 8.052507060303531e-18 7.919934733347917e-26
1.0267826658714554 2.9886982732920846e-25 8.145730436018305e-18 8.145730349323519e-18 8.66947879356809e-26
1.0306404723013447 3.011793681169684e-25 8.239518698433384e-18 8.239518603565013e-18 9.486836913368668e-26
1.03451277320114 3.034879379036608e-25 8.333870067126186e-18 8.333869963347799e-18 1.0377838800741968e-25
1.0383996230291617 3.0579536677720266e-25 8.428782665978221e-18 8.428782552490353e-18 1.134878702744169e-25
1.0403485208654093 3.069486006936357e-25 8.47644883627704e-18 8.476448717613552e-18 1.1866348649494101e-25
1.0423010764483396 3.0810148636478108e-25 8.524254603842288e-18 8.52425447977736e-18 1.2406492909835928e-25
1.0462171883269815 3.1040612987929383e-25 8.62028397602598e-18 8.620283840442827e-18 1.355831490838606e-25
1.0471985131304309 3.109820407308375e-25 8.644378193809643e-18 8.644378055190704e-18 1.386189376325315e-25
1.048180758391296 3.115578464330568e-25 8.668507101436092e-18 8.668506959716304e-18 1.4171978631471186e-25
1.0501480137395462 3.127091321651414e-25 8.716868865790501e-18 8.716868717668505e-18 1.4812199706749574e-25
1.0521189612883777 3.1385996669342617e-25 8.765369027862998e-18 8.765368873062291e-18 1.5480070586095596e-25
1.0531058218030118 3.1443436858980525e-25 8.789647456136556e-18 8.789647297889053e-18 1.5824750363652634e-25
1.0540936079674168 3.15005898567752e-25 8.813883361313175e-18 8.813883199544689e-18 1.6176848564969967e-25
1.058054026499678 3.172906507202344e-25 8.911166385322314e-18 8.911166208705106e-18 1.7661721041101354e-25
1.0590464539527713 3.178614844064222e-25 8.935571836932778e-18 8.935571656404379e-18 1.8052839774675645e-25
1.06003981227728 3.184321714120291e-25 8.960011104625577e-18 8.960010920103158e-18 1.8452241520975078e-25
1.0620293250338977 3.1957309555971695e-25 9.00899096378981e-18 9.008990771024166e-18 1.927656433429206e-25
1.0660195594769086 3.2185307605872883e-25 9.107355105132277e-18 9.10735489481068e-18 2.103215996500779e-25
1.070024785945596 3.241304370756602e-25 9.206256814412962e-18 9.206256585011655e-18 2.294013087544533e-25
1.0740450607676866 3.264050253960194e-25 9.305694094933003e-18 9.30569384480298e-18 2.501300264440519e-25
1.07808044048254 3.286766897729897e-25 9.405664949835929e-18 9.405664677193242e-18 2.7264268803008395e-25
1.0861967418109137 3.3320683393502148e-25 9.607089327205887e-18 9.607089003593641e-18 3.236122476986646e-25
1.0902777775684922 3.354563393747262e-25 9.70828677957853e-18 9.708286427184508e-18 3.5239402000381027e-25
1.0943741465085532 3.377021841464318e-25 9.810002708657223e-18 9.81000232504629e-18 3.8361093562673715e-25
1.1026131145906286 3.4218233442058042e-25 1.001498196538556e-17 1.001498151124176e-17 4.5414380291351175e-25
1.1109141095355224 3.4664619268589134e-25 1.022201114990987e-17 1.022201061295955e-17 5.369503187209872e-25
1.1192775983109025 3.510888011337963e-25 1.0430958595179957e-17 1.0430957961142101e-17 6.340378545584257e-25
1.1277040513999907 3.5549121018695017e-25 1.0641269460934692e-17 1.0641268713214924e-17 7.477197666120603e-25
1.1361939428280308 3.598737070880732e-25 1.0853555224141264e-17 1.0853554343483031e-17 8.806582305177273e-25
1.1447477501889525 3.642353613408415e-25 1.1067800905182532e-17 1.1067799869269651e-17 1.035912881965035e-24
1.1533659546722406 3.685773507516091e-25 1.1284055273224864e-17 1.128405405622773e-17 1.2169971334141951e-24
1.1707974979042381 3.7721594879947023e-25 1.1723067489996643e-17 1.1723065816636646e-17 1.673359996931882e-24
1.1884924949847024 3.8576463879793126e-25 1.2169935937166115e-17 1.2169933647766276e-17 2.289399845051875e-24
1.2064549276569216 3.942865745036664e-25 1.2626777398075973e-17 1.262677428121808e-17 3.116857894094774e-24
1.2246888378427687 4.027034593734823e-25 1.309123301290751e-17 1.3091228790202286e-17 4.222705220894249e-24
1.2431983285522175 4.110006303603346e-25 1.3562893094604285e-17 1.3562887401280558e-17 5.693323730016293e-24
1.2619875648066055 4.191810382793445e-25 1.4041908463650503e-17 1.404190082408725e-17 7.63956325565296e-24
1.3004222497298317 4.350908725532263e-25 1.501875031301397e-17 1.5018736750327656e-17 1.356268631270657e-23
1.3400274889804893 4.504176489970825e-25 1.602132904124012e-17 1.602130540243632e-17 2.3638803792553518e-23
1.3808389325824078 4.651559560393504e-25 1.7049476266446104e-17 1.7049435798625137e-17 4.04678209655339e-23
1.4228933163050095 4.794039448855368e-25 1.8106869678728594e-17 1.810680159984194e-17 6.807888665235344e-23
1.466228494730424 4.934602454948856e-25 1.9205395666539393e-17 1.920528306359859e-17 1.1260294079829765e-22
1.5108834753276823 5.071858243937029e-25 2.0340775711818448e-17 2.03405925172858e-17 1.83194532648277e-22
1.5568984535646726 5.204759140025092e-25 2.1509502067462254e-17 2.1509208603208342e-17 2.9346425391233127e-22
1.6043148490894465 5.333946860480841e-25 2.2714737430843394e-17 2.27142736841821e-17 4.637466612962592e-22
1.6531753430134553 5.460149223609997e-25 2.3960333806698293e-17 2.395961173004905e-17 7.220766492361464e-22
1.7035239163302658 5.58452049466092e-25 2.5252452175863426e-17 2.5251344109895428e-17 1.1080659680053996e-21
1.755405889504358 5.711549204725006e-25 2.6613433413516962e-17 2.6611756754690312e-17 1.6766588266489916e-21
1.8088679632656115 5.840698287848301e-25 2.804407194872893e-17 2.804156944898704e-17 2.5024997419019103e-21
1.8639582606462262 5.971601419603046e-25 2.9545845921117654e-17 2.9542160172187136e-17 3.685748930521049e-21
1.9207263702978936 6.105022158395119e-25 3.1125918546696384e-17 3.1120559801945776e-17 5.3587447506057636e-21
1.979223391128241 6.242305284900764e-25 3.279512211510095e-17 3.278742809879576e-17 7.694016305180025e-21
2.039501978296691 6.384864641714644e-25 3.4565692227617977e-17 3.455477907493295e-17 1.0913152685031316e-20
2.1016163906111602 6.536621587644059e-25 3.646500049752309e-17 3.644970254711936e-17 1.529795040372533e-20
2.1656225393682647 6.699716824707719e-25 3.8513114672531256e-17 3.849191392903123e-17 2.1200743500021812e-20
2.231578038680979 6.8738870607737645e-25 4.071776243392925e-17 4.068870626206128e-17 2.9056171867976414e-20
2.299542257339062 7.060073460974545e-25 4.309432154329804e-17 4.3054927779819556e-17 3.93937634784701e-20
2.369576372248914 7.26057737793294e-25 4.566792739756718e-17 4.5615075787545007e-17 5.285161002217657e-20
2.4417434235010123 7.478103469363777e-25 4.846865068752167e-17 4.8398463017635206e-17 7.018766988646811e-20
2.5161083711144245 7.7176518532594415e-25 5.1544693218066063e-17 5.145239891672195e-17 9.229430134410905e-20
2.5927381535095444 7.987605996174742e-25 5.497240355091685e-17 5.485219478623034e-17 1.2020876468651853e-19
2.6717017477616296 8.297226009640756e-25 5.884239319058663e-17 5.86872775873335e-17 1.551156032531022e-19
2.753070231689431 8.660542810146607e-25 6.328952502333229e-17 6.309117225224862e-17 1.983527710836713e-19
2.836916847834745 9.111167607148541e-25 6.861041961463716e-17 6.835899728148995e-17 2.514223331472166e-19
2.9233170693905177 9.723683031317863e-25 7.54529369340993e-17 7.51370062301263e-17 3.159307039729978e-19
2.967498994190263 1.0164619529374925e-24 8.006655464641202e-17 7.971416487671777e-17 3.5238976969424746e-19
3.0123486681368425 1.0659868528296516e-24 8.52366789087345e-17 8.484414510286324e-17 3.9253380587127595e-19
3.0578761833420214 1.1629001731733823e-24 9.439125592191163e-17 9.395446048147688e-17 4.367954404347966e-19
3.1040917844459814 1.2835607126879613e-24 1.0575974697870023e-16 1.0527464013954991e-16 4.851068391503081e-19
3.127460860933648 1.4051338994274352e-24 1.1664846490449247e-16 1.1613743347369895e-16 5.110314307934908e-19
3.1510058709225794 1.564595515780297e-24 1.3086416143529003e-16 1.3032606516189416e-16 5.380962733958743e-19
3.162844764501044 1.711393016108518e-24 1.4368024678618694e-16 1.431281281817984e-16 5.521186043885183e-19
3.1747281389236908 1.8807093261361344e-24 1.584884625809781e-16 1.5792202516001712e-16 5.664374209609718e-19
3.1986289994194426 2.348717224412888e-24 1.9941785295717557e-16 1.988217982168521e-16 5.960547403236102e-19
3.2227097969389145 3.4451554392820104e-24 2.9471310880530437e-16 2.940856264963582e-16 6.274823089461862e-19
3.2348180950136065 4.481464417628377e-24 3.8480370897403145e-16 3.841594438406438e-16 6.442651333876777e-19
3.240889293275058 5.255988502606926e-24 4.521557266562822e-16 4.515026087978592e-16 6.531178584229344e-19
3.2469718861334385 6.152509090702707e-24 5.302738678797426e-16 5.296115897896358e-16 6.622780901067301e-19
3.2714166318528037 1.0913469709788739e-23 9.476940146322375e-16 9.469938456069454e-16 7.001690252922721e-19
3.2744851364798273 1.1211432196013833e-23 9.744813935240724e-16 9.737767488795166e-16 7.046446445554763e-19
3.2775565192852394 1.1517794561906188e-23 1.0020489805366956e-15 1.0013398369419944e-15 7.09143594701397e-19
3.283707930232385 1.1224857407744464e-23 9.783962683236153e-16 9.776790583925325e-16 7.172099310823063e-19
3.2898708863219004 1.0292793251940511e-23 8.988382311827371e-16 8.981136612807216e-16 7.24569902015932e-19
3.29141343181113 1.0072848932198517e-23 8.800436038021917e-16 8.793171852666471e-16 7.264185355443857e-19
3.292184975758714 9.964755084729431e-24 8.70803750184295e-16 8.700764060337734e-16 7.273441505214611e-19
3.295272960557952 9.284486851068655e-24 8.121172462031531e-16 8.113862979755402e-16 7.309482276127258e-19
3.3076538914384823 6.92259151890516e-24 6.077965047712905e-16 6.070510709740058e-16 7.454337972844473e-19
3.310756385682612 6.440438819909209e-24 5.659943781448941e-16 5.652452911004281e-16 7.490870444660255e-19
3.313861789986515 5.995013092883042e-24 5.273439409857841e-16 5.265911879171002e-16 7.52753068683845e-19
3.3200813396944477 5.3712175998900436e-24 4.733592887964656e-16 4.725986593042033e-16 7.60629492262576e-19
3.345076488085796 4.266063759872641e-24 3.787937702356665e-16 3.7799806273686494e-16 7.957074988015168e-19
3.3482140837626964 4.308846121490962e-24 3.8295137803415196e-16 3.8215091954023534e-16 8.004584939166017e-19
3.3513546224236106 4.352077647764176e-24 3.8715640926147613e-16 3.8635117728453043e-16 8.052319769457016e-19
3.3576445397418455 4.662901892422211e-24 4.155855400797767e-16 4.147703312495416e-16 8.152088302351553e-19
3.3702598118196083 5.802714136309117e-24 5.191154933452067e-16 5.182793554301013e-16 8.361379151055046e-19
3.382922481734668 6.06708362697747e-24 5.448054713640436e-16 5.439489518291076e-16 8.565195349359122e-19
3.389271646505754 6.203860026356081e-24 5.581331295856237e-16 5.57266271633766e-16 8.66857951857718e-19
3.395632727569191 6.352123129031383e-24 5.725442422800144e-16 5.71666729684145e-16 8.775125958693524e-19
3.421196662673239 7.066025462600302e-24 6.416861576355576e-16 6.407644961278791e-16 9.2166150767843e-19
3.4276182099114902 6.928205452711514e-24 6.3035127047539425e-16 6.294197138804264e-16 9.315565949677482e-19
3.4340518103208963 6.3149698799085554e-24 5.756354870663341e-16 5.746945507963297e-16 9.409362700044276e-19
3.4469541582030403 5.43996337088878e-24 4.977381349924242e-16 4.967791535373913e-16 9.589814550328072e-19
3.472904465399547 5.198009445290245e-24 4.791807181072354e-16 4.781802285762121e-16 1.0004895310232246e-18
3.4990501388274233 4.827370918589172e-24 4.483635183919166e-16 4.473204560811449e-16 1.043062310771718e-18
3.5253949054701885 3.5013031330471765e-24 3.2764754485316716e-16 3.265629691502183e-16 1.0845757029488598e-18
3.5519380250092896 2.249525414531876e-24 2.1209269794827304e-16 2.1096627217460184e-16 1.1264257736711885e-18
3.578680990867387 1.7566623854778377e-24 1.6687094352759678e-16 1.6569862805288355e-16 1.1723154747132134e-18
3.605625307711299 1.5614205034523115e-24 1.4944104793410188e-16 1.482203244638643e-16 1.2207234702376097e-18
3.660119384959845 1.4273361057641625e-24 1.3867268873468666e-16 1.3734992003190878e-16 1.322768702777873e-18
3.715437065384467 1.3349089409386165e-24 1.3165306801306186e-16 1.3022222095106268e-16 1.4308470619992035e-18
3.8285932144167436 1.3061169388535055e-24 1.3273660946948844e-16 1.310717100162012e-16 1.664899453287181e-18
3.94519561050918 1.3194144149310582e-24 1.3817173113564087e-16 1.36248924817148e-16 1.9228063184928854e-18
4.06534921144712 1.3495695430214023e-24 1.4563392648443876e-16 1.4342898018959316e-16 2.2049462948455764e-18
4.189162171576248 1.3891651316426593e-24 1.544722527389797e-16 1.5195972775416123e-16 2.5125249848184944e-18
4.316745939156006 1.4353316240583156e-24 1.6446677472171813e-16 1.6162157695907267e-16 2.8451977626454777e-18
4.448215356677963 1.4870188793579732e-24 1.7557865609615768e-16 1.7237936466382966e-16 3.199291432328032e-18
4.58368876423945 1.5442369849437903e-24 1.8788776650775506e-16 1.8431178013383203e-16 3.575986373922965e-18
4.723288106065518 1.6077795221341338e-24 2.0157671476687448e-16 1.9759835538123845e-16 3.9783593856360505e-18
4.867139040275056 1.6791982114427905e-24 2.1694275398686787e-16 2.1254540816079938e-16 4.397345826068443e-18
4.940699165968905 1.7200976959581333e-24 2.255853842424544e-16 2.2097087864401314e-16 4.6145055984413145e-18
5.015371051989984 1.761668550612201e-24 2.345290818451267e-16 2.2969280425258257e-16 4.836277592544071e-18
5.091171501069577 1.8105611589824095e-24 2.4468106346027143e-16 2.396138635587194e-16 5.0671999015520036e-18
5.129500256944802 1.835319670586004e-24 2.498942183690797e-16 2.447099440626887e-16 5.184274306390982e-18
5.168117569889187 1.860861571929272e-24 2.5527946760236484e-16 2.4997604050540035e-16 5.30342709696444e-18
5.20702561229733 1.891607729095551e-24 2.614509515656385e-16 2.56018179087663e-16 5.432772477975601e-18
5.246226572918644 1.9228488060371907e-24 2.677698114930394e-16 2.622062362971827e-16 5.56357519585674e-18
5.265937586045735 1.9386602241760935e-24 2.709859912055286e-16 2.653564777754127e-16 5.629513430115811e-18
5.285722656980489 1.954601824251454e-24 2.74240823704507e-16 2.68545019390775e-16 5.695804313731886e-18
5.305582063971359 1.9706758740105208e-24 2.775349420378485e-16 2.717724982235887e-16 5.7624438142598206e-18
5.3255160863122235 1.9878406730968585e-24 2.810041322219561e-16 2.7517423657379843e-16 5.8298956481576645e-18
5.365609099470188 2.0301112293338398e-24 2.8914007967547375e-16 2.8317061782028863e-16 5.969461855185104e-18
5.406003951863644 2.073580968515419e-24 2.9755468327719604e-16 2.9144409752048086e-16 6.110585756715182e-18
5.446702915881641 2.1183105922021347e-24 3.062617492409766e-16 3.0000851261520824e-16 6.253236625768385e-18
5.487708281020852 2.1662299109197964e-24 3.155476848017421e-16 3.0914975714327705e-16 6.397927658465032e-18
5.529022354014368 2.232421562212289e-24 3.2763778968659916e-16 3.210889049250262e-16 6.548884761572838e-18
5.570647458961463 2.3018482898347328e-24 3.40370415347101e-16 3.336688857010536e-16 6.701529646047515e-18
5.612585937458331 2.37474675642615e-24 3.5379341066735587e-16 3.4693757833287384e-16 6.8558323344820435e-18
5.654840148729818 2.4542698626105863e-24 3.6839360303604306e-16 3.613811585682816e-16 7.012444467761583e-18
5.67608639626678 2.5084997736869854e-24 3.7794838725946764e-16 3.708540599440957e-16 7.094327315371796e-18
5.686739436050992 2.5363518386546683e-24 3.8286199727438727e-16 3.7572655164485685e-16 7.135445629530206e-18
5.6974124697621304 2.564710991842014e-24 3.8786940854281667e-16 3.8069272725435407e-16 7.176681288462551e-18
5.718818669136295 2.622999420138218e-24 3.9817496806086754e-16 3.9091546519046315e-16 7.25950287040444e-18
5.740305295436557 2.6871170275811947e-24 4.0944069409077004e-16 4.0209733726340617e-16 7.343356827363792e-18
5.7835210386641895 2.853461089104182e-24 4.3806010963644807e-16 4.3054321166125864e-16 7.51689797518942e-18
5.827062130521658 3.0435780286635157e-24 4.707643011029596e-16 4.630704165816422e-16 7.693884521317365e-18
5.8489554468988025 3.1775110462564808e-24 4.933269205444205e-16 4.855377086587694e-16 7.789211885651293e-18
5.870931020387893 3.320470494751858e-24 5.174591088991203e-16 5.095739075723067e-16 7.885201326813759e-18
5.892989160043636 3.4731734304112625e-24 5.432897923262577e-16 5.3530794158504815e-16 7.981850741209479e-18
5.915130176081913 3.646516947687134e-24 5.725480977799545e-16 5.644661233013653e-16 8.081974478589384e-18
5.95966208400165 4.1320953550379436e-24 6.536742899346727e-16 6.453656067312999e-16 8.308683203372953e-18
6.004529249263818 4.8302109711444794e-24 7.698648614135256e-16 7.613017947538768e-16 8.56306665964908e-18
6.027089341400364 5.31547933985321e-24 8.503926477080301e-16 8.416833206148e-16 8.709327093229763e-18
6.049734195844842 5.887026501651294e-24 9.453697848633234e-16 9.365056585319883e-16 8.86412633133502e-18
6.095279466722835 7.537534591243559e-24 1.2195296789776948e-15 1.2102875569433317e-15 9.242122034363214e-18
6.141167624020661 1.007063818093462e-23 1.6416379287794659e-15 1.6319082997285398e-15 9.729629050926095e-18
6.164241091010745 1.1688547704636688e-23 1.9125359303604937e-15 1.902501826745663e-15 1.0034103614830801e-17
6.187401249150058 1.3523993212826193e-23 2.2211743920901408e-15 2.2108271989017425e-15 1.034719318839885e-17
6.1990139391386085 1.441950247278613e-23 2.372697222128782e-15 2.362190627719126e-15 1.0506594409655099e-17
6.204828454712694 1.4890565000246624e-23 2.452507752064793e-15 2.4419205992021216e-15 1.0587152862671279e-17
6.210648424152782 1.5234055780178121e-23 2.511434868492999e-15 2.500778726390065e-15 1.0656142102933632e-17
6.233982942956859 1.6397608732920875e-23 2.7134108802391975e-15 2.702512696904957e-15 1.0898183334240845e-17
6.239830258556775 1.6544468344189028e-23 2.7402805268623893e-15 2.7293476239410695e-15 1.0932902921319645e-17
6.245683058788269 1.6554326962234592e-23 2.7444852660671933e-15 2.7335175708275963e-15 1.0967695239596728e-17
6.257405133728602 1.6515759698129995e-23 2.743230258612936e-15 2.732200997509759e-15 1.102926110317799e-17
6.269149208991335 1.6278772914872482e-23 2.7089419857098516e-15 2.697886886411926e-15 1.1055099297926249e-17
6.280915325867298 1.5694207503286296e-23 2.6165664113656568e-15 2.605529709276805e-15 1.1036702088850333e-17
6.304513850009849 1.4256561518535598e-23 2.385809857486977e-15 2.3748500416953117e-15 1.0959815791665794e-17
6.32820103803542 1.2481391648989598e-23 2.096586145762271e-15 2.0857458758443107e-15 1.0840269917961094e-17
6.3519772230701035 1.0855210920155973e-23 1.830276196328694e-15 1.8195419457945297e-15 1.0734250534163572e-17
6.375842739491607 9.485259539696142e-24 1.6053001578940394e-15 1.5946581107542653e-15 1.0642047139774176e-17
6.399797922933955 8.39065859399631e-24 1.4253835574968848e-15 1.4147828736461807e-15 1.0600683850704058e-17
6.42384311029221 7.478852669792878e-24 1.2752617583191837e-15 1.2646923299579869e-15 1.0569428361196641e-17
6.447978639727206 6.815382765917843e-24 1.1664960563536544e-15 1.1559180861811334e-15 1.0577970172521511e-17
6.472204850670314 6.2616605409038114e-24 1.0757496351617871e-15 1.0651551581024322e-15 1.0594477059354987e-17
6.496522083828205 5.901826472828434e-24 1.0177398697581205e-15 1.007096500626811e-15 1.0643369131309386e-17
6.520930681187647 5.598130047327559e-24 9.689960345227471e-16 9.582987195836249e-16 1.0697314939122255e-17
6.57002334288761 5.285061470194515e-24 9.216932109525466e-16 9.10842662327173e-16 1.0850548625373394e-17
