Dust emission spectrum from A.P. Jones, M. Kohler, N. Ysard, M. Bocchio, and L. Verstraete (2017), A&A, 602A, 46J 
inside the DustPedia framework.

lambda    nu*dP/dnu     j_nu    j_nu(carb.) j_nu(sil)
 (um)   (erg s-1 H-1) (Jy cm2 sr-1 H-1)
0.9927057738263894 1.0047167393685768e-20 2.647485675007731e-13 2.6474856269225e-13 4.8085231559646544e-21
1.0001793341362166 1.021608947412406e-20 2.7122642385246487e-13 2.7122641806585676e-13 5.786608130225645e-21
1.0077091589558085 1.0385682272975546e-20 2.7780475248494866e-13 2.7780474553058417e-13 6.954364470632464e-21
1.0114953028030835 1.0470722404645352e-20 2.81131784483505e-13 2.8113177686347444e-13 7.620030574920134e-21
1.0152956718711033 1.0555921002915923e-20 2.844841660972784e-13 2.8448415775065305e-13 8.34662539353476e-21
1.0229392996569957 1.0726698883580889e-20 2.912630455131982e-13 2.9126303550882834e-13 1.0004369839257189e-20
1.0267826658714554 1.0812084156568759e-20 2.946845580833451e-13 2.946845471355346e-13 1.0947810488493986e-20
1.0306404723013447 1.0897612276218559e-20 2.9813157747016726e-13 2.9813156549394585e-13 1.1976221359916782e-20
1.03451277320114 1.0983280603815132e-20 3.016041892644802e-13 3.016041761676138e-13 1.3096866496883842e-20
1.0383996230291617 1.1069086580594486e-20 3.0510248105460337e-13 3.051024667370081e-13 1.4317595196432657e-20
1.0403485208654093 1.1112040410168515e-20 3.068612848880445e-13 3.068612699199298e-13 1.4968114595650876e-20
1.0423010764483396 1.1155027729745499e-20 3.0862654251752087e-13 3.0862652687063476e-13 1.5646886056655554e-20
1.0462171883269815 1.1241101658396103e-20 3.121764655112726e-13 3.1217644841737853e-13 1.7093894084837904e-20
1.0471985131304309 1.1262640615092679e-20 3.130679981037495e-13 3.1306798062856885e-13 1.74751806974736e-20
1.048180758391296 1.1284187690698364e-20 3.139611544072412e-13 3.1396113654264104e-13 1.7864600256129553e-20
1.0501480137395462 1.132730605958276e-20 3.1575234416855236e-13 3.157523255000513e-13 1.866850105949481e-20
1.0521189612883777 1.1370456490422262e-20 3.1755004693275716e-13 3.175500274258031e-13 1.9506954104428403e-20
1.0531058218030118 1.1392015062748523e-20 3.184505455482941e-13 3.184505256086888e-13 1.9939605271396198e-20
1.0540936079674168 1.1413487911934044e-20 3.193500555352551e-13 3.193500351537293e-13 2.038152585047351e-20
1.058054026499678 1.1499454025264533e-20 3.22964285039243e-13 3.229642627945167e-13 2.2244726360378425e-20
1.0590464539527713 1.1520964075673604e-20 3.238718976007631e-13 3.238718748653877e-13 2.2735375358924928e-20
1.06003981227728 1.1542481473370418e-20 3.247811353913568e-13 3.247811121549922e-13 2.3236364565900288e-20
1.0620293250338977 1.158553819050655e-20 3.2660449305380106e-13 3.266044687836055e-13 2.427019542984012e-20
1.0660195594769086 1.1671738491898076e-20 3.3027078206504524e-13 3.302707555937328e-13 2.6471312431062292e-20
1.070024785945596 1.175805311011909e-20 3.339632573413513e-13 3.33963228478858e-13 2.886249331649419e-20
1.0740450607676866 1.1844480324126101e-20 3.376820270338723e-13 3.37681995574607e-13 3.1459265366695455e-20
1.07808044048254 1.1931018512962138e-20 3.4142720227807766e-13 3.4142716799973085e-13 3.427834689072712e-20
1.0861967418109137 1.2104289356472038e-20 3.4899340963892535e-13 3.489933689821388e-13 4.065678655972538e-20
1.0902777775684922 1.2190718062442273e-20 3.528059336120397e-13 3.528058893556988e-13 4.4256340847926676e-20
1.0943741465085532 1.2277247097522422e-20 3.5664509421509936e-13 3.5664504605632446e-13 4.815877487128513e-20
1.1026131145906286 1.245060198943163e-20 3.644038333933694e-13 3.644037764230398e-13 5.697032958067354e-20
1.1109141095355224 1.2624346822868835e-20 3.7227068032628864e-13 3.722706130200844e-13 6.73062042078629e-20
1.1192775983109025 1.2798340119665543e-20 3.8024270624452846e-13 3.802426268305761e-13 7.941395215619412e-20
1.1277040513999907 1.2971952803505792e-20 3.8830227375815893e-13 3.8830218017962154e-13 9.357853738999016e-20
1.1361939428280308 1.3145924741634509e-20 3.9647247727608095e-13 3.964723671485452e-13 1.1012753581878292e-19
1.1447477501889525 1.3320256517244104e-20 4.047546251305915e-13 4.047544956935954e-13 1.2943699601400328e-19
1.1533659546722406 1.3495012784430303e-20 4.1315200150486414e-13 4.131518495666208e-13 1.5193824331720574e-19
1.1707974979042381 1.3846327204549653e-20 4.303143300916023e-13 4.3031412152767635e-13 2.085639258789364e-19
1.1884924949847024 1.4199390924190236e-20 4.479562420045738e-13 4.479559571467354e-13 2.8485783852205786e-19
1.2064549276569216 1.4556586947310877e-20 4.661654617350496e-13 4.661650745973094e-13 3.8713774019439655e-19
1.2246888378427687 1.4915597857191723e-20 4.848817722577e-13 4.848812486964962e-13 5.235612038327584e-19
1.2431983285522175 1.5276127236205814e-20 5.041074521530172e-13 5.04106747528898e-13 7.046241192361747e-19
1.2619875648066055 1.56386958756001e-20 5.238718260669619e-13 5.238708823047111e-13 9.437622507596155e-19
1.3004222497298317 1.6367692302737646e-20 5.649906706902591e-13 5.649890014882361e-13 1.6692020231013742e-18
1.3400274889804893 1.7104697103268057e-20 6.084130607501556e-13 6.084101626530405e-13 2.898097115081478e-18
1.3808389325824078 1.7852290619119957e-20 6.543444220386065e-13 6.543394803090313e-13 4.941729575257479e-18
1.4228933163050095 1.8616573361399043e-20 7.031395367424989e-13 7.031312568938065e-13 8.27984869253504e-18
1.466228494730424 1.941060748388809e-20 7.554578109571849e-13 7.554441726451641e-13 1.363831202087203e-17
1.5108834753276823 2.0232421384140507e-20 8.114247790220986e-13 8.114026844737968e-13 2.209454830169971e-17
1.5568984535646726 2.10808064373593e-20 8.711981427942994e-13 8.711629012745278e-13 3.5241519771644007e-17
1.6043148490894465 2.196009249401508e-20 9.35175673860426e-13 9.351202263889411e-13 5.5447471484740833e-17
1.6531753430134553 2.287469102998969e-20 1.003791673739773e-12 1.0037057228355463e-12 8.595090422655991e-17
1.7035239163302658 2.3829662545131132e-20 1.0775453583941504e-12 1.0774140592377633e-12 1.3129915638694856e-16
1.755405889504358 2.4841486387163718e-20 1.157509495515938e-12 1.1573117381884207e-12 1.9775732751690533e-16
1.8088679632656115 2.590825381636176e-20 1.243982993615046e-12 1.2436892184717338e-12 2.9377514331214926e-16
1.8639582606462262 2.7027169628213467e-20 1.3372302225291308e-12 1.336799615896898e-12 4.30606632232938e-16
1.9207263702978936 2.8198795435251035e-20 1.437690784832974e-12 1.4370677797699632e-12 6.230050630107339e-16
1.979223391128241 2.9424866723648416e-20 1.5458905858974845e-12 1.545000537505795e-12 8.900483916899134e-16
2.039501978296691 3.070587489530786e-20 1.6623215694764104e-12 1.6610655404252456e-12 1.2560290511652576e-15
2.1016163906111602 3.2051100498114007e-20 1.7879930479976436e-12 1.7862414800888799e-12 1.7515679087642685e-15
2.1656225393682647 3.346197887875151e-20 1.9235514924668434e-12 1.921136906676799e-12 2.4145857900446452e-15
2.231578038680979 3.492896426838776e-20 2.069032057944987e-12 2.065740666842516e-12 3.2913911024713137e-15
2.299542257339062 3.644697544350472e-20 2.224704442135185e-12 2.2202666405645954e-12 4.437801570589671e-15
2.369576372248914 3.8013934342955486e-20 2.391018652244176e-12 2.385098328066908e-12 5.9203241772676445e-15
2.4417434235010123 3.96284332738363e-20 2.5684810293307503e-12 2.560664028698811e-12 7.817000631939166e-15
2.5161083711144245 4.12958607469282e-20 2.7580700889965816e-12 2.747851546450565e-12 1.0218542546016991e-14
2.5927381535095444 4.3030748958527454e-20 2.9614676762714693e-12 2.94823874334962e-12 1.3228932921849362e-14
2.6717017477616296 4.4844437407937134e-20 3.1802846099436764e-12 3.1633195237957074e-12 1.696508614796967e-14
2.753070231689431 4.67580072869838e-20 3.4169822112808415e-12 3.395425373324362e-12 2.1556837956479033e-14
2.836916847834745 4.884343317752232e-20 3.678088901690272e-12 3.6509415008135126e-12 2.714740087675864e-14
2.9233170693905177 5.126972152153184e-20 3.978380467702966e-12 3.944494979234133e-12 3.3885488468833497e-14
2.967498994190263 5.278261459565853e-20 4.157678586680641e-12 4.120018813038936e-12 3.765977364170523e-14
3.0123486681368425 5.44022713204193e-20 4.350024505588773e-12 4.308224518433664e-12 4.179998715510926e-14
3.0578761833420214 5.717393092464655e-20 4.640741544687505e-12 4.5943925019100404e-12 4.634904277746533e-14
3.1040917844459814 6.044433823284263e-20 4.9803471348179814e-12 4.92905610024432e-12 5.129103457366161e-14
3.127460860933648 6.35611625539075e-20 5.2765875497555144e-12 5.222653763826539e-12 5.393378592897595e-14
3.1510058709225794 6.754714363839676e-20 5.649703211107204e-12 5.593017143832989e-12 5.668606727421444e-14
3.162844764501044 7.119212660907716e-20 5.976945227744852e-12 5.918835774860425e-12 5.810945288442568e-14
3.1747281389236908 7.532355587731368e-20 6.3475596155275956e-12 6.287998486049317e-12 5.956112947827655e-14
3.1986289994194426 8.654686431817846e-20 7.348262142038572e-12 7.285703854166224e-12 6.255828787234971e-14
3.2227097969389145 1.1266597771206808e-19 9.637922332767852e-12 9.572190603367725e-12 6.573172940012488e-14
3.2348180950136065 1.372156868823986e-19 1.1782109668006483e-11 1.1714685025547732e-11 6.742464245875313e-14
3.240889293275058 1.5556734667085856e-19 1.338295672508862e-11 1.3314639112358152e-11 6.831761273046693e-14
3.2469718861334385 1.7683995470911844e-19 1.524152266934276e-11 1.517228109791888e-11 6.92415714238812e-14
3.2714166318528037 2.885039767710788e-19 2.50528474677777e-11 2.497978963288441e-11 7.305783489329399e-14
3.2744851364798273 2.954759066249949e-19 2.5682336405074792e-11 2.5608829388939308e-11 7.35070161354836e-14
3.2775565192852394 3.026346017858964e-19 2.6329232785386466e-11 2.6255274394047347e-11 7.395839133912358e-14
3.283707930232385 2.9572083169792043e-19 2.5776020816013196e-11 2.5701256343147244e-11 7.476447286594662e-14
3.2898708863219004 2.7380048542048545e-19 2.3910161021249114e-11 2.3834664001773815e-11 7.549701947530303e-14
3.29141343181113 2.686196728464696e-19 2.3468735263994118e-11 2.339305432466324e-11 7.568093933088893e-14
3.292184975758714 2.660722897719043e-19 2.3251624930407193e-11 2.3175851913551003e-11 7.577301685619029e-14
3.295272960557952 2.5019354901030927e-19 2.1884515461041223e-11 2.1808384475073463e-11 7.613098596776392e-14
3.3076538914384823 1.9476331930977962e-19 1.710002163364113e-11 1.702245338903136e-11 7.756824460976973e-14
3.310756385682612 1.833625453542732e-19 1.611414574920531e-11 1.603621533837521e-11 7.793041083009886e-14
3.313861789986515 1.727968611028375e-19 1.5199863004823166e-11 1.5121569285686777e-11 7.829371913639316e-14
3.3200813396944477 1.5803232427328312e-19 1.39272087257059e-11 1.3848133086554203e-11 7.907563915169584e-14
3.345076488085796 1.3218147870432328e-19 1.1736702377657584e-11 1.165414091526448e-11 8.256146239310831e-14
3.3482140837626964 1.3321279875172458e-19 1.1839370312928936e-11 1.175633658806857e-11 8.303372486036458e-14
3.3513546224236106 1.342535600221808e-19 1.194306040368102e-11 1.1859552344847453e-11 8.350805883356935e-14
3.3576445397418455 1.4162945627041424e-19 1.2622859205122583e-11 1.2538359242759761e-11 8.449996236281831e-14
3.3702598118196083 1.6839625651214368e-19 1.506486511713467e-11 1.497828469359761e-11 8.658042353705842e-14
3.382922481734668 1.7474336603330665e-19 1.569141745075023e-11 1.560281645447602e-11 8.860099627420749e-14
3.389271646505754 1.780158809752923e-19 1.6015280864265432e-11 1.592565602571466e-11 8.96248385507743e-14
3.395632727569191 1.8161763819099252e-19 1.6369980702594448e-11 1.627930073281524e-11 9.067996977920733e-14
3.421196662673239 1.991092641759563e-19 1.8081686707040927e-11 1.798664072604983e-11 9.504598099109889e-14
3.4276182099114902 1.9590264414502015e-19 1.7823876827724966e-11 1.7727858248243995e-11 9.601857948097185e-14
3.4340518103208963 1.8143796221225326e-19 1.6538816769762e-11 1.644187913255121e-11 9.69376372107865e-14
3.4469541582030403 1.606704519329302e-19 1.470079955343906e-11 1.4602099628839963e-11 9.8699924599096e-14
3.472904465399547 1.5482300511017563e-19 1.427242477126196e-11 1.416966271598706e-11 1.027620552748993e-13
3.4990501388274233 1.460299488479972e-19 1.3563180198967378e-11 1.3456265216169628e-11 1.0691498279774599e-13
3.5253949054701885 1.1510404213595768e-19 1.0771291537873789e-11 1.0660348266517869e-11 1.1094327135592174e-13
3.5519380250092896 8.56639695317892e-20 8.076682440476772e-12 7.96169543781693e-12 1.1498700265983872e-13
3.578680990867387 7.413412001212717e-20 7.042235694394237e-12 6.922817344505871e-12 1.1941834988836552e-13
3.605625307711299 6.965236133938782e-20 6.666315605968184e-12 6.542233338298353e-12 1.2408226766983097e-13
3.660119384959845 6.671997549753508e-20 6.482172178782074e-12 6.348305746573219e-12 1.3386643220885483e-13
3.715437065384467 6.468902103205945e-20 6.379841968579433e-12 6.235682173840425e-12 1.4415979473900678e-13
3.8285932144167436 6.425637561544591e-20 6.530175960721413e-12 6.363967487694588e-12 1.6620847302682657e-13
3.94519561050918 6.469362469338676e-20 6.774846489601044e-12 6.5847070414936054e-12 1.9013944810743676e-13
4.06534921144712 6.540556839929464e-20 7.058005857638675e-12 6.8421089958275395e-12 2.1589686181113654e-13
4.189162171576248 6.621834474847597e-20 7.363341227725754e-12 7.119841538404494e-12 2.4349968932126015e-13
4.316745939156006 6.706076702250788e-20 7.684125311314344e-12 7.411314315797658e-12 2.728109955166879e-13
4.448215356677963 6.790357023555659e-20 8.017663912402803e-12 7.714279367557447e-12 3.0338454484535597e-13
4.58368876423945 6.874414170299641e-20 8.364119866963792e-12 8.028895071311849e-12 3.3522479565194243e-13
4.723288106065518 6.959809222178382e-20 8.725919562333315e-12 8.357420128109815e-12 3.684994342235012e-13
4.867139040275056 7.048915549890774e-20 9.106793597047977e-12 8.704532142445407e-12 4.022614546025682e-13
4.940699165968905 7.099802090015909e-20 9.311166373195365e-12 8.891745251592344e-12 4.1942112160302023e-13
5.015371051989984 7.148151064351e-20 9.516258353081907e-12 9.079551323754587e-12 4.367070293273205e-13
5.091171501069577 7.209244004778926e-20 9.742645152209582e-12 9.288142280818964e-12 4.5450287139061994e-13
5.129500256944802 7.238746826725076e-20 9.856162984721585e-12 9.392736720612598e-12 4.634262641089885e-13
5.168117569889187 7.268915720703224e-20 9.971751597319284e-12 9.499293200482856e-12 4.72458396836428e-13
5.20702561229733 7.310095161720464e-20 1.010374036154429e-11 9.621387442802955e-12 4.823529187413346e-13
5.246226572918644 7.350973367756952e-20 1.0236731805405198e-11 9.744442852832586e-12 4.922889525726119e-13
5.265937586045735 7.371307252204043e-20 1.030361575127449e-11 9.806344700261224e-12 4.972710510132641e-13
5.285722656980489 7.391575331754723e-20 1.0370765453627e-11 9.868503717769598e-12 5.022617358573995e-13
5.305582063971359 7.411780996176395e-20 1.04381863922898e-11 9.930925991513589e-12 5.072604007762114e-13
5.3255160863122235 7.434092120262524e-20 1.0508943867508157e-11 9.99663479227657e-12 5.123090752315907e-13
5.365609099470188 7.495320380824906e-20 1.0675264984451417e-11 1.01525080972935e-11 5.227568871579175e-13
5.406003951863644 7.55726902463598e-20 1.0844528500259538e-11 1.0311283584978024e-11 5.332449152815129e-13
5.446702915881641 7.620027925455953e-20 1.1016907012154242e-11 1.0473138713530993e-11 5.437682986232502e-13
5.487708281020852 7.687812243049411e-20 1.1198586734751012e-11 1.064421638524826e-11 5.543703495027448e-13
5.529022354014368 7.793276879163852e-20 1.1437678502686462e-11 1.0872257207496897e-11 5.65421295189563e-13
5.570647458961463 7.902603483297429e-20 1.1685446177369557e-11 1.1108933995504716e-11 5.765121818648377e-13
5.612585937458331 8.016152506435587e-20 1.19425868379735e-11 1.135494878043515e-11 5.876380575383505e-13
5.654840148729818 8.140507842007781e-20 1.2219157559431923e-11 1.1620304551025202e-11 5.988530084067209e-13
5.67608639626678 8.232032032898886e-20 1.2402963968098971e-11 1.1798236730918018e-11 6.047272371809579e-13
5.686739436050992 8.278854910182756e-20 1.2496921277840882e-11 1.1889252708517195e-11 6.076685693236879e-13
5.6974124697621304 8.326409497288918e-20 1.2592294169875357e-11 1.1981681561218603e-11 6.10612608656753e-13
5.718818669136295 8.423790172988055e-20 1.278743089811367e-11 1.2170922404757753e-11 6.165084933559192e-13
5.740305295436557 8.532057921921168e-20 1.3000445018647403e-11 1.237798374498319e-11 6.224612736642133e-13
5.7835210386641895 8.823181875493487e-20 1.3545248731372768e-11 1.2910488240990355e-11 6.347604903824139e-13
5.827062130521658 9.154898265535945e-20 1.416030488804727e-11 1.3513081355477863e-11 6.472235325694056e-13
5.8489554468988025 9.397512177809056e-20 1.4590179785272797e-11 1.3936204202777637e-11 6.5397558249516e-13
5.870931020387893 9.654821657304841e-20 1.504598646265714e-11 1.4385237840170697e-11 6.607486224864421e-13
5.892989160043636 9.927990714819486e-20 1.5529820556736813e-11 1.4862278529010818e-11 6.675420277259937e-13
5.915130176081913 1.02391286168535e-19 1.6076693723368245e-11 1.5402102718510562e-11 6.745910048576884e-13
5.95966208400165 1.1127090844010502e-19 1.7602433103653235e-11 1.691165011194902e-11 6.9078299170421e-13
6.004529249263818 1.241116814449905e-19 1.9781583662961138e-11 1.907250698428993e-11 7.090766786712074e-13
6.027089341400364 1.330930288754137e-19 2.1292780195430115e-11 2.0573068501832092e-11 7.197116935980226e-13
6.049734195844842 1.4363282693060598e-19 2.306531738163746e-11 2.2334326449410172e-11 7.309909322272817e-13
6.095279466722835 1.7415607784329841e-19 2.81774502170758e-11 2.7418513504511403e-11 7.589367125643957e-13
6.141167624020661 2.208466770989677e-19 3.600072558032562e-11 3.5205244988745576e-11 7.954805915800369e-13
6.164241091010745 2.5061669131317294e-19 4.100709848618497e-11 4.0188550069657056e-11 8.185484165279112e-13
6.187401249150058 2.841268877322678e-19 4.666486866738821e-11 4.5822658461650107e-11 8.422102057381024e-13
6.1990139391386085 3.0039501745081727e-19 4.9429335359666164e-11 4.857509009545806e-11 8.542452642081067e-13
6.204828454712694 3.089307990328647e-19 5.088156020051103e-11 5.0021238852487056e-11 8.603213480239841e-13
6.210648424152782 3.1508893733776546e-19 5.194449563038276e-11 5.10790268930649e-11 8.654687373178596e-13
6.233982942956859 3.3568859840988183e-19 5.554841014524988e-11 5.466511986782399e-11 8.832902774258767e-13
6.239830258556775 3.3813463670287975e-19 5.600565343884485e-11 5.511998416066061e-11 8.856692781842384e-13
6.245683058788269 3.3804214298638806e-19 5.604285108373192e-11 5.5154799964962235e-11 8.880511187696797e-13
6.257405133728602 3.3677659563784923e-19 5.59378293479897e-11 5.504566415687681e-11 8.92165191112902e-13
6.269149208991335 3.318453158486195e-19 5.5222203391152466e-11 5.4328792298036337e-11 8.934110931161424e-13
6.280915325867298 3.205144324209882e-19 5.343674078828615e-11 5.254562695976938e-11 8.9111382851677e-13
6.304513850009849 2.9300644224583664e-19 4.9034099653582627e-11 4.81507809911522e-11 8.833186624304282e-13
6.32820103803542 2.5952147336541625e-19 4.359362648713863e-11 4.272150786333764e-11 8.721186238010002e-13
6.3519772230701035 2.2897481553230796e-19 3.860700243505864e-11 3.774499528919451e-11 8.620071458641339e-13
6.375842739491607 2.032220183622575e-19 3.439361219365519e-11 3.354059723230917e-11 8.530149613460206e-13
6.399797922933955 1.827214774529528e-19 3.104025585659423e-11 3.019220413739516e-11 8.480517191990806e-13
6.42384311029221 1.6560489960819333e-19 2.823823449733303e-11 2.7394340724053517e-11 8.438937732795094e-13
6.447978639727206 1.5311822129451444e-19 2.6207156286090595e-11 2.536428591840467e-11 8.428703676859227e-13
6.472204850670314 1.4265735727502503e-19 2.4508450919570594e-11 2.3665984236775745e-11 8.424666827948493e-13
6.496522083828205 1.3576595710537788e-19 2.341214675459513e-11 2.256755052118753e-11 8.445962334076076e-13
6.520930681187647 1.2990915180460845e-19 2.248633952456545e-11 2.1639236535605386e-11 8.471029889600631e-13
6.57002334288761 1.2353910012444732e-19 2.154471627511633e-11 2.0689115422260692e-11 8.55600852855639e-13
