Dust emission spectrum from A.P. Jones, M. Kohler, N. Ysard, M. Bocchio, and L. Verstraete (2017), A&A, 602A, 46J 
inside the DustPedia framework.

lambda    nu*dP/dnu     j_nu    j_nu(carb.) j_nu(sil)
 (um)   (erg s-1 H-1) (Jy cm2 sr-1 H-1)
0.9927057738263894 1.147031438330632e-21 3.022492990086275e-14 3.022492990085626e-14 6.479530582456897e-27
1.0001793341362166 1.1659769555336295e-21 3.095546106411581e-14 3.0955461064108e-14 7.80618641978581e-27
1.0077091589558085 1.1848953275976155e-21 3.169455261118047e-14 3.169455261117108e-14 9.392442255311093e-27
1.0114953028030835 1.194342004135487e-21 3.206727157213636e-14 3.206727157212606e-14 1.0297676851387784e-26
1.0152956718711033 1.2037791056939592e-21 3.244208581648867e-14 3.244208581647738e-14 1.1286526301138027e-26
1.0229392996569957 1.2226116354116637e-21 3.319768665781693e-14 3.319768665780339e-14 1.3545285032730942e-26
1.0267826658714554 1.2319842191503616e-21 3.357786712799626e-14 3.357786712798143e-14 1.4832254902112897e-26
1.0306404723013447 1.2413430838084055e-21 3.396006045884943e-14 3.396006045883319e-14 1.6236262979494067e-26
1.03451277320114 1.2506873262043544e-21 3.43442501971767e-14 3.434425019715893e-14 1.776743557763982e-26
1.0383996230291617 1.260016048173046e-21 3.47304196843283e-14 3.473041968430886e-14 1.9436726897105234e-26
1.0403485208654093 1.26467430973465e-21 3.4924241572677125e-14 3.49242415726568e-14 2.0326832159576234e-26
1.0423010764483396 1.269328356737797e-21 3.5118552060145363e-14 3.511855206012411e-14 2.125598245799891e-26
1.0462171883269815 1.2786233642788089e-21 3.5508630266905993e-14 3.550863026688274e-14 2.3238007038375808e-26
1.0471985131304309 1.2809443093845693e-21 3.5606451837237915e-14 3.5606451837214154e-14 2.3760543574262305e-26
1.048180758391296 1.2832641042895808e-21 3.5704393673302735e-14 3.570439367327845e-14 2.4294339298023048e-26
1.0501480137395462 1.287900188697751e-21 3.5900637053274335e-14 3.5900637053248934e-14 2.5396637411850402e-26
1.0521189612883777 1.2925315081301367e-21 3.609735822079996e-14 3.609735822077342e-14 2.654680499656189e-26
1.0531058218030118 1.2948417900777952e-21 3.619579786172778e-14 3.619579786170064e-14 2.7140493268020834e-26
1.0540936079674168 1.2971391866611155e-21 3.6294029878811057e-14 3.629402987878331e-14 2.7747026353007247e-26
1.058054026499678 1.306315699479773e-21 3.6688117104613436e-14 3.668811710458314e-14 3.030565355291164e-26
1.0590464539527713 1.3086064921929118e-21 3.678692729665654e-14 3.6786927296625545e-14 3.097979588619141e-26
1.06003981227728 1.3108959239499415e-21 3.6885852279045747e-14 3.6885852279014085e-14 3.166829560801673e-26
1.0620293250338977 1.3154706512745593e-21 3.708404548169687e-14 3.7084045481663766e-14 3.308953711281993e-26
1.0660195594769086 1.3246031893216187e-21 3.748179686914497e-14 3.748179686910885e-14 3.611749578818311e-26
1.070024785945596 1.3337124673486473e-21 3.788135295708098e-14 3.788135295704156e-14 3.940982972752472e-26
1.0740450607676866 1.342797645674034e-21 3.8282695270632267e-14 3.828269527058928e-14 4.298842939163271e-26
1.07808044048254 1.351857891342182e-21 3.8685805173887885e-14 3.868580517384102e-14 4.6876891866658534e-26
1.0861967418109137 1.3698842713792607e-21 3.9496790649982144e-14 3.949679064992646e-14 5.568708759143175e-26
1.0902777775684922 1.3788123542784728e-21 3.990357068676033e-14 3.990357068669965e-14 6.06657273224079e-26
1.0943741465085532 1.3877116059103565e-21 4.031201233484681e-14 4.031201233478073e-14 6.606829998641284e-26
1.1026131145906286 1.4054204517465372e-21 4.11338022515374e-14 4.113380225145912e-14 7.82845012472758e-26
1.1109141095355224 1.4230045581588884e-21 4.196200266088991e-14 4.196200266079727e-14 9.264118289216819e-26
1.1192775983109025 1.4404414680844008e-21 4.2795968609214266e-14 4.2795968609104766e-14 1.0949135770890165e-25
1.1277040513999907 1.457650166921676e-21 4.3633281953252054e-14 4.36332819531228e-14 1.29242405499306e-25
1.1361939428280308 1.474713806524042e-21 4.447640220349603e-14 4.447640220334367e-14 1.5236375098784168e-25
1.1447477501889525 1.4916266962017795e-21 4.5325163481224414e-14 4.532516348104501e-14 1.7939565595272317e-25
1.1533659546722406 1.5083924981658798e-21 4.617968056993315e-14 4.617968056972219e-14 2.1095937245305696e-25
1.1707974979042381 1.5415370129524195e-21 4.7907683910724474e-14 4.7907683910433826e-14 2.9064149223411696e-25
1.1884924949847024 1.5740217716493494e-21 4.965655790631274e-14 4.9656557905914297e-14 3.9844763409324825e-25
1.2064549276569216 1.6061008890874787e-21 5.143436200151655e-14 5.143436200097297e-14 5.43587355519625e-25
1.2246888378427687 1.6374238916951427e-21 5.322998153637038e-14 5.3229981535632365e-14 7.380164577672842e-25
1.2431983285522175 1.6679174818141402e-21 5.5040758639794985e-14 5.5040758638797776e-14 9.972030963412756e-25
1.2619875648066055 1.6975702486163626e-21 5.686594541474036e-14 5.68659454133993e-14 1.3410572641340316e-24
1.3004222497298317 1.7538602528270884e-21 6.054089130060349e-14 6.054089129821182e-14 2.391665496902567e-24
1.3400274889804893 1.806073556496814e-21 6.424192920891884e-14 6.424192920473068e-14 4.188174308909906e-24
1.3808389325824078 1.854016472520667e-21 6.795572417257655e-14 6.795572416537177e-14 7.204766515263418e-24
1.4228933163050095 1.897922393421584e-21 7.168366844839048e-14 7.168366843620906e-14 1.2181433620666093e-23
1.466228494730424 1.938848317842033e-21 7.545967364446281e-14 7.545967362421042e-14 2.0252384577300897e-23
1.5108834753276823 1.975998244428385e-21 7.924775331588271e-14 7.92477532827586e-14 3.312410883356033e-23
1.5568984535646726 2.0087281086150276e-21 8.301391138921405e-14 8.301391133586181e-14 5.335224794473494e-23
1.6043148490894465 2.0370976836741154e-21 8.675028120071203e-14 8.675028111593195e-14 8.478006895578875e-23
1.6531753430134553 2.061193218390237e-21 9.044968467012067e-14 9.044968453735826e-14 1.3276241542638544e-22
1.7035239163302658 2.0813011264980002e-21 9.411364361668916e-14 9.411364341176023e-14 2.0492892408911747e-22
1.755405889504358 2.099076537323929e-21 9.780819818505934e-14 9.780819787310053e-14 3.11958812477056e-22
1.8088679632656115 2.1141106922302163e-21 1.0150887691602193e-13 1.0150887644751792e-13 4.685040023413244e-22
1.8639582606462262 2.1261267244136145e-21 1.0519491874002364e-13 1.0519491804559746e-13 6.944261872745545e-22
1.9207263702978936 2.135325306566846e-21 1.0886768276754479e-13 1.0886768175129077e-13 1.0162540421067058e-21
1.979223391128241 2.1421736272591403e-21 1.1254311106450326e-13 1.125431095955353e-13 1.468967960583526e-21
2.039501978296691 2.1472308095171964e-21 1.1624446792265692e-13 1.1624446582461253e-13 2.0980443837946782e-21
2.1016163906111602 2.152063020739179e-21 1.200543401048236e-13 1.2005433714277375e-13 2.9620498617234394e-21
2.1656225393682647 2.157578357052137e-21 1.240277236400146e-13 1.2402771950479047e-13 4.135224112725245e-21
2.231578038680979 2.1638417537331797e-21 1.2817608682562008e-13 1.2817608111511832e-13 5.7105017956259216e-21
2.299542257339062 2.171396881456384e-21 1.3254093732146426e-13 1.3254092951857137e-13 7.802892924761731e-21
2.369576372248914 2.181446009988971e-21 1.3720963612159865e-13 1.37209625568283e-13 1.0553315656369588e-20
2.4417434235010123 2.195408793865767e-21 1.4229343359867442e-13 1.4229341946644877e-13 1.4132225658857265e-20
2.5161083711144245 2.2157165646282724e-21 1.4798339281619345e-13 1.4798337407199327e-13 1.8744200137597956e-20
2.5927381535095444 2.2463481551670563e-21 1.5459845836266703e-13 1.545984337305803e-13 2.463208674183998e-20
2.6717017477616296 2.2920539102420074e-21 1.6254822665282708e-13 1.625481945730175e-13 3.2079809555104527e-20
2.753070231689431 2.3599859489772295e-21 1.7246308117952548e-13 1.7246303976312634e-13 4.1416399115530656e-20
2.836916847834745 2.4663486280876915e-21 1.8572505916400317e-13 1.8572500614264643e-13 5.302135674998649e-20
2.9233170693905177 2.6468315441121547e-21 2.0538638798678731e-13 2.0538632066946867e-13 6.731731865949834e-20
2.967498994190263 2.80010427212768e-21 2.2056379097324618e-13 2.2056371546775498e-13 7.550549122986778e-20
3.0123486681368425 2.9791086379486503e-21 2.3821056116500276e-13 2.38210476586727e-13 8.457827574888677e-20
3.0578761833420214 3.379640980476678e-21 2.743215316941843e-13 2.7432143705194256e-13 9.46422417795415e-20
3.1040917844459814 3.895774237738184e-21 3.209946312601825e-13 3.209945255491831e-13 1.0571099932141556e-19
3.127460860933648 4.4417774595881186e-21 3.687381838267919e-13 3.687380721425077e-13 1.1168428419576067e-19
3.1510058709225794 5.169254966128617e-21 4.323610860218145e-13 4.3236096807660434e-13 1.1794521007073492e-19
3.162844764501044 5.846424806205341e-21 4.908374353908218e-13 4.908373141920118e-13 1.211988100029947e-19
3.1747281389236908 6.6339208879027184e-21 5.590443498079586e-13 5.590442252799516e-13 1.2452800702429353e-19
3.1986289994194426 8.830483863533037e-21 7.497522964174333e-13 7.497521649820766e-13 1.3143535677270275e-19
3.2227097969389145 1.4008325110002655e-20 1.1983311392140493e-12 1.1983310004208408e-12 1.387932087254114e-19
3.2348180950136065 1.8918545551293248e-20 1.6244525936422348e-12 1.6244524509114135e-12 1.4273082104811133e-19
3.240889293275058 2.258957199579913e-20 1.9433079687196613e-12 1.9433078239107894e-12 1.4480887226411147e-19
3.2469718861334385 2.683638158291882e-20 2.3129802251532633e-12 2.3129800781934008e-12 1.4695986345516239e-19
3.2714166318528037 4.948960887486549e-20 4.2975339066670115e-12 4.297533750785529e-12 1.5588148268464553e-19
3.2744851364798273 5.0905724207476784e-20 4.424651569644373e-12 4.424651412703634e-12 1.5694074084378279e-19
3.2775565192852394 5.2362514207937217e-20 4.555542616981528e-12 4.555542458975407e-12 1.5800612127307696e-19
3.283707930232385 5.096150052195621e-20 4.441975530526848e-12 4.4419753706008905e-12 1.5992595588276673e-19
3.2898708863219004 4.651851406139616e-20 4.062319904104907e-12 4.062319742418226e-12 1.6168668084335573e-19
3.29141343181113 4.5470747579079726e-20 3.972683481746519e-12 3.9726833196172885e-12 1.621292305782763e-19
3.292184975758714 4.4955912329955566e-20 3.928624107367577e-12 3.928623945016715e-12 1.6235086162722628e-19
3.295272960557952 4.170622391970614e-20 3.648057696942648e-12 3.648057533727224e-12 1.6321542409659248e-19
3.3076538914384823 3.0448326181640206e-20 2.673332115407549e-12 2.6733319487116777e-12 1.6669587065440928e-19
3.310756385682612 2.8157060904008664e-20 2.474480174780538e-12 2.4744800072056783e-12 1.6757486026524585e-19
3.313861789986515 2.60430134724719e-20 2.2908415956627395e-12 2.2908414272053204e-12 1.6845741868098837e-19
3.3200813396944477 2.3078292923773855e-20 2.033863667198613e-12 2.033863496848612e-12 1.7035000043066386e-19
3.345076488085796 1.7789474765923896e-20 1.5795690351561312e-12 1.5795688563815266e-12 1.787746046638509e-19
3.3482140837626964 1.7987785893774945e-20 1.5986756550546831e-12 1.5986754751386095e-12 1.7991607354872155e-19
3.3513546224236106 1.818828953251836e-20 1.6180117718339629e-12 1.6180115907703472e-12 1.8106361607435265e-19
3.3576445397418455 1.9653665938904506e-20 1.7516515599525664e-12 1.751651376491309e-12 1.8346125752042599e-19
3.3702598118196083 2.5058630172984862e-20 2.24176529452099e-12 2.2417651060262887e-12 1.8849470125965029e-19
3.382922481734668 2.628961730206189e-20 2.3607268709044503e-12 2.360726677489369e-12 1.9341508193132508e-19
3.389271646505754 2.692735370965193e-20 2.422531800133891e-12 2.4225316042184962e-12 1.959153946988846e-19
3.395632727569191 2.7614543426928834e-20 2.4890178482246186e-12 2.4890176497317565e-12 1.984928617137373e-19
3.421196662673239 3.091416356744237e-20 2.8074043804547998e-12 2.8074041712551485e-12 2.0919965156098946e-19
3.4276182099114902 3.024915602778175e-20 2.752169239648936e-12 2.7521690280283157e-12 2.1162061973496625e-19
3.4340518103208963 2.733521473832596e-20 2.4917172922742343e-12 2.491717078348846e-12 2.139253888103058e-19
3.4469541582030403 2.3185223889015673e-20 2.121369081206705e-12 2.1213688628263333e-12 2.1838037099435025e-19
3.472904465399547 2.2022084311690484e-20 2.030115236565272e-12 2.0301150079544186e-12 2.2861085412113033e-19
3.4990501388274233 2.0243154733966564e-20 1.880172920817493e-12 1.8801726816575514e-12 2.391599416980782e-19
3.5253949054701885 1.391254697432755e-20 1.3019186530203702e-12 1.3019184034933007e-12 2.49527069595664e-19
3.5519380250092896 7.962538146984066e-21 7.507344381176196e-13 7.507341780691017e-13 2.600485180120358e-19
3.578680990867387 5.6032483756424205e-21 5.322703730623719e-13 5.322701014516488e-13 2.716107230940259e-19
3.605625307711299 4.648873093009164e-21 4.449361752301068e-13 4.449358913697763e-13 2.8386033047317326e-19
3.660119384959845 3.952426128042879e-21 3.83997543386949e-13 3.839972334866546e-13 3.09900294410971e-19
3.715437065384467 3.459098155002112e-21 3.411475275191003e-13 3.411471897181881e-13 3.378009122394213e-19
3.8285932144167436 3.208033573419439e-21 3.2602249226915807e-13 3.260220928888587e-13 3.993802993428048e-19
3.94519561050918 3.1589782163826548e-21 3.308145521512872e-13 3.308140830956034e-13 4.690556837565058e-19
4.06534921144712 3.1928161363276847e-21 3.4454123011347607e-13 3.445406826251929e-13 5.474882832215704e-19
4.189162171576248 3.2745988757747954e-21 3.641285356473954e-13 3.641279000185896e-13 6.356288057255081e-19
4.316745939156006 3.391280146646168e-21 3.8858818307066706e-13 3.885874489346487e-13 7.341360183036182e-19
4.448215356677963 3.53844998938963e-21 4.1779986954081806e-13 4.1779902668173724e-13 8.428590807692772e-19
4.58368876423945 3.716584993901575e-21 4.52197985379701e-13 4.521970223425057e-13 9.63037195345822e-19
4.723288106065518 3.929772667057253e-21 4.926985653820089e-13 4.926974687837389e-13 1.0965982698939096e-18
4.867139040275056 4.186245476691402e-21 5.4083884581927e-13 5.40837603552427e-13 1.242266843131308e-18
4.940699165968905 4.3411105118957666e-21 5.693229432061284e-13 5.693216227463664e-13 1.3204597621124554e-18
5.015371051989984 4.501414165989437e-21 5.992685349280241e-13 5.992671326257074e-13 1.402302316577e-18
5.091171501069577 4.6972865538864995e-21 6.347960485513478e-13 6.347945591941118e-13 1.4893572360004958e-18
5.129500256944802 4.797784421593152e-21 6.532587249798045e-13 6.532571906099721e-13 1.5343698324019157e-18
5.168117569889187 4.902561891384838e-21 6.725505047765757e-13 6.725489240988131e-13 1.5806777625766277e-18
5.20702561229733 5.031370620763277e-21 6.954172454702993e-13 6.954156149520571e-13 1.6305182421106395e-18
5.246226572918644 5.163451269694922e-21 7.190458078652296e-13 7.190441262902925e-13 1.6815749370994976e-18
5.265937586045735 5.2307511825736776e-21 7.31154575867786e-13 7.311528683012899e-13 1.7075664962302431e-18
5.285722656980489 5.298908789960068e-21 7.434645221669219e-13 7.434627882961885e-13 1.7338707332321233e-18
5.305582063971359 5.367937938096831e-21 7.559793896906043e-13 7.559776292000106e-13 1.7604905940006562e-18
5.3255160863122235 5.442136783221743e-21 7.693085994764226e-13 7.693068119120433e-13 1.7875643792784213e-18
5.365609099470188 5.627243479020856e-21 8.014642766205891e-13 8.014624328761029e-13 1.84374448613478e-18
5.406003951863644 5.8193981607319315e-21 8.350718891002453e-13 8.350699877783013e-13 1.9013219438392007e-18
5.446702915881641 6.018942480721964e-21 8.702084857208854e-13 8.702065253956257e-13 1.9603252597774355e-18
5.487708281020852 6.234625860088898e-21 9.081777265834093e-13 9.081757056281771e-13 2.0209552319773892e-18
5.529022354014368 6.534987030539289e-21 9.590969477085167e-13 9.59094863110531e-13 2.084597985766916e-18
5.570647458961463 6.853097268510166e-21 1.0133559079448988e-12 1.0133537580764623e-12 2.1498684363575984e-18
5.612585937458331 7.190237655255152e-21 1.0712126236946314e-12 1.0712104068917157e-12 2.2168029157603543e-18
5.654840148729818 7.560955484138909e-21 1.1349231295348454e-12 1.1349208438656171e-12 2.2856692284811164e-18
5.67608639626678 7.813757037261679e-21 1.1772761160467513e-12 1.1772737942828389e-12 2.321763912013417e-18
5.686739436050992 7.944074402479325e-21 1.1991570514297542e-12 1.1991547114399245e-12 2.3399898294252036e-18
5.6974124697621304 8.077086283908594e-21 1.221523473660032e-12 1.2215211153242726e-12 2.35833575954771e-18
5.718818669136295 8.351453601889767e-21 1.2677622974918726e-12 1.267759902101294e-12 2.3953905780722776e-18
5.740305295436557 8.6539822115393e-21 1.3186223178866601e-12 1.3186198847334747e-12 2.43315318530995e-18
5.7835210386641895 9.43939377174462e-21 1.4491250244629072e-12 1.4491225125466806e-12 2.5119162268959064e-18
5.827062130521658 1.0344471380944829e-20 1.6000272685857409e-12 1.600024675198764e-12 2.5933869769684665e-18
5.8489554468988025 1.0979820780625437e-20 1.7046805172296994e-12 1.704677879957469e-12 2.6372722300132397e-18
5.870931020387893 1.1661714210049503e-20 1.8173509606262554e-12 1.8173482788059282e-12 2.681820327631077e-18
5.892989160043636 1.2393900627716328e-20 1.9387110471321787e-12 1.9387083200905992e-12 2.7270415788622517e-18
5.915130176081913 1.322677236711449e-20 2.0767662586521506e-12 2.076763484673451e-12 2.773978699161737e-18
5.95966208400165 1.555640846805561e-20 2.460936494820219e-12 2.460933615686171e-12 2.879134047004642e-18
6.004529249263818 1.8915350929094918e-20 3.0148298094245464e-12 3.0148268119703602e-12 2.99745418678777e-18
6.027089341400364 2.1250730002171076e-20 3.3997807905643713e-12 3.3997777253582627e-12 3.0652061079294783e-18
6.049734195844842 2.4010842310198124e-20 3.855787777210133e-12 3.855784640046221e-12 3.1371639134186045e-18
6.095279466722835 3.1984838165955396e-20 5.174962575428227e-12 5.1749592639251574e-12 3.3115030697732288e-18
6.141167624020661 4.425826668624616e-20 7.214642006673247e-12 7.214638471307053e-12 3.535366193885632e-18
6.164241091010745 5.2096261337623225e-20 8.52423878170343e-12 8.52423510761819e-12 3.674085239720752e-18
6.187401249150058 6.102551891072259e-20 1.0022803009096107e-11 1.0022799190449179e-11 3.8186469301829125e-18
6.1990139391386085 6.538542788446213e-20 1.075902746311531e-11 1.0759023570608095e-11 3.892507215030955e-18
6.204828454712694 6.768212582177609e-20 1.114739019314454e-11 1.1147386263101846e-11 3.930042692256784e-18
6.210648424152782 6.935855733745505e-20 1.1434216983260831e-11 1.1434213020687325e-11 3.962573507207024e-18
6.233982942956859 7.505393323392616e-20 1.2419625468487766e-11 1.2419621389398731e-11 4.079089035321402e-18
6.239830258556775 7.578181753533548e-20 1.2551835124714476e-11 1.2551831027374066e-11 4.0973404071359506e-18
6.245683058788269 7.584460600467278e-20 1.2574017908753325e-11 1.257401379308344e-11 4.115669883502226e-18
6.257405133728602 7.568737610591875e-20 1.2571501651981704e-11 1.2571497502988028e-11 4.148993674835849e-18
6.269149208991335 7.456619928842614e-20 1.2408521761654413e-11 1.2408517594636441e-11 4.167017971201527e-18
6.280915325867298 7.175571983375401e-20 1.1963242253618126e-11 1.1963238087612048e-11 4.16600607889148e-18
6.304513850009849 6.482537983171715e-20 1.0848410398030861e-11 1.08484062514252e-11 4.146605662559676e-18
6.32820103803542 5.623539971122905e-20 9.446251127414222e-12 9.44624701921056e-12 4.1082036613202456e-18
6.3519772230701035 4.835769480920979e-20 8.153497741281344e-12 8.15349366598022e-12 4.075301125137111e-18
6.375842739491607 4.173042102721831e-20 7.0625217142054395e-12 7.0625176656553216e-12 4.048550120140966e-18
6.399797922933955 3.641833051271786e-20 6.186652564014211e-12 6.1866485205424126e-12 4.043471796496383e-18
6.42384311029221 3.200184173105624e-20 5.456816273468483e-12 5.456812230386866e-12 4.043081617658509e-18
6.447978639727206 2.878293937572583e-20 4.9263829230475916e-12 4.9263788627609294e-12 4.060286660724675e-18
6.472204850670314 2.610136112062382e-20 4.484198643365655e-12 4.484194562054364e-12 4.081311291673033e-18
6.496522083828205 2.435796125701941e-20 4.200406167721789e-12 4.200402050713542e-12 4.117008246377693e-18
