Dust emission spectrum from A.P. Jones, M. Kohler, N. Ysard, M. Bocchio, and L. Verstraete (2017), A&A, 602A, 46J 
inside the DustPedia framework.

lambda    nu*dP/dnu     j_nu    j_nu(carb.) j_nu(sil)
 (um)   (erg s-1 H-1) (Jy cm2 sr-1 H-1)
0.9927057738263894 8.053044496933252e-23 2.122022965321506e-15 2.1220229584220616e-15 6.899444364510847e-24
1.0001793341362166 8.187161513357919e-23 2.1736052179212114e-15 2.173605209613903e-15 8.307308225668529e-24
1.0077091589558085 8.321314866160044e-23 2.2258535895693275e-15 2.225853579579973e-15 9.98935403949407e-24
1.0114953028030835 8.388391757576038e-23 2.252226210015689e-15 2.2522261990670018e-15 1.0948687502399784e-23
1.0152956718711033 8.455461704386289e-23 2.278763711167728e-15 2.278763699171522e-15 1.1996206477822362e-23
1.0229392996569957 8.589494157398244e-23 2.3323132818905596e-15 2.3323132675030845e-15 1.4387474800183416e-23
1.0267826658714554 8.656297564801863e-23 2.359283543840913e-15 2.359283528091805e-15 1.5749108025850957e-23
1.0306404723013447 8.723069717407855e-23 2.386414995611735e-15 2.3864149783778018e-15 1.7233933311322098e-23
1.03451277320114 8.789805495436417e-23 2.4137070296853854e-15 2.4137070108328443e-15 1.8852540993469032e-23
1.0383996230291617 8.856499821376468e-23 2.441159032669241e-15 2.441159012052861e-15 2.061638042071894e-23
1.0403485208654093 8.889829864980114e-23 2.4549448293110905e-15 2.4549448077544995e-15 2.1556590794355871e-23
1.0423010764483396 8.923147661329781e-23 2.4687703857033283e-15 2.4687703631655028e-15 2.2537825134761435e-23
1.0462171883269815 8.989744026335602e-23 2.4965404648719675e-15 2.4965404402417248e-15 2.4630242627630302e-23
1.0471985131304309 9.006384494367185e-23 2.5035077120597465e-15 2.503507686878018e-15 2.518172862736688e-23
1.048180758391296 9.023021359292096e-23 2.5104848305028665e-15 2.510484804757833e-15 2.5745033550653716e-23
1.0501480137395462 9.056283973675517e-23 2.5244686416193362e-15 2.524468614711267e-15 2.690806896663124e-23
1.0521189612883777 9.089531259082251e-23 2.5384918189956874e-15 2.5384917908743545e-15 2.8121333440378413e-23
1.0531058218030118 9.106124564948291e-23 2.5455113248760632e-15 2.5455112961285795e-15 2.874748400609632e-23
1.0540936079674168 9.12263387400887e-23 2.552518263278963e-15 2.5525182338918514e-15 2.93871109940957e-23
1.058054026499678 9.188625706774419e-23 2.5806424595130673e-15 2.580642427428514e-15 3.208455308814129e-23
1.0590464539527713 9.205111941966742e-23 2.587697568267876e-15 2.5876975354728108e-15 3.279506537298194e-23
1.06003981227728 9.221593339817756e-23 2.5947622804793994e-15 2.5947622469587743e-15 3.3520624705666386e-23
1.0620293250338977 9.254541328853295e-23 2.608920474348224e-15 2.6089204393301215e-15 3.501810216010509e-23
1.0660195594769086 9.320376029398537e-23 2.6373516528891714e-15 2.637351614681827e-15 3.820734408527906e-23
1.070024785945596 9.386125151065416e-23 2.6659353380243757e-15 2.665935296350982e-15 4.1673393278565717e-23
1.0740450607676866 9.45178409117881e-23 2.694670870865121e-15 2.6946708254261177e-15 4.54390038983536e-23
1.07808044048254 9.517348302879392e-23 2.7235575911878846e-15 2.7235575416591966e-15 4.95286885000495e-23
1.0861967418109137 9.648063842546514e-23 2.7817500042032464e-15 2.7817499454153486e-15 5.878789681423424e-23
1.0902777775684922 9.712954406894862e-23 2.8109812154651695e-15 2.8109811514487316e-15 6.40164376758312e-23
1.0943741465085532 9.777728219697439e-23 2.840358896765506e-15 2.840358827078155e-15 6.968735040410392e-23
1.1026131145906286 9.906908760903254e-23 2.899550987667787e-15 2.8995509051673282e-15 8.250045915865289e-23
1.1109141095355224 1.0035572443374933e-22 2.9593209323046464e-15 2.9593208347614295e-15 9.75432177113795e-23
1.1192775983109025 1.0163574063403591e-22 3.01962978859033e-15 3.019629673410041e-15 1.1518028824671464e-22
1.1277040513999907 1.0290362468514494e-22 3.0803158204830226e-15 3.0803156846511037e-15 1.3583191859439262e-22
1.1361939428280308 1.041652485273068e-22 3.1415556487177245e-15 3.1415554887360004e-15 1.5998172365988732e-22
1.1447477501889525 1.0542032780872609e-22 3.2033441103875285e-15 3.203343922202006e-15 1.8818552155110094e-22
1.1533659546722406 1.066691939702241e-22 3.2656946452510644e-15 3.265694424169498e-15 2.2108156415944233e-22
1.1707974979042381 1.0915221317307448e-22 3.392218080340749e-15 3.392217776355608e-15 3.039851412678994e-22
1.1884924949847024 1.1160692089681452e-22 3.520926857606739e-15 3.5209264417108548e-15 4.1589588408520906e-22
1.2064549276569216 1.1405155626647288e-22 3.652428730787278e-15 3.652428164574097e-15 5.662131812554363e-22
1.2246888378427687 1.1646321970486155e-22 3.786029424633695e-15 3.786028657530593e-15 7.671031012214026e-22
1.2431983285522175 1.1883755774365094e-22 3.9216024799959855e-15 3.921601445738072e-15 1.0342579131365715e-21
1.2619875648066055 1.2117523387477425e-22 4.059180608730474e-15 4.059179220915706e-15 1.3878147677444752e-21
1.3004222497298317 1.257107915862609e-22 4.339367037065162e-15 4.339364573246782e-15 2.4638183787710165e-21
1.3400274889804893 1.3006414485195448e-22 4.626373912702024e-15 4.626369618440703e-15 4.294261320612965e-21
1.3808389325824078 1.3423227268228692e-22 4.920048679531831e-15 4.920041328085461e-15 7.351446368727002e-21
1.4228933163050095 1.3824211211297428e-22 5.221341907688024e-15 5.221329540373152e-15 1.236731487207657e-20
1.466228494730424 1.4217859520703955e-22 5.5335687143864066e-15 5.53354825876363e-15 2.0455622776065014e-20
1.5108834753276823 1.45999436531566e-22 5.855332798566536e-15 5.8552995191670114e-15 3.327939952479612e-20
1.5568984535646726 1.4967227409071591e-22 6.185446823540255e-15 6.185393512374191e-15 5.331116606496438e-20
1.6043148490894465 1.5321363006573863e-22 6.524638262811442e-15 6.524554017882313e-15 8.424492912811531e-20
1.6531753430134553 1.566423228215999e-22 6.873809101833823e-15 6.873677928283223e-15 1.3117355059782635e-19
1.7035239163302658 1.5998955529543725e-22 7.234512967761962e-15 7.234311674800232e-15 2.0129296172943895e-19
1.755405889504358 1.6338287317724367e-22 7.612959392198763e-15 7.612654807787026e-15 3.0458441173431914e-19
1.8088679632656115 1.6680409740060884e-22 8.009087061692376e-15 8.008632453754466e-15 4.546079379079968e-19
1.8639582606462262 1.7024022151405763e-22 8.423019222146342e-15 8.422349663347629e-15 6.6955879871334255e-19
1.9207263702978936 1.7371076989701749e-22 8.85649082708628e-15 8.855517349303196e-15 9.734777830816676e-19
1.979223391128241 1.7725198263219884e-22 9.31226550170099e-15 9.310867794908728e-15 1.3977067922603565e-18
2.039501978296691 1.8090224392674596e-22 9.79349075938772e-15 9.791508259347658e-15 1.982500040062485e-18
2.1016163906111602 1.8477196070050232e-22 1.0307633000521528e-14 1.030485395140853e-14 2.779049113001361e-18
2.1656225393682647 1.8892013351943194e-22 1.086001536565124e-14 1.0856164006098703e-14 3.851359552537875e-18
2.231578038680979 1.933368864475491e-22 1.1452392718248581e-14 1.1447114329540602e-14 5.2783887079812654e-18
2.299542257339062 1.9804664893080735e-22 1.2088664539786218e-14 1.2081508208344055e-14 7.156331442166637e-18
2.369576372248914 2.0311357065463372e-22 1.2775534665202097e-14 1.276593356073233e-14 9.60110446976587e-18
2.4417434235010123 2.0861348031796952e-22 1.3521093881173706e-14 1.350834348150023e-14 1.2750399673474652e-17
2.5161083711144245 2.146887585719041e-22 1.4338643940362056e-14 1.4321877616136587e-14 1.6766324225465975e-17
2.5927381535095444 2.215806418942134e-22 1.524965111087512e-14 1.5227813802453926e-14 2.1837308421199356e-17
2.6717017477616296 2.2955870294122138e-22 1.6279878893371578e-14 1.625170035515045e-14 2.8178538221127706e-17
2.753070231689431 2.390339800209484e-22 1.746812802800108e-14 1.7432094959591272e-14 3.603306840981101e-17
2.836916847834745 2.5099208423304415e-22 1.8900620602863596e-14 1.885494683644715e-14 4.5673766416446155e-17
2.9233170693905177 2.6762610210460205e-22 2.0767002933949553e-14 2.070961047797576e-14 5.739245597379831e-17
2.967498994190263 2.798790017377361e-22 2.2046026732488763e-14 2.1982011066724205e-14 6.401566576456034e-17
3.0123486681368425 2.937103530423483e-22 2.3485181818131068e-14 2.3413873525185746e-14 7.130829294532765e-17
3.0578761833420214 3.2144905509607437e-22 2.609164632131016e-14 2.601229739193853e-14 7.934892937162303e-17
3.1040917844459814 3.5618339551618217e-22 2.9347942341519325e-14 2.925981708934434e-14 8.812525217497607e-17
3.127460860933648 3.9155890627800097e-22 3.250561768926252e-14 3.241278293599511e-14 9.28347532674082e-17
3.1510058709225794 4.381012059160878e-22 3.664317477441164e-14 3.654542338030957e-14 9.775139410207808e-17
3.162844764501044 4.810853188399467e-22 4.038958712903383e-14 4.028928841676567e-14 1.0029871226815816e-16
3.1747281389236908 5.307277724226735e-22 4.472473631696563e-14 4.4621836426504945e-14 1.0289989046069271e-16
3.1986289994194426 6.681732373232386e-22 5.6731253556397446e-14 5.662297333824523e-14 1.0828021815221273e-16
3.2227097969389145 9.90697390899408e-22 8.474842807618481e-14 8.463443867766692e-14 1.1398939851789953e-16
3.2348180950136065 1.2957543627195774e-21 1.1126074832423741e-13 1.111437101320552e-13 1.170381921821861e-16
3.240889293275058 1.5237855548651731e-21 1.3108635311638833e-13 1.3096770672457444e-13 1.1864639181386454e-16
3.2469718861334385 1.7877237804578388e-21 1.5408074816118645e-13 1.5396043770760704e-13 1.2031045357939494e-16
3.2714166318528037 3.1902350245023935e-21 2.7703074442761916e-13 2.7690355064850237e-13 1.2719377911681922e-16
3.2744851364798273 3.2779839877360545e-21 2.849176045014441e-13 2.8478959767445366e-13 1.280068269903802e-16
3.2775565192852394 3.3682133491701184e-21 2.930348110157147e-13 2.929059869025265e-13 1.2882411318820478e-16
3.283707930232385 3.281791897248258e-21 2.860520030719547e-13 2.859217136157158e-13 1.3028945623893854e-16
3.2898708863219004 3.0070553220583727e-21 2.6259696669201157e-13 2.6246534021216526e-13 1.3162647984628562e-16
3.29141343181113 2.9422287408817665e-21 2.570563305143138e-13 2.569243682088656e-13 1.3196230544819952e-16
3.292184975758714 2.9103697401144238e-21 2.5433248108609647e-13 2.5420035063201205e-13 1.3213045408449308e-16
3.295272960557952 2.709809527063693e-21 2.370279678516356e-13 2.3689518267538227e-13 1.3278517625334535e-16
3.3076538914384823 2.0136462710914267e-21 1.7679609754132582e-13 1.766606808942836e-13 1.3541664704221455e-16
3.310756385682612 1.8715823459718427e-21 1.64477159969393e-13 1.6434107966786842e-13 1.3608030152460922e-16
3.313861789986515 1.7403589786975286e-21 1.5308853347557712e-13 1.5295178719847418e-13 1.3674627710298665e-16
3.3200813396944477 1.5565362882314254e-21 1.3717577005225056e-13 1.3703759293195976e-13 1.3817712029079613e-16
3.345076488085796 1.2304336607071974e-21 1.092530800285241e-13 1.09108530583718e-13 1.4454944480614202e-16
3.3482140837626964 1.2429647804204402e-21 1.1046926766213201e-13 1.1032385514425504e-13 1.4541251787701092e-16
3.3513546224236106 1.2556285530444598e-21 1.1169944134903388e-13 1.1155316167289684e-13 1.462796761370415e-16
3.3576445397418455 1.3470337219149316e-21 1.200556541276249e-13 1.19907562040986e-13 1.4809208663887766e-16
3.3702598118196083 1.6825780922267575e-21 1.5052479510798365e-13 1.5037290101160713e-13 1.5189409637643906e-16
3.382922481734668 1.7601231851267328e-21 1.580536548512145e-13 1.5789805819845824e-13 1.555966527562736e-16
3.389271646505754 1.800250997401227e-21 1.619604115744949e-13 1.6180293682903175e-13 1.5747474546312814e-16
3.395632727569191 1.8437200728819662e-21 1.6618243863695778e-13 1.6602302835248635e-13 1.5941028447143024e-16
3.421196662673239 2.053001737186152e-21 1.8643901063290386e-13 1.862715801892397e-13 1.6743044366410506e-16
3.4276182099114902 2.0122601612712818e-21 1.8308214989322296e-13 1.829129218927997e-13 1.6922800042329944e-16
3.4340518103208963 1.83155668360425e-21 1.669539275255259e-13 1.6678299559893268e-13 1.7093192659315839e-16
3.4469541582030403 1.5737438047964663e-21 1.4399220232751263e-13 1.4381799228491025e-13 1.7421004260236552e-16
3.472904465399547 1.5020994501885418e-21 1.384716785888099e-13 1.3828992812533265e-13 1.8175046347722769e-16
3.4990501388274233 1.3925092860552197e-21 1.2933548579929798e-13 1.2914600149922068e-13 1.894843000773087e-16
3.5253949054701885 1.0013852891923942e-21 9.37083762782975e-14 9.351135059163549e-14 1.9702568666201767e-16
3.5519380250092896 6.323602136222322e-22 5.962101291049229e-14 5.941638467571351e-14 2.046282347787715e-16
3.578680990867387 4.867490722686134e-22 4.623784150108714e-14 4.602487687268244e-14 2.1296462840470313e-16
3.605625307711299 4.287250951160497e-22 4.1032590098652285e-14 4.08108315993391e-14 2.2175849931319278e-16
3.660119384959845 3.8813719145119896e-22 3.770942787694106e-14 3.746913168368954e-14 2.4029619325151157e-16
3.715437065384467 3.598362297710894e-22 3.54882210904267e-14 3.5228291216084827e-14 2.5992987434187567e-16
3.8285932144167436 3.4908305218050106e-22 3.5476226815015136e-14 3.5173778622687795e-14 3.024481923273362e-16
3.94519561050918 3.5064420858566154e-22 3.672016673813523e-14 3.637086678678661e-14 3.4929995134861105e-16
4.06534921144712 3.570947118965646e-22 3.853458703869208e-14 3.813403310321505e-14 4.0055393547703055e-16
4.189162171576248 3.6625402589420144e-22 4.072668048304511e-14 4.027025132641288e-14 4.564291566322407e-16
4.316745939156006 3.7728537365160955e-22 4.323106069293814e-14 4.2714197682947383e-14 5.16863009990755e-16
4.448215356677963 3.898906942782131e-22 4.603605581344261e-14 4.545486759576676e-14 5.811882176758407e-16
4.58368876423945 4.040801768824831e-22 4.91645535398648e-14 4.8514934329845534e-14 6.496192100192606e-16
4.723288106065518 4.2009361065176965e-22 5.266959105022948e-14 5.194687612646817e-14 7.227149237613174e-16
4.867139040275056 4.3840584847355855e-22 5.663951490877563e-14 5.584068624542651e-14 7.988286633491155e-16
4.940699165968905 4.490810850299866e-22 5.889556701375502e-14 5.805728876071684e-14 8.38278253038198e-16
5.015371051989984 4.599577152994508e-22 6.123368701750112e-14 6.035512130975216e-14 8.785657077489526e-16
5.091171501069577 4.729783296649748e-22 6.391876911859305e-14 6.299825369384098e-14 9.20515424752069e-16
5.129500256944802 4.795845347978739e-22 6.529947037888372e-14 6.435768702928263e-14 9.417833496010997e-16
5.168117569889187 4.864221722536119e-22 6.672908669619592e-14 6.576565785840843e-14 9.63428837787491e-16
5.20702561229733 4.947771035462181e-22 6.838624231933173e-14 6.739931639103567e-14 9.86925928296069e-16
5.246226572918644 5.032822150643563e-22 7.008548120500301e-14 6.907479344347583e-14 1.0106877615271654e-15
5.265937586045735 5.075927490312424e-22 7.095133149669255e-14 6.992866528869216e-14 1.022666208000384e-15
5.285722656980489 5.119428537562863e-22 7.182825072698712e-14 7.079354200950784e-14 1.0347087174792623e-15
5.305582063971359 5.163332394512469e-22 7.271643072977071e-14 7.166961617234192e-14 1.046814557428786e-15
5.3255160863122235 5.210434211613982e-22 7.36554777226272e-14 7.25964097553053e-14 1.0590679673219082e-15
5.365609099470188 5.327870969813365e-22 7.588259275911595e-14 7.479817096717582e-14 1.0844217919401563e-15
5.406003951863644 5.448921189494153e-22 7.819091915678329e-14 7.708086056618004e-14 1.1100585906032484e-15
5.446702915881641 5.573769316187728e-22 8.058461053469756e-14 7.944863775324654e-14 1.1359727814510009e-15
5.487708281020852 5.708054637255067e-22 8.314738045246995e-14 8.198512285987242e-14 1.16225759259753e-15
5.529022354014368 5.895855419905033e-22 8.652958163399732e-14 8.533990092463878e-14 1.189680709358531e-15
5.570647458961463 6.093349485828846e-22 9.010132876721934e-14 8.88839183349688e-14 1.217410432250539e-15
5.612585937458331 6.301247755655415e-22 9.38769546226635e-14 9.263151330706305e-14 1.2454413156004444e-15
5.654840148729818 6.528784628582823e-22 9.799910471995157e-14 9.672521298225413e-14 1.273891737697463e-15
5.67608639626678 6.684974147578099e-22 1.0072056710751955e-13 9.943180039413432e-14 1.2887667133851955e-15
5.686739436050992 6.765270575204178e-22 1.0212167590669079e-13 1.0082543957113814e-13 1.2962363355526095e-15
5.6974124697621304 6.847081711449983e-22 1.0355059662129903e-13 1.0224686934644495e-13 1.3037272748540675e-15
5.718818669136295 7.015394316554936e-22 1.0649466357035869e-13 1.0517589078707883e-13 1.3187727832798594e-15
5.740305295436557 7.200883118724819e-22 1.0972110823364989e-13 1.083871023984827e-13 1.3340058351671475e-15
5.7835210386641895 7.683845774172569e-22 1.1796152872441353e-13 1.1659599710820701e-13 1.3655316162065113e-15
5.827062130521658 8.237285626601148e-22 1.2740990947076712e-13 1.2601222617455599e-13 1.3976832962111406e-15
5.8489554468988025 8.628132092575913e-22 1.3395672818496282e-13 1.3254172755434784e-13 1.4150006306149502e-15
5.870931020387893 9.04584606476676e-22 1.4096964425105148e-13 1.3953720601136408e-13 1.4324382396873813e-15
5.892989160043636 9.492566970805256e-22 1.484871067207608e-13 1.4703711097944617e-13 1.4499957413146811e-15
5.915130176081913 1.0000204772168187e-21 1.5701553843994819e-13 1.5554735404458893e-13 1.4681843953592797e-15
5.95966208400165 1.1424185915837162e-21 1.8072420830056023e-13 1.7921483959600364e-13 1.5093687045566041e-15
6.004529249263818 1.3474843944602332e-21 2.147692704925924e-13 2.1321369002997801e-13 1.5555804626144072e-15
6.027089341400364 1.4901447138144913e-21 2.3839959251611445e-13 2.3681744211458455e-13 1.582150401529818e-15
6.049734195844842 1.6583104490634098e-21 2.663002437695732e-13 2.6468997225143497e-13 1.610271518138185e-15
6.095279466722835 2.1442263253105456e-21 3.469234682119147e-13 3.4524452927980597e-13 1.6789389321086595e-15
6.141167624020661 2.890634884411562e-21 4.712090514270333e-13 4.694415510262114e-13 1.7675004008219662e-15
6.164241091010745 3.3674287606288985e-21 5.50994756609265e-13 5.49171944762848e-13 1.8228118464168638e-15
6.187401249150058 3.908748095819058e-21 6.419709799418082e-13 6.400912916202833e-13 1.8796883215248578e-15
6.1990139391386085 4.172882316149014e-21 6.866385507047261e-13 6.847299052392213e-13 1.908645465505053e-15
6.204828454712694 4.311860876293557e-21 7.101726646879882e-13 7.082493848120317e-13 1.9232798759565625e-15
6.210648424152782 4.413196619261023e-21 7.275446559378399e-13 7.25608843338843e-13 1.9358125989970203e-15
6.233982942956859 4.756580324461936e-21 7.870999372740667e-13 7.851201549806221e-13 1.9797822934446227e-15
6.239830258556775 4.799974678579425e-21 7.95025676709861e-13 7.930395871873491e-13 1.986089522511801e-15
6.245683058788269 4.8029497831705196e-21 7.962646227565377e-13 7.942722127923572e-13 1.9924099641803885e-15
6.257405133728602 4.791709409754777e-21 7.958920742112734e-13 7.938884800703212e-13 2.003594140952034e-15
6.269149208991335 4.721932833174597e-21 7.857743438267464e-13 7.837660558709106e-13 2.008287955835791e-15
6.280915325867298 4.5496065560883456e-21 7.585185615200406e-13 7.565136156439688e-13 2.0049458760719866e-15
6.304513850009849 4.125703850755984e-21 6.904290984476229e-13 6.884381199050648e-13 1.990978542558077e-15
6.32820103803542 3.602016396400793e-21 6.050557410490193e-13 6.030864794713203e-13 1.9692615776990904e-15
6.3519772230701035 3.1221732297884948e-21 5.264236121553362e-13 5.244736102954505e-13 1.950001859885663e-15
6.375842739491607 2.7180154128739638e-21 4.600011790067246e-13 4.58067927021877e-13 1.933251984847614e-15
6.399797922933955 2.394827337059501e-21 4.068271245991496e-13 4.0490138677688563e-13 1.925737822263948e-15
6.42384311029221 2.125665077422488e-21 3.624592573109959e-13 3.6053919744621344e-13 1.9200598647824222e-15
6.447978639727206 1.9296594161220737e-21 3.302734675840259e-13 3.2835185601839965e-13 1.9216115656263258e-15
6.472204850670314 1.7660829178254405e-21 3.0341201700498997e-13 3.014874067857766e-13 1.9246102192132784e-15
6.496522083828205 1.6596524595036991e-21 2.861986006798918e-13 2.842651086475724e-13 1.9334920323194536e-15
