Dust emission spectrum from A.P. Jones, M. Kohler, N. Ysard, M. Bocchio, and L. Verstraete (2017), A&A, 602A, 46J 
inside the DustPedia framework.

lambda    nu*dP/dnu     j_nu    j_nu(carb.) j_nu(sil)
 (um)   (erg s-1 H-1) (Jy cm2 sr-1 H-1)
0.9927057738263894 4.8207844906136934e-24 1.270304094785978e-16 1.2703040330196166e-16 6.176636166099181e-24
1.0001793341362166 4.9014510167910625e-24 1.3012836607778945e-16 1.3012835864078182e-16 7.437007636952695e-24
1.0077091589558085 4.982201191689069e-24 1.3326800613657263e-16 1.3326799719373578e-16 8.942836868673311e-24
1.0114953028030835 5.0226004016416835e-24 1.3485340925805215e-16 1.3485339945638468e-16 9.801667442452805e-24
1.0152956718711033 5.0630118718700145e-24 1.3644917481967572e-16 1.364491640802308e-16 1.073944492806471e-23
1.0229392996569957 5.143820894667459e-24 1.3967064384071932e-16 1.3967063096052307e-16 1.2880196215040208e-23
1.0267826658714554 5.184123548609211e-24 1.4129386479509069e-16 1.4129385069591036e-16 1.4099180321917136e-23
1.0306404723013447 5.224425186685946e-24 1.4292728377578373e-16 1.4292726834733323e-16 1.542845048833142e-23
1.03451277320114 5.264723072002033e-24 1.4457087923999862e-16 1.4457086236251108e-16 1.6877487573071123e-23
1.0383996230291617 5.305014495561204e-24 1.462246295429582e-16 1.4622461108641672e-16 1.8456541453639038e-23
1.0403485208654093 5.3251569454681554e-24 1.470553059743661e-16 1.4705528667611377e-16 1.9298252335086098e-23
1.0423010764483396 5.345296777155089e-24 1.478885129675119e-16 1.4788849279082252e-16 2.0176689379312778e-23
1.0462171883269815 5.3855672662442666e-24 1.495625077541755e-16 1.4956248570427712e-16 2.2049898420248122e-23
1.0471985131304309 5.3956327382233055e-24 1.499825837996627e-16 1.499825612560537e-16 2.254360895563436e-23
1.048180758391296 5.4056972686337505e-24 1.5040329010437496e-16 1.504032670564748e-16 2.3047900225756345e-23
1.0501480137395462 5.425823342831761e-24 1.5124659213160567e-16 1.512465680425134e-16 2.4089092274456947e-23
1.0521189612883777 5.4459451662529976e-24 1.5209241111766822e-16 1.5209238594241703e-16 2.5175251221710257e-23
1.0531058218030118 5.455989925407752e-24 1.5251585945787032e-16 1.5251583372206609e-16 2.5735804220663348e-23
1.0540936079674168 5.4659861320986095e-24 1.529386098543504e-16 1.5293858354592862e-16 2.6308421808133394e-23
1.058054026499678 5.5059563809190416e-24 1.5463579941395262e-16 1.546357706906815e-16 2.872327110813511e-23
1.0590464539527713 5.515945102938816e-24 1.5506164204804016e-16 1.5506161268869235e-16 2.9359347818540686e-23
1.06003981227728 5.525932211073697e-24 1.55488102081755e-16 1.554880720728598e-16 3.000889519919084e-23
1.0620293250338977 5.545901431151402e-24 1.563428729561986e-16 1.5634284160670658e-16 3.134949205226217e-23
1.0660195594769086 5.58581881247219e-24 1.5805980822389235e-16 1.5805977401927374e-16 3.4204618635903416e-23
1.070024785945596 5.6257060899455715e-24 1.597865831228816e-16 1.5978654581532836e-16 3.7307553259284536e-23
1.0740450607676866 5.665560864842051e-24 1.6152317575526877e-16 1.6152313507660245e-16 4.067866628126441e-23
1.07808044048254 5.705380775449146e-24 1.6326956445306064e-16 1.6326952011315838e-16 4.433990224233788e-23
1.0861967418109137 5.78484083537679e-24 1.6678974435431566e-16 1.6678969172522988e-16 5.2629085823122044e-23
1.0902777775684922 5.824326562835682e-24 1.6855914148267798e-16 1.685590841728102e-16 5.73098677637349e-23
1.0943741465085532 5.8637657314198816e-24 1.7033812752368085e-16 1.7033806513700357e-16 6.238667725761402e-23
1.1026131145906286 5.942495837855992e-24 1.7392478412505413e-16 1.7392471026761097e-16 7.385744312690518e-23
1.1109141095355224 6.021014472973801e-24 1.7754955448847737e-16 1.7754946716420392e-16 8.732427344045753e-23
1.1192775983109025 6.099238232311992e-24 1.8121028428685112e-16 1.8121018117322395e-16 1.0311362718797596e-22
1.1277040513999907 6.176842009113587e-24 1.8489751181761223e-16 1.8489739021588656e-16 1.2160172567174582e-22
1.1361939428280308 6.2541786629554206e-24 1.886219308692649e-16 1.886217876477462e-16 1.4322151872914501e-22
1.1447477501889525 6.3312345851993945e-24 1.9238341827942555e-16 1.9238324980883042e-16 1.6847059515800479e-22
1.1533659546722406 6.4080320275025e-24 1.961829381091391e-16 1.9618274018879755e-16 1.9792034150878904e-22
1.1707974979042381 6.5610919528880996e-24 2.0390475009493848e-16 2.0390447795626778e-16 2.7213867063989183e-22
1.1884924949847024 6.71295843511173e-24 2.1177750858331588e-16 2.1177713625803527e-16 3.723252805958759e-22
1.2064549276569216 6.86474030437414e-24 2.1983895299515596e-16 2.1983844610030642e-16 5.06894849540788e-22
1.2246888378427687 7.015118106698613e-24 2.280500542278318e-16 2.2804936748894273e-16 6.867388890765791e-22
1.2431983285522175 7.163860858481562e-24 2.3640518235463666e-16 2.3640425644894133e-16 9.259056952776208e-22
1.2619875648066055 7.311057443401665e-24 2.4490897730999674e-16 2.449077348872111e-16 1.2424227855776707e-21
1.3004222497298317 7.599207661638716e-24 2.6231440291345715e-16 2.6231219721269337e-16 2.2057007638594344e-21
1.3400274889804893 7.87961819889648e-24 2.8027755165668924e-16 2.802737072761307e-16 3.8443805585251834e-21
1.3808389325824078 8.152581858447251e-24 2.9881859858222876e-16 2.9881201729725624e-16 6.5812849724113236e-21
1.4228933163050095 8.420262620663349e-24 3.1802950217571447e-16 3.1801843050091294e-16 1.1071674801688504e-20
1.466228494730424 8.688404899633383e-24 3.3815136139530816e-16 3.381330487700063e-16 1.8312625301845056e-20
1.5108834753276823 8.955336216587622e-24 3.59155316738768e-16 3.591255237972166e-16 2.979294155149052e-20
1.5568984535646726 9.22012249404273e-24 3.810363525235315e-16 3.809886264083586e-16 4.772611517303984e-20
1.6043148490894465 9.484953556822625e-24 4.039189651161017e-16 4.038435459593457e-16 7.541915675590043e-20
1.6531753430134553 9.752416089045186e-24 4.2795743366304053e-16 4.2784000227960776e-16 1.174313834325884e-19
1.7035239163302658 1.0026104818889983e-23 4.533670038300861e-16 4.531867989727566e-16 1.802048573295156e-19
1.755405889504358 1.0315767053855745e-23 4.806716527453258e-16 4.803989775857524e-16 2.7267515957335057e-19
1.8088679632656115 1.062282045539564e-23 5.100539806504764e-16 5.096469989165657e-16 4.0698173391063086e-19
1.8639582606462262 1.0949380854425338e-23 5.417453324907129e-16 5.411459188462844e-16 5.994136444283412e-19
1.9207263702978936 1.1300051598077547e-23 5.761231924958138e-16 5.752516994068952e-16 8.714930889185043e-19
1.979223391128241 1.168102974777238e-23 6.136848159844717e-16 6.124335374952338e-16 1.2512784892379922e-18
2.039501978296691 1.2099218244750998e-23 6.550144404165967e-16 6.532396335196202e-16 1.7748068969764387e-18
2.1016163906111602 1.2566654603813704e-23 7.010396123380737e-16 6.985517054363782e-16 2.4879069016955545e-18
2.1656225393682647 1.3092983845098356e-23 7.52646121358824e-16 7.491982427425298e-16 3.447878616294199e-18
2.231578038680979 1.368425064796224e-23 8.1059240869655515e-16 8.058670011351102e-16 4.72540756144485e-18
2.299542257339062 1.4349437348199525e-23 8.758821993381379e-16 8.694755884248994e-16 6.406610913238321e-18
2.369576372248914 1.5100607396077762e-23 9.498052376925093e-16 9.412099761184947e-16 8.595261574014436e-18
2.4417434235010123 1.595121662045767e-23 1.0338636655474487e-15 1.0224490391711729e-15 1.141462637627599e-17
2.5161083711144245 1.6919473776538423e-23 1.130018691960643e-15 1.1150088623445052e-15 1.500982961613786e-17
2.5927381535095444 1.8029928826029566e-23 1.2408580542073133e-15 1.2213084931915026e-15 1.9549561015811024e-17
2.6717017477616296 1.9308683333975178e-23 1.369336131630199e-15 1.3441096686800248e-15 2.5226462950174256e-17
2.753070231689431 2.0789880506427595e-23 1.519283134311259e-15 1.487025007324478e-15 3.225812698678057e-17
2.836916847834745 2.2541065171043392e-23 1.6974245306745968e-15 1.6565356966105671e-15 4.0888834064029833e-17
2.9233170693905177 2.469732285788778e-23 1.916440034126385e-15 1.865060198632658e-15 5.137983549372733e-17
2.967498994190263 2.6045531418365248e-23 2.0516025794933253e-15 1.9942934032810087e-15 5.730917621231673e-17
3.0123486681368425 2.7523146060878083e-23 2.2007603162476922e-15 2.136922512291668e-15 6.383780395602426e-17
3.0578761833420214 2.9839263575082696e-23 2.422018355153406e-15 2.350982278117619e-15 7.103607703578702e-17
3.1040917844459814 3.25877839630162e-23 2.6850898071722074e-15 2.606196843611516e-15 7.889296356069118e-17
3.127460860933648 3.5002666944380925e-23 2.905778138502675e-15 2.8226690565969246e-15 8.310908190575046e-17
3.1510058709225794 3.805801462238802e-23 3.1832062147813118e-15 3.0956955754343226e-15 8.751063934698982e-17
3.162844764501044 4.071465923744325e-23 3.418205071534787e-15 3.3284139794201226e-15 8.979109211466435e-17
3.1747281389236908 4.374518276461441e-23 3.686431850652602e-15 3.594312088299256e-15 9.211976235334522e-17
3.1986289994194426 5.196292435746852e-23 4.411912469085239e-15 4.314976039817001e-15 9.693642926823696e-17
3.2227097969389145 7.067631521706222e-23 6.045949723785169e-15 5.943902226650078e-15 1.0204749713509072e-16
3.2348180950136065 8.817349139670316e-23 7.571071275089351e-15 7.466294385959185e-15 1.0477688913016735e-16
3.240889293275058 1.012008842056493e-22 8.705985432344034e-15 8.599768823886755e-15 1.062166084572773e-16
3.2469718861334385 1.162671763359684e-22 1.0020862122137605e-14 9.913155784529838e-15 1.077063376077684e-16
3.2714166318528037 1.9600778027005638e-22 1.702074639165137e-14 1.6906877848505392e-14 1.1386854314597742e-16
3.2744851364798273 2.0102638474071587e-22 1.74729212211522e-14 1.7358324807717032e-14 1.1459641343517132e-16
3.2775565192852394 2.061841983299591e-22 1.7938040536218598e-14 1.7822712458191465e-14 1.1532807802713953e-16
3.283707930232385 2.0141773499601014e-22 1.7556246207486562e-14 1.7439606300562146e-14 1.1663990692442113e-16
3.2898708863219004 1.860035450178731e-22 1.6243122086034687e-14 1.612528522646091e-14 1.1783685957377587e-16
3.29141343181113 1.823667070940001e-22 1.593299524343344e-14 1.5814857740444148e-14 1.1813750298929422e-16
3.292184975758714 1.8057943037629466e-22 1.5780542907552138e-14 1.5662254871726626e-14 1.1828803582551134e-16
3.295272960557952 1.6931619633008197e-22 1.4810145709383132e-14 1.4691271542213496e-14 1.188741671696374e-16
3.3076538914384823 1.302046218843368e-22 1.1431833565543587e-14 1.1310603609023033e-14 1.212299565205522e-16
3.310756385682612 1.2222075384996083e-22 1.0740923329302576e-14 1.0619099244901524e-14 1.218240844010499e-16
3.313861789986515 1.1484539200636668e-22 1.0102233420739623e-14 9.979813130527645e-15 1.224202902119768e-16
3.3200813396944477 1.0455675054102355e-22 9.214467325989841e-15 9.090766092395802e-15 1.2370123359403978e-16
3.345076488085796 8.664328636553624e-23 7.69325986562137e-15 7.563853893155141e-15 1.29405972466231e-16
3.3482140837626964 8.742335956089076e-23 7.769805435668188e-15 7.639626808512876e-15 1.3017862715531184e-16
3.3513546224236106 8.821107931897114e-23 7.847168063225388e-15 7.71621312417011e-15 1.3095493905527895e-16
3.3576445397418455 9.353202196906435e-23 8.336129895406244e-15 8.203552419969455e-15 1.325774754367899e-16
3.3702598118196083 1.1280273478227697e-22 1.0091423761646219e-14 9.95544258762579e-15 1.359811740204276e-16
3.382922481734668 1.174931907535178e-22 1.0550527585594704e-14 1.0411231747243508e-14 1.3929583835119524e-16
3.389271646505754 1.1991580400993482e-22 1.0788280634073693e-14 1.0647303458220772e-14 1.4097717585291953e-16
3.395632727569191 1.22540352056098e-22 1.1045090214959876e-14 1.090238027357402e-14 1.4270994138585518e-16
3.421196662673239 1.3510329163537606e-22 1.2269119684365989e-14 1.2119229802251197e-14 1.4988988211478835e-16
3.4276182099114902 1.3293477510405397e-22 1.2094849806223035e-14 1.1943350685328934e-14 1.514991208940971e-16
3.4340518103208963 1.2281283761701764e-22 1.1194895453831406e-14 1.104187091567894e-14 1.5302453815246682e-16
3.4469541582030403 1.0842416685006477e-22 9.920442274456262e-15 9.764483046483817e-15 1.5595922797244898e-16
3.472904465399547 1.0489652354836084e-22 9.669930770595093e-15 9.507221081178615e-15 1.6270968941647928e-16
3.4990501388274233 9.923497699859103e-23 9.216889314076701e-15 9.047256010372529e-15 1.6963330370417414e-16
3.5253949054701885 7.763500815882819e-23 7.264986449704503e-15 7.088601819927405e-15 1.7638462977709843e-16
3.5519380250092896 5.724294407959806e-23 5.397054138581745e-15 5.213863428659934e-15 1.831907099218116e-16
3.578680990867387 4.957539587462375e-23 4.709324428952408e-15 4.518670673599237e-15 1.906537553531719e-16
3.605625307711299 4.69075347928261e-23 4.4894447971871245e-15 4.290918446043143e-15 1.9852635114398048e-16
3.660119384959845 4.589805701539369e-23 4.459220885899907e-15 4.244098911364209e-15 2.151219745356978e-16
3.715437065384467 4.5623316494792284e-23 4.4995200835549206e-15 4.2668213179283084e-15 2.3269876562661336e-16
3.8285932144167436 4.7827716065186124e-23 4.860582295743609e-15 4.589819573926737e-15 2.7076272181687105e-16
3.94519561050918 5.091732148654782e-23 5.332164310902944e-15 5.019458179052099e-15 3.127061318508443e-16
4.06534921144712 5.44669976773144e-23 5.8776094767280225e-15 5.519018903588016e-15 3.5859057314000534e-16
4.189162171576248 5.834854609669911e-23 6.488236102603116e-15 6.079623990199724e-15 4.0861211240339093e-16
4.316745939156006 6.250586509734837e-23 7.16220409377257e-15 6.69948939130246e-15 4.627147024701096e-16
4.448215356677963 6.690791507698218e-23 7.900102664792294e-15 7.379801694447536e-15 5.203009703447581e-16
4.58368876423945 7.154681377424681e-23 8.705121799215834e-15 8.123558918946106e-15 5.815628802697272e-16
4.723288106065518 7.64284175561925e-23 9.582277366835931e-15 8.935276555996092e-15 6.470008108398386e-16
4.867139040275056 8.155665794333172e-23 1.0536651277748304e-14 9.821510700756288e-15 7.151405769920161e-16
4.940699165968905 8.425066047043071e-23 1.1049208227859442e-14 1.0298750959350522e-14 7.504572685089185e-16
5.015371051989984 8.697824626170957e-23 1.1579322471965113e-14 1.0792798428680908e-14 7.865240432842004e-16
5.091171501069577 8.986133855992739e-23 1.2143952041456637e-14 1.131987311016454e-14 8.24078931292098e-16
5.129500256944802 9.131479667481962e-23 1.2433278031232315e-14 1.1590159294181418e-14 8.431187370508936e-16
5.168117569889187 9.278725856273835e-23 1.2728879097450187e-14 1.1866382547536366e-14 8.624965499138234e-16
5.20702561229733 9.436628275309763e-23 1.3042954964719968e-14 1.2159422981269632e-14 8.835319834503324e-16
5.246226572918644 9.595741019538822e-23 1.3362723870283534e-14 1.2457919447534217e-14 9.048044227493126e-16
5.265937586045735 9.675750406138494e-23 1.3524767165319283e-14 1.2609239211256801e-14 9.155279540624837e-16
5.285722656980489 9.756061502759752e-23 1.3688262793130738e-14 1.2761953956647241e-14 9.26308836483494e-16
5.305582063971359 9.836674188165297e-23 1.3853220799328064e-14 1.2916074385120662e-14 9.371464142074043e-16
5.3255160863122235 9.919363617221633e-23 1.4022160846064913e-14 1.3074044744633274e-14 9.481161014316398e-16
5.365609099470188 1.0099567752407002e-22 1.4384383389559584e-14 1.3413569645810701e-14 9.708137437488826e-16
5.406003951863644 1.0282040864799262e-22 1.4754521088988196e-14 1.3760756376303583e-14 9.937647126846141e-16
5.446702915881641 1.0466849470122573e-22 1.5132793271969068e-14 1.4115829260939629e-14 1.0169640110294411e-15
5.487708281020852 1.065749851938602e-22 1.5524432409588144e-14 1.448393730986577e-14 1.0404950997223755e-15
5.529022354014368 1.088153239380724e-22 1.597010744859982e-14 1.4905062211233284e-14 1.0650452373665374e-15
5.570647458961463 1.1111075610648044e-22 1.642975967291419e-14 1.5339889815726698e-14 1.0898698571874935e-15
5.612585937458331 1.1346476089044046e-22 1.6904153942880986e-14 1.578918985903116e-14 1.114964083849823e-15
5.654840148729818 1.1593409416076307e-22 1.7402071106057492e-14 1.6261637212616467e-14 1.1404338934410233e-15
5.67608639626678 1.1742988489356077e-22 1.7692820257405504e-14 1.6539069768741757e-14 1.1537504886637445e-15
5.686739436050992 1.1818997238613312e-22 1.7840761757075994e-14 1.668032420334372e-14 1.1604375537322767e-15
5.6974124697621304 1.1895843318197705e-22 1.7990462576968537e-14 1.6823318874537624e-14 1.1671437024309094e-15
5.718818669136295 1.2052123935146792e-22 1.8295292122824103e-14 1.7114679160010172e-14 1.1806129628139346e-15
5.740305295436557 1.221866463346967e-22 1.8617791771032195e-14 1.742354165358847e-14 1.1942501174437274e-15
5.7835210386641895 1.2619523553426286e-22 1.9373349412341754e-14 1.8150876331077744e-14 1.222473081264013e-15
5.827062130521658 1.3060733112509283e-22 2.0201640430104667e-14 1.895038406370757e-14 1.2512563663970952e-15
5.8489554468988025 1.3350944639444885e-22 2.072811174990561e-14 1.946135231663513e-14 1.2667594332704785e-15
5.870931020387893 1.3655972021685573e-22 2.128134288397228e-14 1.9998972711428836e-14 1.282370172543441e-15
5.892989160043636 1.3976968059954187e-22 2.1863417496384816e-14 2.0565329254321122e-14 1.2980882420636886e-15
5.915130176081913 1.4333816613747599e-22 2.2505858477726804e-14 2.119148713916599e-14 1.3143713385608182e-15
5.95966208400165 1.529295703785651e-22 2.419259957429156e-14 2.2841358662810164e-14 1.3512409114813937e-15
6.004529249263818 1.6622284396322047e-22 2.6493485998021656e-14 2.510087479260564e-14 1.392611205416018e-15
6.027089341400364 1.752566034822216e-22 2.8038285455489797e-14 2.6621887972909802e-14 1.4163974825799983e-15
6.049734195844842 1.8576384896277856e-22 2.983093924922289e-14 2.838936683133025e-14 1.4415724178926297e-15
6.095279466722835 2.1562290404684476e-22 3.488654383861388e-14 3.3383498158819934e-14 1.5030456797939328e-15
6.141167624020661 2.6072027605404323e-22 4.2500612799540396e-14 4.0918284119499847e-14 1.5823286800405461e-15
6.164241091010745 2.8940320863695398e-22 4.735353346423228e-14 4.5721688262180395e-14 1.631845202051882e-15
6.187401249150058 3.216708301176038e-22 5.28310684052975e-14 5.114830564259513e-14 1.6827627627023616e-15
6.1990139391386085 3.37410673937135e-22 5.5520179720358546e-14 5.3811493638509106e-14 1.7086860818494515e-15
6.204828454712694 3.456662251879585e-22 5.693196308443647e-14 5.5210175834349413e-14 1.7217872500870374e-15
6.210648424152782 3.5171767129100713e-22 5.798298472129305e-14 5.624997779494071e-14 1.733006926352335e-15
6.233982942956859 3.722232153733854e-22 6.159401281749291e-14 5.982164288187706e-14 1.77236993561584e-15
6.239830258556775 3.7483175147623916e-22 6.208384144183324e-14 6.030582508128194e-14 1.7780163605512914e-15
6.245683058788269 3.750761893445133e-22 6.218259900610858e-14 6.039892439255893e-14 1.7836746135496512e-15
6.257405133728602 3.7455188757455006e-22 6.22122197340661e-14 6.041853270206751e-14 1.793687031998601e-15
6.269149208991335 3.7058826332926966e-22 6.166939677786033e-14 5.987150769199986e-14 1.7978890858604803e-15
6.280915325867298 3.606083844865206e-22 6.012127635668675e-14 5.832637918809471e-14 1.7948971685920467e-15
6.304513850009849 3.359935601527806e-22 5.6227916305234575e-14 5.4445523083011835e-14 1.782393222222724e-15
6.32820103803542 3.056523663915526e-22 5.134255336406013e-14 4.9579601776422555e-14 1.7629515876375717e-15
6.3519772230701035 2.7794162038722364e-22 4.6863201047451586e-14 4.511749128670868e-14 1.7457097607429093e-15
6.375842739491607 2.545732915699943e-22 4.3084381976332176e-14 4.135366716085811e-14 1.7307148154740593e-15
6.399797922933955 2.3616029644782767e-22 4.011830534151174e-14 3.839431737341653e-14 1.7239879680952096e-15
6.42384311029221 2.2083405050867602e-22 3.765567152912518e-14 3.5936766586568947e-14 1.7189049425562366e-15
6.447978639727206 2.0988831275760363e-22 3.59237180823981e-14 3.4203423957574137e-14 1.7202941248239622e-15
6.472204850670314 2.008038855191757e-22 3.449799061690158e-14 3.277501195654965e-14 1.722978660351932e-15
6.496522083828205 1.9512792732689976e-22 3.364881571122804e-14 3.1917885736636894e-14 1.7309299745911522e-15
6.520930681187647 1.904071497504341e-22 3.2958107706166654e-14 3.121840453277696e-14 1.7397031733896918e-15
