Dust emission spectrum from A.P. Jones, M. Kohler, N. Ysard, M. Bocchio, and L. Verstraete (2017), A&A, 602A, 46J 
inside the DustPedia framework.

lambda    nu*dP/dnu     j_nu    j_nu(carb.) j_nu(sil)
 (um)   (erg s-1 H-1) (Jy cm2 sr-1 H-1)
0.9927057738263894 6.419848431213152e-23 1.6916665256357972e-15 1.691666313224248e-15 2.1241154897152754e-22
1.0001793341362166 6.527927158823085e-23 1.7330959590178952e-15 1.7330957033331271e-15 2.5568476809678635e-22
1.0077091589558085 6.636342782281384e-23 1.7751434287896366e-15 1.7751431214226768e-15 3.0736696006588507e-22
1.0114953028030835 6.690670495394866e-23 1.796399582637206e-15 1.796399245801932e-15 3.368352736957938e-22
1.0152956718711033 6.745074788477305e-23 1.817811042668549e-15 1.8178106736621086e-15 3.690064404821265e-22
1.0229392996569957 6.854050397362718e-23 1.86108663485702e-15 1.8610861924315477e-15 4.424254726949581e-22
1.0267826658714554 6.908496939470269e-23 1.8829185364702278e-15 1.8829180522502563e-15 4.842199714116444e-22
1.0306404723013447 6.963007682675068e-23 1.9049057828043232e-15 1.904905253017402e-15 5.29786921481075e-22
1.03451277320114 7.017580337296721e-23 1.9270486702247605e-15 1.927048090775069e-15 5.794496917888172e-22
1.0383996230291617 7.072212662096234e-23 1.9493475040064743e-15 1.9493468704486853e-15 6.335577889432652e-22
1.0403485208654093 7.099550514016096e-23 1.9605554987587712e-15 1.960554836363085e-15 6.623956861573165e-22
1.0423010764483396 7.126902465677376e-23 1.971802598909169e-15 1.9718019064203372e-15 6.924888321765314e-22
1.0462171883269815 7.18164760788607e-23 1.9944142797630767e-15 1.994413523112411e-15 7.566506661427751e-22
1.0471985131304309 7.195342294291596e-23 2.0000917056044885e-15 2.0000909320451988e-15 7.735592892009658e-22
1.048180758391296 7.209040276532996e-23 2.0057789443313676e-15 2.0057781535019685e-15 7.908293987508489e-22
1.0501480137395462 7.236446001207474e-23 2.0171828820652272e-15 2.017182055581607e-15 8.264836203694058e-22
1.0521189612883777 7.263864529423841e-23 2.0286261366680364e-15 2.028625272994192e-15 8.63673844190356e-22
1.0531058218030118 7.277559919731675e-23 2.0343573230316673e-15 2.034356440165886e-15 8.828657820745394e-22
1.0540936079674168 7.291197489392552e-23 2.040081297778729e-15 2.0400803953089224e-15 9.024698068432945e-22
1.058054026499678 7.345775745539568e-23 2.0630746525048386e-15 2.0630736673715746e-15 9.851332639936652e-22
1.0590464539527713 7.359427155350473e-23 2.0688473832591005e-15 2.0688463763549088e-15 1.0069041921688291e-21
1.06003981227728 7.37308124482975e-23 2.074629882277201e-15 2.0746288531421858e-15 1.0291350142162025e-21
1.0620293250338977 7.4003973473577e-23 2.0862242083937035e-15 2.0862231333802615e-15 1.075013441610013e-21
1.0660195594769086 7.455060451747119e-23 2.109530338989205e-15 2.1095291662820965e-15 1.172707108646648e-21
1.070024785945596 7.509763275868755e-23 2.1329934318064885e-15 2.1329921529490567e-15 1.2788574312213004e-21
1.0740450607676866 7.564504098515296e-23 2.1566138889940255e-15 2.1566124948366937e-15 1.3941573325315831e-21
1.07808044048254 7.619281261478588e-23 2.1803921280066427e-15 2.1803906086535665e-15 1.5193530765635772e-21
1.0861967418109137 7.728852537153452e-23 2.2283989750256706e-15 2.228397172318428e-15 1.8027072420321887e-21
1.0902777775684922 7.783448645869847e-23 2.252571876539107e-15 2.2525699138780054e-15 1.9626611012753114e-21
1.0943741465085532 7.838071716409988e-23 2.2769027971489355e-15 2.276900661039275e-15 2.1361096606304193e-21
1.1026131145906286 7.947393592234594e-23 2.3260406950237677e-15 2.3260381671503364e-15 2.527873431269178e-21
1.1109141095355224 8.056808588199555e-23 2.3758168691583448e-15 2.3758138815574295e-15 2.9876009147116463e-21
1.1192775983109025 8.166220335246302e-23 2.4262097201901053e-15 2.4262061938231646e-15 3.526366940161592e-21
1.1277040513999907 8.275217254524389e-23 2.477102502952485e-15 2.477098346025585e-15 4.1569269006268455e-21
1.1361939428280308 8.384272779706873e-23 2.5286417383791363e-15 2.5286368444279715e-15 4.893951164501225e-21
1.1447477501889525 8.493382486481473e-23 2.5808330642552743e-15 2.5808273099650695e-15 5.754290204414292e-21
1.1533659546722406 8.602585278857179e-23 2.6336954124094713e-15 2.6336886551274857e-15 6.7572819850685895e-21
1.1707974979042381 8.82160863683573e-23 2.7415678936454297e-15 2.7415586105448834e-15 9.283100545781846e-21
1.1884924949847024 9.040978411928909e-23 2.85220875675209e-15 2.8521960674401637e-15 1.2689311926535319e-20
1.2064549276569216 9.262222827272832e-23 2.9661680973685913e-15 2.966150837472425e-15 1.725989616637936e-20
1.2246888378427687 9.483791324605255e-23 3.0830259633069754e-15 3.083002601351844e-15 2.336195513061151e-20
1.2431983285522175 9.705482453630637e-23 3.2027790525465323e-15 3.202747584171154e-15 3.146837537923046e-20
1.2619875648066055 9.927592937558286e-23 3.3255881961120142e-15 3.325546010905963e-15 4.2185206051449925e-20
1.3004222497298317 1.0371565890968187e-22 3.580124711817939e-15 3.580049966469531e-15 7.474534840849947e-20
1.3400274889804893 1.0817062748429045e-22 3.847622799377593e-15 3.847492786581167e-15 1.3001279642672338e-19
1.3808389325824078 1.1265916587955983e-22 4.129324261944265e-15 4.129102151446011e-15 2.2211049825463276e-19
1.4228933163050095 1.1722520858906537e-22 4.42754298880618e-15 4.427170127190915e-15 3.728616152651323e-19
1.466228494730424 1.219612955936773e-22 4.746714571771144e-15 4.746099198379776e-15 6.15373391368635e-19
1.5108834753276823 1.2686641344765635e-22 5.087999579614521e-15 5.087000653681245e-15 9.989259332759406e-19
1.5568984535646726 1.3195056155599766e-22 5.453068624762248e-15 5.451472054637855e-15 1.5965701243937637e-18
1.6043148490894465 1.3726698402040821e-22 5.8455466121128e-15 5.8430294522583675e-15 2.5171598544315937e-18
1.6531753430134553 1.4287764505552977e-22 6.269784815115471e-15 6.2658746929206606e-15 3.910122194808723e-18
1.7035239163302658 1.4885985002309024e-22 6.7312426325736536e-15 6.725256745866017e-15 5.9858867076365545e-18
1.755405889504358 1.553768227354921e-22 7.239910885218296e-15 7.230875600759412e-15 9.035284458885233e-18
1.8088679632656115 1.6248659769636465e-22 7.801782615584706e-15 7.788330726718146e-15 1.3451888866559023e-17
1.8639582606462262 1.7025856944165453e-22 8.423927027278763e-15 8.404165321766741e-15 1.9761705512025785e-17
1.9207263702978936 1.7880112962865573e-22 9.116018341105993e-15 9.087361537807622e-15 2.865680329837041e-17
1.979223391128241 1.8824990268719006e-22 9.890061868193965e-15 9.849026380043568e-15 4.103548815039301e-17
2.039501978296691 1.9875395755618743e-22 1.0759927596622121e-14 1.0701881444797267e-14 5.804615182485606e-17
2.1016163906111602 2.1054060744623552e-22 1.1745154973921139e-14 1.166401272576357e-14 8.114224815757229e-17
2.1656225393682647 2.238104124653058e-22 1.28656722451234e-14 1.275354058836267e-14 1.1213165676073158e-16
2.231578038680979 2.3871602518386378e-22 1.4140445306522536e-14 1.398721292501685e-14 1.532323815056901e-16
2.299542257339062 2.5545918058715613e-22 1.55930956388246e-14 1.5385964653950136e-14 2.0713098487446787e-16
2.369576372248914 2.7428406813776755e-22 1.725205070893555e-14 1.6975005698241942e-14 2.7704501069360723e-16
2.4417434235010123 2.9545653154965195e-22 1.914974763279808e-14 1.878297655524206e-14 3.667710775560144e-16
2.5161083711144245 3.1930679433280765e-22 2.132587873781536e-14 2.0845130854354303e-14 4.807478834610558e-16
2.5927381535095444 3.4624009250450073e-22 2.3828979671480288e-14 2.3204883910416428e-14 6.240957610638623e-16
2.6717017477616296 3.766563770330345e-22 2.6711774042755355e-14 2.5909161468409995e-14 8.026125743453693e-16
2.753070231689431 4.1102770878881143e-22 3.003708777952689e-14 2.901430113632863e-14 1.0227866431982695e-15
2.836916847834745 4.50193974693095e-22 3.3901250469193585e-14 3.260941840292334e-14 1.2918320662702453e-15
2.9233170693905177 4.9567918281655975e-22 3.846325512683317e-14 3.6845911750005965e-14 1.6173433768272083e-15
2.967498994190263 5.218776304099299e-22 4.110822219484121e-14 3.930779939867834e-14 1.8004227961628698e-15
3.0123486681368425 5.499867565911103e-22 4.397713203607795e-14 4.19755469281129e-14 2.0015851079650547e-15
3.0578761833420214 5.878058568471223e-22 4.771151844843946e-14 4.548857003524248e-14 2.2229484131969817e-15
3.1040917844459814 6.305473597995887e-22 5.195432406998555e-14 4.949038596905687e-14 2.4639381009286868e-15
3.127460860933648 6.632880334558623e-22 5.506345759907534e-14 5.247044915276356e-14 2.593008446311794e-15
3.1510058709225794 7.028370175317435e-22 5.8785913673734e-14 5.6058339525430114e-14 2.7275741483038732e-15
3.162844764501044 7.348764482122063e-22 6.169665789368345e-14 5.889943491982126e-14 2.7972229738621987e-15
3.1747281389236908 7.707043212298241e-22 6.494769887018122e-14 6.207940341112479e-14 2.8682954590564235e-15
3.1986289994194426 8.648278667333898e-22 7.342821629139183e-14 7.041306311586024e-14 3.0151531755315675e-15
3.2227097969389145 1.0700881597699968e-21 9.153984887465272e-14 8.836905040451889e-14 3.1707984701338283e-15
3.2348180950136065 1.2585235391825248e-21 1.0806390067576328e-13 1.0481003357187642e-13 3.253867103886875e-15
3.240889293275058 1.3980047033188723e-21 1.202658324280049e-13 1.1696814857877292e-13 3.2976838492319537e-15
3.2469718861334385 1.5591664973683628e-21 1.3438180050435344e-13 1.3103877893939048e-13 3.343021564962917e-15
3.2714166318528037 2.4040890058708686e-21 2.0876410729975736e-13 2.052337025068868e-13 3.530404792870513e-15
3.2744851364798273 2.4576588506159927e-21 2.1361613571605528e-13 2.100636404938381e-13 3.5524952222171927e-15
3.2775565192852394 2.512649725587314e-21 2.186007123532061e-13 2.150260155810628e-13 3.574696772143294e-15
3.283707930232385 2.464264431777871e-21 2.1479356366261028e-13 2.1117914729419311e-13 3.61441636841716e-15
3.2898708863219004 2.303950574932254e-21 2.0119697431152932e-13 1.9754639608659175e-13 3.650578224937499e-15
3.29141343181113 2.266113571914241e-21 1.979855716963673e-13 1.9432591266116987e-13 3.659659035197451e-15
3.292184975758714 2.247517271550307e-21 1.9640688125584e-13 1.9274267575587422e-13 3.664205499965757e-15
3.295272960557952 2.130498315489656e-21 1.863554176735967e-13 1.826735244931411e-13 3.681893180455602e-15
3.3076538914384823 1.723278381824822e-21 1.513020917615407e-13 1.4754914893187777e-13 3.752942829662945e-15
3.310756385682612 1.6399323905300705e-21 1.4411945203305602e-13 1.4034859904692486e-13 3.770852986131117e-15
3.313861789986515 1.5628566578759794e-21 1.3747476050362462e-13 1.336859381481126e-13 3.78882235551204e-15
3.3200813396944477 1.4560828226161825e-21 1.2832292055277302e-13 1.244954548465254e-13 3.827465706247629e-15
3.345076488085796 1.2761891954085094e-21 1.1331582087681757e-13 1.0931616382441868e-13 3.999657052398918e-15
3.3482140837626964 1.2855578606654809e-21 1.1425475415077776e-13 1.1023177193936681e-13 4.0229822114109575e-15
3.3513546224236106 1.2950057450401902e-21 1.152023963727566e-13 1.111559831030242e-13 4.046413269732343e-15
3.3576445397418455 1.3534572089826939e-21 1.206281534861445e-13 1.165327541787575e-13 4.095399307386951e-15
3.3702598118196083 1.5605457800672103e-21 1.3960768589966176e-13 1.3540953499218e-13 4.1981509074817765e-15
3.382922481734668 1.6148131675278243e-21 1.45005261669377e-13 1.40707196107473e-13 4.298065561903955e-15
3.389271646505754 1.6427436087519628e-21 1.477901866844745e-13 1.4344146988040787e-13 4.348716804066659e-15
3.395632727569191 1.673127181789492e-21 1.5080616591917885e-13 1.464052496929096e-13 4.400916226269301e-15
3.421196662673239 1.8178058833588664e-21 1.650801966103591e-13 1.6046315328469496e-13 4.617043325664172e-15
3.4276182099114902 1.797093330178573e-21 1.635055529996693e-13 1.5884023147775761e-13 4.66532152191169e-15
3.4340518103208963 1.692024490229093e-21 1.5423499400369165e-13 1.4952398747247772e-13 4.7110065312139834e-15
3.4469541582030403 1.5431623383310778e-21 1.4119410222167883e-13 1.3639536396119954e-13 4.798738260479346e-15
3.472904465399547 1.5135334909335492e-21 1.3952573051247935e-13 1.3452496422841803e-13 5.000766284061332e-15
3.4990501388274233 1.4618172677638466e-21 1.3577277248299963e-13 1.3056516751092258e-13 5.207604972077035e-15
3.5253949054701885 1.2431446136668479e-21 1.1633190988833288e-13 1.1092320028975092e-13 5.408709598581985e-15
3.5519380250092896 1.036018860431449e-21 9.767928551272997e-14 9.206831767772143e-14 5.610967835008546e-15
3.578680990867387 9.64070257179001e-22 9.158009801558559e-14 8.574743125549963e-14 5.832666760085985e-15
3.605625307711299 9.453970065850119e-22 9.048242870223217e-14 8.441619598930133e-14 6.066232712930855e-15
3.660119384959845 9.541880571046791e-22 9.27040399965162e-14 8.614677395560183e-14 6.5572660409143475e-15
3.715437065384467 9.708784404550563e-22 9.575119428278852e-14 8.867581167379471e-14 7.0753826089938155e-15
3.8285932144167436 1.0345919814454151e-21 1.0514237103603405e-13 9.695181096867654e-14 8.190560067357513e-15
3.94519561050918 1.10880601733807e-21 1.1611639616444686e-13 1.0670737933812553e-13 9.409016826321344e-15
4.06534921144712 1.1887557118034662e-21 1.2828028228405058e-13 1.175504217087942e-13 1.0729860575256365e-14
4.189162171576248 1.2728019854958936e-21 1.4153291463463847e-13 1.2937690853431455e-13 1.2156006100323897e-14
4.316745939156006 1.359981694579443e-21 1.5583283976955712e-13 1.4215018696144967e-13 1.3682652808107442e-14
4.448215356677963 1.4494949513155487e-21 1.7114804600196548e-13 1.558588413274966e-13 1.5289204674468843e-14
4.58368876423945 1.540901436762036e-21 1.874819293829749e-13 1.705039750168796e-13 1.697795436609531e-14
4.723288106065518 1.6339238211781975e-21 2.0485457832878238e-13 1.8609485935832035e-13 1.8759718970462038e-14
4.867139040275056 1.7279644293014558e-21 2.2324306894176075e-13 2.0265483004807417e-13 2.058823889368657e-14
4.940699165968905 1.7756814302916374e-21 2.3287501557951033e-13 2.1134941920017664e-13 2.1525596379333692e-14
5.015371051989984 1.8231789626993535e-21 2.42717898331464e-13 2.2024237087601665e-13 2.2475527455447354e-14
5.091171501069577 1.8718535652354068e-21 2.5296418113879894e-13 2.295058720942263e-13 2.345830904457267e-14
5.129500256944802 1.8960520005765006e-21 2.581634361930582e-13 2.3420994158438924e-13 2.395349460866901e-14
5.168117569889187 1.920294344141766e-21 2.634326621641765e-13 2.389767687275833e-13 2.4455893436593135e-14
5.20702561229733 1.945714488634925e-21 2.6892938567759176e-13 2.439255668421961e-13 2.500381883539565e-14
5.246226572918644 1.971058046137005e-21 2.744832769996458e-13 2.48927549458454e-13 2.555572754119185e-14
5.265937586045735 1.983698642343764e-21 2.7728146280869825e-13 2.5144835326184176e-13 2.583310954685656e-14
5.285722656980489 1.996317160367648e-21 2.800937027899935e-13 2.5398229529440624e-13 2.611140749558727e-14
5.305582063971359 2.0089126483082273e-21 2.829199173543786e-13 2.5652932318619656e-13 2.6390594168182108e-14
5.3255160863122235 2.0216904349324866e-21 2.857891852089855e-13 2.5911635750850555e-13 2.6672827700479928e-14
5.365609099470188 2.0487715320633645e-21 2.9179778696757807e-13 2.645410305686003e-13 2.7256756398977727e-14
5.406003951863644 2.0758379409705397e-21 2.978785542686094e-13 2.7003376799920224e-13 2.7844786269407196e-14
5.446702915881641 2.102887682903493e-21 3.0403193119749667e-13 2.7559523019269e-13 2.843670100480662e-14
5.487708281020852 2.130306709195954e-21 3.10314868526109e-13 2.8128008510957853e-13 2.90347834165305e-14
5.529022354014368 2.1611543610429854e-21 3.171783725838897e-13 2.8752005239777556e-13 2.96583201861141e-14
5.570647458961463 2.1922386273749028e-21 3.2416261985412067e-13 2.938764640478025e-13 3.028615580631814e-14
5.612585937458331 2.2235813040285826e-21 3.3127254993385374e-13 3.0035447927242864e-13 3.09180706614251e-14
5.654840148729818 2.255790720507981e-21 3.386012613703608e-13 3.070443245117478e-13 3.155693685861289e-14
5.67608639626678 2.2745965179409565e-21 3.427068619417214e-13 3.1081563556239534e-13 3.189122637932608e-14
5.686739436050992 2.2840807029497628e-21 3.447817004485773e-13 3.127228803961314e-13 3.2058820052445905e-14
5.6974124697621304 2.2936210051240604e-21 3.468716067847892e-13 3.1464489836282136e-13 3.2226708421967906e-14
5.718818669136295 2.312875987372159e-21 3.510977986995243e-13 3.1853444329216714e-13 3.256335540735718e-14
5.740305295436557 2.3331027943658492e-21 3.554989297842941e-13 3.225952787158298e-13 3.2903651068464294e-14
5.7835210386641895 2.3803785491267705e-21 3.6543301473022137e-13 3.318258464294133e-13 3.3607168300808074e-14
5.827062130521658 2.4311739922127795e-21 3.76040934231055e-13 3.417189210009511e-13 3.432201323010395e-14
5.8489554468988025 2.463738673969309e-21 3.825096420946845e-13 3.478014570244197e-13 3.4708185070264866e-14
5.870931020387893 2.4975397077569198e-21 3.892143217832283e-13 3.5411812689008653e-13 3.509619489314172e-14
5.892989160043636 2.5326757533713154e-21 3.9617281188170307e-13 3.606867944718428e-13 3.548601740986039e-14
5.915130176081913 2.571281692962069e-21 4.0372291237960946e-13 3.6783275442889856e-13 3.589015795071091e-14
5.95966208400165 2.6732811251043255e-21 4.228980677122557e-13 3.8608581003569585e-13 3.681225767655981e-14
6.004529249263818 2.8116875049344596e-21 4.481417942727294e-13 4.1029118658309315e-13 3.7850607689636335e-14
6.027089341400364 2.9046525869891166e-21 4.646984864755146e-13 4.262473084084447e-13 3.8451178067069786e-14
6.049734195844842 3.0116560876773983e-21 4.836276288022975e-13 4.4454014439254397e-13 3.9087484409753475e-14
6.095279466722835 3.312942025489315e-21 5.36014936436946e-13 4.953612643854062e-13 4.0653672051539915e-14
6.141167624020661 3.762129446173949e-21 6.132733875306463e-13 5.705843410866021e-13 4.26890464440444e-14
6.164241091010745 4.046788662245409e-21 6.621548642907635e-13 6.181870629331025e-13 4.396780135766097e-14
6.187401249150058 4.3635217678630245e-21 7.166627975613888e-13 6.713819736031746e-13 4.528082395821408e-14
6.1990139391386085 4.517532408133919e-21 7.433499606443097e-13 6.974010422033229e-13 4.5948918440986747e-14
6.204828454712694 4.598012367563043e-21 7.573024244111211e-13 7.110160652556687e-13 4.6286359155452605e-14
6.210648424152782 4.6568238483374284e-21 7.677082162428332e-13 7.211346489077942e-13 4.657356733503911e-14
6.233982942956859 4.854517280836283e-21 8.033061541275117e-13 7.557324714941002e-13 4.7573682633411515e-14
6.239830258556775 4.878789052645935e-21 8.080797978818576e-13 7.603682559784558e-13 4.771154190340199e-14
6.245683058788269 4.880041427671514e-21 8.090453829138391e-13 7.611957642999629e-13 4.7849618613876264e-14
6.257405133728602 4.872546160379962e-21 8.093188753016323e-13 7.61228113791414e-13 4.8090761510218196e-14
6.269149208991335 4.831250540244961e-21 8.039658456071964e-13 7.557890698168553e-13 4.817677579034117e-14
6.280915325867298 4.731144708044002e-21 7.887849276738651e-13 7.407139496589091e-13 4.8070978014956264e-14
6.304513850009849 4.4857777663368005e-21 7.506868188032454e-13 7.030009715010072e-13 4.768584730223818e-14
6.32820103803542 4.18667243432725e-21 7.032644811979675e-13 6.561484003038015e-13 4.711608089416582e-14
6.3519772230701035 3.914674580043603e-21 6.600457377500576e-13 6.134406659181522e-13 4.66050718319056e-14
6.375842739491607 3.6845540165118694e-21 6.235796837948307e-13 5.774253697298511e-13 4.615431406497967e-14
6.399797922933955 3.505514858620643e-21 5.955078715291941e-13 5.495853120167517e-13 4.5922559512442304e-14
6.42384311029221 3.3559698112315145e-21 5.722455236513868e-13 5.265110887378301e-13 4.573443491355679e-14
6.447978639727206 3.25023247898091e-21 5.562979364744748e-13 5.105808226672321e-13 4.5717113807242654e-14
6.472204850670314 3.1623105515264195e-21 5.432831115405356e-13 4.97549428154932e-13 4.573368338560363e-14
6.496522083828205 3.1081407292415937e-21 5.359830139926594e-13 4.900943463988826e-13 4.588866759377681e-14
