Dust emission spectrum from A.P. Jones, M. Kohler, N. Ysard, M. Bocchio, and L. Verstraete (2017), A&A, 602A, 46J 
inside the DustPedia framework.

lambda    nu*dP/dnu     j_nu    j_nu(carb.) j_nu(sil)
 (um)   (erg s-1 H-1) (Jy cm2 sr-1 H-1)
0.9927057738263894 1.165457817680757e-23 3.0710475462713073e-16 3.0710475446302596e-16 1.6410460664064387e-25
1.0001793341362166 1.1846904755233103e-23 3.1452285325233384e-16 3.1452285305468677e-16 1.976471182599375e-25
1.0077091589558085 1.2038957993732715e-23 3.220279282304101e-16 3.220279279926729e-16 2.3773724009124254e-25
1.0114953028030835 1.2134858561511917e-23 3.258127099558355e-16 3.258127096952267e-16 2.606086950729055e-25
1.0152956718711033 1.2230662611561875e-23 3.2961878484181514e-16 3.296187845562276e-16 2.8558751966815934e-25
1.0229392996569957 1.242184979535711e-23 3.372916347862843e-16 3.3729163444365797e-16 3.426264126724391e-25
1.0267826658714554 1.2517000909526885e-23 3.411522541018895e-16 3.4115225372677433e-16 3.7511511185291157e-25
1.0306404723013447 1.2612013613713708e-23 3.450333355993113e-16 3.450333351887607e-16 4.1055053902010556e-25
1.03451277320114 1.2706878784810017e-23 3.4893471379065165e-16 3.4893471334146483e-16 4.49186800261425e-25
1.0383996230291617 1.2801587351185473e-23 3.5285622113854196e-16 3.5285622064724323e-16 4.912986911969979e-25
1.0403485208654093 1.2848880087226197e-23 3.5482447034035275e-16 3.5482446982660295e-16 5.137499146152588e-25
1.0423010764483396 1.2896130294439257e-23 3.567976880967422e-16 3.567976875595589e-16 5.371832741929902e-25
1.0462171883269815 1.2990498651114233e-23 3.6075894315080996e-16 3.6075894256364837e-16 5.871615669257499e-25
1.0471985131304309 1.3014062416092334e-23 3.6175232852084975e-16 3.61752327920514e-16 6.003358274117018e-25
1.048180758391296 1.303761457384112e-23 3.627469370873697e-16 3.627469364735766e-16 6.137931649084175e-25
1.0501480137395462 1.3084683514372554e-23 3.647398128588156e-16 3.647398122172354e-16 6.415803494675757e-25
1.0521189612883777 1.31317043684692e-23 3.667375484904237e-16 3.667375478198529e-16 6.70570810626586e-25
1.0531058218030118 1.3155160300149638e-23 3.677372221931718e-16 3.677372215076381e-16 6.855336550571502e-25
1.0540936079674168 1.3178485461338703e-23 3.687347896122595e-16 3.6873478891144014e-16 7.008193557570009e-25
1.058054026499678 1.3271654146330684e-23 3.7273685196190826e-16 3.727368511966167e-16 7.6529148920934545e-25
1.0590464539527713 1.3294912650208303e-23 3.737403016081881e-16 3.737403008259122e-16 7.82275953111639e-25
1.06003981227728 1.3318157417043493e-23 3.7474491921061386e-16 3.7474491841099285e-16 7.996210882909006e-25
1.0620293250338977 1.336460520142518e-23 3.767576468957128e-16 3.7675764606029026e-16 8.35422656010406e-25
1.0660195594769086 1.345733002027952e-23 3.8079699210107535e-16 3.807969911893914e-16 9.116838941106986e-25
1.070024785945596 1.3549820062636157e-23 3.848547035914292e-16 3.8485470259684596e-16 9.945831547275693e-25
1.0740450607676866 1.3642066855742228e-23 3.8893059574722427e-16 3.8893059466255625e-16 1.0846680014323234e-24
1.07808044048254 1.373406199573062e-23 3.930244813568547e-16 3.930244801743265e-16 1.182528491196158e-24
1.0861967418109137 1.391710140197242e-23 4.0126078677787465e-16 4.012607853737067e-16 1.404167926082709e-24
1.0902777775684922 1.4007759351285554e-23 4.053920852266024e-16 4.0539208369723377e-16 1.5293686245622802e-24
1.0943741465085532 1.4098126289792073e-23 4.0954030972415066e-16 4.095403080589558e-16 1.6651948570643645e-24
1.1026131145906286 1.427795523957644e-23 4.17886751719875e-16 4.1788674974767506e-16 1.9721999176627503e-24
1.1109141095355224 1.4456525245130475e-23 4.2629852963243506e-16 4.2629852729963e-16 2.3328050725805068e-24
1.1192775983109025 1.4633608726271995e-23 4.347691131954869e-16 4.3476911043967515e-16 2.755811773318957e-24
1.1277040513999907 1.4808383442758703e-23 4.4327396565549113e-16 4.432739624041215e-16 3.251369692108747e-24
1.1361939428280308 1.4981694362244567e-23 4.518380862762848e-16 4.518380824451185e-16 3.831166234265429e-24
1.1447477501889525 1.5153484208410266e-23 4.60459812636282e-16 4.604598081276394e-16 4.5086426288814914e-24
1.1533659546722406 1.5323790598131332e-23 4.691403303866265e-16 4.691403250873826e-16 5.2992437877374e-24
1.1707974979042381 1.5660504454534062e-23 4.866950913188795e-16 4.866950840255589e-16 7.29332062575357e-24
1.1884924949847024 1.599056613691709e-23 5.04463462726129e-16 5.044634527381122e-16 9.988016828007497e-24
1.2064549276569216 1.6316559593939827e-23 5.225274691497347e-16 5.225274555382361e-16 1.3611498435682052e-23
1.2246888378427687 1.6634931795026356e-23 5.40774515871601e-16 5.407744974120941e-16 1.8459506922442384e-23
1.2431983285522175 1.6944942622869075e-23 5.591778413738336e-16 5.59177816459782e-16 2.491405177016539e-23
1.2619875648066055 1.7246482629082498e-23 5.777301649702227e-16 5.777301315041704e-16 3.3466052261125495e-23
1.3004222497298317 1.7819166389992714e-23 6.150935992448611e-16 6.150935397032446e-16 5.95416166048681e-23
1.3400274889804893 1.8350794617557656e-23 6.527366753739566e-16 6.527365713652196e-16 1.0400873692815335e-22
1.3808389325824078 1.8839455682405046e-23 6.905272271795989e-16 6.905270487146749e-16 1.7846492392784509e-22
1.4228933163050095 1.9287578937337108e-23 7.284831131707481e-16 7.284828122287407e-16 3.009420072062147e-22
1.466228494730424 1.9705961463666748e-23 7.66952941710114e-16 7.669524427386829e-16 4.989714312654401e-22
1.5108834753276823 2.0086598930551284e-23 8.055765441552208e-16 8.055757303467031e-16 8.1380851755023545e-22
1.5568984535646726 2.0423036352869814e-23 8.440147388910533e-16 8.440134318935899e-16 1.3069974632162596e-21
1.6043148490894465 2.0715972915688413e-23 8.821945507006905e-16 8.821924799354277e-16 2.0707652628363376e-21
1.6531753430134553 2.096638854512249e-23 9.200511701948175e-16 9.200479373047932e-16 3.2328900243699128e-21
1.7035239163302658 2.1177302489438167e-23 9.576091964200081e-16 9.576042218076176e-16 4.974612390721598e-21
1.755405889504358 2.1365646032375512e-23 9.955498545806112e-16 9.955423062038404e-16 7.548376771185236e-21
1.8088679632656115 2.152740968306906e-23 1.0336370691802336e-15 1.0336257704827087e-15 1.1298697525092478e-20
1.8639582606462262 2.1659929954530395e-23 1.0716739248502898e-15 1.0716572348353218e-15 1.6690014967644883e-20
1.9207263702978936 2.1765409876055128e-23 1.10969028016705e-15 1.1096659411435232e-15 2.433902352701985e-20
1.979223391128241 2.1848776877544862e-23 1.1478664901216357e-15 1.147831436250911e-15 3.5053870725024864e-20
2.039501978296691 2.191590376847204e-23 1.1864595838129813e-15 1.1864097055694863e-15 4.987824349490193e-20
2.1016163906111602 2.1982921902071263e-23 1.2263326664209677e-15 1.2262625194304565e-15 7.014699051159846e-20
2.1656225393682647 2.2059297780152505e-23 1.2680719009935034e-15 1.2679743615295707e-15 9.753946393318551e-20
2.231578038680979 2.2145936995452558e-23 1.3118239992673054e-15 1.3116898582586474e-15 1.3414100865817405e-19
2.299542257339062 2.224864396227626e-23 1.358045666397842e-15 1.3578631562893708e-15 1.8251010847140992e-19
2.369576372248914 2.2379924643752943e-23 1.4076632209722503e-15 1.4074174681639976e-15 2.457528082529176e-19
2.4417434235010123 2.2554517513265222e-23 1.4618506353310034e-15 1.4615230467589237e-15 3.2758857208016545e-19
2.5161083711144245 2.2797460926569364e-23 1.522598002544756e-15 1.5221655686355215e-15 4.324339092342829e-19
2.5927381535095444 2.3149512383702627e-23 1.5931986847790036e-15 1.5926332143023068e-15 5.654704766965496e-19
2.6717017477616296 2.3659209885723722e-23 1.677867433111715e-15 1.6771347556090265e-15 7.326775026885545e-19
2.753070231689431 2.4399413406386453e-23 1.78306062239993e-15 1.78211973685303e-15 9.408855468997247e-19
2.836916847834745 2.5534725620812032e-23 1.9228580958317314e-15 1.9216602412839134e-15 1.197854547818141e-18
2.9233170693905177 2.7427031495124516e-23 2.1282574421913365e-15 2.126745404922545e-15 1.5120372687914626e-18
2.967498994190263 2.901372947385604e-23 2.2854070924163404e-15 2.2837164319102107e-15 1.6906605061300116e-18
3.0123486681368425 3.0862784138925104e-23 2.4677989366342865e-15 2.4659110687820245e-15 1.8878678522613227e-18
3.0578761833420214 3.495724046518278e-23 2.837438592917735e-15 2.8353327346387938e-15 2.1058582789413014e-18
3.1040917844459814 4.0223526745913995e-23 3.3142413671498985e-15 3.3118967904529618e-15 2.344576696936214e-18
3.127460860933648 4.5773036941503286e-23 3.799890170907319e-15 3.797417183213922e-15 2.4729876933970565e-18
3.1510058709225794 5.316005845881696e-23 4.446354602131531e-15 4.4437473261309695e-15 2.607276000561546e-18
3.162844764501044 6.002794091863403e-23 5.0396544125601894e-15 5.036977472945086e-15 2.676939615104483e-18
3.1747281389236908 6.801220902220823e-23 5.731428187688833e-15 5.728680049237887e-15 2.7481384509458145e-18
3.1986289994194426 9.027254676897062e-23 7.664591237518732e-15 7.661695638473242e-15 2.8955990454927783e-18
3.2227097969389145 1.4271640234266136e-22 1.220856224144127e-14 1.2205509925226543e-14 3.0523162147280245e-18
3.2348180950136065 1.9243863867794108e-22 1.6523862517327233e-14 1.6520726447181894e-14 3.136070145339047e-18
3.240889293275058 2.296100518506788e-22 1.9752611671550783e-14 1.9749431419829457e-14 3.180251721326231e-18
3.2469718861334385 2.726115692823443e-22 2.3495908602648546e-14 2.3492682632478958e-14 3.2259701695809635e-18
3.2714166318528037 5.019595000231409e-22 4.3588705188144026e-14 4.358528990543922e-14 3.41528270480807e-18
3.2744851364798273 5.162981234338688e-22 4.487588258140496e-14 4.487244488330908e-14 3.437698095892672e-18
3.2775565192852394 5.310483542614872e-22 4.620124617983679e-14 4.619778594426809e-14 3.460235568699056e-18
3.283707930232385 5.1687134794607365e-22 4.5052242506433077e-14 4.504874175507206e-14 3.500751361015173e-18
3.2898708863219004 4.718992073025965e-22 4.1209518000221576e-14 4.120598018170775e-14 3.5378185138183324e-18
3.29141343181113 4.612935690981559e-22 4.0302247923350054e-14 4.0298700791768605e-14 3.547131581453519e-18
3.292184975758714 4.560823214627729e-22 3.985629275838099e-14 3.98527409633097e-14 3.551795071304571e-18
3.295272960557952 4.2318950428153846e-22 3.701653094588018e-14 3.701296097393077e-14 3.569971949408469e-18
3.3076538914384823 3.092343744170141e-22 2.7150464015176085e-14 2.7146820933115123e-14 3.643082060961951e-18
3.310756385682612 2.8604044539890517e-22 2.5137616945816152e-14 2.5133955414270772e-14 3.66153154538484e-18
3.313861789986515 2.646399867000897e-22 2.327873039919204e-14 2.3275050349122183e-14 3.680050069858127e-18
3.3200813396944477 2.346306669189666e-22 2.0677733410926425e-14 2.0674013618364195e-14 3.7197925622353575e-18
3.345076488085796 1.8111693940188704e-22 1.6081796286053095e-14 1.6077899601181596e-14 3.896684871496514e-18
3.3482140837626964 1.831284281672137e-22 1.6275652911827888e-14 1.627173227148326e-14 3.920640344628995e-18
3.3513546224236106 1.8516211269601745e-22 1.6471833566546545e-14 1.646788885140684e-14 3.944715139706486e-18
3.3576445397418455 2.0000545181464868e-22 1.782567500430788e-14 1.7821679987867247e-14 3.995016440629247e-18
3.3702598118196083 2.547379012205591e-22 2.2789058388794732e-14 2.278495783652139e-14 4.100552273350702e-18
3.382922481734668 2.6721707502843395e-22 2.3995272435351843e-14 2.399106891588259e-14 4.203519469252785e-18
3.389271646505754 2.7368181659194416e-22 2.4621910900020854e-14 2.4617655111955423e-14 4.255788065430565e-18
3.395632727569191 2.80648563817445e-22 2.5296064961879214e-14 2.5291755303750726e-14 4.309658128482736e-18
3.421196662673239 3.14098701903501e-22 2.8524209289871774e-14 2.8519676188152656e-14 4.5331017191150714e-18
3.4276182099114902 3.0737415975485296e-22 2.796592760351071e-14 2.796134421261902e-14 4.583390891696767e-18
3.4340518103208963 2.7787915783386773e-22 2.5329828551390877e-14 2.5325197389977198e-14 4.631161413679786e-18
3.4469541582030403 2.358740016948391e-22 2.1581668421713608e-14 2.1576945149703162e-14 4.723272010445117e-18
3.472904465399547 2.241249940211443e-22 2.0661058182212476e-14 2.0656123302245626e-14 4.9348799668526375e-18
3.4990501388274233 2.0614341398174875e-22 1.9146485311551455e-14 1.9141332895905434e-14 5.152415646020639e-18
3.5253949054701885 1.4208389840977184e-22 1.3296032565056204e-14 1.3290667249062825e-14 5.365315993382423e-18
3.5519380250092896 8.187134260229381e-23 7.719101026818751e-15 7.713520441964017e-15 5.580584854736555e-18
3.578680990867387 5.801636687037059e-23 5.511159093366998e-15 5.505342322496793e-15 5.81677087020434e-18
3.605625307711299 4.8387946706457803e-23 4.631132643131314e-15 4.625066303690238e-15 6.066339441075691e-18
3.660119384959845 4.14084251523087e-23 4.023031176014023e-15 4.0164369015477885e-15 6.594274466235647e-18
3.715437065384467 3.6487655845459016e-23 3.598531472327819e-15 3.591375325982672e-15 7.156146345146478e-18
3.8285932144167436 3.41062413502609e-23 3.46611142073969e-15 3.457728806745406e-15 8.382613994283125e-18
3.94519561050918 3.3786738037618286e-23 3.538215159130314e-15 3.5284660945941483e-15 9.74906453616551e-18
4.06534921144712 3.432532007510448e-23 3.704093031901891e-15 3.6928312788762466e-15 1.1261753025643897e-17
4.189162171576248 3.5370784107977204e-23 3.9331571012313716e-15 3.920225442530657e-15 1.2931658700715562e-17
4.316745939156006 3.679398220582573e-23 4.216020521759637e-15 4.201258187199361e-15 1.4762334560274575e-17
4.448215356677963 3.855361847296008e-23 4.552190031406299e-15 4.5354499585785444e-15 1.674007282775499e-17
4.58368876423945 4.0658706222317813e-23 4.946956701392776e-15 4.928079492437386e-15 1.8877208955390856e-17
4.723288106065518 4.3155578533897533e-23 5.410667087723463e-15 5.389469962680875e-15 2.1197125042589797e-17
4.867139040275056 4.6132809717518495e-23 5.960093764435013e-15 5.936434965205602e-15 2.3658799229411384e-17
4.940699165968905 4.79091287345045e-23 6.283131033597677e-15 6.258178081609537e-15 2.4952951988142362e-17
5.015371051989984 4.975323020210881e-23 6.623595224013526e-15 6.597307412713029e-15 2.62878113004965e-17
5.091171501069577 5.197230480712967e-23 7.023589757021522e-15 6.995900168554637e-15 2.7689588466883445e-17
5.129500256944802 5.311314092378361e-23 7.231801112902485e-15 7.203395163377091e-15 2.840594952539454e-17
5.168117569889187 5.430118912420512e-23 7.44922613208183e-15 7.42008802578467e-15 2.913810629716186e-17
5.20702561229733 5.573767805103437e-23 7.703853574054638e-15 7.673924315599826e-15 2.992925845481234e-17
5.246226572918644 5.72112978502132e-23 7.967063449047603e-15 7.93632998150658e-15 3.0733467541024416e-17
5.265937586045735 5.796240229448079e-23 8.101986538202567e-15 8.070846070528672e-15 3.114046767389562e-17
5.285722656980489 5.872324021450347e-23 8.239176678958877e-15 8.207625948301026e-15 3.1550730657851576e-17
5.305582063971359 5.949396843751895e-23 8.378676219496997e-15 8.346711963948297e-15 3.196425554870197e-17
5.3255160863122235 6.031834881968224e-23 8.526692051596923e-15 8.494308485348743e-15 3.238356624818138e-17
5.365609099470188 6.234381788365666e-23 8.879363952914437e-15 8.846112241707025e-15 3.325171120741297e-17
5.406003951863644 6.444520404464192e-23 9.247756692118342e-15 9.213622435436159e-15 3.4134256682185074e-17
5.446702915881641 6.662610575436885e-23 9.632689261226243e-15 9.59765803996623e-15 3.503122126001281e-17
5.487708281020852 6.897573295657859e-23 1.0047471292052269e-14 1.0011525660021141e-14 3.594563203112683e-17
5.529022354014368 7.219183363859843e-23 1.0595119312202667e-14 1.0558218186057983e-14 3.6901126144686015e-17
5.570647458961463 7.559280496515653e-23 1.1177780280684807e-14 1.1139907600077455e-14 3.787268060735304e-17
5.612585937458331 7.919175426415376e-23 1.1798108898150786e-14 1.17592485543287e-14 3.8860343822090156e-17
5.654840148729818 8.313688123041516e-23 1.247910659224509e-14 1.2439238588815645e-14 3.986800342944479e-17
5.67608639626678 8.579770198875771e-23 1.292689097976602e-14 1.2886496289091293e-14 4.0394690674723463e-17
5.686739436050992 8.716829961452075e-23 1.3158044077642451e-14 1.31173843406936e-14 4.0659736948848556e-17
5.6974124697621304 8.856653570631128e-23 1.3394199163322067e-14 1.3353273243126799e-14 4.092592019526546e-17
5.718818669136295 9.144856157331476e-23 1.388201911296959e-14 1.3840557409791862e-14 4.146170317772693e-17
5.740305295436557 9.461822603942907e-23 1.4417143632219645e-14 1.437513826762894e-14 4.200536459070754e-17
5.7835210386641895 1.0279614585601187e-22 1.5781147707195792e-14 1.573801518168578e-14 4.3132525510009754e-17
5.827062130521658 1.1219377605065583e-22 1.7353530638339402e-14 1.7309242840373256e-14 4.4287797966149024e-17
5.8489554468988025 1.1875516649748993e-22 1.8437424680542807e-14 1.8392516360308608e-14 4.490832023419708e-17
5.870931020387893 1.2578933945934258e-22 1.9602896519791137e-14 1.955736156509634e-14 4.553495469480093e-17
5.892989160043636 1.3333420416346134e-22 2.0856750617655212e-14 2.0810582886085066e-14 4.6167731570141395e-17
5.915130176081913 1.4190322413337956e-22 2.2280554899913723e-14 2.223373193869229e-14 4.682296122143128e-17
5.95966208400165 1.6579624042664678e-22 2.622803454973305e-14 2.6179740096091177e-14 4.8294453641865527e-17
6.004529249263818 2.001533903720457e-22 3.190151797939204e-14 3.185157808441911e-14 4.993989497293228e-17
6.027089341400364 2.240015734199231e-22 3.583670990556301e-14 3.5785830151543365e-14 5.0879754019633214e-17
6.049734195844842 2.5216157158992103e-22 4.049343596769858e-14 4.044156241913407e-14 5.1873548564499174e-17
6.095279466722835 3.334230505839951e-22 5.394592899312697e-14 5.389165117454244e-14 5.427781858452985e-17
6.141167624020661 4.583624953697031e-22 7.471872626239792e-14 7.466137533560658e-14 5.735092679132876e-17
6.164241091010745 5.381367605727859e-22 8.805250370283243e-14 8.799324730851202e-14 5.925639432039612e-17
6.187401249150058 6.289677981679271e-22 1.0330138035080919e-13 1.0324016033582789e-13 6.12200149813029e-17
6.1990139391386085 6.733244442939258e-22 1.1079404726915776e-13 1.1073182659162301e-13 6.222067753475976e-17
6.204828454712694 6.966857582535769e-22 1.1474562737154276e-13 1.1468290053222404e-13 6.272683931869781e-17
6.210648424152782 7.137505854447202e-22 1.1766650546373428e-13 1.1760334168422722e-13 6.316377950705795e-17
6.233982942956859 7.717448222493935e-22 1.277052545628559e-13 1.276405428901256e-13 6.471167273033369e-17
6.239830258556775 7.791725603818606e-22 1.2905530415728702e-13 1.2899035944652507e-13 6.494471076194596e-17
6.245683058788269 7.798450306280898e-22 1.292878412548646e-13 1.2922266285467237e-13 6.517840019225527e-17
6.257405133728602 7.783174866639145e-22 1.2927677074798864e-13 1.29211172517577e-13 6.559823041165563e-17
6.269149208991335 7.66999308774353e-22 1.276359490616775e-13 1.2757014476448882e-13 6.58042971887185e-17
6.280915325867298 7.385208871690307e-22 1.231275263216584e-13 1.230617811554659e-13 6.574516619252277e-17
6.304513850009849 6.682575371429755e-22 1.1183169359475728e-13 1.117663075033887e-13 6.538609136858896e-17
6.32820103803542 5.811458630149561e-22 9.76191116607458e-14 9.75543408964991e-14 6.477076424671049e-17
6.3519772230701035 5.012694583597181e-22 8.451807747731784e-14 8.445384083826847e-14 6.423663904935178e-17
6.375842739491607 4.340706631373314e-22 7.346279784494445e-14 7.339901280061792e-14 6.378504432655432e-17
6.399797922933955 3.8026397333921956e-22 6.459826830446723e-14 6.453462679280202e-14 6.364151166520652e-17
6.42384311029221 3.355365865267987e-22 5.721425413858733e-14 5.71506947621016e-14 6.355937648573621e-17
6.447978639727206 3.029919717891374e-22 5.185900078368501e-14 5.1795280975636216e-14 6.371980804878774e-17
6.472204850670314 2.7589750326902763e-22 4.7399030424102903e-14 4.7335100713650113e-14 6.392971045279189e-17
6.496522083828205 2.583476398393852e-22 4.4550732647421424e-14 4.448639434406701e-14 6.433830335442928e-17
