Dust emission spectrum from A.P. Jones, M. Kohler, N. Ysard, M. Bocchio, and L. Verstraete (2017), A&A, 602A, 46J 
inside the DustPedia framework.

lambda    nu*dP/dnu     j_nu    j_nu(carb.) j_nu(sil)
 (um)   (erg s-1 H-1) (Jy cm2 sr-1 H-1)
0.9927057738263894 2.295046606744885e-21 6.047578164817643e-14 6.047573907944905e-14 4.2568727372129434e-20
1.0001793341362166 2.3335881432754857e-21 6.19543092734504e-14 6.195425805458913e-14 5.121886125726328e-20
1.0077091589558085 2.3722964575215717e-21 6.345613247938156e-14 6.34560709351356e-14 6.15442459681979e-20
1.0114953028030835 2.391711728168977e-21 6.421583536700075e-14 6.42157679378291e-14 6.742917163996878e-20
1.0152956718711033 2.4111670189309895e-21 6.498142971251513e-14 6.498135586047317e-14 7.385204193736855e-20
1.0229392996569957 2.450176632245592e-21 6.652987239582942e-14 6.652978389232236e-14 8.850350704890692e-20
1.0267826658714554 2.4696869361573783e-21 6.731159255207923e-14 6.731149571163234e-14 9.684044689789789e-20
1.0306404723013447 2.489234343254942e-21 6.809926272262505e-14 6.809915679541452e-14 1.0592721054544052e-19
1.03451277320114 2.508818426969869e-21 6.889290868296677e-14 6.889279285517432e-14 1.1582779245590983e-19
1.0383996230291617 2.528438785321535e-21 6.969255692233068e-14 6.969243031099803e-14 1.2661133264357316e-19
1.0403485208654093 2.5382624487752047e-21 7.009464037779012e-14 7.009450802047025e-14 1.3235731986163534e-19
1.0423010764483396 2.548095041668796e-21 7.049823467666275e-14 7.049809632415975e-14 1.383525029933733e-19
1.0462171883269815 2.5677868454715945e-21 7.130996996250247e-14 7.130981883058214e-14 1.5113192034575464e-19
1.0471985131304309 2.5727153121808738e-21 7.151385363357804e-14 7.151369913452849e-14 1.5449904954518714e-19
1.048180758391296 2.577645975451781e-21 7.171811815688926e-14 7.171796021899122e-14 1.5793789803070276e-19
1.0501480137395462 2.58751387306271e-21 7.212779161175901e-14 7.212762657517101e-14 1.6503658802788253e-19
1.0521189612883777 2.5973905021731892e-21 7.25389940643591e-14 7.253882162441807e-14 1.724399410331743e-19
1.0531058218030118 2.6023255951191766e-21 7.274498856395031e-14 7.27448123039665e-14 1.7625998381799847e-19
1.0540936079674168 2.6072416125468582e-21 7.295077194501336e-14 7.295059178325656e-14 1.8016175680942035e-19
1.058054026499678 2.6269264523263943e-21 7.377771341685526e-14 7.377751680592033e-14 1.966109349019569e-19
1.0590464539527713 2.631852836645015e-21 7.398540320162708e-14 7.398520225934567e-14 2.0094228140073e-19
1.06003981227728 2.6367812838664976e-21 7.419347573817481e-14 7.419327037340038e-14 2.053647744258714e-19
1.0620293250338977 2.646644354275257e-21 7.461077106716443e-14 7.461055657664504e-14 2.1449051939647868e-19
1.0660195594769086 2.666395116517072e-21 7.544997697110855e-14 7.544974305287274e-14 2.339182357860787e-19
1.070024785945596 2.6861785682918786e-21 7.62953642125705e-14 7.629510919165988e-14 2.550209106264685e-19
1.0740450607676866 2.7059945707931926e-21 7.714696692490961e-14 7.714668898978351e-14 2.779351260871891e-19
1.07808044048254 2.725843018017572e-21 7.800482033280412e-14 7.800451752488641e-14 3.028079177294978e-19
1.0861967418109137 2.7656068851650768e-21 7.973855780790446e-14 7.973819873371658e-14 3.59074187867444e-19
1.0902777775684922 2.7854538193494037e-21 8.06125307988552e-14 8.061213997781294e-14 3.908210422747986e-19
1.0943741465085532 2.805331947154921e-21 8.14928516670158e-14 8.149242643223025e-14 4.2523478554126483e-19
1.1026131145906286 2.8451821299128848e-21 8.327270245427675e-14 8.327219952974945e-14 5.029245273232742e-19
1.1109141095355224 2.885158515565239e-21 8.507845502889791e-14 8.507786099874138e-14 5.94030156502929e-19
1.1192775983109025 2.9252318925873944e-21 8.690955864824305e-14 8.690885792237418e-14 7.00725868861628e-19
1.1277040513999907 2.9652624692262334e-21 8.876212984517624e-14 8.876130433159065e-14 8.25513585607713e-19
1.1361939428280308 3.0054219161557394e-21 9.064155590243687e-14 9.06405846340072e-14 9.712684296713527e-19
1.1447477501889525 3.0457141335977728e-21 9.254828394658904e-14 9.254714265674645e-14 1.1412898426017877e-18
1.1533659546722406 3.0861576997214927e-21 9.448321768695603e-14 9.44818783259731e-14 1.3393609829182804e-18
1.1707974979042381 3.1676354169731538e-21 9.844335557673034e-14 9.844151797061585e-14 1.837606114500834e-18
1.1884924949847024 3.249789216807385e-21 1.0252294430375667e-13 1.0252043577001501e-13 2.5085337416593978e-18
1.2064549276569216 3.3332060509834467e-21 1.0674380907001054e-13 1.067404016010905e-13 3.4074689200260305e-18
1.2246888378427687 3.417417502762945e-21 1.1109467224508322e-13 1.1109006644776511e-13 4.6057973180946474e-18
1.2431983285522175 3.5024203256592874e-21 1.1557878246473495e-13 1.1557258716453973e-13 6.1953001952177724e-18
1.2619875648066055 3.588412445888609e-21 1.2020619850035568e-13 1.2019790511825666e-13 8.29338209901548e-18
1.3004222497298317 3.763230543084646e-21 1.2990164460409839e-13 1.2988699259623087e-13 1.4652007867475967e-17
1.3400274889804893 3.943280273411085e-21 1.4026224528017885e-13 1.4023683503557317e-13 2.541024460570528e-17
1.3808389325824078 4.130410165898003e-21 1.5139294505391292e-13 1.5134966659285298e-13 4.3278461059921904e-17
1.4228933163050095 4.327701215258645e-21 1.6345531310109112e-13 1.633828858559533e-13 7.242724513783265e-17
1.466228494730424 4.54037461740911e-21 1.7671067081442965e-13 1.7659151447812655e-13 1.191563363030552e-16
1.5108834753276823 4.770951289021013e-21 1.913398313487888e-13 1.9114703041646183e-13 1.928009323270108e-16
1.5568984535646726 5.023001801952631e-21 2.075836071127892e-13 2.0727646595746721e-13 3.071411553220087e-16
1.6043148490894465 5.302459603279189e-21 2.2580648209772968e-13 2.253238465027186e-13 4.826355950110597e-16
1.6531753430134553 5.616558828291163e-21 2.464669349857805e-13 2.4571973938090586e-13 7.471956048746352e-16
1.7035239163302658 5.974246879669466e-21 2.7014742583519644e-13 2.6900748124190797e-13 1.1399445932884325e-15
1.755405889504358 6.388927472886491e-21 2.976973318251231e-13 2.9598264812879864e-13 1.71468369632448e-15
1.8088679632656115 6.871887321224059e-21 3.2995318874956243e-13 3.2740936095821496e-13 2.5438277913474188e-15
1.8639582606462262 7.436542229302694e-21 3.6793971240543315e-13 3.6421608547119526e-13 3.723626934237825e-15
1.9207263702978936 8.099668565953993e-21 4.12954478293647e-13 4.0757449178385037e-13 5.3799865097965906e-15
1.979223391128241 8.881189214899146e-21 4.665899399929224e-13 4.589145821406993e-13 7.675357852223199e-15
2.039501978296691 9.803668285244163e-21 5.307404301658084e-13 5.199243202717893e-13 1.081610989401911e-14
2.1016163906111602 1.0894915845468137e-20 6.077804970023623e-13 5.927187440983005e-13 1.5061752904061865e-14
2.1656225393682647 1.2184150709546663e-20 7.004021300327795e-13 6.796692924320681e-13 2.07328376007113e-14
2.231578038680979 1.370078279154774e-20 8.115716972549597e-13 7.833519381121732e-13 2.8219759142786333e-14
2.299542257339062 1.547811509404867e-20 9.447761024501234e-13 9.067843600881139e-13 3.799174236200907e-14
2.369576372248914 1.7552679354195626e-20 1.104036834338364e-12 1.0534306296682799e-12 5.060620467008398e-14
2.4417434235010123 1.9962959729361984e-20 1.2938811635536623e-12 1.2271660250843353e-12 6.671513846932715e-14
2.5161083711144245 2.2750891095250732e-20 1.5194876942357302e-12 1.4324138440534708e-12 8.707385018225935e-14
2.5927381535095444 2.5960912099084335e-20 1.7866851934662245e-12 1.6741401890475914e-12 1.1254500441863345e-13
2.6717017477616296 2.963605237714109e-20 2.1017340549315217e-12 1.9576394422495594e-12 1.4409461268196184e-13
2.753070231689431 3.381925577465002e-20 2.4714439747500708e-12 2.2886532611562126e-12 1.8279071359385826e-13
2.836916847834745 3.856343485815551e-20 2.9039674841716905e-12 2.6741614726311127e-12 2.2980601154057836e-13
2.9233170693905177 4.39341628046106e-20 3.409162561831732e-12 3.1228142312541015e-12 2.863483305776305e-13
2.967498994190263 4.6846692567847904e-20 3.690106904294447e-12 3.3721621777830016e-12 3.1794472651144513e-13
3.0123486681368425 4.994019799533033e-20 3.993235573090919e-12 3.6406629511831555e-12 3.52572621907763e-13
3.0578761833420214 5.347175022172564e-20 4.34023983847057e-12 3.9496515689839186e-12 3.9058826948665055e-13
3.1040917844459814 5.72622652826885e-20 4.718158344876511e-12 4.2863197264929395e-12 4.3183861838357243e-13
3.127460860933648 5.954386953046557e-20 4.943088326338458e-12 4.489210241762081e-12 4.538780845763769e-13
3.1510058709225794 6.205398620470308e-20 5.190250634423929e-12 4.713433689131107e-12 4.768169452928221e-13
3.162844764501044 6.369042983955064e-20 5.3471391966254805e-12 4.858464434156167e-12 4.886747624693141e-13
3.1747281389236908 6.544056019864143e-20 5.5147138540694865e-12 5.0139493585916254e-12 5.007644954778596e-13
3.1986289994194426 6.961495997859881e-20 5.91065868140091e-12 5.38494497907856e-12 5.257137023223477e-13
3.2227097969389145 7.710245803705245e-20 6.595669050382782e-12 6.0435529302300515e-12 5.521161201527312e-13
3.2348180950136065 8.338415010750143e-20 7.159831528461484e-12 6.5936342071608444e-12 5.661973213006387e-13
3.240889293275058 8.786483097542569e-20 7.55872781637935e-12 6.985102966789016e-12 5.736248495903334e-13
3.2469718861334385 9.298535773946842e-20 8.014243388798926e-12 7.4329332661745e-12 5.813101226244257e-13
3.2714166318528037 1.1917496904559072e-19 1.0348808203241426e-11 9.735766962774707e-12 6.130412404667155e-13
3.2744851364798273 1.2092201465230685e-19 1.0510365784312049e-11 9.893593114696212e-12 6.167726696158372e-13
3.2775565192852394 1.2270961133116932e-19 1.0675745280535928e-11 1.0055223261311219e-11 6.205220192247103e-13
3.283707930232385 1.2165629122158826e-19 1.0603970903645589e-11 9.976760074748229e-12 6.272108288973601e-13
3.2898708863219004 1.1732741044333704e-19 1.0245844785841577e-11 9.612561687494727e-12 6.332830983468506e-13
3.29141343181113 1.163096347587697e-19 1.0161727910247095e-11 9.526920410719819e-12 6.348074995272757e-13
3.292184975758714 1.1581001321787178e-19 1.0120448818010645e-11 9.4848781670258e-12 6.355706509848424e-13
3.295272960557952 1.1258855027958492e-19 9.848159071552505e-12 9.209622725407657e-12 6.385363461448481e-13
3.3076538914384823 1.0143533495200038e-19 8.905919390991525e-12 8.25547879057958e-12 6.504406004119468e-13
3.310756385682612 9.91742450901319e-20 8.715565312763864e-12 8.062125666285965e-12 6.534396464778973e-13
3.313861789986515 9.70924621722407e-20 8.540618819115808e-12 7.884170925321081e-12 6.56447893794727e-13
3.3200813396944477 9.433787503237422e-20 8.31388946759645e-12 7.650964156259054e-12 6.629253113373928e-13
3.345076488085796 9.070635419075906e-20 8.054029152455783e-12 7.362219001612946e-12 6.918101508428378e-13
3.3482140837626964 9.11962159609769e-20 8.105120393965658e-12 7.409396519441905e-12 6.957238745237537e-13
3.3513546224236106 9.168889692574133e-20 8.156551186799763e-12 7.456896758064498e-12 6.99654428735263e-13
3.3576445397418455 9.384542899768213e-20 8.364062593167821e-12 7.65618761795505e-12 7.078749752127706e-13
3.3702598118196083 1.0079622266509345e-19 9.017311490275331e-12 8.292194866938061e-12 7.251166233372672e-13
3.382922481734668 1.0326792061653305e-19 9.273142027927393e-12 8.531291562334172e-12 7.418504655932226e-13
3.389271646505754 1.0452940202443419e-19 9.404035880525633e-12 8.65370843323404e-12 7.503274472915942e-13
3.395632727569191 1.0588361604410837e-19 9.543746789285906e-12 8.784683280974064e-12 7.590635083118417e-13
3.421196662673239 1.1206958162043873e-19 1.0177362026003745e-11 9.38216191407543e-12 7.952001119283176e-13
3.4276182099114902 1.1185397463189949e-19 1.0176848174926119e-11 9.373610662497236e-12 8.032375124288807e-13
3.4340518103208963 1.0910434514331102e-19 9.94530996219616e-12 9.134483642195302e-12 8.108263200008563e-13
3.4469541582030403 1.0540568227800748e-19 9.644261208708806e-12 8.818895823748269e-12 8.253653849605383e-13
3.472904465399547 1.0614675302806279e-19 9.785183708510631e-12 8.926285876234694e-12 8.588978322759377e-13
3.4990501388274233 1.0625731871661619e-19 9.86912049604776e-12 8.97596799718847e-12 8.931524988592865e-13
3.5253949054701885 1.0141506874527533e-19 9.49029461970236e-12 8.563959784715658e-12 9.263348349867e-13
3.5519380250092896 9.688915666466303e-20 9.135030218459484e-12 8.175421301763692e-12 9.596089166957902e-13
3.578680990867387 9.650513964666544e-20 9.167329955505965e-12 8.17126143052846e-12 9.960685249775064e-13
3.605625307711299 9.776128533114067e-20 9.356575563705352e-12 8.322154744324843e-12 1.0344208193805091e-12
3.660119384959845 1.0172080975162992e-19 9.882674537246492e-12 8.767892215228178e-12 1.114782322018315e-12
3.715437065384467 1.0598742092371562e-19 1.045282468899171e-11 9.253636809022055e-12 1.1991878799696541e-12
3.8285932144167436 1.1563888958947214e-19 1.1752021331563679e-11 1.0372515505848049e-11 1.379505825715628e-12
3.94519561050918 1.258354900010298e-19 1.3177745593034478e-11 1.1603244943061985e-11 1.5745006499724964e-12
4.06534921144712 1.363741802570032e-19 1.4716327472432472e-11 1.2932773160449222e-11 1.7835543119832527e-12
4.189162171576248 1.4714306212432123e-19 1.636200028601232e-11 1.4355336635374132e-11 2.00666365063819e-12
4.316745939156006 1.5803728923731375e-19 1.8108625777458854e-11 1.5866085584890536e-11 2.2425401925683072e-12
4.448215356677963 1.6893773969288996e-19 1.994719886273856e-11 1.7459813863313764e-11 2.4873849994247947e-12
4.58368876423945 1.7976315563894155e-19 2.1871835827462772e-11 1.9130754619607763e-11 2.7410812078550115e-12
4.723288106065518 1.9044397050947894e-19 2.3877073562613504e-11 2.087224384044287e-11 3.0048297221706296e-12
4.867139040275056 2.0084506286609901e-19 2.5948027317989792e-11 2.267724607220351e-11 3.2707812457862877e-12
4.940699165968905 2.0593884406554954e-19 2.700822946169718e-11 2.360291038845881e-11 3.4053190732383712e-12
5.015371051989984 2.1092114074027972e-19 2.8079709694740322e-11 2.4539306252427e-11 3.5404034423133245e-12
5.091171501069577 2.1585758134154435e-19 2.917121153106778e-11 2.5492106989663256e-11 3.6791045414045245e-12
5.129500256944802 2.182753677564472e-19 2.972002822663844e-11 2.5971558403257004e-11 3.748469823381433e-12
5.168117569889187 2.2066799019426003e-19 3.0272002981539147e-11 2.6453409706286912e-11 3.818593275252228e-12
5.20702561229733 2.231130654609442e-19 3.0837854156676405e-11 2.6942228408377398e-11 3.895625748299005e-12
5.246226572918644 2.2552230359280744e-19 3.1405519004365274e-11 2.743266555845918e-11 3.972853445906096e-12
5.265937586045735 2.267130616811361e-19 3.1689959371303636e-11 2.7678431487448453e-11 4.011527883855181e-12
5.285722656980489 2.278943579547372e-19 3.197476625043643e-11 2.7924530327035604e-11 4.0502359234008325e-12
5.305582063971359 2.290660290852261e-19 3.2259910390859616e-11 2.817093795498554e-11 4.088972435874077e-12
5.3255160863122235 2.302380040926191e-19 3.254678879458121e-11 2.841871008711226e-11 4.128078707468949e-12
5.365609099470188 2.3262943777722273e-19 3.313241816599298e-11 2.8923392616571535e-11 4.209025549421443e-12
5.406003951863644 2.3498271096001966e-19 3.3719544689583534e-11 2.94293991508681e-11 4.290145538715429e-12
5.446702915881641 2.372966989219588e-19 3.4307953880076554e-11 2.9936556388004e-11 4.3713974920725424e-12
5.487708281020852 2.395877068098386e-19 3.489996413109367e-11 3.0446834948430404e-11 4.453129182663259e-12
5.529022354014368 2.419896768464033e-19 3.551522892941424e-11 3.0976904783363837e-11 4.538324146050402e-12
5.570647458961463 2.443561007991089e-19 3.613252354157636e-11 3.1508846651911687e-11 4.6236768896646704e-12
5.612585937458331 2.466864845493264e-19 3.675173047318585e-11 3.204258494506962e-11 4.709145528116228e-12
5.654840148729818 2.490055397648937e-19 3.7376512406972746e-11 3.2581349889410394e-11 4.795162517562357e-12
5.67608639626678 2.5026116615905735e-19 3.770612424830617e-11 3.2865874890712415e-11 4.840249357593747e-12
5.686739436050992 2.508868316881998e-19 3.787133630519363e-11 3.300852626334235e-11 4.862810041851276e-12
5.6974124697621304 2.5151109028576375e-19 3.803682291743671e-11 3.3151441569354227e-11 4.8853813480824805e-12
5.718818669136295 2.5275546775682893e-19 3.8368632310251044e-11 3.3438079156525525e-11 4.93055315372553e-12
5.740305295436557 2.5402489687878155e-19 3.870621525851719e-11 3.37300821054726e-11 4.976133153044587e-12
5.7835210386641895 2.567922380018462e-19 3.942245309123627e-11 3.435216764832311e-11 5.070285442913163e-12
5.827062130521658 2.5962423217938477e-19 4.0157281679743935e-11 3.4991726788625926e-11 5.165554891118005e-12
5.8489554468988025 2.613055683811785e-19 4.056919692615007e-11 3.535193628905833e-11 5.217260637091737e-12
5.870931020387893 2.630054988428894e-19 4.098653828784607e-11 3.57174564703517e-11 5.269081817494358e-12
5.892989160043636 2.647262195781935e-19 4.140969512165183e-11 3.608868210819503e-11 5.3210130134568075e-12
5.915130176081913 2.6655820123530263e-19 4.1852922461177377e-11 3.647799340371388e-11 5.374929057463509e-12
5.95966208400165 2.71124791585238e-19 4.289042008846361e-11 3.7391147461359214e-11 5.499272627104403e-12
6.004529249263818 2.769226610122226e-19 4.413741497339302e-11 3.8497377134915414e-11 5.6400378384775965e-12
6.027089341400364 2.806581399642272e-19 4.4900864717043746e-11 3.917875103733292e-11 5.722113679710839e-12
6.049734195844842 2.848278677674141e-19 4.573916220673214e-11 3.9929946875918675e-11 5.8092153308134745e-12
6.095279466722835 2.961807290689222e-19 4.792033589609181e-11 4.18945117719095e-11 6.025824124182305e-12
6.141167624020661 3.12406734841585e-19 5.0926141512364306e-11 4.4616078853238864e-11 6.310062659125426e-12
6.164241091010745 3.225909791172482e-19 5.2783874777459857e-11 4.629392407543694e-11 6.489950702022927e-12
6.187401249150058 3.335434519604971e-19 5.478102232714612e-11 4.810664653357951e-11 6.674375793566627e-12
6.1990139391386085 3.3883895616164066e-19 5.5755200399670916e-11 4.898703730736014e-11 6.768163092310762e-12
6.204828454712694 3.415734699329177e-19 5.625787758196393e-11 4.944237469658189e-11 6.8155028853820366e-12
6.210648424152782 3.4357339750904766e-19 5.6640347314045295e-11 4.97848404968678e-11 6.855506817177475e-12
6.233982942956859 3.501751422312286e-19 5.794558562748875e-11 5.095200102309279e-11 6.9935846043959775e-12
6.239830258556775 3.5091675757788414e-19 5.812277175277835e-11 5.111108022232122e-11 7.011691530457125e-12
6.245683058788269 3.509126183140831e-19 5.81766031827887e-11 5.1146786735249664e-11 7.029816447539038e-12
6.257405133728602 3.5055497216500733e-19 5.822638646523461e-11 5.1165460378574335e-11 7.060926086660276e-12
6.269149208991335 3.4902834549659824e-19 5.8081622261267685e-11 5.101224372000359e-11 7.0693785412640804e-12
6.280915325867298 3.4551389725382847e-19 5.760469638400703e-11 5.055484204241535e-11 7.049854341591694e-12
6.304513850009849 3.36953458084181e-19 5.638855349281582e-11 4.94029974716562e-11 6.985556021159617e-12
6.32820103803542 3.2679305825293547e-19 5.489370237972238e-11 4.7999302956614545e-11 6.894399423107841e-12
6.3519772230701035 3.1765383868327617e-19 5.355900165282843e-11 4.674714577848266e-11 6.81185587434577e-12
6.375842739491607 3.0978750508370646e-19 5.242892181739981e-11 4.5690741160840185e-11 6.7381806565596205e-12
6.399797922933955 3.0396585824594636e-19 5.1636940239019266e-11 4.494068203621494e-11 6.696258202804332e-12
6.42384311029221 2.990184157276542e-19 5.0987332876718573e-11 4.432663575877113e-11 6.660697117947433e-12
6.447978639727206 2.9567687363407864e-19 5.0606975263946366e-11 4.3957164708093824e-11 6.6498105558525555e-12
6.472204850670314 2.9287239951508056e-19 5.0315307715775584e-11 4.367150992126279e-11 6.643797794512807e-12
6.496522083828205 2.9128068476532063e-19 5.022986825196196e-11 4.357216803494785e-11 6.657700217014118e-12
6.520930681187647 2.899637921493228e-19 5.019064622873552e-11 4.351609925503242e-11 6.67454697370309e-12
