Dust emission spectrum from A.P. Jones, M. Kohler, N. Ysard, M. Bocchio, and L. Verstraete (2017), A&A, 602A, 46J 
inside the DustPedia framework.

lambda    nu*dP/dnu     j_nu    j_nu(carb.) j_nu(sil)
 (um)   (erg s-1 H-1) (Jy cm2 sr-1 H-1)
0.9927057738263894 1.7185162575906337e-23 4.528387948526096e-16 4.528387948505509e-16 2.058625319128869e-27
1.0001793341362166 1.7468920946005817e-23 4.637814663572942e-16 4.637814663548142e-16 2.4798803085338037e-27
1.0077091589558085 1.7752270561916444e-23 4.748523014546348e-16 4.748523014516513e-16 2.9834985152947113e-27
1.0114953028030835 1.789375719055442e-23 4.804352265000667e-16 4.804352264967959e-16 3.270870736943517e-27
1.0152956718711033 1.803509986577189e-23 4.860495208687114e-16 4.860495208651267e-16 3.584764741215744e-27
1.0229392996569957 1.8317159385169837e-23 4.973675205744387e-16 4.973675205701371e-16 4.3016918185866696e-27
1.0267826658714554 1.8457533990002888e-23 5.030621449471263e-16 5.030621449424163e-16 4.710130533682039e-27
1.0306404723013447 1.85977025792589e-23 5.087869036573397e-16 5.08786903652184e-16 5.155679605484375e-27
1.03451277320114 1.8737651627430617e-23 5.145415501674824e-16 5.145415501618407e-16 5.6415462223756414e-27
1.0383996230291617 1.887736768429202e-23 5.203258348665079e-16 5.203258348603368e-16 6.171199411352819e-27
1.0403485208654093 1.8947134159006222e-23 5.232290127075443e-16 5.232290127010908e-16 6.4536065376032645e-27
1.0423010764483396 1.9016837377477186e-23 5.261395051290154e-16 5.26139505122267e-16 6.748390065015104e-27
1.0462171883269815 1.9156047415002313e-23 5.3198230537442e-16 5.319823053670428e-16 7.377172388321417e-27
1.0471985131304309 1.919080780338597e-23 5.334475267681637e-16 5.334475267606208e-16 7.542934991578015e-27
1.048180758391296 1.9225550931734657e-23 5.349145485782914e-16 5.34914548570579e-16 7.712265919493159e-27
1.0501480137395462 1.9294984587730475e-23 5.378539771261728e-16 5.378539771181109e-16 8.061926857038358e-27
1.0521189612883777 1.9364346745187487e-23 5.408005582657229e-16 5.408005582572959e-16 8.426757770518438e-27
1.0531058218030118 1.9398947213924483e-23 5.422750311784048e-16 5.422750311697898e-16 8.615068869815796e-27
1.0540936079674168 1.9433354609170806e-23 5.437463921248745e-16 5.43746392116067e-16 8.807450447819245e-27
1.058054026499678 1.9570788056626127e-23 5.496491884289623e-16 5.496491884193433e-16 9.618959842645618e-27
1.0590464539527713 1.9605096380160022e-23 5.511292046032212e-16 5.511292045933883e-16 9.832763949405245e-27
1.06003981227728 1.963938428766778e-23 5.526109391686452e-16 5.526109391585941e-16 1.0051116984039668e-26
1.0620293250338977 1.9707898056185017e-23 5.555795464962227e-16 5.55579546485721e-16 1.050184004610555e-26
1.0660195594769086 1.9844671839338314e-23 5.615371945449238e-16 5.615371945334617e-16 1.146204613129436e-26
1.070024785945596 1.9981096734351813e-23 5.67521858266992e-16 5.675218582544861e-16 1.250600122617097e-26
1.0740450607676866 2.0117160168349906e-23 5.735332608874659e-16 5.735332608738252e-16 1.364063086193337e-26
1.07808044048254 2.02528496693419e-23 5.7957112322384e-16 5.795711232089667e-16 1.487339964754859e-26
1.0861967418109137 2.0522817559605924e-23 5.917181806047008e-16 5.917181805870348e-16 1.7666148336158155e-26
1.0902777775684922 2.0656525901254533e-23 5.978109630987043e-16 5.978109630794601e-16 1.924412449859495e-26
1.0943741465085532 2.07898019355462e-23 6.039286178016577e-16 6.039286177807013e-16 2.0956313472881726e-26
1.1026131145906286 2.105500971655092e-23 6.162373722458094e-16 6.162373722209819e-16 2.4827354921217377e-26
1.1109141095355224 2.1318347319144874e-23 6.286420811533679e-16 6.28642081123992e-16 2.9375836635633616e-26
1.1192775983109025 2.1579478371662813e-23 6.411330827798604e-16 6.41133082745147e-16 3.471331687685522e-26
1.1277040513999907 2.183718925151854e-23 6.536741512473151e-16 6.536741512063466e-16 4.0968503077917873e-26
1.1361939428280308 2.2092725743061502e-23 6.663021337244902e-16 6.663021336762007e-16 4.828966976696478e-26
1.1447477501889525 2.2346002660244488e-23 6.790145458689521e-16 6.790145458121048e-16 5.684742341490614e-26
1.1533659546722406 2.2597074937698198e-23 6.918131081310821e-16 6.918131080642442e-16 6.68378966133405e-26
1.1707974979042381 2.3093417444593034e-23 7.176941805860627e-16 7.176941804940117e-16 9.205094856427189e-26
1.1884924949847024 2.3579872482606514e-23 7.438876160709583e-16 7.438876159448091e-16 1.2614912161530633e-25
1.2064549276569216 2.4060247453112777e-23 7.70514159949553e-16 7.705141597775168e-16 1.7203644619285411e-25
1.2246888378427687 2.4529292556849593e-23 7.97407315554442e-16 7.974073153209612e-16 2.3348088519967953e-25
1.2431983285522175 2.498591042533925e-23 8.245272803429259e-16 8.245272800275712e-16 3.153546390348174e-25
1.2619875648066055 2.5429930765005156e-23 8.518628645630889e-16 8.518628641391632e-16 4.239255294892923e-25
1.3004222497298317 2.6272795640790037e-23 9.069014834495212e-16 9.069014826941069e-16 7.5541444194262985e-25
1.3400274889804893 2.7054592316291263e-23 9.623302429224227e-16 9.623302416007056e-16 1.3217170339489014e-24
1.3808389325824078 2.7772425729530865e-23 1.017949586992318e-15 1.0179495847206273e-15 2.2716907425171732e-24
1.4228933163050095 2.8429798664979404e-23 1.0737806080051817e-15 1.0737806041678432e-15 3.83733832529423e-24
1.466228494730424 2.9042550838795143e-23 1.130331541632622e-15 1.1303315352588417e-15 6.3737800584785314e-24
1.5108834753276823 2.959876530144705e-23 1.1870636310926113e-15 1.187063620678049e-15 1.0414562497350448e-23
1.5568984535646726 3.0088801975247136e-23 1.2434680085713256e-15 1.2434679918136863e-15 1.6757639524000665e-23
1.6043148490894465 3.051356392904699e-23 1.299427255008451e-15 1.2994272284069313e-15 2.660151989667828e-23
1.6531753430134553 3.08743510268989e-23 1.354834321140734e-15 1.3548342795279279e-15 4.1612806498635794e-23
1.7035239163302658 3.1175461288240233e-23 1.409712518728197e-15 1.4097124545658675e-15 6.416232948752521e-23
1.755405889504358 3.144169402216394e-23 1.4650516003167696e-15 1.4650515027539398e-15 9.756282993624552e-23
1.8088679632656115 3.1666934392523273e-23 1.5204856384163004e-15 1.5204854920654321e-15 1.4635086790467507e-22
1.8639582606462262 3.184704346032618e-23 1.5757043596933212e-15 1.5757041430292564e-15 2.166640648899293e-22
1.9207263702978936 3.198503492976366e-23 1.6307288755177507e-15 1.6307285588345886e-15 3.1668316228643175e-22
1.979223391128241 3.208791454845081e-23 1.6857988002938534e-15 1.6857983431223612e-15 4.571714919300686e-22
2.039501978296691 3.2164064606529595e-23 1.7412634728619051e-15 1.7412628207729524e-15 6.520889529258654e-22
2.1016163906111602 3.2236950622173605e-23 1.7983608270948893e-15 1.7983599077255037e-15 9.193693854410801e-22
2.1656225393682647 3.2320181511951024e-23 1.8579156244579003e-15 1.857914342773274e-15 1.281684626562836e-21
2.231578038680979 3.241473698080047e-23 1.9201007349602336e-15 1.920098967626683e-15 1.7673335510844344e-21
2.299542257339062 3.252876767984341e-23 1.985539076259007e-15 1.9855366650308572e-15 2.4112281499941417e-21
2.369576372248914 3.268028806957225e-23 2.0555404139466646e-15 2.0555371579441634e-15 3.2560025009503072e-21
2.4417434235010123 3.2890569140359556e-23 2.1317724649154864e-15 2.1317681118764247e-15 4.353039062118659e-21
2.5161083711144245 3.31960348717573e-23 2.217098498422551e-15 2.2170927346567053e-15 5.763765846006353e-21
2.5927381535095444 3.3656287826697396e-23 2.316297320274765e-15 2.3162897594843947e-15 7.560790369418017e-21
2.6717017477616296 3.43424858360929e-23 2.435505616409049e-15 2.435495787815157e-15 9.828593892254187e-21
2.753070231689431 3.536175884973574e-23 2.5841670327722873e-15 2.5841543682088684e-15 1.2664563418522755e-20
2.836916847834745 3.695681426349443e-23 2.782983085778308e-15 2.7829669053834228e-15 1.6180394884989282e-20
2.9233170693905177 3.966218464167013e-23 3.0776695484601205e-15 3.0776490489801563e-15 2.049947996554621e-20
2.967498994190263 4.195895573518827e-23 3.305100611556711e-15 3.3050776449636833e-15 2.2966593026720642e-20
3.0123486681368425 4.4641179206786117e-23 3.569524190711727e-15 3.569498494174175e-15 2.56965375527497e-20
3.0578761833420214 5.064117776712479e-23 4.1104855610774864e-15 4.11045684035353e-15 2.8720723956606767e-20
3.1040917844459814 5.837259070541744e-23 4.8096442672883315e-15 4.8096122258289485e-15 3.204145938431876e-20
3.127460860933648 6.655057762729211e-23 5.524756553019016e-15 5.524722721688097e-15 3.383133091962011e-20
3.1510058709225794 7.744644791543339e-23 6.4776898312536276e-15 6.4776541254744e-15 3.570577922775957e-20
3.162844764501044 8.758844801842416e-23 7.353500749653814e-15 7.35346407044654e-15 3.6679207273499987e-20
3.1747281389236908 9.938275659083068e-23 8.375042373773069e-15 8.375004698962122e-15 3.7674810944793153e-20
3.1986289994194426 1.3228034994426814e-22 1.1231264070498656e-14 1.1231224331441514e-14 3.973905713954977e-20
3.2227097969389145 2.0982681094879878e-22 1.7949469292541096e-14 1.7949427356724524e-14 4.193581656978459e-20
3.2348180950136065 2.833647957132054e-22 2.433129312690489e-14 2.433125001624827e-14 4.3110656623029666e-20
3.240889293275058 3.3834383805977854e-22 2.910662835006504e-14 2.910658461958775e-14 4.373047729384431e-20
3.2469718861334385 4.0194605630183046e-22 3.46430191019574e-14 3.464297473004248e-14 4.437191490936371e-20
3.2714166318528037 7.412100802623085e-22 6.436453074310754e-14 6.436448371265746e-14 4.703045008606e-20
3.2744851364798273 7.624183361960893e-22 6.626829380182367e-14 6.626824645599292e-14 4.734583074123618e-20
3.2775565192852394 7.842357378986843e-22 6.8228567321465e-14 6.822851965847348e-14 4.766299152557893e-20
3.283707930232385 7.632535305564357e-22 6.65277409729962e-14 6.652769273871824e-14 4.823427795961994e-20
3.2898708863219004 6.967136150587187e-22 6.084187431650244e-14 6.084182555852325e-14 4.875797918121907e-20
3.29141343181113 6.810218547754197e-22 5.949944562643238e-14 5.949939673684176e-14 4.8889590616669376e-20
3.292184975758714 6.733114813607962e-22 5.88395959585237e-14 5.883954700302421e-14 4.895549949756416e-20
3.295272960557952 6.24642979271541e-22 5.463773543152234e-14 5.4637686218940167e-14 4.921258215824238e-20
3.3076538914384823 4.560407112434717e-22 4.0039911291925074e-14 4.0039861044710003e-14 5.024721507901278e-20
3.310756385682612 4.2172591019331014e-22 3.706183708314723e-14 3.706178657470943e-14 5.050843780241544e-20
3.313861789986515 3.9006518385651333e-22 3.4311603345859646e-14 3.4311552575168696e-14 5.077069096341355e-20
3.3200813396944477 3.4566455272185226e-22 3.0463023289526375e-14 3.0462971956450636e-14 5.133307574499162e-20
3.345076488085796 2.6645819316505296e-22 2.3659445634302275e-14 2.365939179880991e-14 5.3835492365863633e-20
3.3482140837626964 2.6942827561607577e-22 2.394560551000589e-14 2.3945551335614013e-14 5.417439187700714e-20
3.3513546224236106 2.724311931410052e-22 2.4235202366271405e-14 2.4235147851221397e-14 5.451505002125855e-20
3.3576445397418455 2.9437736100947606e-22 2.6236660642849544e-14 2.6236605416168496e-14 5.522668104307698e-20
3.3702598118196083 3.7532410800378556e-22 3.3576797842166814e-14 3.357674112213015e-14 5.672003666495788e-20
3.382922481734668 3.937600759832439e-22 3.5358445175621354e-14 3.535838699647125e-14 5.817915011056565e-20
3.389271646505754 4.0331116312918155e-22 3.6284074869162436e-14 3.6284015948861405e-14 5.892030103300223e-20
3.395632727569191 4.1360289554401074e-22 3.727981206028282e-14 3.7279752376064124e-14 5.968421869345449e-20
3.421196662673239 4.630196785332384e-22 4.2048152812388385e-14 4.204808995680242e-14 6.285558597995726e-20
3.4276182099114902 4.530605342782159e-22 4.122096051189751e-14 4.1220896940221916e-14 6.357167558212726e-20
3.4340518103208963 4.094208302486543e-22 3.7320393211234084e-14 3.7320328958231844e-14 6.425300223646448e-20
3.4469541582030403 3.4726993022301415e-22 3.177401677612991e-14 3.177395120710625e-14 6.556902366563158e-20
3.472904465399547 3.2985141781448563e-22 3.040749366091414e-14 3.0407425070872554e-14 6.859004157546588e-20
3.4990501388274233 3.0321086007043174e-22 2.8162055563683443e-14 2.8161983862045134e-14 7.170163830712922e-20
3.5253949054701885 2.0840389272985802e-22 1.9502174246579515e-14 1.950209949081781e-14 7.475576170292589e-20
3.5519380250092896 1.1929710673796115e-22 1.1247725881213314e-14 1.1247648029842005e-14 7.785137130650992e-20
3.578680990867387 8.396576725668921e-23 7.976175115932138e-15 7.976093865872762e-15 8.125005937603105e-20
3.605625307711299 6.967475525526244e-23 6.668458891680297e-15 6.668374044985217e-15 8.484669507982818e-20
3.660119384959845 5.924860387947309e-23 5.756291857651971e-15 5.756199380117721e-15 9.247753425051545e-20
3.715437065384467 5.18648434228424e-23 5.115079799999821e-15 5.114979167618221e-15 1.0063238159932292e-19
3.8285932144167436 4.8114978959795787e-23 4.88977593187419e-15 4.8896573786960606e-15 1.1855317813048224e-19
3.94519561050918 4.7392767731097965e-23 4.963065953055627e-15 4.962927245578985e-15 1.387074766425905e-19
4.06534921144712 4.791495636060998e-23 5.170569585101776e-15 5.170408339653996e-15 1.6124544778008525e-19
4.189162171576248 4.915894125469831e-23 5.466371293740309e-15 5.466184899650722e-15 1.8639408958805412e-19
4.316745939156006 5.0930290353412327e-23 5.835822502386416e-15 5.835608218233517e-15 2.1428415289971645e-19
4.448215356677963 5.316410285565034e-23 6.27731218582994e-15 6.277067384709356e-15 2.4480112058337754e-19
4.58368876423945 5.586888007234704e-23 6.797583011175582e-15 6.797304787956508e-15 2.7822321907469486e-19
4.723288106065518 5.910744311990306e-23 7.41064557568481e-15 7.410330565358487e-15 3.150103263254836e-19
4.867139040275056 6.300495509538332e-23 8.13987793702285e-15 8.139523257795116e-15 3.5467922773440374e-19
4.940699165968905 6.535720623171978e-23 8.571391331690209e-15 8.571015542608875e-15 3.7578908133411666e-19
5.015371051989984 6.779440713082017e-23 9.025398139224661e-15 9.025000389963062e-15 3.9774926159899725e-19
5.091171501069577 7.07681843120884e-23 9.563683894757912e-15 9.563262913222133e-15 4.2098153577786407e-19
5.129500256944802 7.229497237998492e-23 9.843568891266865e-15 9.843135956238775e-15 4.3293502808743166e-19
5.168117569889187 7.388694320967948e-23 1.0136068050337515e-14 1.0135622852459585e-14 4.451978779294147e-19
5.20702561229733 7.584002185597269e-23 1.0482324414313748e-14 1.0481866001997423e-14 4.584123163286249e-19
5.246226572918644 7.784327928835953e-23 1.0840207589696937e-14 1.0839735684792882e-14 4.719049040553621e-19
5.265937586045735 7.886422832983356e-23 1.1023644482983874e-14 1.1023165726479534e-14 4.787565043388032e-19
5.285722656980489 7.989833472950026e-23 1.1210152808093216e-14 1.1209667129247287e-14 4.856788459329944e-19
5.305582063971359 8.09458119742315e-23 1.1399790057182679e-14 1.1399297384848708e-14 4.926723339639672e-19
5.3255160863122235 8.20710575640968e-23 1.1601687511207044e-14 1.1601187735765544e-14 4.997754414999942e-19
5.365609099470188 8.487247662016517e-23 1.2088024684372542e-14 1.2087510187750297e-14 5.144966222468423e-19
5.406003951863644 8.778083659251567e-23 1.2596372857720445e-14 1.2595843326106203e-14 5.295316142469975e-19
5.446702915881641 9.080130732817723e-23 1.3127898863398338e-14 1.3127353978903269e-14 5.448844950706517e-19
5.487708281020852 9.406503066600171e-23 1.3702147910448954e-14 1.3701587304468442e-14 5.606059805097889e-19
5.529022354014368 9.859894011637526e-23 1.4470716172960244e-14 1.447013910589677e-14 5.770670634763984e-19
5.570647458961463 1.0340030498743536e-22 1.528962830044597e-14 1.5289034414329492e-14 5.938861164760561e-19
5.612585937458331 1.0848837019792462e-22 1.616276363203871e-14 1.6162152563650802e-14 6.110683879068676e-19
5.654840148729818 1.140811600216918e-22 1.712393988093017e-14 1.7123311201041546e-14 6.286798886219189e-19
5.67608639626678 1.1788871006220993e-22 1.7761950115157142e-14 1.776131222395999e-14 6.378911971494618e-19
5.686739436050992 1.198513191610666e-22 1.8091541847883023e-14 1.8090899312517504e-14 6.425353655139197e-19
5.6974124697621304 1.2185440214063367e-22 1.8428429182455638e-14 1.8427781977105974e-14 6.47205349662847e-19
5.718818669136295 1.2598588753529835e-22 1.9124833334063067e-14 1.9124176710875474e-14 6.566231875933359e-19
5.740305295436557 1.305397652172459e-22 1.9890571020312697e-14 1.9889904820310722e-14 6.662000019767405e-19
5.7835210386641895 1.423512411016909e-22 2.185360106083241e-14 2.1852914959037816e-14 6.861017945915081e-19
5.827062130521658 1.5595733083124076e-22 2.4122642218866205e-14 2.412193562314233e-14 7.065957238697481e-19
5.8489554468988025 1.6550044887941923e-22 2.5694899437278913e-14 2.56941818405056e-14 7.175967733276794e-19
5.870931020387893 1.7574122052447863e-22 2.7387352338523487e-14 2.7386623602642895e-14 7.287358805932225e-19
5.892989160043636 1.8673579465450502e-22 2.921007347614995e-14 2.9209333461650473e-14 7.400144994758425e-19
5.915130176081913 1.9923938522973348e-22 3.128303876072342e-14 3.128228706251555e-14 7.516982078602032e-19
5.95966208400165 2.341957523355323e-22 3.704845337777541e-14 3.704767555751056e-14 7.778202648392008e-19
6.004529249263818 2.8457630767749702e-22 4.5357294118314384e-14 4.535648709695403e-14 8.070213603590982e-19
6.027089341400364 3.1959538633159958e-22 5.113020847246961e-14 5.112938481884519e-14 8.236536244195537e-19
6.049734195844842 3.609780654425035e-22 5.796776283783272e-14 5.796692158881557e-14 8.412490171635341e-19
6.095279466722835 4.805115045587588e-22 7.774399358384281e-14 7.774310996231603e-14 8.836215267703382e-19
6.141167624020661 6.644655042199268e-22 1.0831605251771339e-13 1.0831511494668854e-13 9.375710248812367e-19
6.164241091010745 7.819383868696552e-22 1.279444887428659e-13 1.2794351785729208e-13 9.708855737995995e-19
6.187401249150058 9.157572918134005e-22 1.5040355418225438e-13 1.5040254884410315e-13 1.0053381511750279e-18
6.1990139391386085 9.810994004708135e-22 1.6143773521469676e-13 1.6143671229965292e-13 1.0229150438320537e-18
6.204828454712694 1.0155191624445804e-21 1.6725816772059548e-13 1.6725713590170651e-13 1.03181888895135e-18
6.210648424152782 1.040646648738819e-21 1.7155748391204183e-13 1.7155644436562586e-13 1.039546415942049e-18
6.233982942956859 1.1260192950374838e-21 1.8632918105795872e-13 1.8632811392475294e-13 1.0671332057909274e-18
6.239830258556775 1.1369350454807767e-21 1.8831194213216608e-13 1.883108707025571e-13 1.071429608992194e-18
6.245683058788269 1.1378859100553726e-21 1.8864621447532903e-13 1.886451387342839e-13 1.075741045118336e-18
6.257405133728602 1.135550525086046e-21 1.8861236888500843e-13 1.8861128531932482e-13 1.0835656835973384e-18
6.269149208991335 1.1187727916824314e-21 1.8617438818680764e-13 1.861733004218967e-13 1.0877649109314206e-18
6.280915325867298 1.0766842719248088e-21 1.795067320840654e-13 1.7950564462615377e-13 1.0874579116796229e-18
6.304513850009849 9.728871151309198e-22 1.6281090405169705e-13 1.6280982130713916e-13 1.0827445578807007e-18
6.32820103803542 8.44224523958941e-22 1.4181026368068095e-13 1.4180919003485226e-13 1.0736458286730763e-18
6.3519772230701035 7.262328546048055e-22 1.224487222359668e-13 1.2244765631964648e-13 1.0659163203018564e-18
6.375842739491607 6.269706497099557e-22 1.0610949323655122e-13 1.0610843363645895e-13 1.0596000922773573e-18
6.399797922933955 5.4742001030567735e-22 9.299430706104486e-14 9.299324852310058e-14 1.05853794426511e-18
6.42384311029221 4.812841386006284e-22 8.206649922680836e-14 8.206544068222645e-14 1.0585445819215988e-18
6.447978639727206 4.330954492594945e-22 7.412703745889726e-14 7.412597472969677e-14 1.0627292004853523e-18
6.472204850670314 3.9295583192210198e-22 6.750958313110372e-14 6.750851534140999e-14 1.0677896937339405e-18
6.496522083828205 3.668763950565015e-22 6.326596287457246e-14 6.326488657490096e-14 1.0762996715080088e-18
