Dust emission spectrum from A.P. Jones, M. Kohler, N. Ysard, M. Bocchio, and L. Verstraete (2017), A&A, 602A, 46J 
inside the DustPedia framework.

lambda    nu*dP/dnu     j_nu    j_nu(carb.) j_nu(sil)
 (um)   (erg s-1 H-1) (Jy cm2 sr-1 H-1)
0.9927057738263894 3.65787991377479e-26 9.63872133622794e-19 9.638721336226465e-19 1.4776986634883546e-31
1.0001793341362166 3.718038707072888e-26 9.87100147095066e-19 9.871001470948878e-19 1.780593298708051e-31
1.0077091589558085 3.778103944690118e-26 1.0105982482712122e-18 1.0105982482709979e-18 2.142857987086123e-31
1.0114953028030835 3.808094071592693e-26 1.022447392314543e-18 1.022447392314308e-18 2.3496362718404205e-31
1.0152956718711033 3.838051943574644e-26 1.0343626163025083e-18 1.0343626163022508e-18 2.5755470680004033e-31
1.0229392996569957 3.8978296832291496e-26 1.058381293956927e-18 1.0583812939566175e-18 3.091695267319565e-31
1.0267826658714554 3.927576756118941e-26 1.070465419946038e-18 1.0704654199456992e-18 3.3858450776245934e-31
1.0306404723013447 3.957278406978639e-26 1.08261298352097e-18 1.0826129835205991e-18 3.706794619294003e-31
1.03451277320114 3.9869317667325346e-26 1.0948234562453756e-18 1.0948234562449698e-18 4.056868114138676e-31
1.0383996230291617 4.0165339826135356e-26 1.1070963032161064e-18 1.1070963032156626e-18 4.438580360708438e-31
1.0403485208654093 4.031315024705731e-26 1.1132559481494174e-18 1.1132559481489535e-18 4.6421425865697265e-31
1.0423010764483396 4.046082218708136e-26 1.1194309831894974e-18 1.1194309831890121e-18 4.854651389115939e-31
1.0462171883269815 4.075573656489186e-26 1.1318269487077843e-18 1.1318269487072537e-18 5.308022161790823e-31
1.0471985131304309 4.082937312599497e-26 1.1349354512171024e-18 1.1349354512165595e-18 5.4275599691394626e-31
1.048180758391296 4.090297200104849e-26 1.1380477407976791e-18 1.138047740797124e-18 5.549678528229695e-31
1.0501480137395462 4.10500549533649e-26 1.1442836462256146e-18 1.1442836462250342e-18 5.801871388472137e-31
1.0521189612883777 4.1196981949879445e-26 1.1505345948679973e-18 1.1505345948673906e-18 6.0650381824004765e-31
1.0531058218030118 4.127027247938023e-26 1.1536625183160983e-18 1.1536625183154783e-18 6.200886857887427e-31
1.0540936079674168 4.134315118229392e-26 1.156783774420342e-18 1.1567837744197079e-18 6.339680286071703e-31
1.058054026499678 4.1634239259956796e-26 1.1693052805987816e-18 1.1693052805980889e-18 6.925235467870365e-31
1.0590464539527713 4.170690246614732e-26 1.1724447325794925e-18 1.1724447325787843e-18 7.079532692490104e-31
1.06003981227728 4.177952129792644e-26 1.1755877966582255e-18 1.1755877966575017e-18 7.237122767610814e-31
1.0620293250338977 4.1924624146405084e-26 1.1818847247880066e-18 1.1818847247872509e-18 7.562450469699396e-31
1.0660195594769086 4.221427878548145e-26 1.1945215255183044e-18 1.1945215255174794e-18 8.255652470269607e-31
1.070024785945596 4.2503176329505356e-26 1.2072150960212549e-18 1.207215096020354e-18 9.009510378515681e-31
1.0740450607676866 4.2791290143664e-26 1.2199648443565759e-18 1.219964844355593e-18 9.829060059482806e-31
1.07808044048254 4.30785938102809e-26 1.2327701735387125e-18 1.2327701735376407e-18 1.0719731281275675e-30
1.0861967418109137 4.3650155733058605e-26 1.2585304458543e-18 1.2585304458530262e-18 1.2738303309776495e-30
1.0902777775684922 4.393320167375084e-26 1.2714504718820852e-18 1.2714504718806977e-18 1.3879306586831174e-30
1.0943741465085532 4.421531386714777e-26 1.2844226930222302e-18 1.2844226930207183e-18 1.511769584654052e-30
1.1026131145906286 4.477663676306172e-26 1.3105212179115702e-18 1.3105212179097783e-18 1.7918717064698963e-30
1.1109141095355224 4.533392638611146e-26 1.3368209741392764e-18 1.3368209741371552e-18 2.121177470425612e-30
1.1192775983109025 4.5886468379781243e-26 1.3633013932737996e-18 1.363301393271292e-18 2.5078270085588345e-30
1.1277040513999907 4.6431682929715064e-26 1.3898854188826223e-18 1.389885418879661e-18 2.9612189763163504e-30
1.1361939428280308 4.697222081932325e-26 1.4166514047060236e-18 1.4166514047025315e-18 3.492188909942083e-30
1.1447477501889525 4.7507902016022304e-26 1.4435940513865097e-18 1.4435940513823967e-18 4.1132140572084435e-30
1.1533659546722406 4.8038844712836946e-26 1.4707170093227753e-18 1.4707170093179366e-18 4.838649735647371e-30
1.1707974979042381 4.908824727167843e-26 1.5255580724065558e-18 1.5255580723998848e-18 6.671179426872859e-30
1.1884924949847024 5.011643564695002e-26 1.5810516306601422e-18 1.5810516306509896e-18 9.152624598008325e-30
1.2064549276569216 5.113151515674632e-26 1.6374543331162294e-18 1.6374543331037332e-18 1.2496329397323764e-29
1.2246888378427687 5.212233153167832e-26 1.6944120329107588e-18 1.6944120328937785e-18 1.697957257319973e-29
1.2431983285522175 5.308656479529812e-26 1.751840143036188e-18 1.751840143013226e-18 2.296151382658373e-29
1.2619875648066055 5.402386146634351e-26 1.8097147730661355e-18 1.8097147730352305e-18 3.0904993906462225e-29
1.3004222497298317 5.580200333651452e-26 1.926209920605859e-18 1.926209920550647e-18 5.521215264619991e-29
1.3400274889804893 5.74498494869736e-26 2.0434877364374447e-18 2.043487736340585e-18 9.685962903271029e-29
1.3808389325824078 5.896134351208248e-26 2.1611247019311196e-18 2.161124701764183e-18 1.669367600669335e-28
1.4228933163050095 6.034401899492269e-26 2.279166242765625e-18 2.2791662424828286e-18 2.827967647481184e-28
1.466228494730424 6.163159054897883e-26 2.3986918761089047e-18 2.3986918756377903e-18 4.711142594406182e-28
1.5108834753276823 6.279881854299696e-26 2.5185575414637827e-18 2.5185575406916374e-18 7.721449538817834e-28
1.5568984535646726 6.382531633773744e-26 2.6376835830223985e-18 2.637683581776046e-18 1.24635320738182e-27
1.6043148490894465 6.471307636275539e-26 2.7558214889857294e-18 2.7558214870008163e-18 1.9849122164487773e-27
1.6531753430134553 6.546492352014607e-26 2.8727446008071087e-18 2.8727445976917133e-18 3.115394355021593e-27
1.7035239163302658 6.609003693956004e-26 2.9885027706727423e-18 2.988502765852547e-18 4.820194941514247e-27
1.755405889504358 6.664107068088561e-26 3.105195514562004e-18 3.1051955072064286e-18 7.355574613243624e-27
1.8088679632656115 6.710507399524976e-26 3.2220454310452843e-18 3.222045419970715e-18 1.107457035390547e-26
1.8639582606462262 6.74733010379305e-26 3.338393868203615e-18 3.338393851745815e-18 1.6457801997291035e-26
1.9207263702978936 6.775216215471262e-26 3.4542844004099754e-18 3.454284376259804e-18 2.4150171667033526e-26
1.979223391128241 6.795652647389974e-26 3.570223631356829e-18 3.5702235963506565e-18 3.500617221486256e-26
2.039501978296691 6.810417180326001e-26 3.686950270783067e-18 3.6869502206405605e-18 5.0142506096806273e-26
2.1016163906111602 6.824481717744891e-26 3.807084835740007e-18 3.807084764734806e-18 7.10052017619876e-26
2.1656225393682647 6.84072810192584e-26 3.932371363241468e-18 3.932371263803183e-18 9.943828507413947e-26
2.231578038680979 6.859362524918936e-26 4.063172572788925e-18 4.063172435023859e-18 1.3776506698382313e-25
2.299542257339062 6.882109620083059e-26 4.2008039506028794e-18 4.200803761722144e-18 1.8888073606166502e-25
2.369576372248914 6.912783727984791e-26 4.348035823764883e-18 4.3480355674057214e-18 2.5635916128329685e-25
2.4417434235010123 6.955888936000788e-26 4.508396446257013e-18 4.5083961016983465e-18 3.4455866723998365e-25
2.5161083711144245 7.019138606865375e-26 4.687945932585161e-18 4.6879454738294305e-18 4.587557311041681e-25
2.5927381535095444 7.115157927666082e-26 4.896803036047102e-18 4.896802430773132e-18 6.052739703431344e-25
2.6717017477616296 7.259027190985671e-26 5.147967907067197e-18 5.147967115481219e-18 7.915859758977373e-25
2.753070231689431 7.473451791241749e-26 5.461449986694948e-18 5.4614489602417424e-18 1.0264532067721414e-24
2.836916847834745 7.809875514509869e-26 5.881121490600042e-18 5.8811201704929365e-18 1.3201071022141442e-24
2.9233170693905177 8.381605579920054e-26 6.503880836009627e-18 6.5038791518689346e-18 1.6841406910545665e-24
2.967498994190263 8.867571697728426e-26 6.984972844928619e-18 6.984970951018318e-18 1.8939103018044885e-24
3.0123486681368425 9.435244081384911e-26 7.544453930700231e-18 7.544451803633538e-18 2.1270666948010244e-24
3.0578761833420214 1.070615652803602e-25 8.690062862577479e-18 8.690060476093228e-18 2.386484250339213e-24
3.1040917844459814 1.2344285984461526e-25 1.0171147725575064e-17 1.0171145052720093e-17 2.672854971975849e-24
3.127460860933648 1.407742434553008e-25 1.1686501481348802e-17 1.1686498653527455e-17 2.8278213424921296e-24
3.1510058709225794 1.6386868490508263e-25 1.3706122649158022e-17 1.3706119658590515e-17 2.9905675053301997e-24
3.162844764501044 1.8536495332511374e-25 1.5562341314108514e-17 1.5562338238837388e-17 3.0752711220500313e-24
3.1747281389236908 2.1036584950505087e-25 1.772765179832132e-17 1.7727648636291258e-17 3.1620300591690653e-24
3.1986289994194426 2.8010724133461116e-25 2.378250735512385e-17 2.3782504012809797e-17 3.3423140472882576e-24
3.2227097969389145 4.445041518764637e-25 3.8024757600974645e-17 3.80247540662061e-17 3.534768553760367e-24
3.2348180950136065 6.004062631189151e-25 5.155425445989907e-17 5.155425082198949e-17 3.637909591137951e-24
3.240889293275058 7.169618832456539e-25 6.167791675019941e-17 6.167791305782264e-17 3.6923767704758574e-24
3.2469718861334385 8.51796840284688e-25 7.341486188587098e-17 7.341485813709013e-17 3.748780876076665e-24
3.2714166318528037 1.571041900974027e-24 1.3642471605103845e-16 1.3642471206793846e-16 3.983099961604389e-24
3.2744851364798273 1.6159986915867281e-24 1.4046025783132424e-16 1.4046025382034894e-16 4.010975347618925e-24
3.2775565192852394 1.662246781426683e-24 1.4461559318291454e-16 1.446155891438943e-16 4.039020233850163e-24
3.283707930232385 1.6177495744835375e-24 1.4100848583294916e-16 1.4100848174333248e-16 4.089616651856644e-24
3.2898708863219004 1.4766694306596397e-24 1.2895303603280823e-16 1.28953031896731e-16 4.136077192611003e-24
3.29141343181113 1.443399633824582e-24 1.2610678706967377e-16 1.2610678292191518e-16 4.147758574045334e-24
3.292184975758714 1.4270520960615642e-24 1.2470776315045888e-16 1.2470775899684963e-16 4.153609231204111e-24
3.295272960557952 1.3238651246950645e-24 1.1579893608099626e-16 1.157989319045574e-16 4.176438904719744e-24
3.3076538914384823 9.664084232682496e-25 8.484967807791046e-17 8.484967380950438e-17 4.2684060844070286e-24
3.310756385682612 8.936602594952452e-25 7.853605895334732e-17 7.853605466169951e-17 4.2916477778954486e-24
3.313861789986515 8.265399967364455e-25 7.270557253308035e-17 7.270556821809033e-17 4.3149900235334086e-24
3.3200813396944477 7.324095020417407e-25 6.454641513710954e-17 6.454641077207035e-17 4.365039186485688e-24
3.345076488085796 5.644761365970568e-25 5.0121155244066406e-17 5.01211506560762e-17 4.5879902246234546e-24
3.3482140837626964 5.707691697692773e-25 5.072746483388475e-17 5.072746021565827e-17 4.618226488888884e-24
3.3513546224236106 5.771317791593425e-25 5.13410571626193e-17 5.134105251398669e-17 4.6486326082077705e-24
3.3576445397418455 6.236465880549571e-25 5.558309183749423e-17 5.558308712531161e-17 4.7121826201310356e-24
3.3702598118196083 7.95225345194476e-25 7.114150166525653e-17 7.114149681955332e-17 4.845703211503405e-24
3.382922481734668 8.34285525162528e-25 7.491627719903483e-17 7.491627222265191e-17 4.9763829061960386e-24
3.389271646505754 8.545212975014132e-25 7.687740278565998e-17 7.687739774281056e-17 5.04284943272601e-24
3.395632727569191 8.763246055882623e-25 7.89869146277667e-17 7.898690951638001e-17 5.111386683863272e-24
3.421196662673239 9.81010258310236e-25 8.908837175694308e-17 8.9088366360464e-17 5.396479058982709e-24
3.4276182099114902 9.59890542819294e-25 8.733404736816086e-17 8.733404190700444e-17 5.4611564341141174e-24
3.4340518103208963 8.673865511122818e-25 7.906585293666295e-17 7.906584741384622e-17 5.522816709459598e-24
3.4469541582030403 7.356466323161261e-25 6.730916328259453e-17 6.730915764038816e-17 5.642206362002615e-24
3.472904465399547 6.987078052211008e-25 6.44106770826159e-17 6.441067116607982e-17 5.916536097500513e-24
3.4990501388274233 6.422235114896175e-25 5.964936153894122e-17 5.964935533880648e-17 6.200134738078178e-24
3.5253949054701885 4.412673573333481e-25 4.1293244475033186e-17 4.1293237995356655e-17 6.479676537917207e-24
3.5519380250092896 2.524169498484166e-25 2.3798705075917245e-17 2.3798698311695128e-17 6.764222117933028e-24
3.578680990867387 1.7753559784831592e-25 1.6864670734454122e-17 1.6864663656938667e-17 7.077515451503903e-24
3.605625307711299 1.4724234825949044e-25 1.4092328604322238e-17 1.409232119405591e-17 7.410266331060187e-24
3.660119384959845 1.2512994369984097e-25 1.2156986475716597e-17 1.2156978355037096e-17 8.120679498809505e-24
3.715437065384467 1.0946924070630758e-25 1.0796213097435877e-17 1.0796204211130459e-17 8.886305419203892e-24
3.8285932144167436 1.0148858057429962e-25 1.0313969358002835e-17 1.0313958765525563e-17 1.0592477271459577e-23
3.94519561050918 9.992010876308516e-26 1.0463834748825592e-17 1.04638221997583e-17 1.2549067295933897e-23
4.06534921144712 1.0098402085222158e-25 1.0897326147395312e-17 1.0897311363626324e-17 1.4783768985637685e-23
4.189162171576248 1.0357183863410847e-25 1.1516971503028128e-17 1.1516954168916563e-17 1.7334111565826778e-23
4.316745939156006 1.072703504165726e-25 1.2291520830844194e-17 1.2291500598628819e-17 2.0232215376497237e-23
4.448215356677963 1.1194057388318763e-25 1.3217300599121239e-17 1.3217277108965436e-17 2.3490155799771038e-23
4.58368876423945 1.1759875403849815e-25 1.43082748670163e-17 1.4308247705498105e-17 2.7161518191851256e-23
4.723288106065518 1.243758174592935e-25 1.5593723103656505e-17 1.559369178003308e-17 3.132362342581958e-23
4.867139040275056 1.3253431031271261e-25 1.7122670856280627e-17 1.7122634888485635e-17 3.596779498463227e-23
4.940699165968905 1.3746149055400257e-25 1.802764066135925e-17 1.802760215760156e-17 3.8503757683418384e-23
5.015371051989984 1.4256442874606043e-25 1.897945250028406e-17 1.8979411310302956e-17 4.118998110686143e-23
5.091171501069577 1.4879753416321736e-25 2.0108649033311008e-17 2.0108604955727333e-17 4.4077583676272487e-23
5.129500256944802 1.5199679579284327e-25 2.069564288336182e-17 2.069559729862191e-17 4.558473990131802e-23
5.168117569889187 1.5533268589103002e-25 2.1309078522373105e-17 2.1309031378702198e-17 4.7143670905851513e-23
5.20702561229733 1.5943062665481324e-25 2.2035905439833087e-17 2.203585662135242e-17 4.881848067003493e-23
5.246226572918644 1.6363343012775836e-25 2.2787071246423215e-17 2.2787020701569003e-17 5.054485421349316e-23
5.265937586045735 1.6577520533832637e-25 2.3172063766355962e-17 2.317201233851288e-17 5.142784308704766e-23
5.285722656980489 1.6794447448740442e-25 2.3563485129604182e-17 2.356343280531624e-17 5.2324287934861963e-23
5.305582063971359 1.701416831127121e-25 2.3961455449703467e-17 2.3961402215319795e-17 5.323438367764739e-23
5.3255160863122235 1.7250291264947457e-25 2.4385269871406633e-17 2.4385215709061415e-17 5.416234520825618e-23
5.365609099470188 1.7838867152806017e-25 2.5407137280724498e-17 2.5407081188324748e-17 5.609239975445727e-23
5.406003951863644 1.8449915803238187e-25 2.647525674993989e-17 2.647519866672516e-17 5.80832147223613e-23
5.446702915881641 1.9084525965509257e-25 2.7592083649808665e-17 2.7592023513169786e-17 6.013663887772631e-23
5.487708281020852 1.977040355833726e-25 2.8798905596223316e-17 2.879884333622469e-17 6.225999863294931e-23
5.529022354014368 2.0724544663095603e-25 3.041604740167865e-17 3.041598290331555e-17 6.449836310704098e-23
5.570647458961463 2.1735088579616486e-25 3.213930805136272e-17 3.2139241241971606e-17 6.680939111478351e-23
5.612585937458331 2.280610217770645e-25 3.397688048902445e-17 3.397681129360159e-17 6.9195422875271e-23
5.654840148729818 2.398365188935351e-25 3.600021361987868e-17 3.600014195336156e-17 7.166651711270793e-23
5.67608639626678 2.4786038524267995e-25 3.734440554893611e-17 3.734433258341235e-17 7.296552376792065e-23
5.686739436050992 2.5199658659581544e-25 3.8038853671648653e-17 3.8038780048478235e-17 7.362317042878698e-23
5.6974124697621304 2.5621827976045106e-25 3.874870616792905e-17 3.8748631881621773e-17 7.428630728406907e-23
5.718818669136295 2.649263860134098e-25 4.0216194666109357e-17 4.0216119036871215e-17 7.562923812514588e-23
5.740305295436557 2.745268226058021e-25 4.18301293321163e-17 4.1830052329567104e-17 7.700254919976627e-23
5.7835210386641895 2.9944021299285447e-25 4.596972183503356e-17 4.5969641953397867e-17 7.988163568712836e-23
5.827062130521658 3.2814624375380257e-25 5.0755898368787587e-17 5.07558154878278e-17 8.288095979785327e-23
5.8489554468988025 3.48288694242141e-25 5.407382900945035e-17 5.40737445071406e-17 8.45023097617844e-23
5.870931020387893 3.699061832758246e-25 5.764584394793342e-17 5.76457577933201e-17 8.615461332820476e-23
5.892989160043636 3.9311750752557555e-25 6.149325200788956e-17 6.149316416938003e-17 8.783850953917771e-23
5.915130176081913 4.1951821244806175e-25 6.586952918826607e-17 6.586943959783997e-17 8.959042611212039e-23
5.95966208400165 4.9334506602171925e-25 7.80444200861285e-17 7.804432656933075e-17 9.351679774897923e-23
6.004529249263818 5.99771766064136e-25 9.559483225870473e-17 9.559473429567555e-17 9.796302916198626e-23
6.027089341400364 6.73757578485842e-25 1.0779055931722398e-16 1.0779045879840109e-16 1.0051882292324674e-22
6.049734195844842 7.611957502666862e-25 1.2223683084603823e-16 1.222367276019527e-16 1.0324408551431909e-22
6.095279466722835 1.0137808496967263e-24 1.6402390187643705e-16 1.640237920065695e-16 1.0986986758612317e-22
6.141167624020661 1.4025247062082327e-24 2.2862878324043126e-16 2.286286648125803e-16 1.1842785111091686e-22
6.164241091010745 1.6507710000264703e-24 2.701070252804244e-16 2.701069015428499e-16 1.237375744246595e-22
6.187401249150058 1.9335746531443183e-24 3.175694069918292e-16 3.1756927767479756e-16 1.2931703148777484e-22
6.1990139391386085 2.071658149020681e-24 3.408867639267493e-16 3.408866317535965e-16 1.3217315279937188e-22
6.204828454712694 2.1443967773106524e-24 3.5318671385337147e-16 3.531865802238031e-16 1.336295683235769e-22
6.210648424152782 2.1974915210506534e-24 3.622710136302126e-16 3.622708787365021e-16 1.3489371073861303e-22
6.233982942956859 2.3778717032034426e-24 3.934807237064635e-16 3.9348058425554746e-16 1.3945091596338855e-22
6.239830258556775 2.4009260001585298e-24 3.9766830990267904e-16 3.9766816972318146e-16 1.4017949762365799e-22
6.245683058788269 2.402917310940841e-24 3.9837144515144565e-16 3.983713042395187e-16 1.4091192704414882e-22
6.257405133728602 2.397943863850473e-24 3.982930416767113e-16 3.982928994251634e-16 1.4225154800797843e-22
6.269149208991335 2.3624439003345333e-24 3.9313303920183654e-16 3.931328961938754e-16 1.4300796097291157e-22
6.280915325867298 2.2734468252957303e-24 3.790331305259651e-16 3.7903298748864836e-16 1.4303731677515556e-22
6.304513850009849 2.053989452154818e-24 3.4373143031396265e-16 3.4373128788360785e-16 1.4243035479313572e-22
6.32820103803542 1.7819804140046114e-24 2.993316413017317e-16 2.9933150022110046e-16 1.4108063126880644e-22
6.3519772230701035 1.5325335046158752e-24 2.583975211726539e-16 2.5839738124052533e-16 1.3993212846435246e-22
6.375842739491607 1.3226882912371188e-24 2.2385383487730736e-16 2.238536958508674e-16 1.39026439836112e-22
6.399797922933955 1.1544977981083071e-24 1.9612312432392397e-16 1.9612298538882848e-16 1.3893509548607203e-22
6.42384311029221 1.0146711911420204e-24 1.7301736301852153e-16 1.730172239867453e-16 1.390317761688599e-22
6.447978639727206 9.127722319728014e-25 1.5622676605486366e-16 1.562266262496233e-16 1.3980524036371745e-22
6.472204850670314 8.278905491723686e-25 1.4223111431995915e-16 1.422309735871108e-16 1.4073284838389528e-22
6.496522083828205 7.727203949843653e-25 1.3325169043371377e-16 1.332515482015465e-16 1.422321673176858e-22
6.520930681187647 7.262475973884121e-25 1.2570823399984997e-16 1.2570809015867466e-16 1.4384117529128348e-22
