Dust emission spectrum from A.P. Jones, M. Kohler, N. Ysard, M. Bocchio, and L. Verstraete (2017), A&A, 602A, 46J 
inside the DustPedia framework.

lambda    nu*dP/dnu     j_nu    j_nu(carb.) j_nu(sil)
 (um)   (erg s-1 H-1) (Jy cm2 sr-1 H-1)
0.9927057738263894 2.242388405266787e-27 5.90882081299672e-20 5.90882081299672e-20 1.0519409246150454e-41
1.0001793341362166 2.2794656153283234e-27 6.051741311644776e-20 6.051741311644776e-20 1.4935692617638152e-41
1.0077091589558085 2.316490780751959e-27 6.196339644001921e-20 6.196339644001921e-20 2.115353543956381e-41
1.0114953028030835 2.3349792871084e-27 6.269260785918435e-20 6.269260785918435e-20 2.515121769416896e-41
1.0152956718711033 2.3534493250922625e-27 6.342592640813908e-20 6.342592640813908e-20 2.9885952721553705e-41
1.0229392996569957 2.3903086723260534e-27 6.490427215067686e-20 6.490427215067686e-20 4.2119245744052e-41
1.0267826658714554 2.4086533121219108e-27 6.564811433024263e-20 6.564811433024263e-20 4.995577874254538e-41
1.0306404723013447 2.426971372830365e-27 6.63959026543681e-20 6.63959026543681e-20 5.921404222464389e-41
1.03451277320114 2.4452610866107675e-27 6.714760499800446e-20 6.714760499800446e-20 7.014520654201166e-41
1.0383996230291617 2.4635206953777713e-27 6.79031888328361e-20 6.79031888328361e-20 8.304358706509305e-41
1.0403485208654093 2.4726386637302053e-27 6.828242603597599e-20 6.828242603597599e-20 9.03360018018459e-41
1.0423010764483396 2.4817484511387237e-27 6.866262123497487e-20 6.866262123497487e-20 9.82538384022138e-41
1.0462171883269815 2.4999426163237317e-27 6.94258688926667e-20 6.94258688926667e-20 1.1617931090041682e-40
1.0471985131304309 2.5044857064895848e-27 6.961727300074175e-20 6.961727300074175e-20 1.211385585984436e-40
1.048180758391296 2.509026562389141e-27 6.980891292826191e-20 6.980891292826191e-20 1.2630470804006806e-40
1.0501480137395462 2.518101464108112e-27 7.019289811400111e-20 7.019289811400111e-20 1.3729175097089353e-40
1.0521189612883777 2.5271671073582316e-27 7.0577820180263e-20 7.0577820180263e-20 1.4921194034172316e-40
1.0531058218030118 2.531689436663328e-27 7.077043682119009e-20 7.077043682119009e-20 1.55545807818712e-40
1.0540936079674168 2.5361865888800483e-27 7.096264825056163e-20 7.096264825056163e-20 1.621421772565747e-40
1.058054026499678 2.5541497785885566e-27 7.173376712604564e-20 7.173376712604564e-20 1.9137392520777247e-40
1.0590464539527713 2.5586340898258276e-27 7.19271123922363e-20 7.19271123922363e-20 1.994520482443891e-40
1.06003981227728 2.5631157541938453e-27 7.212068277580469e-20 7.212068277580469e-20 2.0786332597643777e-40
1.0620293250338977 2.572071037920973e-27 7.250849668139706e-20 7.250849668139706e-20 2.2573949897478796e-40
1.0660195594769086 2.5899486972654407e-27 7.328680147760047e-20 7.328680147760047e-20 2.6611597258050847e-40
1.070024785945596 2.6077810995783318e-27 7.406864574364639e-20 7.406864574364639e-20 3.1352595030057665e-40
1.0740450607676866 2.6255666006571222e-27 7.485399338427669e-20 7.485399338427669e-20 3.691609776191209e-40
1.07808044048254 2.6433035694056775e-27 7.564280798771243e-20 7.564280798771243e-20 4.344085959864854e-40
1.0861967418109137 2.6785941373284035e-27 7.722978801107738e-20 7.722978801107738e-20 6.004629041384741e-40
1.0902777775684922 2.6960733298655256e-27 7.802581138843656e-20 7.802581138843656e-20 7.053272661536266e-40
1.0943741465085532 2.7134963554361204e-27 7.882509455496253e-20 7.882509455496253e-20 8.280143915842661e-40
1.1026131145906286 2.7481677091999364e-27 8.043328739368425e-20 8.043328739368425e-20 1.1391028045120957e-39
1.1109141095355224 2.7825959548995614e-27 8.20540582208307e-20 8.20540582208307e-20 1.563386023753945e-39
1.1192775983109025 2.816737158906341e-27 8.3686146021103e-20 8.3686146021103e-20 2.1406799292801283e-39
1.1277040513999907 2.850432881958482e-27 8.532482240918802e-20 8.532482240918802e-20 2.9242852474242923e-39
1.1361939428280308 2.8838456904644148e-27 8.697489658975605e-20 8.697489658975605e-20 3.9854852612566336e-39
1.1447477501889525 2.916964433380814e-27 8.863604422511458e-20 8.863604422511458e-20 5.4192770315863e-39
1.1533659546722406 2.9497962439783698e-27 9.030848963976308e-20 9.030848963976308e-20 7.352013503842856e-39
1.1707974979042381 3.0147048764601463e-27 9.369060041507432e-20 9.369060041507432e-20 1.3439370542220696e-38
1.1884924949847024 3.078325881617065e-27 9.711369318281064e-20 9.711369318281064e-20 2.434634688747114e-38
1.2064549276569216 3.141155972752654e-27 1.0059352715854582e-19 1.0059352715854582e-19 4.3715695586303727e-38
1.2246888378427687 3.2025096327953886e-27 1.0410836771611307e-19 1.0410836771611307e-19 7.780547228012007e-38
1.2431983285522175 3.2622432688283795e-27 1.076530142178143e-19 1.076530142178143e-19 1.3727662611616998e-37
1.2619875648066055 3.320334390176754e-27 1.1122600336826882e-19 1.1122600336826882e-19 2.4012836670504028e-37
1.3004222497298317 3.430623837616852e-27 1.1842050956547753e-19 1.1842050956547748e-19 7.162824505694988e-37
1.3400274889804893 3.532945194693246e-27 1.2566665088475528e-19 1.2566665088475528e-19 2.066836524714664e-36
1.3808389325824078 3.6269178190081805e-27 1.3293831557495796e-19 1.3293831557495793e-19 5.774366822919009e-36
1.4228933163050095 3.712996443211714e-27 1.4023819251397572e-19 1.4023819251397572e-19 1.5634432184190304e-35
1.466228494730424 3.793247142073488e-27 1.4763258619026105e-19 1.47632586190261e-19 4.106611719906953e-35
1.5108834753276823 3.866111529475898e-27 1.5505107539618566e-19 1.5505107539618554e-19 1.0472428107016892e-34
1.5568984535646726 3.9303281753625035e-27 1.624271166818247e-19 1.6242711668182445e-19 2.594855067673736e-34
1.6043148490894465 3.9860126135138355e-27 1.697452792093144e-19 1.6974527920931378e-19 6.252536620445954e-34
1.6531753430134553 4.033332343910788e-27 1.7699148018808436e-19 1.769914801880829e-19 1.4663059437654784e-33
1.7035239163302658 4.072846615394637e-27 1.841686577624873e-19 1.841686577624839e-19 3.349478170325735e-33
1.755405889504358 4.107792890636492e-27 1.9140598925600289e-19 1.9140598925599547e-19 7.460066154389532e-33
1.8088679632656115 4.137370859384187e-27 1.9865557222934265e-19 1.9865557222932637e-19 1.6211213629469736e-32
1.8639582606462262 4.161038094702479e-27 2.058767519452977e-19 2.058767519452633e-19 3.439473659783545e-32
1.9207263702978936 4.1791867691784635e-27 2.1307216189216193e-19 2.1307216189209063e-19 7.129685331956065e-32
1.979223391128241 4.192730627435289e-27 2.2027297071653885e-19 2.2027297071639436e-19 1.445011633414424e-31
2.039501978296691 4.2027634510946464e-27 2.275246792342441e-19 2.2752467923395758e-19 2.8655063513260178e-31
2.1016163906111602 4.212350077200947e-27 2.34988893882468e-19 2.3498889388191154e-19 5.56421598883897e-31
2.1656225393682647 4.223267635150062e-27 2.4277323203495247e-19 2.4277323203389374e-19 1.0587361934799478e-30
2.231578038680979 4.235643161247103e-27 2.5090012458706717e-19 2.509001245850921e-19 1.975076250774227e-30
2.299542257339062 4.250540747074203e-27 2.594507984935631e-19 2.594507984899487e-19 3.6144498421129585e-30
2.369576372248914 4.270313511260887e-27 2.68596224853722e-19 2.6859622484722917e-19 6.492829007946888e-30
2.4417434235010123 4.297740133503585e-27 2.7855413625916346e-19 2.7855413624770784e-19 1.1455583255009026e-29
2.5161083711144245 4.3375795477828565e-27 2.896984877660677e-19 2.8969848774620317e-19 1.9864490211833893e-29
2.5927381535095444 4.3976193486530005e-27 3.026535179792864e-19 3.026535179454085e-19 3.387784535154279e-29
2.6717017477616296 4.487156707308959e-27 3.1822085956494707e-19 3.182208595080934e-19 5.685373979851023e-29
2.753070231689431 4.62018955827186e-27 3.376342673558535e-19 3.37634267261928e-19 9.392539960037664e-29
2.836916847834745 4.828430420559819e-27 3.6359844480829027e-19 3.635984446554316e-19 1.528585658449575e-28
2.9233170693905177 5.1817213257010076e-27 4.0208642254066366e-19 4.0208642229544098e-19 2.4522273948754316e-28
2.967498994190263 5.481712290836305e-27 4.3179364994603373e-19 4.317936496370007e-19 3.090330255949763e-28
3.0123486681368425 5.832059058803902e-27 4.663334674836593e-19 4.6633346709552435e-19 3.88135014690201e-28
3.0578761833420214 6.615895240187821e-27 5.370045298600351e-19 5.370045293735037e-19 4.865313650007374e-28
3.1040917844459814 7.625916420465354e-27 6.283419110111065e-19 6.283419104031258e-19 6.079806242200099e-28
3.127460860933648 8.69435487282372e-27 7.217697542298571e-19 7.217697535498406e-19 6.800166133900343e-28
3.1510058709225794 1.0117872571380447e-26 8.462678668118791e-19 8.462678660513223e-19 7.605569405307356e-28
3.162844764501044 1.1442954291909195e-26 9.606948732110037e-19 9.606948724049912e-19 8.060125558274226e-28
3.1747281389236908 1.2983890310064742e-26 1.094159945380771e-18 1.0941599445267661e-18 8.54004733293e-28
3.1986289994194426 1.728193469452787e-26 1.467322790460803e-18 1.4673227895005204e-18 9.602822104219483e-28
3.2227097969389145 2.741345329202747e-26 2.3450622722747602e-18 2.3450622711788568e-18 1.0959036537581309e-27
3.2348180950136065 3.7021271157704706e-26 3.1788543040484865e-18 3.1788543028649987e-18 1.1834872619249366e-27
3.240889293275058 4.4204372549791564e-26 3.802759496471978e-18 3.802759495234605e-18 1.2373730434708537e-27
3.2469718861334385 5.251412901239591e-26 4.526099823536946e-18 4.5260998222384135e-18 1.2985342924642178e-27
3.2714166318528037 9.683965574357117e-26 8.409274462448235e-18 8.409274460868065e-18 1.580168608013711e-27
3.2744851364798273 9.961062889447617e-26 8.658011104897966e-18 8.658011103288106e-18 1.6098605676020195e-27
3.2775565192852394 1.0246119143315905e-25 8.914131248680669e-18 8.914131247040584e-18 1.64008713973334e-27
3.283707930232385 9.972001585711992e-26 8.691931473843357e-18 8.691931472168784e-18 1.67457189720787e-27
3.2898708863219004 9.102662054795812e-26 7.949077048491533e-18 7.949077046803157e-18 1.688376928702839e-27
3.29141343181113 8.897649772678878e-26 7.773689275025207e-18 7.773689273333365e-18 1.691839825673449e-27
3.292184975758714 8.796913951146937e-26 7.687480117244944e-18 7.68748011555137e-18 1.6935730253808796e-27
3.295272960557952 8.161059571982789e-26 7.138506771578534e-18 7.13850676988255e-18 1.69598513399376e-27
3.3076538914384823 5.958252787653274e-26 5.231285435504362e-18 5.2312854338011904e-18 1.7031719834229404e-27
3.310756385682612 5.509922527337996e-26 4.8421936170665705e-18 4.842193615361602e-18 1.7049674967229967e-27
3.313861789986515 5.096267022043711e-26 4.482868501006037e-18 4.4828684992992745e-18 1.7067627395831277e-27
3.3200813396944477 4.516162899474753e-26 3.980042920301937e-18 3.9800429185790546e-18 1.7228815335275717e-27
3.345076488085796 3.481323730359956e-26 3.0911486922392164e-18 3.0911486903750175e-18 1.864198664496342e-27
3.3482140837626964 3.5201321323755463e-26 3.1285393187563165e-18 3.1285393168653226e-18 1.8909937524412308e-27
3.3513546224236106 3.559369596766147e-26 3.166379058118129e-18 3.1663790561999787e-18 1.9181498258934643e-27
3.3576445397418455 3.84611428309314e-26 3.4278857210043074e-18 3.427885719018983e-18 1.9853240311797307e-27
3.3702598118196083 4.903740200300971e-26 4.386925589505473e-18 4.386925587357649e-18 2.1478249441826393e-27
3.382922481734668 5.14463934031422e-26 4.619728082097028e-18 4.619728079816124e-18 2.280905119470885e-27
3.389271646505754 5.269441856145534e-26 4.740677677841565e-18 4.7406776754912395e-18 2.3503255349295467e-27
3.395632727569191 5.403924062221326e-26 4.870789726040841e-18 4.870789723615519e-18 2.4253228134251862e-27
3.421196662673239 6.049661008456342e-26 5.493871693586327e-18 5.493871690831443e-18 2.7548851210038443e-27
3.4276182099114902 5.919548541732979e-26 5.3858029606523626e-18 5.38580295783896e-18 2.813402151757023e-27
3.4340518103208963 5.349365286252126e-26 4.8761665544033776e-18 4.876166551545998e-18 2.857380380728487e-27
3.4469541582030403 4.537317493437524e-26 4.1514910911672516e-18 4.151491088242973e-18 2.924278424289248e-27
3.472904465399547 4.309749569475741e-26 3.972961025368858e-18 3.972961022169332e-18 3.1995250909901814e-27
3.4990501388274233 3.961685097454066e-26 3.6795910217200684e-18 3.6795910182318965e-18 3.488171311278978e-27
3.5253949054701885 2.722946717458424e-26 2.5480993014300717e-18 2.5480992977218138e-18 3.708258253466894e-27
3.5519380250092896 1.5586565531564774e-26 1.4695529616966185e-18 1.4695529577808915e-18 3.915727024189872e-27
3.578680990867387 1.0970052484099619e-26 1.0420801536494535e-18 1.0420801494140418e-18 4.2354117577561966e-27
3.605625307711299 9.102759927014723e-27 8.7121052886006e-19 8.712105242333763e-19 4.626683849728973e-27
3.660119384959845 7.740544479334644e-27 7.5203178206235885e-19 7.520317765055939e-19 5.5567646816377744e-27
3.715437065384467 6.775841497786934e-27 6.6825555975873105e-19 6.682555531016204e-19 6.657110779720218e-27
3.8285932144167436 6.286299276657671e-27 6.388570787746485e-19 6.388570692414293e-19 9.533219256603468e-27
3.94519561050918 6.192667313975602e-27 6.485085758016505e-19 6.485085622739038e-19 1.3527746639837773e-26
4.06534921144712 6.262035741319664e-27 6.757449866218664e-19 6.757449676055357e-19 1.9016330735944238e-26
4.189162171576248 6.426240418991592e-27 7.145844734744365e-19 7.145844469883362e-19 2.6486100240005123e-26
4.316745939156006 6.660025686504556e-27 7.631357979322962e-19 7.631357613675909e-19 3.6564705470364364e-26
4.448215356677963 6.955092176677833e-27 8.212173727970673e-19 8.212173227448892e-19 5.00521781390775e-26
4.58368876423945 7.312766942024265e-27 8.89746496894515e-19 8.897464289304868e-19 6.796402848784498e-26
4.723288106065518 7.741514085634705e-27 9.705988633518234e-19 9.705987717658076e-19 9.158601586671167e-26
4.867139040275056 8.257990514680903e-27 1.0668848933045348e-18 1.0668847707572387e-18 1.225472963664091e-25
4.940699165968905 8.569676605519466e-27 1.1238860411430578e-18 1.1238858997152949e-18 1.414277628693987e-25
5.015371051989984 8.89299592008641e-27 1.1839151963435623e-18 1.1839150334220333e-18 1.629215293728438e-25
5.091171501069577 9.287041200643413e-27 1.2550601265797198e-18 1.2550599390886657e-18 1.8749105371481794e-25
5.129500256944802 9.489513241299715e-27 1.2920770872468568e-18 1.2920768862505566e-18 2.009963005267319e-25
5.168117569889187 9.700671638911864e-27 1.3307719008885542e-18 1.3307716854934831e-18 2.1539507108436643e-25
5.20702561229733 9.959213233049653e-27 1.3765252364827923e-18 1.3765250056098698e-18 2.308729222599658e-25
5.246226572918644 1.0224494769746157e-26 1.4238306353107739e-18 1.4238303879569702e-18 2.473538032680366e-25
5.265937586045735 1.0359731153053425e-26 1.448083568293181e-18 1.448083312304875e-18 2.559883058562185e-25
5.285722656980489 1.0496735450983968e-26 1.4727466947845302e-18 1.4727464298890962e-18 2.6489543422513967e-25
5.305582063971359 1.0635536543493083e-26 1.4978277539536231e-18 1.4978274798707668e-18 2.7408285661038e-25
5.3255160863122235 1.0784555492131819e-26 1.5245209027466005e-18 1.5245206191503776e-18 2.8359622262586166e-25
5.365609099470188 1.115478153249132e-26 1.5887279349345758e-18 1.5887276311040833e-18 3.038304925521913e-25
5.406003951863644 1.1539202044043059e-26 1.6558522004303754e-18 1.6558518750632874e-18 3.2536708818814675e-25
5.446702915881641 1.1938501394840907e-26 1.7260482641022082e-18 1.7260479158217692e-18 3.482804389295148e-25
5.487708281020852 1.236983675544925e-26 1.801873997714373e-18 1.8018736249641815e-18 3.7275019110633654e-25
5.529022354014368 1.2967504088713285e-26 1.903155053370668e-18 1.903154653674133e-18 3.9969653544023167e-25
5.570647458961463 1.360039222054293e-26 2.0110670062109276e-18 2.0110665778082964e-18 4.284026308966522e-25
5.612585937458331 1.427102683560474e-26 2.126119445886683e-18 2.12611898691609e-18 4.589705932818548e-25
5.654840148729818 1.500792945466101e-26 2.252737276426628e-18 2.2527367847168075e-18 4.917098205152761e-25
5.67608639626678 1.5508717183012483e-26 2.336653448912835e-18 2.336652939152709e-18 5.097601265814865e-25
5.686739436050992 1.5766830859221823e-26 2.380001173910872e-18 2.380000654900809e-18 5.190100627410274e-25
5.6974124697621304 1.6030254874767354e-26 2.42430648008453e-18 2.4243059516717093e-18 5.284128210233489e-25
5.718818669136295 1.6573544188253168e-26 2.5158871089134072e-18 2.515886561227529e-18 5.476858778010974e-25
5.740305295436557 1.7172146162216788e-26 2.616549771192927e-18 2.6165492032892313e-18 5.67903696665823e-25
5.7835210386641895 1.872316991362006e-26 2.8743598069098427e-18 2.8743591940154184e-18 6.1289442447553095e-25
5.827062130521658 2.0509189131262234e-26 3.1722512111203347e-18 3.172250549315455e-18 6.6180488031464285e-25
5.8489554468988025 2.176069439200918e-26 3.378473338736465e-18 3.3784726481369158e-18 6.905995489462281e-25
5.870931020387893 2.3103507283287634e-26 3.600429610848801e-18 3.600428890295845e-18 7.205529564212944e-25
5.892989160043636 2.454497007516463e-26 3.83943732208368e-18 3.8394365703759566e-18 7.517077224131537e-25
5.915130176081913 2.618386967519097e-26 4.111190209758233e-18 4.1111894245392736e-18 7.852189599063417e-25
5.95966208400165 3.076318442198012e-26 4.866563088542904e-18 4.866562221561023e-18 8.669818805876071e-25
6.004529249263818 3.7360149269033617e-26 5.954660430200259e-18 5.9546594594802005e-18 9.707200587688048e-25
6.027089341400364 4.194431694394378e-26 6.71042750083385e-18 6.710426463867994e-18 1.036965855769295e-24
6.049734195844842 4.7360805655967296e-26 7.605448122473485e-18 7.605447011236904e-18 1.1112365800488341e-24
6.095279466722835 6.300315234899405e-26 1.0193547137814894e-17 1.0193545824736315e-17 1.3130785821590805e-24
6.141167624020661 8.707160542807014e-26 1.419374298056394e-17 1.4193741373551583e-17 1.607012356802276e-24
6.164241091010745 1.0244128023864017e-25 1.6761930922419717e-17 1.6761929121846987e-17 1.800572734017737e-24
6.187401249150058 1.1994850494096066e-25 1.9700286990064437e-17 1.970028497554704e-17 2.01451740468788e-24
6.1990139391386085 1.2849739632472458e-25 2.114396220576017e-17 2.114396008104469e-17 2.1247154704777614e-24
6.204828454712694 1.3300051842300642e-25 2.1905468493348447e-17 2.1905466311296866e-17 2.1820515790970613e-24
6.210648424152782 1.3628845688255233e-25 2.2468053663903838e-17 2.2468051434208732e-17 2.229695107427557e-24
6.233982942956859 1.4746058374528856e-25 2.4401189152512263e-17 2.4401186753551852e-17 2.3989604113114014e-24
6.239830258556775 1.488898462248237e-25 2.466080733266496e-17 2.466080491033059e-17 2.4223343669493785e-24
6.245683058788269 1.490158234449908e-25 2.4704823868021637e-17 2.4704821422103827e-17 2.4459178142676906e-24
6.257405133728602 1.487136275165478e-25 2.4700996522592798e-17 2.4700994035447515e-17 2.4871452817951085e-24
6.269149208991335 1.465225583773875e-25 2.4382741396895818e-17 2.4382738896609868e-17 2.500285954776491e-24
6.280915325867298 1.4102104322827613e-25 2.3511281148129753e-17 2.351127866963054e-17 2.478499214861021e-24
6.304513850009849 1.2745157855309753e-25 2.1328791803613652e-17 2.1328789401229008e-17 2.4023846456133326e-24
6.32820103803542 1.1062990551207155e-25 1.8583274503879134e-17 1.858327221836051e-17 2.2855186192987047e-24
6.3519772230701035 9.520365377385737e-26 1.6052104614776648e-17 1.6052102439914613e-17 2.174862033616149e-24
6.375842739491607 8.222626441044015e-26 1.3916101577263235e-17 1.3916099499667497e-17 2.077595739373141e-24
6.399797922933955 7.182772727054187e-26 1.2201910049952156e-17 1.2201908038270085e-17 2.0116820685624563e-24
6.42384311029221 6.31832034409911e-26 1.0773727826173164e-17 1.0773725870335432e-17 1.955837732327847e-24
6.447978639727206 5.688651083606696e-26 9.736487711568025e-18 9.736485782224125e-18 1.92934390195011e-24
6.472204850670314 5.1642366329846055e-26 8.87212846741202e-18 8.87212655721797e-18 1.910194052628118e-24
6.496522083828205 4.82376588554415e-26 8.31833820716281e-18 8.318336290510494e-18 1.9166523157526415e-24
6.520930681187647 4.537104390061146e-26 7.853401269739657e-18 7.853399341903384e-18 1.9278362713070226e-24
6.57002334288761 4.244898177667318e-26 7.402929660526359e-18 7.4029276701855e-18 1.9903408593468293e-24
