Dust emission spectrum from A.P. Jones, M. Kohler, N. Ysard, M. Bocchio, and L. Verstraete (2017), A&A, 602A, 46J 
inside the DustPedia framework.

lambda    nu*dP/dnu     j_nu    j_nu(carb.) j_nu(sil)
 (um)   (erg s-1 H-1) (Jy cm2 sr-1 H-1)
0.9927057738263894 1.836923880007394e-24 4.840398759012948e-17 4.840398759012623e-17 3.269804068152334e-30
1.0001793341362166 1.8672717497389165e-24 4.9574099788886677e-17 4.9574099788882745e-17 3.939662081512799e-30
1.0077091589558085 1.8975763422518472e-24 5.075792925538211e-17 5.075792925537736e-17 4.740707424189448e-30
1.0114953028030835 1.91270867731293e-24 5.135492880715726e-17 5.1354928807152065e-17 5.1978905757344996e-30
1.0152956718711033 1.927825726190732e-24 5.195528594281381e-17 5.195528594280811e-17 5.6973388720464845e-30
1.0229392996569957 1.957993227288316e-24 5.316557094253313e-17 5.3165570942526294e-17 6.838320652521244e-30
1.0267826658714554 1.973007093433644e-24 5.3774528111730116e-17 5.377452811172263e-17 7.48848727702198e-30
1.0306404723013447 1.9879990352308477e-24 5.4386710901427254e-17 5.4386710901419057e-17 8.197834852531004e-30
1.03451277320114 2.0029676059080636e-24 5.500209297148233e-17 5.5002092971473357e-17 8.971489767726164e-30
1.0383996230291617 2.017911366717207e-24 5.562064765244971e-17 5.562064765243989e-17 9.814998130870713e-30
1.0403485208654093 2.0253734960744914e-24 5.59311062993321e-17 5.593110629932183e-17 1.0264803163067318e-29
1.0423010764483396 2.0328288872098483e-24 5.624234795188881e-17 5.624234795187808e-17 1.0734357985733457e-29
1.0462171883269815 2.047718745507014e-24 5.686716656068084e-17 5.686716656066912e-17 1.1736053821482192e-29
1.0471985131304309 2.0514367220741587e-24 5.702385521878697e-17 5.702385521877496e-17 1.200015196014924e-29
1.048180758391296 2.05515285940334e-24 5.718073661194859e-17 5.718073661193631e-17 1.2269946188800307e-29
1.0501480137395462 2.0625795285628596e-24 5.749507585935042e-17 5.749507585933759e-17 1.2827093525917932e-29
1.0521189612883777 2.0699985777772813e-24 5.781018080299654e-17 5.781018080298313e-17 1.3408460088780215e-29
1.0531058218030118 2.0736994941240013e-24 5.796786008178641e-17 5.79678600817727e-17 1.370855645739808e-29
1.0540936079674168 2.0773797775298825e-24 5.812520698675426e-17 5.812520698674024e-17 1.401515169946037e-29
1.058054026499678 2.092080001314016e-24 5.875645229632865e-17 5.875645229631333e-17 1.5308575597672085e-29
1.0590464539527713 2.0957497222878046e-24 5.891472579858196e-17 5.89147257985663e-17 1.5649382253414374e-29
1.06003981227728 2.0994172664047783e-24 5.907318326793563e-17 5.907318326791964e-17 1.5997454521810782e-29
1.0620293250338977 2.1067457386490847e-24 5.939064829362541e-17 5.939064829360869e-17 1.6715988673564826e-29
1.0660195594769086 2.1213756234902798e-24 6.002776593308684e-17 6.002776593306858e-17 1.824692633313917e-29
1.070024785945596 2.1359683001160355e-24 6.066777589826651e-17 6.066777589824659e-17 1.991167579225769e-29
1.0740450607676866 2.1505224233509732e-24 6.131064860817616e-17 6.131064860815443e-17 2.172133146174824e-29
1.07808044048254 2.165036658782715e-24 6.195635422362079e-17 6.195635422359711e-17 2.3687854101580883e-29
1.0861967418109137 2.1939145337969463e-24 6.325540401897268e-17 6.325540401894454e-17 2.814406214738264e-29
1.0902777775684922 2.2082172320072988e-24 6.39069936787998e-17 6.390699367876914e-17 3.066260077559174e-29
1.0943741465085532 2.222473796647828e-24 6.456124653188821e-17 6.456124653185482e-17 3.339584351619452e-29
1.1026131145906286 2.250843456745016e-24 6.587761657649046e-17 6.58776165764509e-17 3.957707187906838e-29
1.1109141095355224 2.279013499610884e-24 6.720426156512561e-17 6.720426156507877e-17 4.684271562728055e-29
1.1192775983109025 2.306947955503168e-24 6.854014861020354e-17 6.854014861014815e-17 5.537189409854578e-29
1.1277040513999907 2.3345170714562493e-24 6.988140495922174e-17 6.988140495915636e-17 6.537136526995938e-29
1.1361939428280308 2.3618540141226968e-24 7.123196962918657e-17 7.123196962910949e-17 7.707943566801057e-29
1.1447477501889525 2.3889496654240878e-24 7.259157697397207e-17 7.259157697388127e-17 9.077044414171772e-29
1.1533659546722406 2.415809885765234e-24 7.396041082011311e-17 7.396041082000635e-17 1.0675993772012706e-28
1.1707974979042381 2.468910775078782e-24 7.672848333996301e-17 7.672848333981587e-17 1.4713795495157866e-28
1.1884924949847024 2.5209555320138697e-24 7.953001452039217e-17 7.953001452019037e-17 2.0179047607249866e-28
1.2064549276569216 2.5723511027673516e-24 8.237791206871684e-17 8.237791206844142e-17 2.7540103379401124e-28
1.2246888378427687 2.6225361468532345e-24 8.525437510927197e-17 8.52543751088979e-17 3.7405317422117437e-28
1.2431983285522175 2.6713932255330996e-24 8.81551463796788e-17 8.815514637917317e-17 5.056222012823688e-28
1.2619875648066055 2.718904027361819e-24 9.107902788346771e-17 9.107902788278744e-17 6.802507447678282e-28
1.3004222497298317 2.809096920707577e-24 9.696623836208458e-17 9.696623836087037e-17 1.2142051222213156e-27
1.3400274889804893 2.892761542236164e-24 1.0289535636360243e-16 1.0289535636147428e-16 2.1281446026413538e-27
1.3808389325824078 2.9695872889748883e-24 1.0884501713277923e-16 1.088450171291149e-16 3.6643382216064976e-27
1.4228933163050095 3.0399475832495665e-24 1.1481744217438223e-16 1.1481744216818085e-16 6.201370232813406e-27
1.466228494730424 3.105535047851541e-24 1.2086693891719457e-16 1.2086693890687425e-16 1.032032702806358e-26
1.5108834753276823 3.165074386532664e-24 1.2693585883367916e-16 1.2693585881678238e-16 1.6896787937729233e-26
1.5568984535646726 3.2175335903719944e-24 1.3296973702783491e-16 1.3296973700059104e-16 2.724390335753808e-26
1.6043148490894465 3.2630079968389507e-24 1.3895595854559656e-16 1.3895595850225752e-16 4.333902606073055e-26
1.6531753430134553 3.3016353610235925e-24 1.4488300981968654e-16 1.4488300975174362e-16 6.794293641652927e-26
1.7035239163302658 3.3338740692630885e-24 1.5075331100477788e-16 1.5075331089978198e-16 1.0499586492799238e-25
1.755405889504358 3.362374926114884e-24 1.5667262593730186e-16 1.5667262577727874e-16 1.6002311199045544e-25
1.8088679632656115 3.386482887843317e-24 1.6260173883216334e-16 1.626017385915427e-16 2.4062068036985295e-25
1.8639582606462262 3.40575413507804e-24 1.6850737323140704e-16 1.6850737287429986e-16 3.5710717250905294e-25
1.9207263702978936 3.42050980760296e-24 1.7439168425166476e-16 1.743916837283687e-16 5.2329607538099105e-25
1.979223391128241 3.431497967966825e-24 1.8028018458085048e-16 1.8028018382340495e-16 7.57445526332089e-25
2.039501978296691 3.4396139823652144e-24 1.8621011559035806e-16 1.8621011450700402e-16 1.0833540363088409e-24
2.1016163906111602 3.4473664307887325e-24 1.923137463724032e-16 1.923137448406483e-16 1.5317548919256207e-24
2.1656225393682647 3.456209789943007e-24 1.9867914936570055e-16 1.9867914722397568e-16 2.1417249267296998e-24
2.231578038680979 3.466247924775974e-24 2.0532467043798228e-16 2.0532466747563847e-16 2.9623437892980033e-24
2.299542257339062 3.478351614106136e-24 2.1231677506971485e-16 2.1231677101514507e-16 4.0545697817744205e-24
2.369576372248914 3.4944467028436565e-24 2.1979538267184633e-16 2.197953771784571e-16 5.493389226556589e-24
2.4417434235010123 3.516807316912575e-24 2.279386826848197e-16 2.2793867531491204e-16 7.369907597635096e-24
2.5161083711144245 3.5493282884358466e-24 2.3705272178138383e-16 2.370527119873865e-16 9.793997365202235e-24
2.5927381535095444 3.598383477851402e-24 2.476484052545041e-16 2.47648392357708e-16 1.289679606109779e-23
2.6717017477616296 3.671582707019226e-24 2.603818589817319e-16 2.603818421491485e-16 1.683258334868771e-23
2.753070231689431 3.780383433968255e-24 2.7626290544007434e-16 2.7626288365866297e-16 2.1781411309527499e-23
2.836916847834745 3.950744037021816e-24 2.975054546877388e-16 2.9750542673516746e-16 2.795257136368984e-23
2.9233170693905177 4.239836407025984e-24 3.2899890710122433e-16 3.289988715195189e-16 3.5581705452972555e-23
2.967498994190263 4.485352029871119e-24 3.5331050254288827e-16 3.533104625765567e-16 3.996633148005923e-23
3.0123486681368425 4.772087019286817e-24 3.8157773513599947e-16 3.815776903024284e-16 4.4833571061572864e-23
3.0578761833420214 5.4136864837143335e-24 4.3942264190297386e-16 4.3942259166042557e-16 5.0242548315345365e-23
3.1040917844459814 6.2404612477329804e-24 5.141865095017676e-16 5.141864532970318e-16 5.620473589657199e-23
3.127460860933648 7.115091541546821e-24 5.906657766313729e-16 5.906657172035688e-16 5.9427804307215e-23
3.1510058709225794 8.28041870145458e-24 6.925815897909738e-16 6.925815269807155e-16 6.28102582740287e-23
3.162844764501044 9.365166045993911e-24 7.862538622143711e-16 7.862537976443355e-16 6.457003567654527e-23
3.1747281389236908 1.0626638732157371e-23 8.955129916451458e-16 8.955129252732773e-16 6.637186885072372e-23
3.1986289994194426 1.414525337531617e-23 1.2010028403252821e-15 1.2010027702108748e-15 7.011440737048326e-23
3.2227097969389145 2.243951005757109e-23 1.9195702155351527e-15 1.919570141425421e-15 7.410973210972483e-23
3.2348180950136065 3.030507001869955e-23 2.6021635468177298e-15 2.602163470565316e-15 7.625241384921036e-23
3.240889293275058 3.618559990873543e-23 3.1129303675441054e-15 3.112930290158975e-15 7.738513001869086e-23
3.2469718861334385 4.298846650802435e-23 3.7050998338021536e-15 3.7050997552431895e-15 7.855896442038791e-23
3.2714166318528037 7.927615719521024e-23 6.88411125652902e-15 6.884111173091908e-15 8.34371109215935e-23
3.2744851364798273 8.154461369968083e-23 7.087739318505627e-15 7.087739234489568e-15 8.40160580259326e-23
3.2775565192852394 8.387822667484312e-23 7.297411937415405e-15 7.297411852816893e-15 8.459850894499505e-23
3.283707930232385 8.16340123624926e-23 7.115494670662002e-15 7.115494585017454e-15 8.564454955909398e-23
3.2898708863219004 7.451693016796459e-23 6.507336158988064e-15 6.507336072387282e-15 8.660078058674895e-23
3.29141343181113 7.283854478847766e-23 6.3637503036957006e-15 6.363750216854541e-15 8.68411598921731e-23
3.292184975758714 7.201384569400669e-23 6.2931729242030745e-15 6.29317283724153e-15 8.69615483232097e-23
3.295272960557952 6.680826270437832e-23 5.8437416306805995e-15 5.843741543250259e-15 8.743034056963578e-23
3.3076538914384823 4.8774531577912427e-23 4.282354337093776e-15 4.282354247776145e-15 8.931763317690529e-23
3.310756385682612 4.51042082474055e-23 3.963818151612838e-15 3.963818061818422e-15 8.979441592814227e-23
3.313861789986515 4.1717764047393183e-23 3.669651719023622e-15 3.6696516287504274e-15 9.027319333226488e-23
3.3200813396944477 3.696864954266245e-23 3.258004973702558e-15 3.258004882400193e-15 9.130236568172428e-23
3.345076488085796 2.849664190892415e-23 2.5302834264388337e-15 2.530283330539263e-15 9.589957142835076e-23
3.3482140837626964 2.8814320080047916e-23 2.5608906121607555e-15 2.5608905156364407e-15 9.652431374023405e-23
3.3513546224236106 2.9135510524209614e-23 2.5918654374992353e-15 2.5918653403467222e-15 9.715251332293836e-23
3.3576445397418455 3.1482890268859155e-23 2.8059423632564553e-15 2.8059422647890416e-15 9.846741306519085e-23
3.3702598118196083 4.014105633675972e-23 3.591051320840856e-15 3.591051219607529e-15 1.0123332682154442e-22
3.382922481734668 4.2113005732169545e-23 3.781618541806941e-15 3.781618437873612e-15 1.0393332972232283e-22
3.389271646505754 4.3134612486855285e-23 3.880625313671422e-15 3.8806252083651065e-15 1.0530631723227547e-22
3.395632727569191 4.4235442474215803e-23 3.987131133773072e-15 3.987131027050498e-15 1.0672257402196929e-22
3.421196662673239 4.9521213242907456e-23 4.497164242541294e-15 4.497164129928063e-15 1.1261323065263674e-22
3.4276182099114902 4.845596741901474e-23 4.408685745994445e-15 4.408685632050463e-15 1.1394398251539888e-22
3.4340518103208963 4.378815831000581e-23 3.991470793346513e-15 3.9914706781372225e-15 1.1520928900093113e-22
3.4469541582030403 3.714033421719902e-23 3.39821418379214e-15 3.3982140661388423e-15 1.1765329852896798e-22
3.472904465399547 3.527716292674549e-23 3.252040313112581e-15 3.2520401898201e-15 1.2329248228206589e-22
3.4990501388274233 3.242755737666599e-23 3.011853442268098e-15 3.0118533131527517e-15 1.2911534529052543e-22
3.5253949054701885 2.2286605898306903e-23 2.085552558065809e-15 2.0855524232330933e-15 1.3483271602371324e-22
3.5519380250092896 1.2755284213532505e-23 1.202610392605009e-15 1.2026102519649308e-15 1.4064007848988577e-22
3.578680990867387 8.975945928661931e-24 8.526536337038248e-16 8.526534866571236e-16 1.4704670116143181e-22
3.605625307711299 7.44715540082662e-24 7.12755279418314e-16 7.127551255651522e-16 1.5385316175596382e-22
3.660119384959845 6.331589415267415e-24 6.151449014940627e-16 6.151447331218783e-16 1.6837218444691003e-22
3.715437065384467 5.541407690406317e-24 5.465116766992375e-16 5.465114927061094e-16 1.8399312806004936e-22
3.8285932144167436 5.139473019668157e-24 5.223086867623726e-16 5.223084680419859e-16 2.1872038676892843e-22
3.94519561050918 5.061248616288742e-24 5.300241342724935e-16 5.300238758554182e-16 2.584170752418022e-22
4.06534921144712 5.115954614001528e-24 5.520697781050978e-16 5.520694744890798e-16 3.03616018096678e-22
4.189162171576248 5.2476477033346936e-24 5.835274323046866e-16 5.835270772545695e-16 3.5505011728369803e-22
4.316745939156006 5.435479032690196e-24 6.228217163128293e-16 6.228213029686453e-16 4.13344184100258e-22
4.448215356677963 5.6724445994006815e-24 6.697697072768095e-16 6.697692285453146e-16 4.787314950552179e-22
4.58368876423945 5.9593799661449494e-24 7.250795069195887e-16 7.25078954632254e-16 5.522873346404922e-22
4.723288106065518 6.302917952667367e-24 7.902336588149713e-16 7.902330232481571e-16 6.355668141318056e-22
4.867139040275056 6.716346218846813e-24 8.677133143168288e-16 8.677125858720851e-16 7.284447435881777e-22
4.940699165968905 6.96596112141398e-24 9.135638166859213e-16 9.135630375197766e-16 7.791661443372037e-22
5.015371051989984 7.224468836425931e-24 9.617859400605738e-16 9.61785107153375e-16 8.329071986511795e-22
5.091171501069577 7.540159142316987e-24 1.0189847210898514e-15 1.0189838303881033e-15 8.90701747939044e-22
5.129500256944802 7.702187569577219e-24 1.0487176557187925e-15 1.0487167348387476e-15 9.208800450962281e-22
5.168117569889187 7.871128419095739e-24 1.07978879383994e-15 1.0797878417320815e-15 9.521078583940199e-22
5.20702561229733 8.07863016373832e-24 1.1165980721944712e-15 1.1165970865113888e-15 9.856830823134595e-22
5.246226572918644 8.29143491006467e-24 1.1546388649508212e-15 1.1546378446461327e-15 1.020304688385225e-21
5.265937586045735 8.399878949748308e-24 1.174135361533699e-15 1.1741343235157371e-15 1.0380179615738468e-21
5.285722656980489 8.509713314014553e-24 1.1939571322247652e-15 1.1939560762196934e-15 1.0560050713905045e-21
5.305582063971359 8.620960510236113e-24 1.2141102487086048e-15 1.2141091744383487e-15 1.0742702560405801e-21
5.3255160863122235 8.740507563338765e-24 1.2355712287489643e-15 1.2355701358457335e-15 1.0929032307945347e-21
5.365609099470188 9.038470303319106e-24 1.2873107571074542e-15 1.2873096253971458e-15 1.1317103082898441e-21
5.406003951863644 9.347797150854937e-24 1.3413900218005562e-15 1.3413888500366232e-15 1.1717639334258282e-21
5.446702915881641 9.669038317299672e-24 1.3979331451370354e-15 1.3979319320322211e-15 1.2131048140104242e-21
5.487708281020852 1.0016215915491646e-23 1.4590296840956002e-15 1.4590284281978907e-15 1.2558977093608546e-21
5.529022354014368 1.0499153383060064e-23 1.5408914992728718e-15 1.540890198107802e-15 1.3011650697527937e-21
5.570647458961463 1.1010613535563572e-23 1.6281208100796509e-15 1.6281194621282067e-15 1.3479514449670967e-21
5.612585937458331 1.155265209401064e-23 1.7211318114376382e-15 1.7211304151275753e-15 1.396310062317635e-21
5.654840148729818 1.2148582233463749e-23 1.8235402915329204e-15 1.8235388450549424e-15 1.4464779777433618e-21
5.67608639626678 1.2554649383220565e-23 1.8915726191284763e-15 1.8915711461352658e-15 1.4729932107640183e-21
5.686739436050992 1.2763967388437503e-23 1.9267193032944524e-15 1.9267178168688496e-15 1.4864256022750406e-21
5.6974124697621304 1.2977608800340252e-23 1.962645095567983e-15 1.9626435955920133e-15 1.4999759693071453e-21
5.718818669136295 1.341827864198041e-23 2.0369134010029005e-15 2.036911873567825e-15 1.5274350758692646e-21
5.740305295436557 1.3904098006705647e-23 2.1185915909647273e-15 2.1185900353830696e-15 1.555581657251772e-21
5.7835210386641895 1.5164810407012236e-23 2.3280844918047463e-15 2.3280828767924734e-15 1.6150122736762924e-21
5.827062130521658 1.6617372581008542e-23 2.5702859317528704e-15 2.570284254580741e-15 1.6771721292691448e-21
5.8489554468988025 1.7636637084754355e-23 2.738189650680163e-15 2.7381879394581804e-15 1.7112219830073246e-21
5.870931020387893 1.8730505372168942e-23 2.9189449610926425e-15 2.9189432150973295e-15 1.745995312684205e-21
5.892989160043636 1.9904984358241697e-23 3.1136293752443057e-15 3.1136275937344073e-15 1.7815098996149e-21
5.915130176081913 2.124082901316752e-23 3.335071911422736e-15 3.335070092767128e-15 1.818655606840125e-21
5.95966208400165 2.497645026095555e-23 3.951134227701983e-15 3.951132324404325e-15 1.9032976588636895e-21
6.004529249263818 3.036157128348286e-23 4.839189635420226e-15 4.839187634155431e-15 2.0012647937920458e-21
6.027089341400364 3.410523868989605e-23 5.456298929197979e-15 5.456296870302742e-15 2.058895238109783e-21
6.049734195844842 3.852951792269016e-23 6.18727333047408e-15 6.187271209448824e-15 2.1210252554503944e-21
6.095279466722835 5.1310230740682704e-23 8.301699775434475e-15 8.301697499045919e-15 2.276388555888576e-21
6.141167624020661 7.09806495728436e-23 1.157071919918483e-14 1.1570716715505748e-14 2.4836790855018637e-21
6.164241091010745 8.354231920873322e-23 1.3669592769764398e-14 1.3669590155159612e-14 2.6146047875248578e-21
6.187401249150058 9.785252471219596e-23 1.6071253413966848e-14 1.6071250659928697e-14 2.7540381492709907e-21
6.1990139391386085 1.048399090864991e-22 1.7251175033760125e-14 1.7251172208246644e-14 2.8255134791178387e-21
6.204828454712694 1.085206599131875e-22 1.7873583688185857e-14 1.7873580826023183e-14 2.8621626784078194e-21
6.210648424152782 1.1120752924787698e-22 1.8333296833235545e-14 1.833329393972746e-14 2.89350809272562e-21
6.233982942956859 1.2033604587067357e-22 1.9912728829472817e-14 1.9912725823731087e-14 3.0057417277118435e-21
6.239830258556775 1.215029581150982e-22 2.0124683559017114e-14 2.0124680536231937e-14 3.022785177458786e-21
6.245683058788269 1.2160410937042939e-22 2.0160329515161203e-14 2.0160326475230185e-14 3.0399310128633793e-21
6.257405133728602 1.2135324139945968e-22 2.015649839137891e-14 2.015649532055565e-14 3.0708232570156172e-21
6.269149208991335 1.1955773229365092e-22 1.989553895862959e-14 1.9895535872761347e-14 3.085868247199772e-21
6.280915325867298 1.1505522264304156e-22 1.91822129888968e-14 1.9182209907709528e-14 3.0811872684927913e-21
6.304513850009849 1.0395191222819952e-22 1.7396165027325214e-14 1.739616197366488e-14 3.0536603294737766e-21
6.32820103803542 9.018914462053712e-23 1.5149697760255384e-14 1.5149694755211092e-14 3.0050442854797894e-21
6.3519772230701035 7.756767985310805e-23 1.3078537034778182e-14 1.307853407355429e-14 2.9612238891802556e-21
6.375842739491607 6.694968260013042e-23 1.1330668981608923e-14 1.1330666057320262e-14 2.924288658601453e-21
6.399797922933955 5.843944712941854e-23 9.927543364365178e-15 9.927540456457355e-15 2.9079078232803764e-21
6.42384311029221 5.136417643483027e-23 8.75839822590227e-15 8.758395329131676e-15 2.8967705921883174e-21
6.447978639727206 4.620813123413572e-23 7.908815206336019e-15 7.908812303053563e-15 2.903282459129362e-21
6.472204850670314 4.1913043527518643e-23 7.200636474736184e-15 7.200633560844368e-15 2.913891817580161e-21
6.496522083828205 3.912149097901329e-23 6.746301558853359e-15 6.746298619331379e-15 2.9395219794919584e-21
