Dust emission spectrum from A.P. Jones, M. Kohler, N. Ysard, M. Bocchio, and L. Verstraete (2017), A&A, 602A, 46J 
inside the DustPedia framework.

lambda    nu*dP/dnu     j_nu    j_nu(carb.) j_nu(sil)
 (um)   (erg s-1 H-1) (Jy cm2 sr-1 H-1)
0.9927057738263894 2.608312526299565e-24 6.873051655993237e-17 6.873051655993169e-17 6.791162093342746e-31
1.0001793341362166 2.651412380118944e-24 7.039220827492533e-17 7.03922082749245e-17 8.183195955147335e-31
1.0077091589558085 2.694450996498996e-24 7.207338646522731e-17 7.207338646522631e-17 9.848080887264674e-31
1.0114953028030835 2.7159420404513373e-24 7.292119902320317e-17 7.292119902320208e-17 1.0798386181202691e-30
1.0152956718711033 2.7374114315510028e-24 7.37737813834364e-17 7.377378138343519e-17 1.1836620085127635e-30
1.0229392996569957 2.7802558068209002e-24 7.54925427094751e-17 7.54925427094737e-17 1.4208718144483759e-30
1.0267826658714554 2.80157883943846e-24 7.635734334661095e-17 7.635734334660941e-17 1.5560562821551197e-30
1.0306404723013447 2.822870791976319e-24 7.722672644932719e-17 7.722672644932549e-17 1.7035572884723263e-30
1.03451277320114 2.8441296097741178e-24 7.810065462782232e-17 7.810065462782045e-17 1.864442992201775e-30
1.0383996230291617 2.8653532495548748e-24 7.897909002443727e-17 7.897909002443521e-17 2.0398691368325826e-30
1.0403485208654093 2.8759512423740524e-24 7.941998597329489e-17 7.941998597329275e-17 2.133421640988668e-30
1.0423010764483396 2.8865396798168255e-24 7.986199432261054e-17 7.986199432260832e-17 2.2310857855627546e-30
1.0462171883269815 2.9076868812166362e-24 8.074932875584535e-17 8.07493287558429e-17 2.4394445370065917e-30
1.0471985131304309 2.912967316603139e-24 8.097184998769414e-17 8.097184998769167e-17 2.4943813565584913e-30
1.048180758391296 2.9182451434653612e-24 8.119464503775964e-17 8.11946450377571e-17 2.550504230132086e-30
1.0501480137395462 2.9287928469439088e-24 8.164105411668296e-17 8.164105411668032e-17 2.6664062529807788e-30
1.0521189612883777 2.9393297428192795e-24 8.208855102425607e-17 8.20885510242533e-17 2.7873516428544195e-30
1.0531058218030118 2.9445859720824276e-24 8.231247975520719e-17 8.231247975520434e-17 2.8497845615100045e-30
1.0540936079674168 2.9498129066956307e-24 8.253593667776829e-17 8.253593667776537e-17 2.913570820647215e-30
1.058054026499678 2.9706909845391655e-24 8.343240364162818e-17 8.343240364162504e-17 3.182678480325798e-30
1.0590464539527713 2.9759029361550373e-24 8.365717701032432e-17 8.365717701032107e-17 3.25358992707658e-30
1.06003981227728 2.9811117997502932e-24 8.388221174841991e-17 8.388221174841658e-17 3.326014692052798e-30
1.0620293250338977 2.991520141563062e-24 8.433306275715793e-17 8.433306275715445e-17 3.4755278030522174e-30
1.0660195594769086 3.0122984376529072e-24 8.523787279054707e-17 8.523787279054326e-17 3.794107460630474e-30
1.070024785945596 3.0330239473437718e-24 8.614679212305327e-17 8.614679212304913e-17 4.140563176243645e-30
1.0740450607676866 3.0536947601368775e-24 8.705977876001214e-17 8.705977876000766e-17 4.517209317697997e-30
1.07808044048254 3.074308980807605e-24 8.797679033983074e-17 8.797679033982578e-17 4.926541281628999e-30
1.0861967418109137 3.1153237208571974e-24 8.98216669687963e-17 8.982166696879048e-17 5.8542304654322924e-30
1.0902777775684922 3.1356377039268812e-24 9.074704065310873e-17 9.074704065310237e-17 6.378609279823946e-30
1.0943741465085532 3.1558862240570405e-24 9.16761983179513e-17 9.167619831794437e-17 6.947744451115213e-30
1.1026131145906286 3.1961796766215247e-24 9.35456877798751e-17 9.354568777986686e-17 8.235029280004783e-30
1.1109141095355224 3.2361898546200945e-24 9.542977674394113e-17 9.542977674393136e-17 9.748442735682937e-30
1.1192775983109025 3.2758656777993362e-24 9.732699857741688e-17 9.732699857740534e-17 1.1525395001373268e-29
1.1277040513999907 3.315022893877613e-24 9.923185404322029e-17 9.923185404320672e-17 1.3609080148508013e-29
1.1361939428280308 3.35385059360374e-24 1.0114993653117469e-16 1.0114993653115866e-16 1.604929582781137e-29
1.1447477501889525 3.392335825389611e-24 1.0308086886653498e-16 1.0308086886651606e-16 1.8903384626224814e-29
1.1533659546722406 3.4304869062278764e-24 1.0502491209785907e-16 1.0502491209783678e-16 2.2237320317663813e-29
1.1707974979042381 3.505909766430317e-24 1.0895620118000353e-16 1.0895620117997286e-16 3.065920616133381e-29
1.1884924949847024 3.5798335166422395e-24 1.12935039092779e-16 1.1293503909273691e-16 4.2063359605507445e-29
1.2064549276569216 3.652835987643629e-24 1.1697975500616039e-16 1.1697975500610297e-16 5.743026248963975e-29
1.2246888378427687 3.7241200423489565e-24 1.2106507184785198e-16 1.2106507184777396e-16 7.80342263051044e-29
1.2431983285522175 3.793518869907218e-24 1.2518494397394767e-16 1.2518494397384213e-16 1.0552587016357013e-28
1.2619875648066055 3.861006434792873e-24 1.2933767032371661e-16 1.293376703235746e-16 1.4203231011253175e-28
1.3004222497298317 3.9891259358098444e-24 1.376992489994536e-16 1.3769924899919986e-16 2.537425813478293e-28
1.3400274889804893 4.107976511539253e-24 1.4612048069520118e-16 1.4612048069475602e-16 4.45145280412261e-28
1.3808389325824078 4.217116722317517e-24 1.5457102190453962e-16 1.545710219037724e-16 7.672050010268304e-28
1.4228933163050095 4.317076482196205e-24 1.6305402174964258e-16 1.630540217483429e-16 1.2996745682892485e-27
1.466228494730424 4.410259132442199e-24 1.716465964660957e-16 1.7164659646393056e-16 2.165147928533291e-27
1.5108834753276823 4.494853331083007e-24 1.802668747186985e-16 1.802668747151498e-16 3.54863961706851e-27
1.5568984535646726 4.569393155123281e-24 1.8883750212636787e-16 1.8883750212063986e-16 5.7280499263792326e-27
1.6043148490894465 4.634013634902626e-24 1.973405542294293e-16 1.9734055422030693e-16 9.122435330658783e-27
1.6531753430134553 4.688910057769485e-24 2.057596698785142e-16 2.0575966986419597e-16 1.4318189387676263e-26
1.7035239163302658 4.7347330691624884e-24 2.1409827488109969e-16 2.1409827485894596e-16 2.2153774312903005e-26
1.755405889504358 4.7752469254204644e-24 2.225065591269785e-16 2.2250655909317113e-16 3.380735562212565e-26
1.8088679632656115 4.809521138390302e-24 2.309288208304957e-16 2.3092882077959337e-16 5.090232811164709e-26
1.8639582606462262 4.836925144942748e-24 2.3931778935433013e-16 2.3931778927868074e-16 7.564933418463112e-26
1.9207263702978936 4.857914792309989e-24 2.476765132200295e-16 2.476765131090138e-16 1.1101573309535698e-25
1.979223391128241 4.873552248687207e-24 2.560412120769301e-16 2.560412119159948e-16 1.6093527962304302e-25
2.039501978296691 4.885108916906281e-24 2.6446476283454683e-16 2.644647626039943e-16 2.3055249250651846e-25
2.1016163906111602 4.8961473807410896e-24 2.731350044985841e-16 2.7313500417204867e-16 3.2653549012642576e-25
2.1656225393682647 4.908733206476229e-24 2.8217700810978463e-16 2.821770076523857e-16 4.573989336116315e-25
2.231578038680979 4.92301379256852e-24 2.9161681635513773e-16 2.9161681572124825e-16 6.33889584296717e-25
2.299542257339062 4.940225754702203e-24 3.0154881297825995e-16 3.015488121088288e-16 8.694311515348783e-25
2.369576372248914 4.9631041666757644e-24 3.1217170336781074e-16 3.1217170218716517e-16 1.1806455882659892e-24
2.4417434235010123 4.994878749785582e-24 3.237385445944884e-16 3.2373854300660226e-16 1.587886112331253e-24
2.5161083711144245 5.041081043257896e-24 3.3668398212650193e-16 3.366839800105787e-16 2.1159233212059616e-24
2.5927381535095444 5.1107633564329776e-24 3.517336055604385e-16 3.51733602765793e-16 2.7946453936537173e-24
2.6717017477616296 5.21473319214578e-24 3.698192390079664e-16 3.698192353482856e-16 3.659680805906354e-24
2.753070231689431 5.369262534986605e-24 3.9237503123562615e-16 3.923750264823642e-16 4.753262089884398e-24
2.836916847834745 5.611217722041038e-24 4.2254518746451976e-16 4.225451813391325e-16 6.125387332390148e-24
2.9233170693905177 6.02179476854443e-24 4.672736651715926e-16 4.672736573378206e-16 7.83377195492879e-24
2.967498994190263 6.3704804332840584e-24 5.018017824094623e-16 5.018017735871953e-16 8.822266787008348e-24
3.0123486681368425 6.777705148499769e-24 5.419476571847285e-16 5.419476472606239e-16 9.924104660900097e-24
3.0578761833420214 7.688912847846748e-24 6.241001223706662e-16 6.241001112166353e-16 1.1154030880763604e-23
3.1040917844459814 8.863100991136612e-24 7.302804682345799e-16 7.302804557179111e-16 1.251666886002472e-23
3.127460860933648 1.0105257861449996e-23 8.388971453058813e-16 8.388971320494131e-16 1.3256468242013533e-23
3.1510058709225794 1.1760259592493192e-23 9.836385789878844e-16 9.83638564952601e-16 1.4035283386689746e-23
3.162844764501044 1.3300828913206602e-23 1.1166730042266314e-15 1.1166729897846472e-15 1.444198462431473e-23
3.1747281389236908 1.5092379100050772e-23 1.2718435151116973e-15 1.2718435002525926e-15 1.4859104572124217e-23
3.1986289994194426 2.0089518696748105e-23 1.7057007305125807e-15 1.7057007147841942e-15 1.5728386238469616e-23
3.2227097969389145 3.1869044563526707e-23 2.726212318573682e-15 2.7262123019088404e-15 1.6664841202214748e-23
3.2348180950136065 4.303973192015719e-23 3.695633153077482e-15 3.695633135905067e-15 1.7172414586967924e-23
3.240889293275058 5.139127998119504e-23 4.421025946340713e-15 4.421025928897336e-15 1.7443377978856478e-23
3.2469718861334385 6.105273877589638e-23 5.26202748473281e-15 5.262027467006781e-15 1.7726028437372234e-23
3.2714166318528037 1.1258864816746932e-22 9.77687122621894e-15 9.776871207308148e-15 1.8910792450867465e-23
3.2744851364798273 1.1581033340355867e-22 1.0066065878694099e-14 1.0066065859643815e-14 1.9050278872900006e-23
3.2775565192852394 1.191245546326214e-22 1.0363845082052821e-14 1.0363845062862071e-14 1.919074916988489e-23
3.283707930232385 1.1593735484494977e-22 1.0105489203038614e-14 1.0105489183602108e-14 1.943650589130271e-23
3.2898708863219004 1.0582968837107212e-22 9.241783797040805e-15 9.241783777385462e-15 1.965534122940039e-23
3.29141343181113 1.0344604756867039e-22 9.037863380480159e-15 9.037863360769799e-15 1.9710359050016327e-23
3.292184975758714 1.0227481079105024e-22 8.937629477990726e-15 8.937629458252812e-15 1.9737914445946674e-23
3.295272960557952 9.488184528112036e-23 8.299347518113826e-15 8.299347498270054e-15 1.9843773035025536e-23
3.3076538914384823 6.927031402959082e-23 6.081863220820754e-15 6.08186320055151e-15 2.0269246411901072e-23
3.310756385682612 6.405770679039057e-23 5.6294769555354905e-15 5.6294769351587266e-15 2.0376762943589364e-23
3.313861789986515 5.924826264653709e-23 5.211700431092827e-15 5.211700410608086e-15 2.0484741554843596e-23
3.3200813396944477 5.25035515688161e-23 4.627078193669181e-15 4.627078172948223e-15 2.0720958185004655e-23
3.345076488085796 4.047159997550219e-23 3.593567936417306e-15 3.593567914617485e-15 2.179982325423873e-23
3.3482140837626964 4.092277629093016e-23 3.63703718622756e-15 3.6370371642785024e-15 2.1949057735705377e-23
3.3513546224236106 4.137894086585181e-23 3.68102857100821e-15 3.681028548909e-15 2.2099211349330912e-23
3.3576445397418455 4.471272842986996e-23 3.985064198576827e-15 3.985064176159802e-15 2.2417025518096124e-23
3.3702598118196083 5.700917315807655e-23 5.100086675643312e-15 5.1000866525503686e-15 2.309294316283943e-23
3.382922481734668 5.980980822859773e-23 5.3707370406574484e-15 5.3707370169129e-15 2.3744548800434307e-23
3.389271646505754 6.12607322331381e-23 5.51135003960932e-15 5.511350015532685e-15 2.4076634638390892e-23
3.395632727569191 6.282417641480612e-23 5.662613861794903e-15 5.662613837374529e-15 2.442037417475824e-23
3.421196662673239 7.033126222767597e-23 6.386984827525394e-15 6.386984801668429e-15 2.5856967011862462e-23
3.4276182099114902 6.881840959081352e-23 6.26132873999683e-15 6.261328713820166e-15 2.617666489884001e-23
3.4340518103208963 6.218912488049344e-23 5.668794605767826e-15 5.668794579290893e-15 2.647693125762823e-23
3.4469541582030403 5.274778870699952e-23 4.826243153859127e-15 4.826243126807787e-15 2.7051338232340303e-23
3.472904465399547 5.0101723290254465e-23 4.61864873415858e-15 4.6186487057408615e-15 2.841771816562799e-23
3.4990501388274233 4.6054701706273536e-23 4.277535006891467e-15 4.277534977059611e-15 2.9831855979615466e-23
3.5253949054701885 3.165234734677998e-23 2.9619868668687433e-15 2.96198683566762e-15 3.1201123150158035e-23
3.5519380250092896 1.811573129996356e-23 1.7080110773119706e-15 1.7080110447233892e-15 3.258858138258668e-23
3.578680990867387 1.2748211651255281e-23 1.2109931447958982e-15 1.2109931106447256e-15 3.41511726828707e-23
3.605625307711299 1.0576981610556939e-23 1.0123059178271057e-15 1.012305881996459e-15 3.58306467511046e-23
3.660119384959845 8.992628665184528e-24 8.736778890113783e-16 8.73677849558728e-16 3.945265033483748e-23
3.715437065384467 7.870380698320959e-24 7.762025810061485e-16 7.762025376123092e-16 4.3393839442650326e-23
3.8285932144167436 7.299538419901391e-24 7.418294271571737e-16 7.418293748174744e-16 5.2339699462836037e-23
3.94519561050918 7.188439374496111e-24 7.527878286744576e-16 7.527877658080196e-16 6.28664381305613e-23
4.06534921144712 7.266132691468183e-24 7.84098485096498e-16 7.840984098505718e-16 7.524592639185792e-23
4.189162171576248 7.45316633057606e-24 8.287764837294768e-16 8.287763938912737e-16 8.98382028458694e-23
4.316745939156006 7.719930537584866e-24 8.845844788135855e-16 8.845843717809729e-16 1.0703261282873564e-22
4.448215356677963 8.056478546144295e-24 9.512627550568006e-16 9.512626278639569e-16 1.271928438606098e-22
4.58368876423945 8.463997805310383e-24 1.0298170934069388e-15 1.0298169424504913e-15 1.5095644729081975e-22
4.723288106065518 8.951909576994597e-24 1.122353219815513e-15 1.1223530406412315e-15 1.7917428146212396e-22
4.867139040275056 9.539087102680201e-24 1.2323952065182152e-15 1.232394994083806e-15 2.124344088652157e-22
4.940699165968905 9.89360879387592e-24 1.297515569351328e-15 1.2975153379942668e-15 2.313570609424424e-22
5.015371051989984 1.026076074867876e-23 1.3660042898443496e-15 1.366004037867216e-15 2.519771336477232e-22
5.091171501069577 1.0709131059291251e-23 1.4472427862064086e-15 1.4472425114987408e-15 2.7470766823086116e-22
5.129500256944802 1.0939257638655233e-23 1.4894719873388035e-15 1.4894717005044008e-15 2.8683440280322616e-22
5.168117569889187 1.1179202066989266e-23 1.5336018513841095e-15 1.5336015518407158e-15 2.9954339369192295e-22
5.20702561229733 1.1473916149602715e-23 1.585881813314606e-15 1.585881500114004e-15 3.1320060221552473e-22
5.246226572918644 1.177616210456696e-23 1.6399108952045077e-15 1.6399105677231786e-15 3.2748132993140876e-22
5.265937586045735 1.1930184867969526e-23 1.667601641275674e-15 1.667601306411107e-15 3.348645672808445e-22
5.285722656980489 1.2086182313915163e-23 1.6957543741576559e-15 1.6957540317429409e-15 3.4241471539320443e-22
5.305582063971359 1.2244186409546285e-23 1.7243777174571014e-15 1.7243773673214738e-15 3.501356276850449e-22
5.3255160863122235 1.2413979131074066e-23 1.754858666672914e-15 1.7548583086086905e-15 3.580642227557945e-22
5.365609099470188 1.2837178337354395e-23 1.8283445328701947e-15 1.8283441581430673e-15 3.7472712707525994e-22
5.406003951863644 1.327651820798756e-23 1.905153563031599e-15 1.905153170860411e-15 3.9217118820479386e-22
5.446702915881641 1.3732780215522898e-23 1.9854620499138723e-15 1.9854616394802647e-15 4.1043360757214883e-22
5.487708281020852 1.4225880632272947e-23 2.0722378890399657e-15 2.072237459422775e-15 4.296171901687103e-22
5.529022354014368 1.491180699123377e-23 2.1885075675399753e-15 2.1885071172572476e-15 4.50282728419375e-22
5.570647458961463 1.563824499202203e-23 2.312400850542771e-15 2.3124003785823962e-15 4.719603745783044e-22
5.612585937458331 1.6408114425105297e-23 2.4445060296932635e-15 2.4445055349930055e-15 4.947002578696595e-22
5.654840148729818 1.7254528069705344e-23 2.5899587739401975e-15 2.5899582552725636e-15 5.186676345301605e-22
5.67608639626678 1.783127725584451e-23 2.6865868405949466e-15 2.6865863090052788e-15 5.315896686784884e-22
5.686739436050992 1.8128577852837453e-23 2.7365065913580337e-15 2.7365060531833144e-15 5.381747196208839e-22
5.6974124697621304 1.8432019140109622e-23 2.787532936406812e-15 2.787532391562927e-15 5.448438850227699e-22
5.718818669136295 1.9057915776036556e-23 2.8930181787955535e-15 2.8930176203566384e-15 5.584389139151602e-22
5.740305295436557 1.9747940223672267e-23 3.0090279913568414e-15 3.0090274188195682e-15 5.725372733712127e-22
5.7835210386641895 2.153857358927298e-23 3.306577385602871e-15 3.3065767825075884e-15 6.030952816773683e-22
5.827062130521658 2.3601699145101714e-23 3.65058404885551e-15 3.6505834131403855e-15 6.357151235024599e-22
5.8489554468988025 2.5049399762268508e-23 3.8890638195467e-15 3.889063165293563e-15 6.542531364963975e-22
5.870931020387893 2.660306331817303e-23 4.145797247819678e-15 4.1457965744401575e-15 6.733795200330008e-22
5.892989160043636 2.8271221666511154e-23 4.422314766524546e-15 4.422314073410929e-15 6.93113617412139e-22
5.915130176081913 3.0168574869434754e-23 4.736838029830817e-15 4.7368373157639845e-15 7.140668333735502e-22
5.95966208400165 3.5474432966462553e-23 5.611856162011207e-15 5.611855398428075e-15 7.635831309115104e-22
6.004529249263818 4.31231518343334e-23 6.873198605399068e-15 6.873197781460558e-15 8.239385105611987e-22
6.027089341400364 4.8440447483625733e-23 7.749705672433268e-15 7.749704811260765e-15 8.611725039286325e-22
6.049734195844842 5.47244482826986e-23 8.787940717655573e-15 8.78793981538483e-15 9.02270744997769e-22
6.095279466722835 7.287747690339747e-23 1.1791155972398888e-14 1.1791154962039914e-14 1.0103589747853918e-21
6.141167624020661 1.0081629377495029e-22 1.643429629050298e-14 1.6434295127774005e-14 1.1627289745588065e-21
6.164241091010745 1.186582353938707e-22 1.941542648056505e-14 1.941542521900094e-14 1.2615641111818754e-21
6.187401249150058 1.3898371877107676e-22 2.2826621708076202e-14 2.2826620338603547e-14 1.36947265606982e-21
6.1990139391386085 1.489082488167766e-22 2.4502522814947033e-14 2.450252138997398e-14 1.4249730555917035e-21
6.204828454712694 1.5413620359764023e-22 2.538656083169369e-14 2.5386559377980425e-14 1.4537132573677916e-21
6.210648424152782 1.579525031633734e-22 2.6039515000752372e-14 2.603951352290744e-14 1.4778449383173791e-21
6.233982942956859 1.7091822324849864e-22 2.8282865760940596e-14 2.8282864197053496e-14 1.5638870974451926e-21
6.239830258556775 1.7257565955565786e-22 2.858391756401788e-14 2.858391598778851e-14 1.5762293711072028e-21
6.245683058788269 1.7271934513686707e-22 2.863454968446022e-14 2.863454809579029e-14 1.5886699384774414e-21
6.257405133728602 1.7236305662476255e-22 2.8629113104231e-14 2.862911149353814e-14 1.610692845557198e-21
6.269149208991335 1.6981283951459108e-22 2.8258464755252603e-14 2.8258463136012368e-14 1.6192402244278453e-21
6.280915325867298 1.6341773703417562e-22 2.724529809201729e-14 2.724529648099599e-14 1.611021295444302e-21
6.304513850009849 1.4764721828364837e-22 2.470849568836588e-14 2.4708494109350046e-14 1.5790158292190183e-21
6.32820103803542 1.2809932560478845e-22 2.1517734472039517e-14 2.1517732944104964e-14 1.5279345540434727e-21
6.3519772230701035 1.1017246563824199e-22 1.8575967139809192e-14 1.857596565964418e-14 1.4801650086253049e-21
6.375842739491607 9.509121901983852e-23 1.6093386614044463e-14 1.6093385175389222e-14 1.4386552412224834e-21
6.399797922933955 8.30037193123575e-23 1.4100458908383643e-14 1.4100457495439448e-14 1.4129441912961942e-21
6.42384311029221 7.295436576604604e-23 1.243986435775653e-14 1.2439862965790627e-14 1.3919659100798423e-21
6.447978639727206 6.563097915660058e-23 1.1233159015463342e-14 1.1233157630080332e-14 1.385383007624882e-21
6.472204850670314 5.953045068553498e-23 1.0227296766991059e-14 1.0227295384659846e-14 1.3823312131801458e-21
6.496522083828205 5.556546728787905e-23 9.581981391857687e-15 9.581980000104311e-15 1.3917533763687677e-21
