Dust emission spectrum from A.P. Jones, M. Kohler, N. Ysard, M. Bocchio, and L. Verstraete (2017), A&A, 602A, 46J 
inside the DustPedia framework.

lambda    nu*dP/dnu     j_nu    j_nu(carb.) j_nu(sil)
 (um)   (erg s-1 H-1) (Jy cm2 sr-1 H-1)
0.9927057738263894 2.3252220761956115e-25 6.127092240752754e-18 6.127092232737551e-18 8.015201491302617e-27
1.0001793341362166 2.363610986497489e-25 6.2751384164152185e-18 6.275138406762653e-18 9.652562823387874e-27
1.0077091589558085 2.401958816184086e-25 6.424956559140749e-18 6.424956547531458e-18 1.1609290795742832e-26
1.0114953028030835 2.4211128263432387e-25 6.5005234882724505e-18 6.500523475546957e-18 1.2725497260638808e-26
1.0152956718711033 2.440251183093174e-25 6.5765253709116646e-18 6.576525356967196e-18 1.3944468733490028e-26
1.0229392996569957 2.4784550220304704e-25 6.729771812547514e-18 6.729771795819824e-18 1.672768855926286e-26
1.0267826658714554 2.4974743097152665e-25 6.806894051373271e-18 6.806894033060449e-18 1.8312817943152846e-26
1.0306404723013447 2.5164699105336564e-25 6.8844360128395065e-18 6.884435992797912e-18 2.0041596541050815e-26
1.03451277320114 2.535440086868229e-25 6.96239474718447e-18 6.962394725258071e-18 2.192639857767898e-26
1.0383996230291617 2.554383111863354e-25 7.040767269449176e-18 7.04076724546857e-18 2.3980604491040343e-26
1.0403485208654093 2.5638439059970245e-25 7.080107758847672e-18 7.080107733771964e-18 2.5075709162555293e-26
1.0423010764483396 2.5732972697826482e-25 7.11955056037242e-18 7.119550534153743e-18 2.6218677516671335e-26
1.0462171883269815 2.592180856359384e-25 7.198741567289739e-18 7.198741538633494e-18 2.8656245668035346e-26
1.0471985131304309 2.5968967776324717e-25 7.218602663801553e-18 7.218602634502791e-18 2.9298758170069375e-26
1.048180758391296 2.6016106560318074e-25 7.238489001376893e-18 7.238488971421828e-18 2.995506412854489e-26
1.0501480137395462 2.611032179139787e-25 7.278337205036018e-18 7.278337173725826e-18 3.131018945967524e-26
1.0521189612883777 2.6204452160275355e-25 7.318285787691897e-18 7.318285754967954e-18 3.2723942822249703e-26
1.0531058218030118 2.625141317262311e-25 7.338277556857935e-18 7.338277523404335e-18 3.345360274331674e-26
1.0540936079674168 2.629811729088945e-25 7.358228511844182e-18 7.358228477645186e-18 3.419899310355682e-26
1.058054026499678 2.6484698914333435e-25 7.438276487348752e-18 7.438276450006e-18 3.734275411701237e-26
1.0590464539527713 2.6531284323282595e-25 7.458349269320602e-18 7.4583492311497e-18 3.817090358160873e-26
1.06003981227728 2.6577845221489685e-25 7.478446265827635e-18 7.478446226811013e-18 3.90166228082525e-26
1.0620293250338977 2.6670892465939286e-25 7.518712700173388e-18 7.518712659411194e-18 4.076219544761991e-26
1.0660195594769086 2.6856681638714554e-25 7.599533912319304e-18 7.599533867839067e-18 4.448023702488497e-26
1.070024785945596 2.704205026312477e-25 7.680736858799771e-18 7.680736810278177e-18 4.8521592376964146e-26
1.0740450607676866 2.7226982310049094e-25 7.762318248564536e-18 7.762318195651637e-18 5.291289955107655e-26
1.07808044048254 2.7411461893663925e-25 7.844274765425898e-18 7.844274707743034e-18 5.768286084078658e-26
1.0861967418109137 2.777867744549234e-25 8.009206547742265e-18 8.009206479257474e-18 6.848478923072353e-26
1.0902777775684922 2.7960646952130165e-25 8.091961525001946e-18 8.09196145041605e-18 7.458589642122141e-26
1.0943741465085532 2.8142089111095755e-25 8.175072101026543e-18 8.175072019822298e-18 8.120424778845432e-26
1.1026131145906286 2.850333139695009e-25 8.34234620490374e-18 8.342346108742067e-18 9.616167234977956e-26
1.1109141095355224 2.886228595570989e-25 8.511000988217734e-18 8.51100087449017e-18 1.1372756153193898e-25
1.1192775983109025 2.921850718986674e-25 8.680910291818747e-18 8.680910157489094e-18 1.343296544339047e-25
1.1277040513999907 2.95703666694321e-25 8.851589878202285e-18 8.851589719741183e-18 1.5846110143240473e-25
1.1361939428280308 2.9919552494619715e-25 9.023541005802777e-18 9.023540819113133e-18 1.8668964561452413e-25
1.1447477501889525 3.026595820057841e-25 9.196734724916387e-18 9.196734505248312e-18 2.1966807727267e-25
1.1533659546722406 3.060966403332562e-25 9.371198206903967e-18 9.371197948757638e-18 2.581463274248483e-25
1.1707974979042381 3.1290085810525245e-25 9.724291586609845e-18 9.724291231439795e-18 3.5517005174189828e-25
1.1884924949847024 3.195837972797333e-25 1.0082091379785362e-17 1.0082090893550946e-17 4.862344135486396e-25
1.2064549276569216 3.261972905329613e-25 1.0446261277346426e-17 1.0446260614940298e-17 6.624061319243766e-25
1.2246888378427687 3.3267159861083953e-25 1.0814611379218059e-17 1.081461048119548e-17 8.980225778030023e-25
1.2431983285522175 3.389925143491367e-25 1.1186647640801704e-17 1.118664642920758e-17 1.2115941267057929e-24
1.2619875648066055 3.451588388222012e-25 1.1562280679622217e-17 1.1562279052725602e-17 1.6268966124085455e-24
1.3004222497298317 3.56931627114641e-25 1.2320798538003829e-17 1.2320795645640361e-17 2.8923634662342505e-24
1.3400274889804893 3.679530515743949e-25 1.3088068205426736e-17 1.3088063156861891e-17 5.048564844234963e-24
1.3808389325824078 3.7819239880298823e-25 1.386197950133609e-17 1.3861970845553477e-17 8.655782619178854e-24
1.4228933163050095 3.8770566634076657e-25 1.4643467266029757e-17 1.4643452681872325e-17 1.4584157434164007e-23
1.466228494730424 3.9671599816631107e-25 1.5440124673850925e-17 1.5440100513175674e-17 2.416067525096186e-23
1.5108834753276823 4.0507371384288556e-25 1.6245551755869935e-17 1.6245512384523708e-17 3.9371346227613884e-23
1.5568984535646726 4.126598517748753e-25 1.7053830342795767e-17 1.705376716740599e-17 6.317538977845402e-23
1.6043148490894465 4.194980873436077e-25 1.7864424142185888e-17 1.7864324139533525e-17 1.0000265236382267e-22
1.6531753430134553 4.256183346506327e-25 1.8677067154838244e-17 1.8676911174758035e-17 1.5598008020790412e-22
1.7035239163302658 4.310904986295905e-25 1.949333377954383e-17 1.949309399312652e-17 2.3978641731228088e-22
1.755405889504358 4.362625135023746e-25 2.03280107335922e-17 2.0327647241246527e-17 3.6349234567806055e-22
1.8088679632656115 4.410646644109531e-25 2.1177688990573684e-17 2.117714544582218e-17 5.435447515098014e-22
1.8639582606462262 4.454519092512427e-25 2.2039738675123715e-17 2.2038936595735246e-17 8.020793884715549e-22
1.9207263702978936 4.49476064666271e-25 2.2916141849302886e-17 2.2914973411860123e-17 1.1684374427625141e-21
1.979223391128241 4.532424659329183e-25 2.3811943408108793e-17 2.3810262409025865e-17 1.6809990829313222e-21
2.039501978296691 4.5687295405257965e-25 2.4733695705510158e-17 2.4731306471287667e-17 2.389234222491425e-21
2.1016163906111602 4.606953586802692e-25 2.570021265302802e-17 2.5696856366867595e-17 3.356286160404611e-21
2.1656225393682647 4.6490164077915445e-25 2.6724726837326618e-17 2.6720065416988843e-17 4.661420337767101e-21
2.231578038680979 4.695069016699791e-25 2.781144105841104e-17 2.780503822312977e-17 6.4028352812765676e-21
2.299542257339062 4.746246416292798e-25 2.8970841495920425e-17 2.8962140786150055e-17 8.700709770375431e-21
2.369576372248914 4.804979701835703e-25 3.022259150314142e-17 3.0210890945806436e-17 1.1700557334969908e-20
2.4417434235010123 4.874122223102553e-25 3.159118196313794e-17 3.157560583465822e-17 1.5576128479717785e-20
2.5161083711144245 4.958554424046026e-25 3.31172190003094e-17 3.309668589163056e-17 2.0533108678849044e-20
2.5927381535095444 5.066229033275777e-25 3.486686587094835e-17 3.4840053852882037e-17 2.6812018066318404e-20
2.6717017477616296 5.206473938516222e-25 3.692335080070673e-17 3.6888661429496826e-17 3.4689371209919726e-20
2.753070231689431 5.393282789727074e-25 3.941303836965398e-17 3.936855859054269e-17 4.447977911128345e-20
2.836916847834745 5.65854959832887e-25 4.261094506119877e-17 4.2554405913877497e-17 5.653914732127559e-20
2.9233170693905177 6.072468749637064e-25 4.712058179240709e-17 4.70493291246155e-17 7.125266779156052e-20
2.967498994190263 6.404431809983865e-25 5.0447612722876425e-17 5.0368012518072624e-17 7.960020480380925e-20
3.0123486681368425 6.787528288616822e-25 5.427331188795047e-17 5.418450466720642e-17 8.88072207440299e-20
3.0578761833420214 7.608187719039016e-25 6.175477574571528e-17 6.165580067540515e-17 9.897507031011743e-20
3.1040917844459814 8.655547412070582e-25 7.13178967861778e-17 7.120780022844023e-17 1.1009655773758724e-19
3.127460860933648 9.746834694144684e-25 8.091423210365304e-17 8.079815833271971e-17 1.1607377093336052e-19
3.1510058709225794 1.1194489546825893e-24 9.363170688309718e-17 9.350938618443809e-17 1.2232069865909305e-19
3.162844764501044 1.2536877047486168e-24 1.0525353154746523e-16 1.0512797167514326e-16 1.2555987232194845e-19
3.1747281389236908 1.4094793649172093e-24 1.1877764122342218e-16 1.18648771840755e-16 1.288693826671515e-19
3.1986289994194426 1.842998485495652e-24 1.5647979976505707e-16 1.5634407924697722e-16 1.3572051807993853e-19
3.2227097969389145 2.862924503631067e-24 2.4490662195370646e-16 2.447636243456759e-16 1.4299760803044503e-19
3.2348180950136065 3.829230205920305e-24 3.287992157111258e-16 3.2865233012701504e-16 1.468855841106598e-19
3.240889293275058 4.551565552333992e-24 3.9155649383907905e-16 3.914075573338546e-16 1.4893650522437897e-19
3.2469718861334385 5.387299378066494e-24 4.643217972567302e-16 4.641707385311602e-16 1.5105872556982962e-19
3.2714166318528037 9.840636371069624e-24 8.545322832270467e-16 8.543724401117732e-16 1.5984311527325023e-19
3.2744851364798273 1.0119146589522804e-23 8.795415159660464e-16 8.793806336425618e-16 1.6088232348486749e-19
3.2775565192852394 1.0405621618937466e-23 9.052898520688003e-16 9.051279249651741e-16 1.6192710362608849e-19
3.283707930232385 1.0130721182327036e-23 8.830276804565197e-16 8.828638769181929e-16 1.6380353832658302e-19
3.2898708863219004 9.257912449054668e-24 8.084652481078549e-16 8.082997294912514e-16 1.6551861660345007e-19
3.29141343181113 9.052053151928179e-24 7.908588256662304e-16 7.906928761849984e-16 1.6594948123228914e-19
3.292184975758714 8.950896812030485e-24 7.822043236540255e-16 7.82038158425628e-16 1.6616522839778788e-19
3.295272960557952 8.312779937010513e-24 7.271217094739874e-16 7.269547036332378e-16 1.6700584074967908e-19
3.3076538914384823 6.101035819701204e-24 5.356647487537014e-16 5.354943627336217e-16 1.703860200796589e-19
3.310756385682612 5.650584669484247e-24 4.965809389064103e-16 4.964097000784914e-16 1.712388279188141e-19
3.313861789986515 5.2348542065327444e-24 4.604775010476935e-16 4.603054062962015e-16 1.7209475149194953e-19
3.3200813396944477 4.652062653836066e-24 4.0998098258047084e-16 4.098070502150964e-16 1.7393236537436842e-19
3.345076488085796 3.61436449537577e-24 3.2092786964116853e-16 3.207457565212676e-16 1.821131199010877e-19
3.3482140837626964 3.6536573026140016e-24 3.2472106439865797e-16 3.245378433682385e-16 1.8322103041953588e-19
3.3513546224236106 3.6933791692594535e-24 3.2855926133262445e-16 3.2837492697272e-16 1.8433435990449155e-19
3.3576445397418455 3.9822016178643786e-24 3.549174844866923e-16 3.547308236999804e-16 1.866607867119946e-19
3.3702598118196083 5.045844539468322e-24 4.51405327906675e-16 4.512137863877829e-16 1.9154151889184514e-19
3.382922481734668 5.2893658701193666e-24 4.749688059801598e-16 4.747725057091792e-16 1.963002709806923e-19
3.389271646505754 5.4154853759386094e-24 4.872066404233714e-16 4.870079251557876e-16 1.9871526758375396e-19
3.395632727569191 5.551567218161742e-24 5.00386686753924e-16 5.001854825489311e-16 2.0120420499279474e-19
3.421196662673239 6.205326701206932e-24 5.635236200104882e-16 5.633120959367918e-16 2.1152407369626216e-19
3.4276182099114902 6.075186466329916e-24 5.527407542348819e-16 5.525269109839735e-16 2.1384325090819227e-19
3.4340518103208963 5.502321064655592e-24 5.01559203967927e-16 5.013431593519476e-16 2.160446159794123e-19
3.4469541582030403 4.6861715000451446e-24 4.2876874413697384e-16 4.285484582812542e-16 2.2028585571985786e-19
3.472904465399547 4.458713689432815e-24 4.1102842348099625e-16 4.107983898750068e-16 2.3003360598936357e-19
3.4990501388274233 4.110347725228795e-24 3.8176680412127943e-16 3.81526758056363e-16 2.4004606491628203e-19
3.5253949054701885 2.867307460410213e-24 2.6831902695753193e-16 2.680691946692785e-16 2.4983228825342353e-19
3.5519380250092896 1.6977812979328847e-24 1.6007243735881067e-16 1.5981272063165804e-16 2.5971672715258947e-19
3.578680990867387 1.235171333494305e-24 1.1733285094640908e-16 1.1706229179091416e-16 2.7055915549495547e-19
3.605625307711299 1.0493184630276458e-24 1.0042858434658815e-16 1.0014657551033846e-16 2.8200883624965885e-19
3.660119384959845 9.163708952966945e-25 8.902991763174892e-17 8.872371893041951e-17 3.0619870132941096e-19
3.715437065384467 8.231906387121521e-25 8.118574220492109e-17 8.085384413266368e-17 3.318980722574263e-19
3.8285932144167436 7.819948370180137e-25 7.947170747171398e-17 7.90838738102202e-17 3.878336614937597e-19
3.94519561050918 7.80725423911578e-25 8.175913658568484e-17 8.130923277407805e-17 4.499038116068052e-19
4.06534921144712 7.959303453919131e-25 8.588995061938915e-17 8.537163021329742e-17 5.183204060917254e-19
4.189162171576248 8.207335886507322e-25 9.126385585816588e-17 9.067035279473382e-17 5.93503063432074e-19
4.316745939156006 8.525526014691923e-25 9.768932440002559e-17 9.701380470211861e-17 6.755196979069841e-19
4.448215356677963 8.90504575353427e-25 1.0514567014478028e-16 1.0438202392274068e-16 7.636462220395647e-19
4.58368876423945 9.346773775681145e-25 1.1372247044257333e-16 1.1286413608634848e-16 8.583343562248891e-19
4.723288106065518 9.858785149670382e-25 1.2360535102630873e-16 1.2264483234091513e-16 9.605186853935875e-19
4.867139040275056 1.045708510268476e-24 1.350995269880783e-16 1.340313199000366e-16 1.0682070880416906e-18
4.940699165968905 1.0809324759960275e-24 1.417608828328124e-16 1.4063635322487225e-16 1.1245296079401602e-18
5.015371051989984 1.1172186403786035e-24 1.4873414289946846e-16 1.4755172871542902e-16 1.1824141840394866e-18
5.091171501069577 1.1606026090944231e-24 1.5684500865333546e-16 1.556019961221736e-16 1.2430125311618515e-18
5.129500256944802 1.1827858439573554e-24 1.6104624644455636e-16 1.597723550588728e-16 1.2738913856835484e-18
5.168117569889187 1.2058141019936425e-24 1.6541777563025536e-16 1.641123733175592e-16 1.3054023126961268e-18
5.20702561229733 1.2336619866560944e-24 1.705121497234585e-16 1.6917264659974502e-16 1.339503123713439e-18
5.246226572918644 1.2621376954109972e-24 1.757612827994367e-16 1.7438718114873607e-16 1.3741016507005845e-18
5.265937586045735 1.2766170816584286e-24 1.7844557852325103e-16 1.7705399196914292e-16 1.3915865541080812e-18
5.285722656980489 1.2912608516366924e-24 1.8117062778545406e-16 1.7976143313096726e-16 1.4091946544867161e-18
5.305582063971359 1.306071598425011e-24 1.8393715077481606e-16 1.8251022526222438e-16 1.4269255125916695e-18
5.3255160863122235 1.3219142749213915e-24 1.8686778006076255e-16 1.8542288752134235e-16 1.4448925394201031e-18
5.365609099470188 1.3609475188469439e-24 1.9383394778948552e-16 1.9235186685545892e-16 1.4820809340265406e-18
5.406003951863644 1.4013350130284976e-24 2.0108874565215196e-16 1.995689330133412e-16 1.5198126388107157e-18
5.446702915881641 1.4431416094754358e-24 2.0864696392841835e-16 2.0708887897131082e-16 1.558084957107589e-18
5.487708281020852 1.4881247577063881e-24 2.167703066158013e-16 2.1517327702235156e-16 1.5970295934496998e-18
5.529022354014368 1.5500426939128152e-24 2.2748954352966564e-16 2.258518456747881e-16 1.6376978548776355e-18
5.570647458961463 1.6153805167229036e-24 2.388635862097e-16 2.3718461997942606e-16 1.6789662302740054e-18
5.612585937458331 1.6843832020034417e-24 2.509419904648816e-16 2.4922115763768815e-16 1.7208328271933615e-18
5.654840148729818 1.7599601401782667e-24 2.641755363244521e-16 2.624120702303513e-16 1.763466094100867e-18
5.67608639626678 1.811210619730517e-24 2.7288985229136735e-16 2.711041021741173e-16 1.7857501172500375e-18
5.686739436050992 1.837592240809008e-24 2.773843221472094e-16 2.7558736669258517e-16 1.796955454624214e-18
5.6974124697621304 1.8644941333941424e-24 2.8197338376584043e-16 2.801651807700996e-16 1.808202995740814e-18
5.718818669136295 1.9199086333701925e-24 2.914448066220607e-16 2.89613981977284e-16 1.8308246447766647e-18
5.740305295436557 1.9808923486290274e-24 3.0183201171250718e-16 2.9997825157610594e-16 1.8537601364011988e-18
5.7835210386641895 2.1387101012904618e-24 3.283323487498491e-16 3.264310706806453e-16 1.9012780692038325e-18
5.827062130521658 2.3199141868238525e-24 3.588318651579124e-16 3.56881973257806e-16 1.949891900106484e-18
5.8489554468988025 2.4469246973509345e-24 3.7989917522722214e-16 3.779231493280535e-16 1.9760258991686832e-18
5.870931020387893 2.5829610594792482e-24 4.025263077240936e-16 4.0052391824009587e-16 2.0023894839978213e-18
5.892989160043636 2.7287458730189775e-24 4.268430034857398e-16 4.248140202837564e-16 2.0289832019834756e-18
5.915130176081913 2.8943668186848526e-24 4.544512585815666e-16 4.523947355099782e-16 2.0565230715883623e-18
5.95966208400165 3.357180153681559e-24 5.310870550131381e-16 5.289685134564402e-16 2.1185415566980126e-18
6.004529249263818 4.02318609317168e-24 6.412369195804622e-16 6.390489536821314e-16 2.1879658983312343e-18
6.027089341400364 4.4859059255481635e-24 7.176740183701646e-16 7.154463102712511e-16 2.2277080989137517e-18
6.049734195844842 5.0320485833315145e-24 8.080729185288261e-16 8.058031762643841e-16 2.2697422644423165e-18
6.095279466722835 6.609025141655989e-24 1.0693021984565783e-15 1.0669304390485258e-15 2.371759408052743e-18
6.141167624020661 9.033442413241502e-24 1.472562257384772e-15 1.4700596981574936e-15 2.5025592272784913e-18
6.164241091010745 1.0581894407220536e-23 1.7314600390484603e-15 1.7288761718909184e-15 2.5838671575417783e-18
6.187401249150058 1.2343551072464897e-23 2.027299120766587e-15 2.0246315350361957e-15 2.667585730390604e-18
6.1990139391386085 1.3203707116452023e-23 2.172640786749315e-15 2.1699305535449145e-15 2.710233204400671e-18
6.204828454712694 1.3656605447895195e-23 2.2492719871474667e-15 2.2465401891345245e-15 2.731798012942619e-18
6.210648424152782 1.3987284501811198e-23 2.305896375874346e-15 2.3031460154193126e-15 2.7503604550335737e-18
6.233982942956859 1.5110207627796122e-23 2.500376881027824e-15 2.4975609915359695e-15 2.8158894918536637e-18
6.239830258556775 1.5253499068651063e-23 2.5264557068114708e-15 2.5236301183454754e-15 2.8255884659956157e-18
6.245683058788269 1.5265606974054525e-23 2.530832785497299e-15 2.527997473459302e-15 2.8353120379966547e-18
6.257405133728602 1.5234031425609173e-23 2.530338097140224e-15 2.52748540766919e-15 2.8526894710342008e-18
6.269149208991335 1.5012345162635342e-23 2.49819641367911e-15 2.4953356188027545e-15 2.8607948763557467e-18
6.280915325867298 1.4457482012508576e-23 2.410377320354143e-15 2.4075199142963248e-15 2.8574060578177363e-18
6.304513850009849 1.3089557474427566e-23 2.1905138354735215e-15 2.187673637738866e-15 2.8401977346547892e-18
6.32820103803542 1.1395186305727302e-23 1.9141286812277745e-15 1.911316790040512e-15 2.811891187262487e-18
6.3519772230701035 9.841677336248539e-24 1.6593862517251262e-15 1.6565991504397747e-15 2.787101285351842e-18
6.375842739491607 8.534082304418595e-24 1.4443214351099105e-15 1.4415555444318601e-15 2.7658906780506203e-18
6.399797922933955 7.48729632167292e-24 1.2719226920584898e-15 1.2691647137203483e-15 2.7579783381414228e-18
6.42384311029221 6.616462515983665e-24 1.1282107021664293e-15 1.1254579906993417e-15 2.7527114670875584e-18
6.447978639727206 5.9824665168930286e-24 1.0239371490800915e-15 1.0211792579807777e-15 2.7578910993133875e-18
6.472204850670314 5.454090942899231e-24 9.370096484208605e-16 9.342444640624936e-16 2.765184358366604e-18
6.496522083828205 5.111134862822017e-24 8.813891349658267e-16 8.786081223590375e-16 2.7810126067894355e-18
6.520930681187647 4.822188791758929e-24 8.346861858211187e-16 8.318879707145057e-16 2.7982151066129026e-18
