Dust emission spectrum from A.P. Jones, M. Kohler, N. Ysard, M. Bocchio, and L. Verstraete (2017), A&A, 602A, 46J 
inside the DustPedia framework.

lambda    nu*dP/dnu     j_nu    j_nu(carb.) j_nu(sil)
 (um)   (erg s-1 H-1) (Jy cm2 sr-1 H-1)
0.9927057738263894 9.08166412892693e-23 2.3930700807947135e-15 2.393070008610052e-15 7.218466103334942e-23
1.0001793341362166 9.234549942995053e-23 2.451675822994183e-15 2.451675736111559e-15 8.68826231771185e-23
1.0077091589558085 9.387971620424161e-23 2.5111716917567962e-15 2.5111715873220723e-15 1.0443472442087309e-22
1.0114953028030835 9.464875168672664e-23 2.5412546940429437e-15 2.541254579601172e-15 1.144417717773271e-22
1.0152956718711033 9.541902906664865e-23 2.5715617714777357e-15 2.571561646111712e-15 1.2536602345626265e-22
1.0229392996569957 9.696243497089341e-23 2.6328299523002894e-15 2.6328298020059004e-15 1.5029438921381029e-22
1.0267826658714554 9.773380266005665e-23 2.6637456784117007e-15 2.6637455139278607e-15 1.6448384001891467e-22
1.0306404723013447 9.85062510507536e-23 2.694886115605504e-15 2.694885935652403e-15 1.7995310073802243e-22
1.03451277320114 9.92797512249593e-23 2.7262518330071734e-15 2.7262516361953998e-15 1.9681177445215738e-22
1.0383996230291617 1.0005427494797858e-22 2.7578434141318468e-15 2.757843198953534e-15 2.1517831360460823e-22
1.0403485208654093 1.0044191200828544e-22 2.7737240900662774e-15 2.773723865099645e-15 2.2496663224073633e-22
1.0423010764483396 1.0082979468666732e-22 2.7896614576687908e-15 2.789661222488103e-15 2.3518068773980537e-22
1.0462171883269815 1.0160628362753755e-22 2.8217065782773365e-15 2.821706321320239e-15 2.569570977897887e-22
1.0471985131304309 1.0180055422836887e-22 2.829753412838111e-15 2.8297531501424865e-15 2.626956243065563e-22
1.048180758391296 1.0199488337078456e-22 2.8378144891297557e-15 2.8378142205730174e-15 2.685567386166744e-22
1.0501480137395462 1.023837156947383e-22 2.8539794073941546e-15 2.853979126737415e-15 2.806567398574167e-22
1.0521189612883777 1.0277277745810148e-22 2.870201414755862e-15 2.87020112147826e-15 2.93277602950221e-22
1.0531058218030118 1.0296713238287759e-22 2.878326555948184e-15 2.8783262561577684e-15 2.9979041487245736e-22
1.0540936079674168 1.0316068833488672e-22 2.8864420589918256e-15 2.886441752548862e-15 3.06442964087719e-22
1.058054026499678 1.0393543181691904e-22 2.9190457523677143e-15 2.9190454178743977e-15 3.3449331679125264e-22
1.0590464539527713 1.0412924577009786e-22 2.9272321484368517e-15 2.9272318065562645e-15 3.418805858969017e-22
1.06003981227728 1.0432311023311909e-22 2.9354327548404063e-15 2.9354324054166274e-15 3.494237799224442e-22
1.0620293250338977 1.0471098926786822e-22 2.951876641778937e-15 2.9518762767884266e-15 3.6499050967601694e-22
1.0660195594769086 1.0548733800807382e-22 2.9849354186670672e-15 2.9849350205303895e-15 3.9813667669737036e-22
1.070024785945596 1.0626445619248896e-22 3.0182227956692324e-15 3.018222361519583e-15 4.341496483753693e-22
1.0740450607676866 1.0704232282763627e-22 3.05173950749226e-15 3.0517390342281745e-15 4.732640868330329e-22
1.07808044048254 1.0782091778838336e-22 3.08548631179709e-15 3.085485796064393e-15 5.157326962989461e-22
1.0861967418109137 1.093790100499637e-22 3.153638560355189e-15 3.1536379485138346e-15 6.118413543248938e-22
1.0902777775684922 1.1015572805163188e-22 3.187965981897547e-15 3.1879653158082993e-15 6.660892472114412e-22
1.0943741465085532 1.1093305519402456e-22 3.2225245290718114e-15 3.222523804162114e-15 7.249096981836296e-22
1.1026131145906286 1.1248947665833647e-22 3.2923385186922205e-15 3.2923376609405934e-15 8.57751627250574e-22
1.1109141095355224 1.140481637765779e-22 3.363087858308894e-15 3.363086844692039e-15 1.0136168544602533e-21
1.1192775983109025 1.1560778334755273e-22 3.4347435676801936e-15 3.4347423714274563e-15 1.1962527356868868e-21
1.1277040513999907 1.1716256389834948e-22 3.5071427294099758e-15 3.507141319435506e-15 1.4099744698519772e-21
1.1361939428280308 1.1871919175831526e-22 3.580493041129415e-15 3.5804913813851984e-15 1.6597442156100058e-21
1.1447477501889525 1.2027762503731708e-22 3.654803867369467e-15 3.654801916109007e-15 1.951260460653807e-21
1.1533659546722406 1.2183841892452012e-22 3.730102923424437e-15 3.730100632362754e-15 2.291061682747966e-21
1.1707974979042381 1.2497182577705558e-22 3.883857913736713e-15 3.883854767160174e-15 3.1465765384716232e-21
1.1884924949847024 1.281145259329702e-22 4.041701639847182e-15 4.04169733991781e-15 4.299929370515498e-21
1.2064549276569216 1.3128798426643964e-22 4.204414402040512e-15 4.2044085549871095e-15 5.847053402321751e-21
1.2246888378427687 1.3447054709241364e-22 4.371418284061205e-15 4.371410372148584e-15 7.91191261919925e-21
1.2431983285522175 1.3765925714208325e-22 4.542712711812193e-15 4.542702057684299e-15 1.0654127895148028e-20
1.2619875648066055 1.4085832610152618e-22 4.718533380182542e-15 4.7185191019963066e-15 1.4278186235867003e-20
1.3004222497298317 1.4726554639536338e-22 5.083408112062766e-15 5.083382828988857e-15 2.5283073907742602e-20
1.3400274889804893 1.537086613550758e-22 5.467407961347823e-15 5.4673640114908886e-15 4.394985693724957e-20
1.3808389325824078 1.6020877572805013e-22 5.872171868354416e-15 5.8720968341419125e-15 7.503421250584081e-20
1.4228933163050095 1.6681992479244808e-22 6.300712937924119e-15 6.300587059794007e-15 1.258781301104909e-19
1.466228494730424 1.7366059753347838e-22 6.758843326828187e-15 6.758635717265566e-15 2.0760956262131068e-19
1.5108834753276823 1.8071302066653933e-22 7.247527128695763e-15 7.247190352216737e-15 3.3677647902818703e-19
1.5568984535646726 1.8796827818507428e-22 7.7680906252651e-15 7.76755273858661e-15 5.378866784905361e-19
1.6043148490894465 1.9547009455945621e-22 8.324139684248597e-15 8.323292253913092e-15 8.474303355047065e-19
1.6531753430134553 2.0326509904963021e-22 8.919718903324613e-15 8.918403471262533e-15 1.3154320620866195e-18
1.7035239163302658 2.1140926856923792e-22 9.559643391376067e-15 9.557631124062584e-15 2.0122673134838844e-18
1.755405889504358 2.200657101224318e-22 1.0254142813120785e-14 1.0251107718588988e-14 3.0350945317979097e-18
1.8088679632656115 2.2923361308315223e-22 1.1006635887606015e-14 1.100212064716004e-14 4.5152404459753885e-18
1.8639582606462262 2.3890914657461744e-22 1.1820569287607576e-14 1.1813941277474404e-14 6.6280101331757555e-18
1.9207263702978936 2.4912320605631997e-22 1.2701327560519922e-14 1.2691723799688332e-14 9.603760831590648e-18
1.979223391128241 2.5992213426159e-22 1.3655497039123135e-14 1.3641755935476394e-14 1.3741103646743784e-17
2.039501978296691 2.7134659104701965e-22 1.4689869369925767e-14 1.4670448119055428e-14 1.942125087033897e-17
2.1016163906111602 2.8352156601431376e-22 1.5816448768142226e-14 1.5789322774469757e-14 2.7125993672468297e-17
2.1656225393682647 2.965064016257296e-22 1.704457866762079e-14 1.7007124983167092e-14 3.7453684453702045e-17
2.231578038680979 3.102666139228565e-22 1.8378774869583662e-14 1.8327637649716834e-14 5.113721986682877e-17
2.299542257339062 3.2481139127617866e-22 1.982631854180377e-14 1.9757255745249302e-14 6.906279655447109e-17
2.369576372248914 3.401829131415769e-22 2.1396987829727278e-14 2.1304697989322434e-14 9.22898404048478e-17
2.4417434235010123 3.5643259512637744e-22 2.310185599544402e-14 2.2979789997125158e-14 1.220659983188674e-16
2.5161083711144245 3.736784124505705e-22 2.4957253188149376e-14 2.4797406261163474e-14 1.598469269859074e-16
2.5927381535095444 3.9212707545955955e-22 2.6987019447037028e-14 2.6779711369602026e-14 2.073080774349979e-16
2.6717017477616296 4.119640684909789e-22 2.921573025776779e-14 2.8949388385305164e-14 2.663418724626301e-16
2.753070231689431 4.334718305055841e-22 3.1677259572634584e-14 3.133819922170087e-14 3.390603509337203e-16
2.836916847834745 4.574244537418445e-22 3.444573194834047e-14 3.4017926769112994e-14 4.2780517922748294e-16
2.9233170693905177 4.855453419856647e-22 3.7676898711624014e-14 3.7141868942961555e-14 5.350297686624683e-16
2.967498994190263 5.028349346284131e-22 3.960823192171825e-14 3.901298189613718e-14 5.952500255810622e-16
3.0123486681368425 5.214253774952351e-22 4.169335424583275e-14 4.103197524347181e-14 6.613790023609268e-16
3.0578761833420214 5.515566507238536e-22 4.4769212504146305e-14 4.4035103639007984e-14 7.341088651383268e-16
3.1040917844459814 5.869305264245454e-22 4.8360489188504494e-14 4.754726135954136e-14 8.13227828963117e-16
3.127460860933648 6.1926093804544e-22 5.140850834767512e-14 5.0552929045364815e-14 8.555793023103027e-16
3.1510058709225794 6.602712220958292e-22 5.52256726597688e-14 5.432595580142771e-14 8.99716858341119e-16
3.162844764501044 6.969902511224208e-22 5.851591676852198e-14 5.759336165653314e-14 9.225551119888371e-16
3.1747281389236908 7.386024849415208e-22 6.224245856076448e-14 6.129660297264326e-14 9.458555881212317e-16
3.1986289994194426 8.512592694841767e-22 7.227617444363166e-14 7.128218694275493e-14 9.939875008767407e-16
3.2227097969389145 1.110957030673683e-21 9.503594424964054e-14 9.39909623380861e-14 1.044981911554468e-15
3.2348180950136065 1.354351852602355e-21 1.1629225796978177e-13 1.1522006454585873e-13 1.0721934239230265e-15
3.240889293275058 1.5360284501148233e-21 1.3213956987955984e-13 1.3105302305522587e-13 1.0865468243339644e-15
3.2469718861334385 1.7464936463759973e-21 1.5052719588674655e-13 1.4942579748849796e-13 1.1013983982485886e-15
3.2714166318528037 2.8528039036189942e-21 2.477292058596403e-13 2.465664395258815e-13 1.162766333758823e-15
3.2744851364798273 2.922093367420611e-21 2.539841089797527e-13 2.528141121204904e-13 1.1699968592622918e-15
3.2775565192852394 2.9932497307936467e-21 2.604129484262234e-13 2.5923568504720864e-13 1.1772633790147184e-15
3.283707930232385 2.9256755250516664e-21 2.550117041185178e-13 2.5382144886469895e-13 1.1902552538188875e-15
3.2898708863219004 2.709763445055446e-21 2.366353741165532e-13 2.354332982948394e-13 1.2020758217137652e-15
3.29141343181113 2.6587522106586855e-21 2.3228958290099376e-13 2.3108453894579575e-13 1.205043955197935e-15
3.292184975758714 2.633673068789691e-21 2.3015240872061184e-13 2.2894587874765283e-13 1.206529972959016e-15
3.295272960557952 2.4769170863603734e-21 2.166567862624516e-13 2.1544447648355007e-13 1.2123097789015475e-15
3.3076538914384823 1.930286589478822e-21 1.6947720215588756e-13 1.68241679318222e-13 1.2355228376656151e-15
3.310756385682612 1.818034371704577e-21 1.5977129236567785e-13 1.5852991878526888e-13 1.2413735804090086e-15
3.313861789986515 1.714074604627048e-21 1.5077646089226176e-13 1.4952921754534455e-13 1.2472433469172313e-15
3.3200813396944477 1.5689476308277553e-21 1.3826956753767142e-13 1.370096976576703e-13 1.2598698800011349e-15
3.345076488085796 1.3158805447921927e-21 1.1684010853988695e-13 1.155239666883444e-13 1.3161418515425556e-15
3.3482140837626964 1.3263851014605452e-21 1.1788330056041187e-13 1.1655953568809721e-13 1.323764872314671e-15
3.3513546224236106 1.3369864579362215e-21 1.1893695797264306e-13 1.1760553588962976e-13 1.3314220830132953e-15
3.3576445397418455 1.4105261362854257e-21 1.257144755924325e-13 1.243670436426545e-13 1.3474319497780139e-15
3.3702598118196083 1.6767388692119833e-21 1.5000241350088364e-13 1.4862140052062268e-13 1.3810129802609506e-15
3.382922481734668 1.7407760332064547e-21 1.563163400440458e-13 1.5490268726261233e-13 1.4136527814334272e-15
3.389271646505754 1.7737995875920933e-21 1.5958069828696033e-13 1.581505016789594e-13 1.4301966080009784e-15
3.395632727569191 1.8100093052443482e-21 1.6314394181917012e-13 1.616966957670253e-13 1.447246052144823e-15
3.421196662673239 1.9851267398835863e-21 1.8027508630951497e-13 1.7875726402564593e-13 1.5178222838690015e-15
3.4276182099114902 1.9540557835720117e-21 1.7778652122279937e-13 1.7625294907814375e-13 1.5335721446555733e-15
3.4340518103208963 1.811641327152009e-21 1.651385608445289e-13 1.6359009227828152e-13 1.548468566247394e-15
3.4469541582030403 1.607715948868058e-21 1.471005378950599e-13 1.4552347797492108e-13 1.5770599201388045e-15
3.472904465399547 1.5529439791387422e-21 1.431588031796004e-13 1.4151588097298308e-13 1.6429222066172805e-15
3.4990501388274233 1.4688828542592722e-21 1.364290202157753e-13 1.3471870186180222e-13 1.7103183539730562e-15
3.5253949054701885 1.1649704636777355e-21 1.0901647122403636e-13 1.0724068012832539e-13 1.77579109571095e-15
3.5519380250092896 8.760413021517537e-22 8.259607208134116e-14 8.075447717054097e-14 1.8415949108002098e-15
3.578680990867387 7.6456172940270415e-22 7.262814882656915e-14 7.071443177579173e-14 1.9137170507774185e-15
3.605625307711299 7.229148892142326e-22 6.918902267036846e-14 6.719935014675145e-14 1.9896725236170063e-15
3.660119384959845 6.995361610130568e-22 6.796336190408793e-14 6.581412812296789e-14 2.149233781120029e-15
3.715437065384467 6.85369576828606e-22 6.759338015134996e-14 6.527596296665414e-14 2.317417184695843e-15
3.8285932144167436 6.936231750350516e-22 7.049076982680551e-14 6.781198576462867e-14 2.6787840621768354e-15
3.94519561050918 7.113489738934033e-22 7.449389520998154e-14 7.142122052468374e-14 3.0726746852978106e-15
4.06534921144712 7.325858687503394e-22 7.905436004006922e-14 7.555579142064933e-14 3.4985686194199212e-15
4.189162171576248 7.555381483533331e-22 8.401425946271051e-14 8.005708560320432e-14 3.957173859506189e-15
4.316745939156006 7.794162919706372e-22 8.930903601463713e-14 8.486236033922426e-14 4.44667567541287e-15
4.448215356677963 8.038220592751075e-22 9.491069606924195e-14 8.995054060527205e-14 4.9601554639699075e-15
4.58368876423945 8.286478623293138e-22 1.0082182825076406e-13 9.532373028152192e-14 5.49809796924214e-15
4.723288106065518 8.53974002196181e-22 1.0706771139274682e-13 1.0100399644106201e-13 6.063714951684836e-15
4.867139040275056 8.799106670524978e-22 1.1367939893693385e-13 1.0703759722311565e-13 6.641801713818242e-15
4.940699165968905 8.935959180545405e-22 1.171922844879671e-13 1.1025505224884578e-13 6.937232239121324e-15
5.015371051989984 9.070499428392411e-22 1.2075460517691354e-13 1.135186263320243e-13 7.235978844889223e-15
5.091171501069577 9.218568147186326e-22 1.245806608986495e-13 1.170361558473253e-13 7.544505051324174e-15
5.129500256944802 9.291576116174554e-22 1.2651262819119026e-13 1.1881293939842356e-13 7.699688792766705e-15
5.168117569889187 9.365326750424243e-22 1.284768121839293e-13 1.2061981417796168e-13 7.856998005967646e-15
5.20702561229733 9.450864357237638e-22 1.3062631545172456e-13 1.225974928733844e-13 8.028822578340136e-15
5.246226572918644 9.536120064940895e-22 1.3279697624415438e-13 1.2459527133933797e-13 8.20170490481643e-15
5.265937586045735 9.5786445357923e-22 1.3389032547156258e-13 1.2560180541309587e-13 8.288520058466727e-15
5.285722656980489 9.621101562761846e-22 1.349890696294107e-13 1.2661349735486308e-13 8.375572274547589e-15
5.305582063971359 9.663492405981437e-22 1.3609324801440834e-13 1.2763039576516228e-13 8.46285224924605e-15
5.3255160863122235 9.708090447786084e-22 1.3723501932186625e-13 1.2868396402905296e-13 8.551055292813283e-15
5.365609099470188 9.814740253282677e-22 1.39787157364744e-13 1.3105360489974e-13 8.733552465003982e-15
5.406003951863644 9.922181194972167e-22 1.4238129726868878e-13 1.334641759430016e-13 8.917121325687151e-15
5.446702915881641 1.0030492156871277e-21 1.4501915276351312e-13 1.359174651484703e-13 9.101687615042821e-15
5.487708281020852 1.0144094206998258e-21 1.4776573000369662e-13 1.384777507176536e-13 9.287979286043006e-15
5.529022354014368 1.0297412715439028e-21 1.5112833519820196e-13 1.416461577930698e-13 9.482177405132189e-15
5.570647458961463 1.0454902418162443e-21 1.5459487465782797e-13 1.4491739148268372e-13 9.67748317514424e-15
5.612585937458331 1.0616936280989454e-21 1.5817274357886092e-13 1.4829892256961211e-13 9.873821009248853e-15
5.654840148729818 1.0790473542195678e-21 1.619683917907151e-13 1.5189628745686344e-13 1.0072104333851675e-14
5.67608639626678 1.0908342528401466e-21 1.6435283389416184e-13 1.5417694339165665e-13 1.0175890502505216e-14
5.686739436050992 1.096842059360397e-21 1.6556817360324016e-13 1.5534027419685287e-13 1.0227899406387246e-14
5.6974124697621304 1.1029287192113432e-21 1.6679942159024446e-13 1.565194376534166e-13 1.0279983936827805e-14
5.718818669136295 1.1153467497565787e-21 1.693111912459807e-13 1.5892681616000293e-13 1.0384375085977744e-14
5.740305295436557 1.1289246353010013e-21 1.7201620975543635e-13 1.615263577877027e-13 1.0489851967733638e-14
5.7835210386641895 1.1640168378953621e-21 1.7869854457598198e-13 1.6799068540693168e-13 1.07078591690503e-14
5.827062130521658 1.2034623590686036e-21 1.861450933851793e-13 1.7521593909251515e-13 1.0929154292664153e-14
5.8489554468988025 1.2313763065363308e-21 1.9117827522601694e-13 1.8012945680536063e-13 1.1048818420656388e-14
5.870931020387893 1.2608689093071384e-21 1.964926667109071e-13 1.8532368664138405e-13 1.1168980069523128e-14
5.892989160043636 1.2920651631002682e-21 2.021107866328508e-13 1.9082115648016566e-13 1.1289630152685065e-14
5.915130176081913 1.3273316089687256e-21 2.0840741966666808e-13 1.969926728274436e-13 1.1414746839224536e-14
5.95966208400165 1.4263212941483006e-21 2.256360221780343e-13 2.1393513325257179e-13 1.1700888925462538e-14
6.004529249263818 1.5677703111922044e-21 2.498796182122547e-13 2.378561460389033e-13 1.2023472173351343e-14
6.027089341400364 1.6659671987342827e-21 2.665284100540781e-13 2.5431802401125834e-13 1.2210386042819716e-14
6.049734195844842 1.7808789392427116e-21 2.859829387870538e-13 2.735744482691261e-13 1.240849051792784e-14
6.095279466722835 2.1120957228209157e-21 3.4172492180855105e-13 3.2882767973726473e-13 1.2897242071286427e-14
6.141167624020661 2.6169877567304703e-21 4.2660120276523723e-13 4.130673830953e-13 1.353381966993735e-14
6.164241091010745 2.938793425963673e-21 4.808593985404312e-13 4.669249608669479e-13 1.3934437673483513e-14
6.187401249150058 3.300733948287401e-21 5.421110174830123e-13 5.277653827252455e-13 1.4345634757766782e-14
6.1990139391386085 3.476655854034291e-21 5.720760270843834e-13 5.575211967523817e-13 1.4554830332001603e-14
6.204828454712694 3.568931744599043e-21 5.878106552756264e-13 5.731501812099552e-13 1.4660474065671122e-14
6.210648424152782 3.635768834015005e-21 5.993805428628053e-13 5.846303047295055e-13 1.4750238133299647e-14
6.233982942956859 3.8599868731909254e-21 6.387352296233911e-13 6.236730668049977e-13 1.506216281839305e-14
6.239830258556775 3.887033096743527e-21 6.438140459204951e-13 6.287093775684636e-13 1.5104668352031838e-14
6.245683058788269 3.886893819358588e-21 6.443948366087678e-13 6.292476016616472e-13 1.5147234947120476e-14
6.257405133728602 3.8750083117533456e-21 6.436300992186269e-13 6.284088138868722e-13 1.522128533175494e-14
6.269149208991335 3.823747201971282e-21 6.363077482761062e-13 6.210614530698404e-13 1.5246295206265597e-14
6.280915325867298 3.703733688921571e-21 6.174931206336055e-13 6.022824319357052e-13 1.5210688697900394e-14
6.304513850009849 3.411335678497159e-21 5.708808732297707e-13 5.557962083691582e-13 1.5084664860612434e-14
6.32820103803542 3.054507447853212e-21 5.130868558086742e-13 4.981865290755404e-13 1.4900326733133865e-14
6.3519772230701035 2.7288847283323653e-21 4.601119957528984e-13 4.453774216034408e-13 1.4734574149457695e-14
6.375842739491607 2.4541644239670485e-21 4.153466250242894e-13 4.0075872590227994e-13 1.4587899122009466e-14
6.399797922933955 2.236091427897745e-21 3.7986147555398665e-13 3.6535115114536814e-13 1.451032440861841e-14
6.42384311029221 2.0539934207295167e-21 3.5023811498189333e-13 3.357915848318849e-13 1.4446530150008358e-14
6.447978639727206 1.9217832134017418e-21 3.289254054534213e-13 3.1448882716299943e-13 1.4436578290422008e-14
6.472204850670314 1.8111528481094937e-21 3.11155004786445e-13 2.9671771202367005e-13 1.4437292762774958e-14
6.496522083828205 1.739061534935748e-21 2.9989229066889864e-13 2.8541069610087753e-13 1.448159456802106e-14
6.520930681187647 1.6780017481968983e-21 2.904500299526343e-13 2.759175761551066e-13 1.453245379752781e-14
