Dust emission spectrum from A.P. Jones, M. Kohler, N. Ysard, M. Bocchio, and L. Verstraete (2017), A&A, 602A, 46J 
inside the DustPedia framework.

lambda    nu*dP/dnu     j_nu    j_nu(carb.) j_nu(sil)
 (um)   (erg s-1 H-1) (Jy cm2 sr-1 H-1)
0.9927057738263894 3.99395798299716e-25 1.0524306137482137e-17 1.0524306129559473e-17 7.922662627721916e-27
1.0001793341362166 4.059903147064784e-25 1.0778615580402039e-17 1.0778615570860919e-17 9.54111993635791e-27
1.0077091589558085 4.125778510699194e-25 1.1035970943911129e-17 1.1035970932435875e-17 1.1475256663427914e-26
1.0114953028030835 4.158682297466736e-25 1.1165779496437571e-17 1.1165779483858995e-17 1.2578576056439918e-26
1.0152956718711033 4.191559397914172e-25 1.1296335768649947e-17 1.1296335754866469e-17 1.3783473992280576e-26
1.0229392996569957 4.257189039957501e-25 1.1559584719968331e-17 1.1559584703433772e-17 1.6534560377608792e-26
1.0267826658714554 4.2898622379058185e-25 1.1692067315695859e-17 1.1692067297594469e-17 1.8101388777802643e-26
1.0306404723013447 4.32249496454172e-25 1.182527153400289e-17 1.1825271514192684e-17 1.981020790156814e-26
1.03451277320114 4.355084238735436e-25 1.195919232497855e-17 1.1959192303305305e-17 2.1673249108012126e-26
1.0383996230291617 4.387627097850638e-25 1.2093824578475216e-17 1.2093824554771484e-17 2.3703738352367785e-26
1.0403485208654093 4.403880201138079e-25 1.2161405890655475e-17 1.2161405865869272e-17 2.4786199581055503e-26
1.0423010764483396 4.4201205983583985e-25 1.2229163125647838e-17 1.2229163099731865e-17 2.591597188604996e-26
1.0462171883269815 4.452561816439025e-25 1.2365202740500008e-17 1.236520271217461e-17 2.8325397290550694e-26
1.0471985131304309 4.460663611119271e-25 1.2399321568300443e-17 1.239932153933995e-17 2.896049171621583e-26
1.048180758391296 4.468761911410113e-25 1.243348379993667e-17 1.2433483770327446e-17 2.960922034708148e-26
1.0501480137395462 4.484947848571686e-25 1.2501938141436418e-17 1.2501938110487721e-17 3.0948700187791113e-26
1.0521189612883777 4.501119268250081e-25 1.2570565096368179e-17 1.2570565064022051e-17 3.234613117472747e-26
1.0531058218030118 4.509187108745643e-25 1.2604908673750792e-17 1.2604908640683423e-17 3.3067366865914665e-26
1.0540936079674168 4.517210843820592e-25 1.2639182211164363e-17 1.2639182177360211e-17 3.380415138175576e-26
1.058054026499678 4.549265595264018e-25 1.2776696243144221e-17 1.2776696206232602e-17 3.6911616355508465e-26
1.0590464539527713 4.557269015553072e-25 1.2811179292372183e-17 1.2811179254641976e-17 3.7730204487128725e-26
1.06003981227728 4.565268240983939e-25 1.284570398569513e-17 1.2845703947128966e-17 3.856615953052308e-26
1.0620293250338977 4.581253932336646e-25 1.2914877958346468e-17 1.2914877918054889e-17 4.029157880150419e-26
1.0660195594769086 4.613173057602665e-25 1.3053721813536435e-17 1.305372176956974e-17 4.396669402904747e-26
1.070024785945596 4.64502019724445e-25 1.3193222219357805e-17 1.3193222171396414e-17 4.796139023824504e-26
1.0740450607676866 4.676792601570203e-25 1.333337354192248e-17 1.3333373489620481e-17 5.230199792888626e-26
1.07808044048254 4.708487545509137e-25 1.347417010440322e-17 1.3474170047386329e-17 5.701688801451575e-26
1.0861967418109137 4.77157873041736e-25 1.375751588091818e-17 1.3757515813224073e-17 6.769410360979983e-26
1.0902777775684922 4.80284333613229e-25 1.3899686782330916e-17 1.389968670860615e-17 7.372477095837909e-26
1.0943741465085532 4.834017633251211e-25 1.4042469460407312e-17 1.4042469380140604e-17 8.026671068268985e-26
1.1026131145906286 4.896085011999668e-25 1.4329846448444265e-17 1.4329846353392825e-17 9.505144550283973e-26
1.1109141095355224 4.957760567434101e-25 1.4619599138311116e-17 1.4619599025896585e-17 1.1241452912552964e-25
1.1192775983109025 5.01896779346834e-25 1.491151101235465e-17 1.491151087957589e-17 1.3277876222239814e-25
1.1277040513999907 5.079427025496112e-25 1.5204750535753843e-17 1.520475037912224e-17 1.5663160154219814e-25
1.1361939428280308 5.1394282310516975e-25 1.550017882039344e-17 1.5500178635859208e-17 1.8453423533990703e-25
1.1447477501889525 5.198953152055389e-25 1.579774632273414e-17 1.5797746105602223e-17 2.1713191717016133e-25
1.1533659546722406 5.258015588297038e-25 1.6097499861245258e-17 1.6097499606079342e-17 2.5516591978276946e-25
1.1707974979042381 5.3749436308740545e-25 1.6704178903411372e-17 1.670417855234191e-17 3.510694645012836e-25
1.1884924949847024 5.489793944189427e-25 1.731896443832013e-17 1.7318963957699498e-17 4.806206332696758e-25
1.2064549276569216 5.603456898670442e-25 1.794471521336746e-17 1.7944714558609083e-17 6.547583752530064e-25
1.2246888378427687 5.714735019732493e-25 1.857767198392908e-17 1.8577671096274557e-17 8.87654530423228e-25
1.2431983285522175 5.823384401287633e-25 1.9216987578390055e-17 1.92169863807843e-17 1.1976057642511428e-24
1.2619875648066055 5.92938476928455e-25 1.9862510603490677e-17 1.9862508995377263e-17 1.6081134085376674e-24
1.3004222497298317 6.13178879760242e-25 2.1166108216177522e-17 2.1166105357207616e-17 2.8589699166743047e-24
1.3400274889804893 6.321314436954968e-25 2.248487793342508e-17 2.2484872943148035e-17 4.990277045241942e-24
1.3808389325824078 6.497435145729809e-25 2.381520968862361e-17 2.3815201132775645e-17 8.555847977749044e-24
1.4228933163050095 6.661113003210368e-25 2.5158721856828282e-17 2.515870744105107e-17 1.44157772185433e-23
1.466228494730424 6.816180191341945e-25 2.6528466822664643e-17 2.6528442940934518e-17 2.3881730119790977e-23
1.5108834753276823 6.960064307821978e-25 2.791345897620033e-17 2.791342005941282e-17 3.891678751911152e-23
1.5568984535646726 7.090718554278108e-25 2.9303531882995575e-17 2.930346943699218e-17 6.244600340126739e-23
1.6043148490894465 7.208543753636951e-25 3.0697752134682665e-17 3.069765328660287e-17 9.884807979079819e-23
1.6531753430134553 7.314045231725992e-25 3.2095636593898726e-17 3.2095482414673976e-17 1.5417922474725969e-22
1.7035239163302658 7.408411200658716e-25 3.349984116319808e-17 3.3499604145215553e-17 2.370179825315318e-22
1.755405889504358 7.497601495862856e-25 3.493569100414297e-17 3.4935331708468927e-17 3.5929567405637195e-22
1.8088679632656115 7.580396539884562e-25 3.6397220929337605e-17 3.639668366003829e-17 5.37269299323597e-22
1.8639582606462262 7.655993321054518e-25 3.7879755051036065e-17 3.787896223199064e-17 7.928190454311872e-22
1.9207263702978936 7.72524542889035e-25 3.938648439501981e-17 3.938532944767754e-17 1.1549473422671223e-21
1.979223391128241 7.789917163943852e-25 4.092579151423557e-17 4.092412992299235e-17 1.6615912432186471e-21
2.039501978296691 7.85204627672087e-25 4.250856207427134e-17 4.2506200424760484e-17 2.3616495108672108e-21
2.1016163906111602 7.917199366284857e-25 4.4166650150941475e-17 4.416333261451323e-17 3.317536428248919e-21
2.1656225393682647 7.988596608784593e-25 4.5922200193907065e-17 4.5917592591623456e-17 4.607602283600889e-21
2.231578038680979 8.066406265052887e-25 4.7781700672721024e-17 4.7775371760860725e-17 6.328911860279771e-21
2.299542257339062 8.15247497059281e-25 4.97622835935648e-17 4.975368333714175e-17 8.600256423038562e-21
2.369576372248914 8.250861120215723e-25 5.189666151766775e-17 5.1885096048181147e-17 1.1565469486593602e-20
2.4417434235010123 8.366335161858847e-25 5.4225643995985816e-17 5.4210247700453385e-17 1.5396295532409667e-20
2.5161083711144245 8.50713456039738e-25 5.681749441642628e-17 5.67971983711178e-17 2.0296045308457338e-20
2.5927381535095444 8.686759502490548e-25 5.978412670196324e-17 5.975762423992226e-17 2.650246204098382e-20
2.6717017477616296 8.92105312200521e-25 6.326645976248018e-17 6.323217089466202e-17 3.4288867818199164e-20
2.753070231689431 9.23385639652882e-25 6.747918673010691e-17 6.74352204887856e-17 4.3966241321302776e-20
2.836916847834745 9.67972837127046e-25 7.289188981525308e-17 7.283600343623752e-17 5.588637901555439e-20
2.9233170693905177 1.0378972313630627e-24 8.053779014585966e-17 8.046736012021971e-17 7.043002563993e-20
2.967498994190263 1.094253530414463e-24 8.619418546534293e-17 8.611550427856247e-17 7.868118678044952e-20
3.0123486681368425 1.1593319368231976e-24 9.270058423828572e-17 9.261280233449478e-17 8.778190379092931e-20
3.0578761833420214 1.2994616907217718e-24 1.0547579563508336e-16 1.0537796327390006e-16 9.783236118329028e-20
3.1040917844459814 1.4784410808365487e-24 1.2181703061380714e-16 1.2170820516753923e-16 1.0882544626790395e-19
3.127460860933648 1.6653425116169975e-24 1.3824991881519028e-16 1.3813518516522272e-16 1.1473364996757342e-19
3.1510058709225794 1.9133957417788357e-24 1.6003812277121654e-16 1.5991721431699412e-16 1.209084542224408e-19
3.162844764501044 2.14360116987553e-24 1.7996634449240125e-16 1.7984223426217403e-16 1.2411023022719569e-19
3.1747281389236908 2.410791743170273e-24 2.0315881442612462e-16 2.03031432895279e-16 1.273815308455962e-19
3.1986289994194426 3.1544491853747497e-24 2.6782853094083705e-16 2.67694377373903e-16 1.3415356693402344e-19
3.2227097969389145 4.904659457002805e-24 4.1956523056210087e-16 4.1942388392238993e-16 1.413466397109734e-19
3.2348180950136065 6.563061079583225e-24 5.635412914832969e-16 5.633961017558963e-16 1.4518972740058004e-19
3.240889293275058 7.802818809829233e-24 6.712513178397826e-16 6.711041008700597e-16 1.4721696972308313e-19
3.2469718861334385 9.237232054195088e-24 7.961406797891158e-16 7.959913651010242e-16 1.4931468809149262e-19
3.2714166318528037 1.6880737970641706e-23 1.4658742602275449e-15 1.4657162625694568e-15 1.5799765808723188e-19
3.2744851364798273 1.735872953837578e-23 1.5087955449954214e-15 1.5086365201272439e-15 1.590248681784133e-19
3.2775565192852394 1.785039115026143e-23 1.5529853530692285e-15 1.5528252954833592e-15 1.6005758586847102e-19
3.283707930232385 1.7378402927538518e-23 1.5147599614046654e-15 1.5145980490483517e-15 1.6191235631330412e-19
3.2898708863219004 1.5880116224174335e-23 1.3867620993185807e-15 1.386598491685301e-15 1.6360763327996018e-19
3.29141343181113 1.552672933221026e-23 1.3565376517363438e-15 1.3563736182129507e-15 1.640335233928939e-19
3.292184975758714 1.5353079517997925e-23 1.3416806642481866e-15 1.341516417468521e-15 1.6424677966535064e-19
3.295272960557952 1.4257713229691998e-23 1.2471270616231183e-15 1.2469619839363259e-15 1.6507768679286261e-19
3.3076538914384823 1.0461032275395612e-23 9.184680095483502e-16 9.182995907078224e-16 1.684188405280553e-19
3.310756385682612 9.687760955745385e-24 8.513733910200848e-16 8.512041292177433e-16 1.6926180234134559e-19
3.313861789986515 8.974082501994465e-24 7.893941114075985e-16 7.892240035636819e-16 1.7010784391616022e-19
3.3200813396944477 7.973572090169496e-24 7.027018257177377e-16 7.025299014759763e-16 1.7192424176138846e-19
3.345076488085796 6.191795773243757e-24 5.497840157799908e-16 5.49604005234068e-16 1.8001054592271232e-19
3.3482140837626964 6.259167690287376e-24 5.562874200559724e-16 5.561063143908462e-16 1.8110566512624613e-19
3.3513546224236106 6.32727565173418e-24 5.628680184489458e-16 5.62685812308214e-16 1.822061407317327e-19
3.3576445397418455 6.822890072707829e-24 6.080965289832189e-16 6.079120232753115e-16 1.8450570790764644e-19
3.3702598118196083 8.648305747523376e-24 7.736844171995287e-16 7.734950871096822e-16 1.893300898463563e-19
3.382922481734668 9.066012723767073e-24 8.141000914182191e-16 8.139060575181882e-16 1.940339000307681e-19
3.389271646505754 9.282345526304303e-24 8.350904979289703e-16 8.348940769145457e-16 1.964210144248219e-19
3.395632727569191 9.515783449385273e-24 8.576985858206711e-16 8.574997046047287e-16 1.9888121594240562e-19
3.421196662673239 1.0637395165446803e-23 9.660125436987448e-16 9.658034617615978e-16 2.090819371470369e-19
3.4276182099114902 1.0413866434121871e-23 9.47488347756872e-16 9.472769734184377e-16 2.113743384344075e-19
3.4340518103208963 9.430395140517712e-24 8.596193177755124e-16 8.594057674877282e-16 2.1355028778421242e-19
3.4469541582030403 8.029156313805111e-24 7.346404776514276e-16 7.344227350908532e-16 2.177425605744481e-19
3.472904465399547 7.63806061176217e-24 7.041178757778152e-16 7.03890498009076e-16 2.273777687391746e-19
3.4990501388274233 7.039419863539111e-24 6.538173906008375e-16 6.535801159714604e-16 2.372746293771172e-19
3.5253949054701885 4.90510360379282e-24 4.590134278474898e-16 4.587664799810205e-16 2.4694786646921555e-19
3.5519380250092896 2.8969039815696615e-24 2.731296909024086e-16 2.728729727172143e-16 2.5671818519426914e-19
3.578680990867387 2.102092975934184e-24 1.996844932621781e-16 1.9941705782930272e-16 2.674354328753547e-19
3.605625307711299 1.7823201520933635e-24 1.7058299842610913e-16 1.7030424550418632e-16 2.7875292192286225e-19
3.660119384959845 1.5525478612687517e-24 1.5083762362766028e-16 1.505349601236053e-16 3.0266350405495044e-19
3.715437065384467 1.3909436704354439e-24 1.3717939556043164e-16 1.3685132939642278e-16 3.2806616400884535e-19
3.8285932144167436 1.3166685563918914e-24 1.3380893760091401e-16 1.3342558165001124e-16 3.8335595090276927e-19
3.94519561050918 1.3105753662664275e-24 1.372460881824009e-16 1.3680137871078072e-16 4.447094716201749e-19
4.06534921144712 1.3323938224760989e-24 1.4378047059093068e-16 1.4326813442788664e-16 5.123361630440706e-19
4.189162171576248 1.3703068291037436e-24 1.523752489993488e-16 1.5178859820078838e-16 5.86650798560475e-19
4.316745939156006 1.419868965002918e-24 1.6269499346863577e-16 1.6202727296083557e-16 6.677205078001907e-19
4.448215356677963 1.479557464762953e-24 1.7469765507770693e-16 1.7394282551522792e-16 7.548295624789949e-19
4.58368876423945 1.5495069237355824e-24 1.8852896150494556e-16 1.8768053703814553e-16 8.484244667999362e-19
4.723288106065518 1.6310846854295068e-24 2.044986192876829e-16 2.035491902732928e-16 9.494290143900773e-19
4.867139040275056 1.727034312074255e-24 2.2312290314392673e-16 2.2206702906173384e-16 1.0558740821929782e-18
4.940699165968905 1.7839478367291715e-24 2.3395912869523463e-16 2.328475823767733e-16 1.1115463184613002e-18
5.015371051989984 1.8425681599651456e-24 2.452991617767813e-16 2.441303992027369e-16 1.1687625740443517e-18
5.091171501069577 1.913241599902006e-24 2.585574019402689e-16 2.57328740673941e-16 1.2286612663278878e-18
5.129500256944802 1.94937617357259e-24 2.6542397109855543e-16 2.641647874988563e-16 1.2591835996991472e-18
5.168117569889187 1.9869288563520918e-24 2.7257381648623565e-16 2.712834857790007e-16 1.2903307072349392e-18
5.20702561229733 2.032707590113125e-24 2.809532470793405e-16 2.796292092828086e-16 1.3240377965318176e-18
5.246226572918644 2.0795317740050423e-24 2.895889834763981e-16 2.8823074662181994e-16 1.3582368545780998e-18
5.265937586045735 2.103346289914095e-24 2.9400581500199467e-16 2.926302951221163e-16 1.3755198798783977e-18
5.285722656980489 2.1274348131631484e-24 2.984901928877197e-16 2.9709726820817013e-16 1.3929246795496554e-18
5.305582063971359 2.1518017590504686e-24 3.030433286117471e-16 3.0163287779233544e-16 1.4104508194115588e-18
5.3255160863122235 2.177930247462238e-24 3.0787547891080714e-16 3.0644726850976314e-16 1.4282104010438974e-18
5.365609099470188 2.2427626719976994e-24 3.194271172458777e-16 3.179621478235707e-16 1.46496942230709e-18
5.406003951863644 2.309884776024317e-24 3.3146380265479445e-16 3.299615371749346e-16 1.5022654798599294e-18
5.446702915881641 2.379407499872768e-24 3.440106968971792e-16 3.424706009890732e-16 1.5400959081058801e-18
5.487708281020852 2.454344316587397e-24 3.575163757556209e-16 3.559377848647848e-16 1.5785908908360726e-18
5.529022354014368 2.55828804320453e-24 3.7546306398624573e-16 3.7384427438973804e-16 1.618789596507694e-18
5.570647458961463 2.6680624327603728e-24 3.94521881577107e-16 3.928623000910731e-16 1.6595814860338906e-18
5.612585937458331 2.784087346577641e-24 4.147775990328692e-16 4.13076634344141e-16 1.7009646887282728e-18
5.654840148729818 2.9113515042731734e-24 4.370029908702722e-16 4.3525988516229513e-16 1.743105707977074e-18
5.67608639626678 2.9980551788439936e-24 4.517082806404006e-16 4.499431482034942e-16 1.765132436906346e-18
5.686739436050992 3.042700952549566e-24 4.592953335763195e-16 4.575191251804692e-16 1.776208395850172e-18
5.6974124697621304 3.0882368188363813e-24 4.6704388610348465e-16 4.652565600323422e-16 1.787326071142244e-18
5.718818669136295 3.1820644047087452e-24 4.830418119748434e-16 4.812321254479921e-16 1.8096865268514144e-18
5.740305295436557 3.2854334646759596e-24 5.006072100167663e-16 4.987748528158892e-16 1.8323572008769108e-18
5.7835210386641895 3.5536223641619075e-24 5.455480743702765e-16 5.436687478905036e-16 1.8793264797729133e-18
5.827062130521658 3.861883503673383e-24 5.973353965057299e-16 5.954080175050017e-16 1.927379000728094e-18
5.8489554468988025 4.0784291947406384e-24 6.331996603663282e-16 6.312464491197498e-16 1.953211246578023e-18
5.870931020387893 4.31044896310913e-24 6.717364550990458e-16 6.697571846725309e-16 1.9792704265147887e-18
5.892989160043636 4.559182474329985e-24 7.131683312926163e-16 7.111627742110454e-16 2.005557081570721e-18
5.915130176081913 4.84192336148681e-24 7.602416360559996e-16 7.582088570935324e-16 2.0327789624673142e-18
5.95966208400165 5.632988057910864e-24 8.911070903714816e-16 8.89013009024929e-16 2.0940813465525367e-18
6.004529249263818 6.772471021862966e-24 1.0794326574597351e-15 1.0772699533954907e-15 2.1627040642444373e-18
6.027089341400364 7.564637550102737e-24 1.2102223983737843e-15 1.208020411007285e-15 2.201987366499182e-18
6.049734195844842 8.499879985712619e-24 1.364955586866012e-15 1.3627120507010173e-15 2.243536164994267e-18
6.095279466722835 1.1201523983076175e-23 1.8123420571776223e-15 1.8099976818761856e-15 2.3443753014372445e-18
6.141167624020661 1.5356520885913654e-23 2.503301845173655e-15 2.5008281804486145e-15 2.4736647250406386e-18
6.164241091010745 1.8010572160605708e-23 2.9469757282031393e-15 2.9444216944511006e-15 2.554033752039354e-18
6.187401249150058 2.1030463721732272e-23 3.4540336376529936e-15 3.4513968520810374e-15 2.6367855719549223e-18
6.1990139391386085 2.2504947570313286e-23 3.703139320168153e-15 3.7004603796014345e-15 2.678940566718887e-18
6.204828454712694 2.3281345456785928e-23 3.834487154135539e-15 3.831786897785124e-15 2.7002563504136836e-18
6.210648424152782 2.3848122629500794e-23 3.931520770572165e-15 3.928802166132474e-15 2.71860443969129e-18
6.233982942956859 2.5772624738495725e-23 4.264751130288701e-15 4.261967753520357e-15 2.7833767683458208e-18
6.239830258556775 2.6018063196292678e-23 4.309403629069631e-15 4.306610665326329e-15 2.7929637433024327e-18
6.245683058788269 2.6038507521800336e-23 4.3168351336172004e-15 4.314032558585259e-15 2.8025750319419925e-18
6.257405133728602 2.5983716770334925e-23 4.315836472462226e-15 4.3130167206631084e-15 2.819751799118259e-18
6.269149208991335 2.560288336879243e-23 4.26056227183986e-15 4.25773450822733e-15 2.827763612532722e-18
6.280915325867298 2.4650646571507715e-23 4.109799989833641e-15 4.106975575895439e-15 2.8244139381999e-18
6.304513850009849 2.2303398615077304e-23 3.732433532596898e-15 3.729626128238408e-15 2.8074043584913697e-18
6.32820103803542 1.9396154233795622e-23 3.258106899556839e-15 3.255327474833077e-15 2.77942472376175e-18
6.3519772230701035 1.673044895845993e-23 2.8208887609639752e-15 2.8181338398360274e-15 2.75492112794772e-18
6.375842739491607 1.4486663909417798e-23 2.4517456548048512e-15 2.4490116993142365e-15 2.7339554906153933e-18
6.399797922933955 1.2689882946968509e-23 2.1557247618335145e-15 2.152998627274301e-15 2.726134559214116e-18
6.42384311029221 1.1194988778709805e-23 1.908921288416873e-15 1.906200359872033e-15 2.7209285448404388e-18
6.447978639727206 1.0106136858855251e-23 1.7297295244777562e-15 1.7270034760789056e-15 2.726048398851042e-18
6.472204850670314 9.1984813678744e-24 1.580293743311913e-15 1.5775604858413433e-15 2.7332574705696733e-18
6.496522083828205 8.608717951154238e-24 1.4845294972207503e-15 1.4817805942514934e-15 2.748902969256543e-18
6.520930681187647 8.111599754719885e-24 1.4040595573001244e-15 1.4012936504512208e-15 2.7659068489030202e-18
6.57002334288761 7.602271459695368e-24 1.3258052024060254e-15 1.3229933444645135e-15 2.8118579415111567e-18
