Dust emission spectrum from A.P. Jones, M. Kohler, N. Ysard, M. Bocchio, and L. Verstraete (2017), A&A, 602A, 46J 
inside the DustPedia framework.

lambda    nu*dP/dnu     j_nu    j_nu(carb.) j_nu(sil)
 (um)   (erg s-1 H-1) (Jy cm2 sr-1 H-1)
0.9927057738263894 1.5671342659916648e-24 4.1294878023373464e-17 4.129487800012814e-17 2.324531866350725e-26
1.0001793341362166 1.593009554232336e-24 4.22927271390496e-17 4.229272711105568e-17 2.799391867973011e-26
1.0077091589558085 1.6188516926352612e-24 4.330237359105449e-17 4.3302373557385756e-17 3.3668731135106234e-26
1.0114953028030835 1.6317572126191773e-24 4.381157281220055e-17 4.381157277529466e-17 3.690590177878021e-26
1.0152956718711033 1.6446507139349552e-24 4.432366315983559e-17 4.4323663119394494e-17 4.0441106771306204e-26
1.0229392996569957 1.670384067732199e-24 4.535609286927139e-17 4.5356092820758517e-17 4.851287288110308e-26
1.0267826658714554 1.6831927433595745e-24 4.587560571702208e-17 4.58756056639121e-17 5.310999220385511e-26
1.0306404723013447 1.6959838459292128e-24 4.639790135075794e-17 4.6397901292634223e-17 5.812371636916818e-26
1.03451277320114 1.7087561687464583e-24 4.692295840519978e-17 4.6922958341609844e-17 6.358993253436377e-26
1.0383996230291617 1.7215085121468724e-24 4.745075525323252e-17 4.745075518368508e-17 6.954744603023435e-26
1.0403485208654093 1.72787681865153e-24 4.771567427116963e-17 4.77156741984462e-17 7.272341822343365e-26
1.0423010764483396 1.734239683733841e-24 4.798127001156861e-17 4.798126993553039e-17 7.603820246716963e-26
1.0462171883269815 1.7469484986111793e-24 4.851448054642667e-17 4.851448046331914e-17 8.310752549092312e-26
1.0471985131304309 1.7501220709722305e-24 4.864820177802998e-17 4.864820169305908e-17 8.49709106935633e-26
1.048180758391296 1.7532941541106856e-24 4.8782089746150866e-17 4.878208965927657e-17 8.687429904407213e-26
1.0501480137395462 1.7596337796107015e-24 4.905036447922326e-17 4.90503643884189e-17 9.080437119326355e-26
1.0521189612883777 1.7659672292092124e-24 4.93193019110063e-17 4.931930181610182e-17 9.490447366234302e-26
1.0531058218030118 1.7691267448991913e-24 4.945388273751984e-17 4.945388264049924e-17 9.702059980085663e-26
1.0540936079674168 1.7722687796331166e-24 4.958818352166011e-17 4.958818342247776e-17 9.918234663545524e-26
1.058054026499678 1.7848199172626633e-24 5.0126996224003495e-17 5.012699611570377e-17 1.0829973771277373e-25
1.0590464539527713 1.787953361874333e-24 5.02620999708349e-17 5.026209986013341e-17 1.1070149869488404e-25
1.06003981227728 1.791085034899698e-24 5.0397363215115615e-17 5.039736310196139e-17 1.131542146926702e-25
1.0620293250338977 1.7973429951319126e-24 5.0668366727225186e-17 5.066836660900854e-17 1.182166441645234e-25
1.0660195594769086 1.809836876865436e-24 5.121227151785696e-17 5.1212271388857425e-17 1.2899953731593294e-25
1.070024785945596 1.822300435099735e-24 5.1758686872805375e-17 5.1758686732085285e-17 1.4072009020453283e-25
1.0740450607676866 1.8347325516771628e-24 5.2307588865118474e-17 5.230758871166292e-17 1.5345555726951038e-25
1.07808044048254 1.8471321178347785e-24 5.2858953369751616e-17 5.285895320246244e-17 1.6728917958234737e-25
1.0861967418109137 1.8718073670202744e-24 5.396834262346676e-17 5.396834242485033e-17 1.9861643540705774e-25
1.0902777775684922 1.8840312062867693e-24 5.4524875834513093e-17 5.4524875618202515e-17 2.1631058582827154e-25
1.0943741465085532 1.8962172902468385e-24 5.508373243288868e-17 5.508373219738386e-17 2.355048240174739e-25
1.1026131145906286 1.9204719912686924e-24 5.62083147575466e-17 5.620831447866292e-17 2.7888365868444743e-25
1.1109141095355224 1.9445631750134963e-24 5.734188598085565e-17 5.734188565102822e-17 3.298274424546583e-25
1.1192775983109025 1.9684604423244634e-24 5.848357823954405e-17 5.848357784996736e-17 3.895766845868293e-25
1.1277040513999907 1.9920535152362385e-24 5.963010512997811e-17 5.96301046704165e-17 4.595615971184958e-25
1.1361939428280308 2.01545607084201e-24 6.078483461244087e-17 6.078483407101217e-17 5.414287224344866e-25
1.1447477501889525 2.038660594760519e-24 6.194755361749772e-17 6.194755298042646e-17 6.370712529123123e-25
1.1533659546722406 2.0616722672998153e-24 6.311843028890829e-17 6.311842954024416e-17 7.4866410399336945e-25
1.1707974979042381 2.10719141790316e-24 6.548701687995851e-17 6.548701584991065e-17 1.0300478461393365e-24
1.1884924949847024 2.1518450899984297e-24 6.788547797846208e-17 6.788547656830741e-17 1.4101546792544688e-24
1.2064549276569216 2.195981400406997e-24 7.032491113388508e-17 7.032490921280529e-17 1.9210797929408113e-24
1.2246888378427687 2.239125341252536e-24 7.279031482135121e-17 7.279031221694744e-17 2.6044037708585203e-24
1.2431983285522175 2.2811786880287247e-24 7.527818789060716e-17 7.527818437679761e-17 3.513809552613279e-24
1.2619875648066055 2.32212909919365e-24 7.778768902692319e-17 7.778768430867248e-17 4.7182507176289446e-24
1.3004222497298317 2.4000588116905932e-24 8.284679432092754e-17 8.284678593262805e-17 8.388299475321078e-24
1.3400274889804893 2.4726361122373564e-24 8.79515197542004e-17 8.795150511258484e-17 1.464161552610199e-23
1.3808389325824078 2.539621361453981e-24 9.308536968234852e-17 9.308534457924594e-17 2.5103102584451036e-23
1.4228933163050095 2.601358761923736e-24 9.825214121051532e-17 9.825209891421278e-17 4.2296302517284754e-23
1.466228494730424 2.659318179872449e-24 1.0350024812323219e-16 1.0350017805355324e-16 7.00696789704958e-23
1.5108834753276823 2.71244617416946e-24 1.087831256425905e-16 1.0878301145962323e-16 1.1418296725052342e-22
1.5568984535646726 2.7598966634619134e-24 1.1405715690511286e-16 1.1405697368675347e-16 1.8321835938517415e-22
1.6043148490894465 2.8017849563334876e-24 1.1931466751632593e-16 1.193143774932336e-16 2.900230923210772e-22
1.6531753430134553 2.8382650406665385e-24 1.2454930263112865e-16 1.2454885026487497e-16 4.523662536928464e-22
1.7035239163302658 2.869762631646374e-24 1.2976681468178617e-16 1.2976611926424844e-16 6.954175377075341e-22
1.755405889504358 2.8985748401169764e-24 1.3506147935788088e-16 1.3506042517409967e-16 1.0541837812139086e-21
1.8088679632656115 2.9241814295741844e-24 1.4040436667090068e-16 1.4040279030741332e-16 1.576363487355017e-21
1.8639582606462262 2.9462363705142415e-24 1.4577169461553433e-16 1.4576936846178303e-16 2.3261537513200894e-21
1.9207263702978936 2.9650461068001787e-24 1.511702680399814e-16 1.5116687939144848e-16 3.388648532908126e-21
1.979223391128241 2.9812796640618912e-24 1.5662712119939388e-16 1.5662224604316e-16 4.8751562338836585e-21
2.039501978296691 2.9957254454220556e-24 1.6217935626759749e-16 1.6217242712037118e-16 6.929147226303817e-21
2.1016163906111602 3.0105528040059814e-24 1.6794579282883755e-16 1.6793605908202815e-16 9.733746809395774e-21
2.1656225393682647 3.0270249616159107e-24 1.7400759243046665e-16 1.7399407359348292e-16 1.351883698372701e-20
2.231578038680979 3.0452361366284803e-24 1.8038585805990442e-16 1.8036728885127988e-16 1.856920862450313e-20
2.299542257339062 3.0659383957311203e-24 1.871432865223222e-16 1.8711805312357966e-16 2.5233398742575274e-20
2.369576372248914 3.0907721450599186e-24 1.944048669628034e-16 1.943709335437479e-16 3.393341905550127e-20
2.4417434235010123 3.121669387848237e-24 2.0232817550787164e-16 2.0228300233496962e-16 4.5173172901993714e-20
2.5161083711144245 3.1619372028586317e-24 2.1117962586937028e-16 2.1112007668934773e-16 5.954918002247999e-20
2.5927381535095444 3.2169778350421503e-24 2.2139925760857866e-16 2.213214986224325e-16 7.775898614619435e-20
2.6717017477616296 3.293192806544094e-24 2.3354714666072964e-16 2.334465421341586e-16 1.0060452657103972e-19
2.753070231689431 3.4002057446200915e-24 2.484802757472526e-16 2.483512775248849e-16 1.289982223676898e-19
2.836916847834745 3.5598755646139864e-24 2.680716312061111e-16 2.6790765895058443e-16 1.6397225552659832e-19
2.9233170693905177 3.820331117925025e-24 2.964465233798416e-16 2.962398796361995e-16 2.0664374364210665e-19
2.967498994190263 4.0358580021027335e-24 3.179039258052673e-16 3.1767307290987495e-16 2.308528953924633e-19
3.0123486681368425 4.286237250170955e-24 3.427290188895624e-16 3.424714642190348e-16 2.5755467052767106e-19
3.0578761833420214 4.835892750823051e-24 3.9252379592328016e-16 3.9223675290944103e-16 2.8704301383917613e-19
3.1040917844459814 5.541251079731095e-24 4.56574672584482e-16 4.562553755274545e-16 3.1929705702727073e-19
3.127460860933648 6.282595873411175e-24 5.215553937936711e-16 5.212187618878366e-16 3.3663190583450915e-19
3.1510058709225794 7.268505915481052e-24 6.079443037662649e-16 6.07589554796763e-16 3.5474896950201045e-19
3.162844764501044 8.184739863300209e-24 6.871510122869097e-16 6.867868692086113e-16 3.6414307829847144e-19
3.1747281389236908 9.249331627748511e-24 7.79446525420892e-16 7.790727842462324e-16 3.7374117465978144e-19
3.1986289994194426 1.2215819241995097e-23 1.03718422125531e-15 1.0367906107180505e-15 3.9361053725958555e-19
3.2227097969389145 1.9202803456056934e-23 1.6426886983918541e-15 1.6422739831541466e-15 4.147152377076759e-19
3.2348180950136065 2.5826039427933283e-23 2.2175688198898025e-15 2.2171428289104978e-15 4.259909793048768e-19
3.240889293275058 3.077746486357709e-23 2.647685964900147e-15 2.6472540259262555e-15 4.3193897389138177e-19
3.2469718861334385 3.6505795584554125e-23 3.146369901980554e-15 3.1459318082323093e-15 4.380937482439774e-19
3.2714166318528037 6.704834514353776e-23 5.822283570048706e-15 5.821820000178252e-15 4.635698704529143e-19
3.2744851364798273 6.895798268260604e-23 5.993727641955216e-15 5.9932610582167725e-15 4.665837384463484e-19
3.2775565192852394 7.09223693412265e-23 6.170251389156689e-15 6.16978177539072e-15 4.696137659683073e-19
3.283707930232385 6.903491821743146e-23 6.017315313186964e-15 6.0168402574665804e-15 4.750557203856246e-19
3.2898708863219004 6.304638704236894e-23 5.505648624676431e-15 5.5051685949629856e-15 4.800297134446416e-19
3.29141343181113 6.16340583003315e-23 5.384837909183204e-15 5.384356629895497e-15 4.812792877065899e-19
3.292184975758714 6.09400774591284e-23 5.32545431741249e-15 5.324972412424537e-15 4.819049879544291e-19
3.295272960557952 5.656074209170734e-23 4.947387491365457e-15 4.946903148471887e-15 4.843428935708055e-19
3.3076538914384823 4.1386193700062355e-23 3.633665775019437e-15 3.6331716290842385e-15 4.941459351990445e-19
3.310756385682612 3.829690999061247e-23 3.3655836754479506e-15 3.365087056238429e-15 4.966192095208127e-19
3.313861789986515 3.544622217665589e-23 3.117983264771509e-15 3.1174841632515588e-15 4.99101519950932e-19
3.3200813396944477 3.144909405777368e-23 2.7715728360708476e-15 2.771068405185387e-15 5.044308854600406e-19
3.345076488085796 2.4324195170942755e-23 2.1598021303424383e-15 2.1592739739892717e-15 5.281563531656538e-19
3.3482140837626964 2.4592457157750077e-23 2.1856699200359203e-15 2.185138550567892e-15 5.313694680279648e-19
3.3513546224236106 2.4863669483991996e-23 2.211846795387894e-15 2.2113121970891163e-15 5.345982987781009e-19
3.3576445397418455 2.684153669039145e-23 2.3922773370324705e-15 2.3917359917283063e-15 5.413453041644955e-19
3.3702598118196083 3.413198768030707e-23 3.0534751854560832e-15 3.0529196852542905e-15 5.555002017938592e-19
3.382922481734668 3.579606829133729e-23 3.214376965520263e-15 3.2138076641859863e-15 5.693013342768281e-19
3.389271646505754 3.665805685540428e-23 3.2979589981581205e-15 3.297382692952095e-15 5.763052060262789e-19
3.395632727569191 3.7587414924541314e-23 3.3879157503859037e-15 3.3873322268676248e-15 5.835235182779972e-19
3.421196662673239 4.20508324286388e-23 3.8187574088616455e-15 3.818143956088863e-15 6.134527727836738e-19
3.4276182099114902 4.1155934514744096e-23 3.7445043721701106e-15 3.743884193418084e-15 6.201787520264799e-19
3.4340518103208963 3.7227132510331017e-23 3.393406296813194e-15 3.3927797337573022e-15 6.265630558919813e-19
3.4469541582030403 3.163097513761901e-23 2.8941265776239925e-15 2.893487714310339e-15 6.388633136533324e-19
3.472904465399547 3.0066226689053876e-23 2.7716679331334497e-15 2.771000799804408e-15 6.671333290412644e-19
3.4990501388274233 2.767167216336878e-23 2.5701294763116508e-15 2.569433305269471e-15 6.961710421799334e-19
3.5253949054701885 1.9140699690185384e-23 1.7911626105915116e-15 1.7904380579637918e-15 7.245526277200947e-19
3.5519380250092896 1.1119119875292531e-23 1.0483474060468948e-15 1.0475941869951288e-15 7.532190517660942e-19
3.578680990867387 7.941696600611538e-24 7.544070026828015e-16 7.536223388744126e-16 7.846638083887773e-19
3.605625307711299 6.660091044466396e-24 6.374266143047247e-16 6.366087446042023e-16 8.178697005224615e-19
3.660119384959845 5.7326237398422015e-24 5.569524545044777e-16 5.560644303399676e-16 8.880241645101803e-19
3.715437065384467 5.078551945968596e-24 5.008633355023845e-16 4.999007790506328e-16 9.625564517516965e-19
3.8285932144167436 4.76379772252814e-24 4.841299726515364e-16 4.830051939746929e-16 1.124778676843495e-18
3.94519561050918 4.722068019032391e-24 4.945044599683594e-16 4.931996677385591e-16 1.3047922298003827e-18
4.06534921144712 4.7926787769546315e-24 5.171846328896233e-16 5.156814212315659e-16 1.5032116580573346e-18
4.189162171576248 4.9285141074382114e-24 5.48040444933698e-16 5.463191909455383e-16 1.7212539881596918e-18
4.316745939156006 5.111956457890658e-24 5.857510397283469e-16 5.837919234583149e-16 1.9591162700318466e-18
4.448215356677963 5.33704258214068e-24 6.301673617653141e-16 6.279526631145595e-16 2.2146986507545844e-18
4.58368876423945 5.604432035962595e-24 6.818928882342834e-16 6.794035769026941e-16 2.4893113315890317e-18
4.723288106065518 5.9196869878071556e-24 7.421857530978238e-16 7.394000881645345e-16 2.7856649332894894e-18
4.867139040275056 6.293901336068006e-24 8.131358644046173e-16 8.100378821791203e-16 3.0979822254969767e-18
4.940699165968905 6.517236507185733e-24 8.547149996928019e-16 8.514536708385592e-16 3.2613288542426064e-18
5.015371051989984 6.747968995512797e-24 8.983500172532612e-16 8.949208111999186e-16 3.42920605334251e-18
5.091171501069577 7.027053496970694e-24 9.496431060066244e-16 9.460381519685835e-16 3.604954038041103e-18
5.129500256944802 7.170051244239832e-24 9.762628168058952e-16 9.725683074401015e-16 3.69450936579357e-18
5.168117569889187 7.318856025354606e-24 1.004026144552947e-15 1.0002402466263926e-15 3.785897926554318e-18
5.20702561229733 7.500363833355941e-24 1.0366722609327824e-15 1.0327874632315713e-15 3.884797701211128e-18
5.246226572918644 7.686267187680461e-24 1.0703651319169416e-15 1.0663799908472764e-15 3.9851410696650805e-18
5.265937586045735 7.7809106364888e-24 1.0876159499309122e-15 1.0835800987373482e-15 4.035851193564168e-18
5.285722656980489 7.87670587118045e-24 1.105142888638151e-15 1.1010559699922162e-15 4.086918645934701e-18
5.305582063971359 7.973671341909232e-24 1.1229509849339225e-15 1.1188126427799453e-15 4.1383421539769336e-18
5.3255160863122235 8.077659978026861e-24 1.1418701021814054e-15 1.1376796515479644e-15 4.19045063344074e-18
5.365609099470188 8.335534332640344e-24 1.1871945863124642e-15 1.1828962807687464e-15 4.2983055437179065e-18
5.406003951863644 8.602854334094024e-24 1.2344922313276754e-15 1.2300844950076141e-15 4.407736320061007e-18
5.446702915881641 8.880075257636623e-24 1.2838662053651262e-15 1.2793474702129382e-15 4.518735152187777e-18
5.487708281020852 9.179103265716988e-24 1.3370901996377913e-15 1.3324585156090756e-15 4.63168402871527e-18
5.529022354014368 9.593170780301883e-24 1.4079264076940007e-15 1.403176775663194e-15 4.749632030806484e-18
5.570647458961463 1.0031007077405422e-23 1.4832680591349175e-15 1.4783987384319835e-15 4.8693207029340195e-18
5.612585937458331 1.0494320932200133e-23 1.5634600132388355e-15 1.5584692686677701e-15 4.9907445710653934e-18
5.654840148729818 1.1002871121263325e-23 1.6515654606098888e-15 1.6464510684048288e-15 5.114392205060435e-18
5.67608639626678 1.1348683307076049e-23 1.7098732072530973e-15 1.7046941854163209e-15 5.179021836776257e-18
5.686739436050992 1.1526834800206602e-23 1.7399742916581532e-15 1.7347627713193877e-15 5.211520338764947e-18
5.6974124697621304 1.1708594649320019e-23 1.7707280453606343e-15 1.7654839041010716e-15 5.2441412595626705e-18
5.718818669136295 1.208328654085331e-23 1.834259739264849e-15 1.8289499890348274e-15 5.309750230021705e-18
5.740305295436557 1.2496054963160666e-23 1.9040456239892276e-15 1.898669354464383e-15 5.376269524844794e-18
5.7835210386641895 1.356593961083076e-23 2.0826276608200088e-15 2.0771135756596487e-15 5.514085160359934e-18
5.827062130521658 1.4796812575492716e-23 2.2886914891129344e-15 2.2830364094938526e-15 5.655079619082432e-18
5.8489554468988025 1.5660113745087502e-23 2.431322999912486e-15 2.425592123632168e-15 5.730876280317275e-18
5.870931020387893 1.658581999130915e-23 2.5847191374321872e-15 2.5789117984939916e-15 5.807338938195588e-18
5.892989160043636 1.757894405087265e-23 2.749779431999922e-15 2.7438949628137122e-15 5.884469186210948e-18
5.915130176081913 1.870795662329468e-23 2.937379732956139e-15 2.9314153892062098e-15 5.964343749929582e-18
5.95966208400165 2.1864212066280517e-23 3.458795615638881e-15 3.45265139726473e-15 6.1442183741502644e-18
6.004529249263818 2.6410767755296236e-23 4.209489436221929e-15 4.20314386202039e-15 6.345574201538266e-18
6.027089341400364 2.9570668947493904e-23 4.73083946958797e-15 4.724378627597907e-15 6.4608419900641704e-18
6.049734195844842 3.3303020819106545e-23 5.347974842346381e-15 5.341392084392289e-15 6.582757954092175e-18
6.095279466722835 4.4082881434304835e-23 7.132356288811414e-15 7.125477637143066e-15 6.878651668346876e-18
6.141167624020661 6.066613104974604e-23 9.889325774022193e-15 9.882067741549053e-15 7.258032473137676e-18
6.164241091010745 7.125688049702476e-23 1.1659390685628365e-14 1.1651896820516419e-14 7.493865111947054e-18
6.187401249150058 8.331505590957069e-23 1.3683626259615987e-14 1.3675889567776037e-14 7.736691839949512e-18
6.1990139391386085 8.920273588812234e-23 1.467811278839083e-14 1.467025239686926e-14 7.860391521566678e-18
6.204828454712694 9.230359497552631e-23 1.5202598572799473e-14 1.5194675631979266e-14 7.922940820209748e-18
6.210648424152782 9.456735896516173e-23 1.559005468756556e-14 1.5582077906128903e-14 7.976781436656233e-18
6.233982942956859 1.0225679586247859e-22 1.6921046659357848e-14 1.6912879809903565e-14 8.166849454287028e-18
6.239830258556775 1.0323900044919231e-22 1.709960191274593e-14 1.709140693149579e-14 8.194981250138068e-18
6.245683058788269 1.03323210551998e-22 1.7129601804387652e-14 1.71213786199747e-14 8.223184412945542e-18
6.257405133728602 1.0310976426719629e-22 1.712629818222931e-14 1.711802459480294e-14 8.273587426370217e-18
6.269149208991335 1.0159487947463619e-22 1.6906350127320385e-14 1.6898053031122042e-14 8.297096198341409e-18
6.280915325867298 9.779919523532626e-23 1.6305257163049674e-14 1.6296969897989992e-14 8.287265059687252e-18
6.304513850009849 8.84400814618813e-23 1.48002881251819e-14 1.4792050777552912e-14 8.237347628989718e-18
6.32820103803542 7.684279067347693e-23 1.2907817882692916e-14 1.289966264476065e-14 8.155237932266031e-18
6.3519772230701035 6.620826427568824e-23 1.1163247862740784e-14 1.1155164534822205e-14 8.08332791858115e-18
6.375842739491607 5.725984273026383e-23 9.690745328706633e-15 9.682723528422035e-15 8.021800284597142e-18
6.399797922933955 5.009134982741004e-23 8.509390009969234e-15 8.50139116590268e-15 7.998844066552546e-18
6.42384311029221 4.412998573464629e-23 7.52485517329011e-15 7.516871611764973e-15 7.983561525137164e-18
6.447978639727206 3.97874722429846e-23 6.809878631588736e-15 6.8018800520250296e-15 7.998579563704761e-18
6.472204850670314 3.6169366350055387e-23 6.213876079824814e-15 6.20585635135076e-15 8.019728474053214e-18
6.496522083828205 3.3819125328435246e-23 5.8319356500158165e-15 5.8238700162602066e-15 8.065633755610488e-18
