Dust emission spectrum from A.P. Jones, M. Kohler, N. Ysard, M. Bocchio, and L. Verstraete (2017), A&A, 602A, 46J 
inside the DustPedia framework.

lambda    nu*dP/dnu     j_nu    j_nu(carb.) j_nu(sil)
 (um)   (erg s-1 H-1) (Jy cm2 sr-1 H-1)
0.9927057738263894 1.2882234885652833e-23 3.394542062002934e-16 3.3945420620029003e-16 3.3540974998536405e-30
1.0001793341362166 1.3095101417113398e-23 3.4766116098973793e-16 3.476611609897338e-16 4.041611246605076e-30
1.0077091589558085 1.3307665502042257e-23 3.5596435783203986e-16 3.55964357832035e-16 4.863883828470385e-30
1.0114953028030835 1.3413807949828115e-23 3.601516323249266e-16 3.601516323249212e-16 5.333231572889526e-30
1.0152956718711033 1.351984345600659e-23 3.6436246446760336e-16 3.643624644675975e-16 5.8460065138428025e-30
1.0229392996569957 1.3731448200526566e-23 3.7285128123750903e-16 3.7285128123750193e-16 7.017565675726657e-30
1.0267826658714554 1.3836760854544883e-23 3.771224584160549e-16 3.7712245841604713e-16 7.68523032416542e-30
1.0306404723013447 1.3941920006679167e-23 3.814162680043934e-16 3.814162680043849e-16 8.413725314734735e-30
1.03451277320114 1.404691550913572e-23 3.8573252533745813e-16 3.8573252533744886e-16 9.208326193382769e-30
1.0383996230291617 1.415173727034241e-23 3.9007104343947374e-16 3.900710434394637e-16 1.0074741079418175e-29
1.0403485208654093 1.420407986021096e-23 3.922485912279571e-16 3.922485912279466e-16 1.0536788982239652e-29
1.0423010764483396 1.425637525688391e-23 3.944316330681857e-16 3.944316330681747e-16 1.10191439292117e-29
1.0462171883269815 1.4360819495394337e-23 3.988141027591453e-16 3.9881410275913323e-16 1.2048210173964528e-29
1.0471985131304309 1.4386899119005985e-23 3.9991311629637196e-16 3.9991311629635963e-16 1.2319538477686757e-29
1.048180758391296 1.4412965859336914e-23 4.0101348219860395e-16 4.0101348219859143e-16 1.2596724601873553e-29
1.0501480137395462 1.4465060074406923e-23 4.0321825887003164e-16 4.0321825887001847e-16 1.3169154886590004e-29
1.0521189612883777 1.4517100911639257e-23 4.054284082351227e-16 4.054284082351089e-16 1.3766493934338057e-29
1.0531058218030118 1.454306098325566e-23 4.0653437329133125e-16 4.0653437329131724e-16 1.4074844837310235e-29
1.0540936079674168 1.4568876371074534e-23 4.0763800812581994e-16 4.076380081258056e-16 1.4389879774418952e-29
1.058054026499678 1.4671991431110273e-23 4.1206558261286018e-16 4.120655826128444e-16 1.5718979737154657e-29
1.0590464539527713 1.4697732819172988e-23 4.131757192634291e-16 4.1317571926341294e-16 1.6069205373045394e-29
1.06003981227728 1.4723458955763148e-23 4.1428714679534787e-16 4.1428714679533155e-16 1.6426905159614103e-29
1.0620293250338977 1.4774864875356872e-23 4.1651386178231203e-16 4.165138617822948e-16 1.7165337764970533e-29
1.0660195594769086 1.4877487121753382e-23 4.20982641983874e-16 4.209826419838554e-16 1.8738775739650805e-29
1.070024785945596 1.4979848660591434e-23 4.2547171766609967e-16 4.254717176660793e-16 2.0449891206453273e-29
1.0740450607676866 1.508194005607921e-23 4.2998088142089427e-16 4.29980881420872e-16 2.231011463216117e-29
1.07808044048254 1.518375194786263e-23 4.345099240279339e-16 4.345099240279097e-16 2.4331770569628814e-29
1.0861967418109137 1.538632027882965e-23 4.4362161360874637e-16 4.436216136087174e-16 2.891354895934814e-29
1.0902777775684922 1.5486649322503758e-23 4.48191955942388e-16 4.481919559423564e-16 3.150341155746136e-29
1.0943741465085532 1.5586655050258193e-23 4.527809870357164e-16 4.52780987035682e-16 3.4314322015596514e-29
1.1026131145906286 1.5785661003362283e-23 4.620142373160891e-16 4.620142373160484e-16 4.0672112872054744e-29
1.1109141095355224 1.5983267887352364e-23 4.713195933023209e-16 4.713195933022726e-16 4.8146733884136036e-29
1.1192775983109025 1.617922342117857e-23 4.806898114194333e-16 4.806898114193764e-16 5.692295078161479e-29
1.1277040513999907 1.6372617598410958e-23 4.900977314007527e-16 4.900977314006854e-16 6.721409542877009e-29
1.1361939428280308 1.6564384322259495e-23 4.995709785253759e-16 4.995709785252966e-16 7.926611420929424e-29
1.1447477501889525 1.6754459625926322e-23 5.091076899591485e-16 5.091076899590551e-16 9.336221730850161e-29
1.1533659546722406 1.6942884586334465e-23 5.187091549988113e-16 5.187091549987016e-16 1.0982824361391146e-28
1.1707974979042381 1.731539171156537e-23 5.381254591605817e-16 5.381254591604304e-16 1.51423225244518e-28
1.1884924949847024 1.768049485938843e-23 5.577766029738699e-16 5.57776602973662e-16 2.077473742330195e-28
1.2064549276569216 1.8041047887137443e-23 5.777531126584049e-16 5.777531126581214e-16 2.836432074287662e-28
1.2246888378427687 1.8393113802190408e-23 5.979301468927374e-16 5.979301468923521e-16 3.8540444147186155e-28
1.2431983285522175 1.873586873986759e-23 6.182778467531195e-16 6.182778467525983e-16 5.211833445007526e-28
1.2619875648066055 1.9069184112911152e-23 6.387878108445232e-16 6.387878108438219e-16 7.014855627049112e-28
1.3004222497298317 1.9701955488615432e-23 6.800849404751231e-16 6.800849404738699e-16 1.2532131408547278e-27
1.3400274889804893 2.0288948426541257e-23 7.216766913244862e-16 7.216766913222878e-16 2.1985348775079794e-27
1.3808389325824078 2.0827982693539123e-23 7.634131993816821e-16 7.63413199377893e-16 3.789160589086576e-27
1.4228933163050095 2.1321675490275256e-23 8.05310017894688e-16 8.053100178882689e-16 6.418982731093414e-27
1.466228494730424 2.1781896715927053e-23 8.477480174264811e-16 8.477480174157877e-16 1.0693482432153585e-26
1.5108834753276823 2.2199700305744774e-23 8.90322842379402e-16 8.903228423618755e-16 1.752643082861895e-26
1.5568984535646726 2.2567846190081855e-23 9.326524460100102e-16 9.326524459817199e-16 2.8290353952733685e-26
1.6043148490894465 2.288700127236109e-23 9.746483009285095e-16 9.746483008834545e-16 4.5054936275388505e-26
1.6531753430134553 2.3158130060273747e-23 1.0162296008024382e-15 1.0162296007317216e-15 7.071632596535068e-26
1.7035239163302658 2.3384446036592e-23 1.0574132654050785e-15 1.0574132652956627e-15 1.0941561696498242e-25
1.755405889504358 2.3584540544890538e-23 1.0989410698949857e-15 1.0989410697280142e-15 1.6697166907559443e-25
1.8088679632656115 2.375381798290703e-23 1.1405379078655772e-15 1.1405379076141752e-15 2.51402291845412e-25
1.8639582606462262 2.3889164052696225e-23 1.1819703136385546e-15 1.1819703132649287e-15 3.736256610676336e-25
1.9207263702978936 2.3992830145169988e-23 1.223253343603916e-15 1.2232533430556187e-15 5.482973130395038e-25
1.979223391128241 2.4070062219177334e-23 1.2645658835452929e-15 1.264565882750447e-15 7.948457297920251e-25
2.039501978296691 2.4127139625735237e-23 1.3061690880450191e-15 1.3061690869063396e-15 1.1386792541134995e-24
2.1016163906111602 2.4181657664683022e-23 1.3489906780597551e-15 1.3489906764470246e-15 1.6127311585158066e-24
2.1656225393682647 2.424381799313875e-23 1.3936483688778337e-15 1.3936483666187792e-15 2.2590546339136927e-24
2.231578038680979 2.4314348599609696e-23 1.4402707831268976e-15 1.4402707799961712e-15 3.130727025286418e-24
2.299542257339062 2.439935702433387e-23 1.4893240741311355e-15 1.4893240698370888e-15 4.294046897388392e-24
2.369576372248914 2.4512351565395353e-23 1.5417896309932508e-15 1.5417896251621423e-15 5.83110866945453e-24
2.4417434235010123 2.466928354301964e-23 1.5989172811749993e-15 1.5989172733325642e-15 7.842435162375938e-24
2.5161083711144245 2.4897472761437658e-23 1.6628537018697762e-15 1.6628536914194098e-15 1.0450366261314842e-23
2.5927381535095444 2.5241627810591428e-23 1.7371825187050977e-15 1.7371825049025803e-15 1.3802517152432742e-23
2.6717017477616296 2.5755126032591394e-23 1.826505932129565e-15 1.8265059140547116e-15 1.8074853865416866e-23
2.753070231689431 2.651833338260373e-23 1.937907081561965e-15 1.937907058086005e-15 2.3475959302250934e-23
2.836916847834745 2.7713329580340536e-23 2.0869149305672534e-15 2.0869149003144835e-15 3.025276978345871e-23
2.9233170693905177 2.9741134875290396e-23 2.3078250976160087e-15 2.3078250589256716e-15 3.869033689272028e-23
2.967498994190263 3.146326387215893e-23 2.4783565473302175e-15 2.478356503757788e-15 4.3572429234686936e-23
3.0123486681368425 3.347451228650993e-23 2.6766336262194926e-15 2.67663357720518e-15 4.9014313270538714e-23
3.0578761833420214 3.797489001895001e-23 3.08237770109157e-15 3.082377646002755e-15 5.508881480996239e-23
3.1040917844459814 4.377410591401312e-23 3.606793445703033e-15 3.606793383884265e-15 6.181876850069469e-23
3.127460860933648 4.990901360120896e-23 4.143242024016883e-15 4.143241958544309e-15 6.547257505606224e-23
3.1510058709225794 5.808292712594578e-23 4.858107718820341e-15 4.8581076495012656e-15 6.931907716233262e-23
3.162844764501044 6.56916686578574e-23 5.515153489418516e-15 5.515153418090775e-15 7.132774016515297e-23
3.1747281389236908 7.453998345282733e-23 6.281527514153995e-15 6.2815274407661344e-15 7.338786029607776e-23
3.1986289994194426 9.922043312746042e-23 8.424311593621148e-15 8.424311515939976e-15 7.768116889876281e-23
3.2227097969389145 1.573985147520384e-22 1.3464531984535997e-14 1.3464531902229763e-14 8.230624073396776e-23
3.2348180950136065 2.1256959448705125e-22 1.8252419466271477e-14 1.825241938145837e-14 8.481310273695508e-23
3.240889293275058 2.53817183760313e-22 2.1835073098822996e-14 2.183507301267163e-14 8.615136800406773e-23
3.2469718861334385 3.0153431131939925e-22 2.5988708542246108e-14 2.598870845469876e-14 8.754735470444337e-23
3.2714166318528037 5.560658075008945e-22 4.828713979364139e-14 4.8287139700242587e-14 9.339880392765715e-23
3.2744851364798273 5.719774383045175e-22 4.971544771429731e-14 4.9715447620209595e-14 9.408771556453515e-23
3.2775565192852394 5.883460965482341e-22 5.118615400545327e-14 5.118615391067177e-14 9.478148647656004e-23
3.283707930232385 5.726047864566333e-22 4.991015617774202e-14 4.991015608174674e-14 9.599525813088082e-23
3.2898708863219004 5.226838769224296e-22 4.5644388253122506e-14 4.564438815604644e-14 9.707606735072346e-23
3.29141343181113 5.109112766722868e-22 4.4637242568843135e-14 4.463724247149534e-14 9.73477957118477e-23
3.292184975758714 5.051266373225599e-22 4.4142195804946963e-14 4.414219570746307e-14 9.748388948096574e-23
3.295272960557952 4.686134061663372e-22 4.098977520829615e-14 4.098977511028943e-14 9.800671609603874e-23
3.3076538914384823 3.421202202322416e-22 3.003780787886603e-14 3.0037807778757946e-14 1.0010809310636136e-22
3.310756385682612 3.163755941013775e-22 2.780351038970896e-14 2.780351028906986e-14 1.0063910815970865e-22
3.313861789986515 2.9262215638797356e-22 2.5740147482343947e-14 2.5740147381171548e-14 1.0117240538493689e-22
3.3200813396944477 2.593105990255076e-22 2.2852747714896628e-14 2.285274761255757e-14 1.0233905933569993e-22
3.345076488085796 1.9988580809457872e-22 1.7748327996628164e-14 1.7748327888960682e-14 1.0766748263300968e-22
3.3482140837626964 2.0211412974376094e-22 1.7963018943634136e-14 1.7963018835229596e-14 1.0840453911067783e-22
3.3513546224236106 2.0436708798454032e-22 1.8180288671082583e-14 1.818028856193645e-14 1.0914613510431357e-22
3.3576445397418455 2.208323827011511e-22 1.9681894912073328e-14 1.9681894801357542e-14 1.10715792394512e-22
3.3702598118196083 2.8156348284731975e-22 2.51888965874942e-14 2.5188896473440096e-14 1.1405409245447207e-22
3.382922481734668 2.953955825070317e-22 2.6525615841358383e-14 2.652561572408606e-14 1.1727231756809434e-22
3.389271646505754 3.025615734069943e-22 2.7220091546324584e-14 2.7220091427412124e-14 1.1891246142494447e-22
3.395632727569191 3.102832919417853e-22 2.7967170766106895e-14 2.796717064549673e-14 1.2061016191225986e-22
3.421196662673239 3.473601536188413e-22 3.1544777678928066e-14 3.1544777551222694e-14 1.277053723887737e-22
3.4276182099114902 3.398883024434415e-22 3.0924172894020774e-14 3.0924172764736455e-14 1.2928433320384694e-22
3.4340518103208963 3.071468261436792e-22 2.7997696937654378e-14 2.7997696806887054e-14 1.3076732334523821e-22
3.4469541582030403 2.605168655868012e-22 2.383640660250644e-14 2.383640646890217e-14 1.3360427079443676e-22
3.472904465399547 2.474481723694005e-22 2.2811115327565833e-14 2.2811115187213124e-14 1.4035270567951044e-22
3.4990501388274233 2.2746027517285053e-22 2.1126383489234436e-14 2.1126383341897427e-14 1.4733701269670492e-22
3.5253949054701885 1.5632826553264788e-22 1.4629002530366153e-14 1.4629002376266447e-14 1.5409970740229974e-22
3.5519380250092896 8.947206417115555e-23 8.435722200991606e-15 8.435722040039361e-15 1.6095224622345697e-22
3.578680990867387 6.296233875641994e-23 5.98099268353721e-15 5.980992514867458e-15 1.686697524492521e-22
3.605625307711299 5.2238817286872996e-23 4.9996932798870525e-15 4.999693102922519e-15 1.7696453277684048e-22
3.660119384959845 4.4413832137175794e-23 4.315021174480713e-15 4.31502097962741e-15 1.9485330202970288e-22
3.715437065384467 3.8871144378974837e-23 3.833598875345342e-15 3.833598661026839e-15 2.1431850158063676e-22
3.8285932144167436 3.605180266316636e-23 3.663832776697882e-15 3.663832518196535e-15 2.5850134733712246e-22
3.94519561050918 3.550309387767697e-23 3.717955394633249e-15 3.7179550841412305e-15 3.1049201898025916e-22
4.06534921144712 3.588681459679635e-23 3.8725960775980856e-15 3.872595705964821e-15 3.7163326411028754e-22
4.189162171576248 3.6810557915977613e-23 4.093256932770776e-15 4.093256489067494e-15 4.437032829065577e-22
4.316745939156006 3.812808376425002e-23 4.368887898738955e-15 4.368887370113936e-15 5.286250190428882e-22
4.448215356677963 3.979026590417636e-23 4.6982062636490695e-15 4.698205635454376e-15 6.281946944107709e-22
4.58368876423945 4.1802969046177756e-23 5.086179494506185e-15 5.086178748945062e-15 7.455611211831705e-22
4.723288106065518 4.421272400572942e-23 5.543207593625472e-15 5.5432067086988546e-15 8.849266167263196e-22
4.867139040275056 4.711274412570704e-23 6.086695655617506e-15 6.086694606421931e-15 1.0491955719274943e-21
4.940699165968905 4.8863696763472945e-23 6.408319618005649e-15 6.4083184753527e-15 1.1426529495463313e-21
5.015371051989984 5.067702920458457e-23 6.746579613889131e-15 6.746578369395388e-15 1.2444937440333025e-21
5.091171501069577 5.2891492233391055e-23 7.147809674068318e-15 7.147808317310387e-15 1.3567579311749646e-21
5.129500256944802 5.402806793852883e-23 7.356376125571266e-15 7.35637470892042e-15 1.4166508472201146e-21
5.168117569889187 5.521313316907005e-23 7.574329790391516e-15 7.574328310972037e-15 1.4794194779486133e-21
5.20702561229733 5.666870108819606e-23 7.832536099110636e-15 7.83253455223936e-15 1.5468712753499695e-21
5.246226572918644 5.81614682876128e-23 8.099381163321298e-15 8.099379545918716e-15 1.6174025812878616e-21
5.265937586045735 5.89221736846398e-23 8.236143415333255e-15 8.23614176146549e-15 1.6538677658824748e-21
5.285722656980489 5.969263187167486e-23 8.375187381116473e-15 8.375185689959164e-15 1.6911573086133367e-21
5.305582063971359 6.047300073172974e-23 8.516555651934561e-15 8.516553922644319e-15 1.7292902411787916e-21
5.3255160863122235 6.131159261768687e-23 8.667098481206953e-15 8.66709671275805e-15 1.7684489014178425e-21
5.365609099470188 6.340173769185075e-23 9.030038956929799e-15 9.030037106184225e-15 1.850745576051786e-21
5.406003951863644 6.557160014163863e-23 9.40939225830821e-15 9.409390321407896e-15 1.93690031807925e-21
5.446702915881641 6.782503959385354e-23 9.806029080352132e-15 9.806027053255273e-15 2.0270968622044005e-21
5.487708281020852 7.026042083238917e-23 1.0234607607944411e-14 1.0234605486101456e-14 2.1218429535816587e-21
5.529022354014368 7.364815308506135e-23 1.0808853712816448e-14 1.080885148890815e-14 2.2239082985505734e-21
5.570647458961463 7.7235968909147e-23 1.1420752155316727e-14 1.1420749824344368e-14 2.3309723588468995e-21
5.612585937458331 8.10382889027305e-23 1.2073208458105823e-14 1.2073206014823101e-14 2.4432827184674794e-21
5.654840148729818 8.521865428081209e-23 1.2791587255607556e-14 1.279158469395199e-14 2.5616555639836252e-21
5.67608639626678 8.806716971408135e-23 1.3268825101395526e-14 1.3268822475919135e-14 2.6254763973464706e-21
5.686739436050992 8.953551220889022e-23 1.3515374526849414e-14 1.351537186885001e-14 2.657999406808945e-21
5.6974124697621304 9.103418305344226e-23 1.3767389327854607e-14 1.3767386636916753e-14 2.690937850470162e-21
5.718818669136295 9.412543358299038e-23 1.4288372015212874e-14 1.4288369257130328e-14 2.7580825479338025e-21
5.740305295436557 9.75334059489005e-23 1.4861334664200068e-14 1.4861331836486918e-14 2.8277131524660347e-21
5.7835210386641895 1.0637719264131861e-22 1.633090594759191e-14 1.633090296895534e-14 2.978636570065883e-21
5.827062130521658 1.1656679520650074e-22 1.802992575199291e-14 1.8029922612249698e-14 3.139743208970017e-21
5.8489554468988025 1.2371686606894667e-22 1.920775716235654e-14 1.9207753931055663e-14 3.231300886699684e-21
5.870931020387893 1.31390278920602e-22 2.0475741843127712e-14 2.0475738517363234e-14 3.3257644767592558e-21
5.892989160043636 1.396291718650153e-22 2.1841438472667618e-14 2.18414350494381e-14 3.423229514070205e-21
5.915130176081913 1.490000388047159e-22 2.339484225923827e-14 2.3394838732522597e-14 3.526715674912922e-21
5.95966208400165 1.752052230327063e-22 2.7716482781336646e-14 2.7716479010064165e-14 3.771272479022912e-21
6.004529249263818 2.1298159838525114e-22 3.3946146390711784e-14 3.3946142321349176e-14 4.0693625926194984e-21
6.027089341400364 2.3924327171617794e-22 3.827514063607866e-14 3.827513638282053e-14 4.253258135601312e-21
6.049734195844842 2.702794199917583e-22 4.3402895682382523e-14 4.340289122614366e-14 4.4562388710390676e-21
6.095279466722835 3.599356924744077e-22 5.823552173224711e-14 5.823551674216965e-14 4.990077492929219e-21
6.141167624020661 4.979231451809272e-22 8.116759892075813e-14 8.116759317813812e-14 5.742620030227359e-21
6.164241091010745 5.860429852819599e-22 9.589114870471519e-14 9.589114247395681e-14 6.23075840785509e-21
6.187401249150058 6.864288280019162e-22 1.127387533220806e-13 1.1273874655837103e-13 6.763709581228348e-21
6.1990139391386085 7.354452422119902e-22 1.2101588709579466e-13 1.2101588005797333e-13 7.03782135873946e-21
6.204828454712694 7.6126566855261905e-22 1.2538207606461965e-13 1.2538206888485286e-13 7.179766783686634e-21
6.210648424152782 7.801140492217624e-22 1.2860696146104632e-13 1.286069541620952e-13 7.298951114185269e-21
6.233982942956859 8.441506437303098e-22 1.3968668106222936e-13 1.3968667333832325e-13 7.723906058340573e-21
6.239830258556775 8.523365814205015e-22 1.4117355044651011e-13 1.4117354266164662e-13 7.784863503713344e-21
6.245683058788269 8.53046232349274e-22 1.414236182055383e-13 1.414236103592319e-13 7.84630641339471e-21
6.257405133728602 8.512865535325252e-22 1.4139676739575936e-13 1.4139675944068377e-13 7.955075688167482e-21
6.269149208991335 8.386912469918446e-22 1.3956616655963446e-13 1.39566158562344e-13 7.997290469240728e-21
6.280915325867298 8.071063769121038e-22 1.345622221310015e-13 1.345622141743036e-13 7.956697874370697e-21
6.304513850009849 7.292171191009976e-22 1.2203316969084426e-13 1.2203316189221866e-13 7.798625584573481e-21
6.32820103803542 6.3267173105048415e-22 1.0627427000443966e-13 1.0627426245810015e-13 7.546339488319665e-21
6.3519772230701035 5.441324864152211e-22 9.174513004493658e-14 9.174512273452684e-14 7.31040974514171e-21
6.375842739491607 4.696474853473628e-22 7.948387487210626e-14 7.948386776670973e-14 7.10539651595993e-21
6.399797922933955 4.099483469803271e-22 6.964097354966735e-14 6.964096657125553e-14 6.978411815711183e-21
6.42384311029221 3.603154400616858e-22 6.143943756219779e-14 6.143943068739594e-14 6.874801859695013e-21
6.447978639727206 3.241458532080873e-22 5.547962197244294e-14 5.54796151301535e-14 6.842289461430203e-21
6.472204850670314 2.9401585923747456e-22 5.0511753430319235e-14 5.0511746603102324e-14 6.82721690687111e-21
6.496522083828205 2.7443314170217127e-22 4.7324595390793514e-14 4.732458851704135e-14 6.873752173677871e-21
