Dust emission spectrum from A.P. Jones, M. Kohler, N. Ysard, M. Bocchio, and L. Verstraete (2017), A&A, 602A, 46J 
inside the DustPedia framework.

lambda    nu*dP/dnu     j_nu    j_nu(carb.) j_nu(sil)
 (um)   (erg s-1 H-1) (Jy cm2 sr-1 H-1)
0.9927057738263894 3.8569972872486346e-22 1.0163406924972551e-14 1.0163406728617407e-14 1.9635514278844445e-22
1.0001793341362166 3.921893853873365e-22 1.0412215431445591e-14 1.0412215195130119e-14 2.3631547042907436e-22
1.0077091589558085 3.9870353265397052e-22 1.0664849288912167e-14 1.0664849004881981e-14 2.840301862490374e-22
1.0114953028030835 4.0196946901910404e-22 1.0792607211427193e-14 1.0792606900195532e-14 3.1123166203914976e-22
1.0152956718711033 4.0524114743340333e-22 1.0921329352886426e-14 1.0921329011961837e-14 3.409245873348689e-22
1.0229392996569957 4.117980599150005e-22 1.1181590754902354e-14 1.1181590346226683e-14 4.0867567119254754e-22
1.0267826658714554 4.1507583233454883e-22 1.131293804703427e-14 1.1312937599797431e-14 4.47236841738074e-22
1.0306404723013447 4.183587098338139e-22 1.1445254148316835e-14 1.1445253659043363e-14 4.892734752971085e-22
1.03451277320114 4.2164658165723986e-22 1.157854196793421e-14 1.1578541432851267e-14 5.350829454639941e-22
1.0383996230291617 4.249393400384394e-22 1.1712804484764497e-14 1.1712803899777888e-14 5.8498660995389835e-22
1.0403485208654093 4.265875188474934e-22 1.1780302205430836e-14 1.1780301593849647e-14 6.1158118975564955e-22
1.0423010764483396 4.282368802770895e-22 1.1848044750797133e-14 1.1848044111465514e-14 6.393316179910144e-22
1.0462171883269815 4.315391008152669e-22 1.1984265894597765e-14 1.1984265196104922e-14 6.984928434855143e-22
1.0471985131304309 4.323653756506321e-22 1.2018474816902892e-14 1.201847410282047e-14 7.1408242004004475e-22
1.048180758391296 4.331919353377292e-22 1.2052745295139916e-14 1.2052744565135143e-14 7.300047726241923e-22
1.0501480137395462 4.348459033131849e-22 1.212147112481989e-14 1.2121470361944935e-14 7.628749519525186e-22
1.0521189612883777 4.365009929643156e-22 1.2190443797816774e-14 1.2190443000657789e-14 7.97158981995449e-22
1.0531058218030118 4.373278525763416e-22 1.2224992020226426e-14 1.2224991205376095e-14 8.1485033500799465e-22
1.0540936079674168 4.381513772505793e-22 1.2259501016469784e-14 1.2259500183548795e-14 8.329209910699063e-22
1.058054026499678 4.414480623890965e-22 1.2398150167670588e-14 1.2398149258558103e-14 9.091124873287812e-22
1.0590464539527713 4.422728734735205e-22 1.243296601294509e-14 1.243296508376781e-14 9.291772832235184e-22
1.06003981227728 4.430979378019012e-22 1.2467843388866048e-14 1.2467842439200787e-14 9.496652596171322e-22
1.0620293250338977 4.447488209499919e-22 1.2537782950961624e-14 1.2537781959016798e-14 9.919448283388963e-22
1.0660195594769086 4.480535693166452e-22 1.2678402865859515e-14 1.2678401783893431e-14 1.0819660833533612e-21
1.070024785945596 4.513622274970504e-22 1.2820013511083409e-14 1.2820012331316579e-14 1.1797668319991e-21
1.0740450607676866 4.546747191946745e-22 1.2962618588337466e-14 1.2962617302354237e-14 1.285983233915783e-21
1.07808044048254 4.579909718784398e-22 1.3106221906133897e-14 1.3106220504833596e-14 1.401300302125262e-21
1.0861967418109137 4.6462938624559355e-22 1.3396291921721918e-14 1.3396290259479807e-14 1.6622421106282064e-21
1.0902777775684922 4.679398193510652e-22 1.3542429904028756e-14 1.3542428094514572e-14 1.809514191648795e-21
1.0943741465085532 4.712535613837739e-22 1.3689573034074889e-14 1.3689571064885964e-14 1.9691889236787993e-21
1.1026131145906286 4.778907695841279e-22 1.3986892242445966e-14 1.3986889912680482e-14 2.3297654888369904e-21
1.1109141095355224 4.8454064790782815e-22 1.428828589496855e-14 1.4288283142192637e-14 2.752775917727431e-21
1.1192775983109025 4.911976619428369e-22 1.4593636872576746e-14 1.4593633624206e-14 3.248370740037381e-21
1.1277040513999907 4.978374999047274e-22 1.4902261525561417e-14 1.4902257697324918e-14 3.828236497903021e-21
1.1361939428280308 5.044885615200477e-22 1.521504448521822e-14 1.5215039979408692e-14 4.505809526554001e-21
1.1447477501889525 5.11150779038334e-22 1.553203136043474e-14 1.5532026063917602e-14 5.296517133561739e-21
1.1533659546722406 5.178265771954764e-22 1.5853344507206093e-14 1.585333828914862e-14 6.2180574738473154e-21
1.1707974979042381 5.312391138274265e-22 1.650977909217628e-14 1.650977055449425e-14 8.5376820245125e-21
1.1884924949847024 5.447067650699252e-22 1.718417337602156e-14 1.7184161712106337e-14 1.1663915223610425e-20
1.2064549276569216 5.583208439763743e-22 1.7879870808358022e-14 1.7879854952154614e-14 1.5856203412856722e-20
1.2246888378427687 5.719910298798116e-22 1.859449597254351e-14 1.859447452287165e-14 2.1449671854917203e-20
1.2431983285522175 5.857053728814501e-22 1.932809531304579e-14 1.9328066437374336e-14 2.8875671451782286e-20
1.2619875648066055 5.9948289198900495e-22 2.0081738261319838e-14 2.00816995747381e-14 3.8686581734717015e-20
1.3004222497298317 6.271375093574157e-22 2.164794129026977e-14 2.1647872826932692e-14 6.846333707633082e-20
1.3400274889804893 6.55030288851906e-22 2.329938849652607e-14 2.329926955875157e-14 1.189377745052123e-19
1.3808389325824078 6.832551531885724e-22 2.5043520064548175e-14 2.5043317133038324e-14 2.0293150985079316e-19
1.4228933163050095 7.120428547018002e-22 2.6893535844461394e-14 2.6893195622616344e-14 3.402218450449329e-19
1.466228494730424 7.4189377748415805e-22 2.887438992139532e-14 2.887382916381774e-14 5.60757577583738e-19
1.5108834753276823 7.727297021057388e-22 3.099045911857363e-14 3.0989550085473844e-14 9.090330997831484e-19
1.5568984535646726 8.045044351256454e-22 3.324743632715769e-14 3.3245985439291256e-14 1.4508878664419391e-18
1.6043148490894465 8.373880843244525e-22 3.5660367380248305e-14 3.5658083103572036e-14 2.2842766762643608e-18
1.6531753430134553 8.715565538629763e-22 3.824581546539822e-14 3.824227215068809e-14 3.543314710137908e-18
1.7035239163302658 9.072153997349706e-22 4.102306279816989e-14 4.101764630354709e-14 5.41649462279913e-18
1.755405889504358 9.450138802423505e-22 4.403369922099794e-14 4.402553544863678e-14 8.163772361173118e-18
1.8088679632656115 9.848969852108842e-22 4.728975980972232e-14 4.7277623681502774e-14 1.2136128219538999e-17
1.8639582606462262 1.0267820771541219e-21 5.08023608986573e-14 5.0784559359022196e-14 1.7801539635088927e-17
1.9207263702978936 1.0707203771309072e-21 5.4589736744912405e-14 5.456396254279082e-14 2.577420212158197e-17
1.979223391128241 1.1168135254334612e-21 5.867389413808367e-14 5.863704483844096e-14 3.684929964270937e-17
2.039501978296691 1.1651218461895654e-21 6.307611108925131e-14 6.302407045366457e-14 5.204063558671023e-17
2.1016163906111602 1.2160480544843733e-21 6.783809085048612e-14 6.776546308765218e-14 7.26277628339709e-17
2.1656225393682647 1.2696988295695258e-21 7.298824398436148e-14 7.288804650610951e-14 1.0019747825198461e-16
2.231578038680979 1.3257649226032781e-21 7.853224919834561e-14 7.839555880873548e-14 1.36690389610112e-16
2.299542257339062 1.384110279264672e-21 8.448537222130027e-14 8.430092301323845e-14 1.8444920806181825e-16
2.369576372248914 1.444720702022793e-21 9.087073478517588e-14 9.062446498613843e-14 2.4626979903744326e-16
2.4417434235010123 1.507610002226359e-21 9.771437754275951e-14 9.738893887481085e-14 3.2543866794862817e-16
2.5161083711144245 1.573058686271369e-21 1.0506152511094105e-13 1.0463574226321917e-13 4.2578284772186246e-16
2.5927381535095444 1.6417073950306302e-21 1.1298579508724927e-13 1.1243409710834792e-13 5.516979789013332e-16
2.6717017477616296 1.7140865550439026e-21 1.215598501443718e-13 1.2085171284786758e-13 7.081372965042218e-16
2.753070231689431 1.791117450820301e-21 1.3089130232184565e-13 1.2999068758279506e-13 9.006147390505621e-16
2.836916847834745 1.875733895187439e-21 1.4124961276448823e-13 1.401143852256479e-13 1.13522753884032e-15
2.9233170693905177 1.9747371024559854e-21 1.5323382464560176e-13 1.518154898286779e-13 1.41833481692383e-15
2.967498994190263 2.03648679436781e-21 1.604137574817557e-13 1.5883663805377156e-13 1.57711942798413e-15
3.0123486681368425 2.102748811661047e-21 1.6813652514522845e-13 1.6638513736432699e-13 1.7513877809014787e-15
3.0578761833420214 2.2150985870974542e-21 1.7979697866620498e-13 1.778540242201213e-13 1.9429544460836647e-15
3.1040917844459814 2.3477467285442862e-21 1.934439855680414e-13 1.9129278140483136e-13 2.1512041632100616e-15
3.127460860933648 2.473202155265275e-21 2.0531511973893217e-13 2.0305249939235878e-13 2.2626203465734012e-15
3.1510058709225794 2.6335001535922356e-21 2.2026829667070904e-13 2.1788960330893396e-13 2.378693361775054e-15
3.162844764501044 2.7794434430925236e-21 2.333485739820621e-13 2.309098366239695e-13 2.438737358092534e-15
3.1747281389236908 2.9449655263895483e-21 2.481739480658455e-13 2.4567396275940217e-13 2.499985306443284e-15
3.1986289994194426 3.394582399587577e-21 2.882170432335409e-13 2.855905721576114e-13 2.6264710759294585e-15
3.2227097969389145 4.4390825156728095e-21 3.797378177832966e-13 3.7697738150676347e-13 2.7604362765329506e-15
3.2348180950136065 5.420446038788895e-21 4.654299455809108e-13 4.625980338942791e-13 2.8319116866316724e-15
3.240889293275058 6.1538192750463735e-21 5.293932101715863e-13 5.26523596988897e-13 2.8696131826892094e-15
3.2469718861334385 7.003783284454486e-21 6.036436837860864e-13 6.007350606912378e-13 2.9086230948486477e-15
3.2714166318528037 1.1468882523986781e-20 9.959244503838861e-13 9.928546703003455e-13 3.069780083540761e-15
3.2744851364798273 1.174793338021359e-20 1.0211132967872591e-12 1.0180245388152058e-12 3.088757972053274e-15
3.2775565192852394 1.2034485511260003e-20 1.047001131425454e-12 1.043893302011876e-12 3.1078294135780766e-15
3.283707930232385 1.1759043940515971e-20 1.024957760489367e-12 1.021815853455243e-12 3.1419070341239332e-15
3.2898708863219004 1.0883855161275329e-20 9.504538643837478e-13 9.472809708129173e-13 3.172893570830342e-15
3.29141343181113 1.0677032930451751e-20 9.328298876789163e-13 9.296492138975775e-13 3.1806737813386924e-15
3.292184975758714 1.0575343274972653e-20 9.241620596822223e-13 9.209774907537234e-13 3.1845689284992653e-15
3.295272960557952 9.94084140252407e-21 8.69528803719606e-13 8.663290883157712e-13 3.1997154038348677e-15
3.3076538914384823 7.726774079178709e-21 6.784029168349613e-13 6.751423790215123e-13 3.2605378134489235e-15
3.310756385682612 7.271655778911707e-21 6.390428363275529e-13 6.357669704405059e-13 3.275865887047061e-15
3.313861789986515 6.849978721884523e-21 6.025499392412788e-13 5.992586962191022e-13 3.291243022176626e-15
3.3200813396944477 6.26081027896992e-21 5.517580782806998e-13 5.484337485481865e-13 3.3243297325133583e-15
3.345076488085796 5.2297301713631955e-21 4.643599628208612e-13 4.608881540137954e-13 3.471808807065974e-15
3.3482140837626964 5.271198205781307e-21 4.684810178592809e-13 4.649892294422428e-13 3.4917884170379837e-15
3.3513546224236106 5.313048822405519e-21 4.726434293676222e-13 4.691315727519459e-13 3.5118566156763627e-15
3.3576445397418455 5.608341486878964e-21 4.998487378780497e-13 4.962949188540029e-13 3.5538190240467626e-15
3.3702598118196083 6.6797618311406185e-21 5.975768884949123e-13 5.939350541923194e-13 3.641834302592606e-15
3.382922481734668 6.93451713106052e-21 6.226983352381425e-13 6.189709870416269e-13 3.727348196515755e-15
3.389271646505754 7.065892943586866e-21 6.356863187059206e-13 6.319156336067117e-13 3.770685099208785e-15
3.395632727569191 7.21028893472346e-21 6.498944259886716e-13 6.460790795818597e-13 3.81534640681173e-15
3.421196662673239 7.91070631504566e-21 7.183940627376326e-13 7.143938782153807e-13 4.000184522252102e-15
3.4276182099114902 7.783104698909596e-21 7.081328590335845e-13 7.04091463537774e-13 4.0413954958105094e-15
3.4340518103208963 7.205499349579971e-21 6.568109122496213e-13 6.527305571981444e-13 4.080355051476986e-15
3.4469541582030403 6.3768650504854206e-21 5.83461450184069e-13 5.793063555224439e-13 4.155094661625263e-15
3.472904465399547 6.146168590808915e-21 5.665871734073969e-13 5.622598547961983e-13 4.327318611198409e-15
3.4990501388274233 5.7974031549515824e-21 5.384595714576171e-13 5.339561015833108e-13 4.503469874306171e-15
3.5253949054701885 4.562197875562423e-21 4.269247409496499e-13 4.222502811185061e-13 4.6744598311438545e-15
3.5519380250092896 3.386835628143004e-21 3.1932206733021776e-13 3.1447586110286516e-13 4.8462062273526856e-15
3.578680990867387 2.927815502984263e-21 2.7812250065615876e-13 2.7308807225600406e-13 5.034428400154675e-15
3.605625307711299 2.7506863059888004e-21 2.632637673170562e-13 2.5803117797155445e-13 5.2325893455017426e-15
3.660119384959845 2.637849116777658e-21 2.562799525793098e-13 2.506313781817593e-13 5.6485743975505595e-15
3.715437065384467 2.561387220275763e-21 2.526123509830163e-13 2.4652574352130706e-13 6.086607461709295e-15
3.8285932144167436 2.5542618679331143e-21 2.595817035680226e-13 2.5255542277200186e-13 7.0262807960207585e-15
3.94519561050918 2.5828002075069233e-21 2.7047603225357456e-13 2.6242776750460204e-13 8.048264748972473e-15
4.06534921144712 2.623133615088801e-21 2.8306599688330713e-13 2.739153311331734e-13 9.150665750133812e-15
4.189162171576248 2.668240089345641e-21 2.9670270874298144e-13 2.863679298651103e-13 1.033477887787108e-14
4.316745939156006 2.7152057530658425e-21 3.1112052812573554e-13 2.995252359229061e-13 1.1595292202829467e-14
4.448215356677963 2.7627816211087398e-21 3.2621339974572095e-13 3.1329973452335784e-13 1.2913665222363227e-14
4.58368876423945 2.8107998390588498e-21 3.419908401431973e-13 3.2770025706422517e-13 1.42905830789721e-14
4.723288106065518 2.8598302878880442e-21 3.5855363642029434e-13 3.42819888665773e-13 1.5733747754521342e-14
4.867139040275056 2.9107585337326558e-21 3.7605326649090095e-13 3.588500979242506e-13 1.7203168566650318e-14
4.940699165968905 2.9389244349115244e-21 3.854306644715087e-13 3.6747868841625633e-13 1.79519760552523e-14
5.015371051989984 2.966145287173301e-21 3.9487980334226776e-13 3.7617212226125176e-13 1.8707681081015997e-14
5.091171501069577 2.998626560872461e-21 4.052374216659192e-13 3.857505732639151e-13 1.948684840200407e-14
5.129500256944802 3.0144739152376286e-21 4.1044599200626656e-13 3.9056786428772774e-13 1.987812771853876e-14
5.168117569889187 3.0306121585981658e-21 4.157499246728486e-13 3.954754679097557e-13 2.0274456763092777e-14
5.20702561229733 3.051261682296837e-21 4.2173398746563383e-13 4.0102598833527714e-13 2.0707999130356603e-14
5.246226572918644 3.0718126799452636e-21 4.2777086771894764e-13 4.0662710030071105e-13 2.1143767418236595e-14
5.265937586045735 3.0820539522097437e-21 4.3080960488753057e-13 4.094471800304898e-13 2.1362424857040707e-14
5.285722656980489 3.0922739453499316e-21 4.338621520613367e-13 4.122805874167661e-13 2.1581564644570597e-14
5.305582063971359 3.1024738692370732e-21 4.3692872928937774e-13 4.1512756764617546e-13 2.180116164320229e-14
5.3255160863122235 3.1135379616366e-21 4.4013438546197825e-13 4.181113705872947e-13 2.2023014874683554e-14
5.365609099470188 3.142463239338807e-21 4.475676299262785e-13 4.2508555304938716e-13 2.2482076876891362e-14
5.406003951863644 3.17171522049714e-21 4.551347317564228e-13 4.321913813612315e-13 2.2943350395191174e-14
5.446702915881641 3.2013298349567513e-21 4.628428327556722e-13 4.3943619851398696e-13 2.3406634241685264e-14
5.487708281020852 3.2330299737509895e-21 4.709449897119129e-13 4.470711939368718e-13 2.387379577504122e-14
5.529022354014368 3.280182789570962e-21 4.814107949566808e-13 4.570500436750369e-13 2.4360751281643706e-14
5.570647458961463 3.328971868143092e-21 4.922494425208326e-13 4.673994890805039e-13 2.4849953440328755e-14
5.612585937458331 3.379545971069968e-21 5.034899373486723e-13 4.781487400651222e-13 2.53411972835501e-14
5.654840148729818 3.434606068972718e-21 5.15545141972466e-13 4.897083218608113e-13 2.583682011165472e-14
5.67608639626678 3.474196721796619e-21 5.234471462978127e-13 4.973508172781302e-13 2.6096329019682476e-14
5.686739436050992 3.4944360963960044e-21 5.274846978341653e-13 5.012583786539973e-13 2.6226319180167992e-14
5.6974124697621304 3.514981681204433e-21 5.315818702630574e-13 5.05225408104757e-13 2.635646215830047e-14
5.718818669136295 3.5570231864942124e-21 5.399610776884832e-13 5.133438841567318e-13 2.6617193531751394e-14
5.740305295436557 3.603559060903616e-21 5.490805602990722e-13 5.222000264821886e-13 2.6880533816883655e-14
5.7835210386641895 3.727359539037249e-21 5.722200083820741e-13 5.447952916980649e-13 2.7424716684009166e-14
5.827062130521658 3.867997595479989e-21 5.982810913849508e-13 5.703044873227373e-13 2.797660406221338e-14
5.8489554468988025 3.969952350817547e-21 6.163580045596539e-13 5.880826851880367e-13 2.8275319371617277e-14
5.870931020387893 4.078015175544507e-21 6.355141845559595e-13 6.069390717607205e-13 2.857511279523882e-14
5.892989160043636 4.192669363699679e-21 6.558366616398251e-13 6.269607026596105e-13 2.887595898021472e-14
5.915130176081913 4.32302549931348e-21 6.787682771791506e-13 6.495802446195346e-13 2.918803255961611e-14
5.95966208400165 4.693448678011069e-21 7.424772345108531e-13 7.125738830184763e-13 2.990335149237685e-14
6.004529249263818 5.227629249201318e-21 8.332075123633943e-13 8.024968538981495e-13 3.0710658465244727e-14
6.027089341400364 5.6005866336606856e-21 8.960053066913884e-13 8.648260754973706e-13 3.1179231194017593e-14
6.049734195844842 6.038051967012194e-21 9.69622251139307e-13 9.379462258095575e-13 3.1676025329749355e-14
6.095279466722835 7.303625708706465e-21 1.1816845691506859e-12 1.14878019373273e-12 3.290437541795572e-14
6.141167624020661 9.238495271307302e-21 1.5059883961415724e-12 1.4714808367663982e-12 3.450755937517435e-14
6.164241091010745 1.0472330964508193e-20 1.71353274592904e-12 1.6780146684304822e-12 3.551807749855744e-14
6.187401249150058 1.186138967287292e-20 1.948109155437978e-12 1.9115542266885425e-12 3.6554928749435734e-14
6.1990139391386085 1.2536121486618736e-20 2.062791048699894e-12 2.0257086905626535e-12 3.708235813724091e-14
6.204828454712694 1.2890161127447933e-20 2.123036976092358e-12 2.0856883036292097e-12 3.7348672463148826e-14
6.210648424152782 1.3145969985456269e-20 2.1672001125659034e-12 2.1296255086598996e-12 3.7574603906003376e-14
6.233982942956859 1.4002808279149024e-20 2.317128854420374e-12 2.2787706501859714e-12 3.835820423440242e-14
6.239830258556775 1.4105261034579646e-20 2.3362716368547105e-12 2.297807786677109e-12 3.8463850177601376e-14
6.245683058788269 1.4102747745989092e-20 2.3380463300155083e-12 2.299476695586786e-12 3.8569634428721904e-14
6.257405133728602 1.4053017464932282e-20 2.3341743546306993e-12 2.295421369520264e-12 3.875298511043501e-14
6.269149208991335 1.385160622037535e-20 2.305038460584022e-12 2.266226840014342e-12 3.881162056967919e-14
6.280915325867298 1.3385315843496914e-20 2.2316238544877666e-12 2.1929077056341655e-12 3.87161488536007e-14
6.304513850009849 1.2251654066058124e-20 2.0502922112964254e-12 2.011906282066762e-12 3.8385929229663444e-14
6.32820103803542 1.086987633043548e-20 1.82588871188776e-12 1.7879811735594994e-12 3.790753832826058e-14
6.3519772230701035 9.608935749340567e-21 1.6201441412266138e-12 1.5826676963185925e-12 3.747644490802075e-14
6.375842739491607 8.545662224969738e-21 1.446281238973089e-12 1.4091872938982015e-12 3.709394507488751e-14
6.399797922933955 7.699594823635283e-21 1.3079874169651723e-12 1.2711005325433365e-12 3.688688442183588e-14
6.42384311029221 6.993163687077184e-21 1.1924441640381847e-12 1.1557293141258532e-12 3.671484991233124e-14
6.447978639727206 6.478384995128981e-21 1.108816747043103e-12 1.0721373416267053e-12 3.6679405416397876e-14
6.472204850670314 6.047254534892793e-21 1.038914808164034e-12 1.002243819964356e-12 3.667098819967794e-14
6.496522083828205 5.764046831227758e-21 9.939804733842063e-13 9.572074276001165e-13 3.6773045784089803e-14
