Dust emission spectrum from A.P. Jones, M. Kohler, N. Ysard, M. Bocchio, and L. Verstraete (2017), A&A, 602A, 46J 
inside the DustPedia framework.

lambda    nu*dP/dnu     j_nu    j_nu(carb.) j_nu(sil)
 (um)   (erg s-1 H-1) (Jy cm2 sr-1 H-1)
0.9927057738263894 8.214830158330582e-23 2.164654406023914e-15 2.1646542615191735e-15 1.4450474059011752e-22
1.0001793341362166 8.353056399666912e-23 2.2176485643141398e-15 2.2176483904011704e-15 1.7391296844502423e-22
1.0077091589558085 8.491805265368867e-23 2.2714577606852788e-15 2.2714575516573523e-15 2.090279266476912e-22
1.0114953028030835 8.561368882616556e-23 2.2986693931678785e-15 2.2986691641214173e-15 2.290464611607067e-22
1.0152956718711033 8.631055102525197e-23 2.3260864804722123e-15 2.3260862295736706e-15 2.508985420702582e-22
1.0229392996569957 8.770717255545891e-23 2.3815209571098344e-15 2.3815206563508572e-15 3.0075897688505406e-22
1.0267826658714554 8.840534311563971e-23 2.4094974743987143e-15 2.4094971452611997e-15 3.2913751521820175e-22
1.0306404723013447 8.910460490754596e-23 2.4376804521587022e-15 2.4376800920849327e-15 3.600737705230851e-22
1.03451277320114 8.980493459225782e-23 2.4660705181509433e-15 2.466070124364354e-15 3.9378659061544524e-22
1.0383996230291617 9.050630948219467e-23 2.4946683154980184e-15 2.4946678849855445e-15 4.305124740794674e-22
1.0403485208654093 9.085738197157886e-23 2.509045318792152e-15 2.5090448687077793e-15 4.500843722267738e-22
1.0423010764483396 9.120870755827604e-23 2.523474503442101e-15 2.5234740329352008e-15 4.705069003891076e-22
1.0462171883269815 9.191210748700038e-23 2.5524897581148546e-15 2.552489244069102e-15 5.140457526018404e-22
1.0471985131304309 9.208811157529041e-23 2.5597763193648394e-15 2.5597757938461627e-15 5.255186770383009e-22
1.048180758391296 9.226417667103046e-23 2.5670760015759384e-15 2.5670754643394354e-15 5.372365032030863e-22
1.0501480137395462 9.261648863743456e-23 2.5817147733189483e-15 2.58171421189211e-15 5.614268384779207e-22
1.0521189612883777 9.296904091989401e-23 2.596406162960429e-15 2.596405576302752e-15 5.86657676832255e-22
1.0531058218030118 9.314517166709905e-23 2.6037650555406393e-15 2.6037644558632658e-15 5.996773733956423e-22
1.0540936079674168 9.332059249858144e-23 2.6111156052343762e-15 2.611114992258164e-15 6.129762125777316e-22
1.058054026499678 9.402283051501882e-23 2.6406485184369825e-15 2.6406478493887346e-15 6.690482473903057e-22
1.0590464539527713 9.419852727018788e-23 2.648064482955106e-15 2.6480637991404615e-15 6.8381464507456e-22
1.06003981227728 9.437427836771931e-23 2.65549356528945e-15 2.6554928663969736e-15 6.988924763548203e-22
1.0620293250338977 9.472594249813049e-23 2.6703911307285357e-15 2.6703904007210184e-15 7.3000751629539945e-22
1.0660195594769086 9.542991103097826e-23 2.700344200692713e-15 2.7003434044353493e-15 7.962573629697876e-22
1.070024785945596 9.613471949070569e-23 2.730508508851939e-15 2.7305076406195223e-15 8.68232415987872e-22
1.0740450607676866 9.684035206475462e-23 2.7608848585185116e-15 2.7608839121176637e-15 9.4640084787826e-22
1.07808044048254 9.754679376694471e-23 2.7914740766566655e-15 2.7914730453898817e-15 1.0312667841128792e-21
1.0861967418109137 9.896096196970277e-23 2.853263212886444e-15 2.853261989583292e-15 1.223303151540548e-21
1.0902777775684922 9.966619153952762e-23 2.8843931567895634e-15 2.8843918251036445e-15 1.331685919426469e-21
1.0943741465085532 1.0037213607477625e-22 2.9157375136795383e-15 2.915736064483298e-15 1.44919623977317e-21
1.1026131145906286 1.0178612932757199e-22 2.9790732805308875e-15 2.979071565973516e-15 1.714557372010988e-21
1.1109141095355224 1.0320286965682869e-22 3.0432784394972944e-15 3.043276413631487e-15 2.0258658074594365e-21
1.1192775983109025 1.0462118413466294e-22 3.1083282530321558e-15 3.1083258624404735e-15 2.390591682313983e-21
1.1277040513999907 1.0603590122958528e-22 3.174077347576833e-15 3.174074530241294e-15 2.817335539019312e-21
1.1361939428280308 1.0745307670760806e-22 3.240714392520183e-15 3.2407110765345277e-15 3.315985655057078e-21
1.1447477501889525 1.0887270402482024e-22 3.3082493905032654e-15 3.30824549260773e-15 3.89789553534166e-21
1.1533659546722406 1.1029530834823103e-22 3.376708724073396e-15 3.3767041479835136e-15 4.576089882203111e-21
1.1707974979042381 1.131537896898352e-22 3.5165785473932954e-15 3.516572264209118e-15 6.2831841767563525e-21
1.1884924949847024 1.1602447679488944e-22 3.660289999977554e-15 3.660281416087061e-15 8.583890494118183e-21
1.2064549276569216 1.1892692716314957e-22 3.808559390632563e-15 3.808547721487929e-15 1.1669144634463015e-20
1.2246888378427687 1.21842034181766e-22 3.960885915213407e-15 3.960870129636196e-15 1.5785577210358485e-20
1.2431983285522175 1.247674103699207e-22 4.117285774122185e-15 4.117264523487476e-15 2.1250634708360818e-20
1.2619875648066055 1.2770729438000788e-22 4.2779944083002745e-15 4.277965937467382e-15 2.847083289240264e-20
1.3004222497298317 1.3361236923907352e-22 4.612118844406205e-15 4.612068459798888e-15 5.0384607317406e-20
1.3400274889804893 1.3957566181057703e-22 4.964698006384274e-15 4.964610475841365e-15 8.753054290897369e-20
1.3808389325824078 1.456204260927625e-22 5.337461482205102e-15 5.3373121376818466e-15 1.493445232557234e-19
1.4228933163050095 1.518002578208384e-22 5.733426925002856e-15 5.7331765436338574e-15 2.503813689987165e-19
1.466228494730424 1.5822773269088116e-22 6.158198638069005e-15 6.157785956602496e-15 4.126814665098219e-19
1.5108834753276823 1.6489415314713085e-22 6.61310869515239e-15 6.6124397053291205e-15 6.689898232689673e-19
1.5568984535646726 1.7180010184782248e-22 7.099914801952101e-15 7.0988470419138944e-15 1.0677600382050196e-18
1.6043148490894465 1.7899533489852702e-22 7.622558191739085e-15 7.620877111203825e-15 1.6810805352589062e-18
1.6531753430134553 1.8653445676690753e-22 8.18554158054907e-15 8.182933929097999e-15 2.607651451071435e-18
1.7035239163302658 1.9448284890001525e-22 8.794253410957362e-15 8.790267219716023e-15 3.98619124133996e-18
1.755405889504358 2.0300569807916715e-22 9.459217516545176e-15 9.45320950580232e-15 6.008010742856483e-18
1.8088679632656115 2.1212409349403156e-22 1.0185123502068546e-14 1.0176192093218088e-14 8.931408850454082e-18
1.8639582606462262 2.2186001467443556e-22 1.0977025003895036e-14 1.0963924217073042e-14 1.310078682199205e-17
1.9207263702978936 2.322715103494477e-22 1.1842158675728018e-14 1.1823190522724204e-14 1.8968153003811456e-17
1.979223391128241 2.4343582329140926e-22 1.2789357757530473e-14 1.2762239045944008e-14 2.7118711586456092e-17
2.039501978296691 2.5543014319039805e-22 1.3828201865849801e-14 1.37899033092711e-14 3.8298556578702256e-17
2.1016163906111602 2.684143175436381e-22 1.4973680350829052e-14 1.492023099432673e-14 5.344935650232014e-17
2.1656225393682647 2.8249494113870646e-22 1.6239134200958722e-14 1.6165395309290435e-14 7.373889166828109e-17
2.231578038680979 2.9769862320633527e-22 1.7634304592806176e-14 1.7533709268378883e-14 1.0059532442729464e-16
2.299542257339062 3.1409808316575324e-22 1.9172383781698082e-14 1.9036641042371192e-14 1.3574273932688785e-16
2.369576372248914 3.318006200497852e-22 2.0869754343442126e-14 2.068851563016112e-14 1.8123871328100715e-16
2.4417434235010123 3.5092618398853537e-22 2.2744962942178132e-14 2.2505461039543584e-14 2.3950190263454353e-16
2.5161083711144245 3.716587988900867e-22 2.482236713294307e-14 2.4509018375767608e-14 3.13348757175461e-16
2.5927381535095444 3.9426263583766342e-22 2.713399325491976e-14 2.6727979069637524e-14 4.0601418528224566e-16
2.6717017477616296 4.189789923245064e-22 2.9713215689567326e-14 2.919207224060872e-14 5.211434489586072e-16
2.753070231689431 4.46128694785167e-22 3.2602198050625915e-14 3.193940359874668e-14 6.627944518792447e-16
2.836916847834745 4.764605254728136e-22 3.5879217672224415e-14 3.504376330784536e-14 8.354543643790526e-16
2.9233170693905177 5.1152702402197775e-22 3.969300126228692e-14 3.864919817223834e-14 1.043803090048587e-15
2.967498994190263 5.321849063832351e-22 4.192012476786653e-14 4.0759466429184644e-14 1.16065833868189e-15
3.0123486681368425 5.5428462902277795e-22 4.432079140812024e-14 4.303188278389059e-14 1.2889086242296469e-15
3.0578761833420214 5.867692091216542e-22 4.762737495700931e-14 4.6197485603348556e-14 1.429889353660762e-15
3.1040917844459814 6.240518615874231e-22 5.1419123638382573e-14 4.983597590338295e-14 1.5831477349996098e-15
3.127460860933648 6.554936231468666e-22 5.4416397558925024e-14 5.2751254687735826e-14 1.6651428711891766e-15
3.1510058709225794 6.944879254258698e-22 5.808758817927783e-14 5.633702304354784e-14 1.7505651357300098e-15
3.162844764501044 7.280735671812476e-22 6.112552103839361e-14 5.933076738797214e-14 1.794753650421472e-15
3.1747281389236908 7.6586106388837e-22 6.453955477302395e-14 6.269972657674432e-14 1.8398281962796256e-15
3.1986289994194426 8.66813735250205e-22 7.35968264722013e-14 7.166391289476802e-14 1.932913577433273e-15
3.2227097969389145 1.0947983867191908e-21 9.365366577836816e-14 9.162216244012498e-14 2.0315033382431935e-15
3.2348180950136065 1.3067803199918567e-21 1.122074989525973e-13 1.1012339431525793e-13 2.0841046373393738e-15
3.240889293275058 1.4645591538639186e-21 1.2599129699732029e-13 1.2387944648671128e-13 2.111850510609032e-15
3.2469718861334385 1.6472058443388342e-21 1.419697559799798e-13 1.3982919668610698e-13 2.1405592938728163e-15
3.2714166318528037 2.604758065960724e-21 2.2618962569364257e-13 2.239304652339713e-13 2.259160459671306e-15
3.2744851364798273 2.664937740809068e-21 2.316325156247067e-13 2.293593886611919e-13 2.2731269635148207e-15
3.2775565192852394 2.726717390081999e-21 2.372246150300454e-13 2.3493745271369444e-13 2.2871623163509336e-15
3.283707930232385 2.669347186048155e-21 2.326692652583505e-13 2.303570240077431e-13 2.312241250607385e-15
3.2898708863219004 2.4840852723804674e-21 2.1692758784527188e-13 2.145925424990602e-13 2.335045346211696e-15
3.29141343181113 2.440321080069741e-21 2.1320571490694395e-13 2.1086494382681327e-13 2.3407710801307562e-15
3.292184975758714 2.4188057489404848e-21 2.113755028834106e-13 2.0903186522580186e-13 2.3436376576087157e-15
3.295272960557952 2.284226979447108e-21 1.9980211658525986e-13 1.9744733209717778e-13 2.3547844880820267e-15
3.3076538914384823 1.8149123136720537e-21 1.5934745791424513e-13 1.5694791204941213e-13 2.399545864833003e-15
3.310756385682612 1.71854426149744e-21 1.5102796840393432e-13 1.48617142064001e-13 2.4108263399333243e-15
3.313861789986515 1.6292999829203468e-21 1.4331936573437747e-13 1.4089722281321605e-13 2.4221429211614054e-15
3.3200813396944477 1.5050660616362105e-21 1.3263975761145827e-13 1.3019326500214354e-13 2.4464926093146782e-15
3.345076488085796 1.2911832631331924e-21 1.1464717918843623e-13 1.1209215147732564e-13 2.5550277111105983e-15
3.3482140837626964 1.3008136727028907e-21 1.156106239307676e-13 1.1304089251332625e-13 2.569731417441365e-15
3.3513546224236106 1.3105281740062534e-21 1.1658325589501366e-13 1.1399875557568782e-13 2.5845003193258154e-15
3.3576445397418455 1.3751235221989755e-21 1.2255918413771338e-13 1.199438021880417e-13 2.6153819496716757e-15
3.3702598118196083 1.6069109195592293e-21 1.4375554872661264e-13 1.4107539319977043e-13 2.6801555268421864e-15
3.382922481734668 1.6644810086968735e-21 1.4946528122464045e-13 1.4672219297863064e-13 2.7430882460097673e-15
3.389271646505754 1.694132668325209e-21 1.5241342713868008e-13 1.4963844572301505e-13 2.7749814156650316e-15
3.395632727569191 1.7266191347527812e-21 1.5562762624910713e-13 1.5281977698705968e-13 2.807849262047504e-15
3.421196662673239 1.8830380058727183e-21 1.7100411384953104e-13 1.680602356373702e-13 2.9438782121608947e-15
3.4276182099114902 1.8572895169584395e-21 1.689824031123652e-13 1.6600819627749063e-13 2.9742068348745873e-15
3.4340518103208963 1.7353561841734347e-21 1.5818485619201637e-13 1.5518197763301404e-13 3.0028785590023133e-15
3.4469541582030403 1.5611964588003284e-21 1.428441628703642e-13 1.3978628077123095e-13 3.057882099133266e-15
3.472904465399547 1.5181083333096484e-21 1.3994746430847943e-13 1.3676283647300815e-13 3.1846278354712582e-15
3.4990501388274233 1.4498856124344816e-21 1.3466456699103854e-13 1.313503031693714e-13 3.314263821667116e-15
3.5253949054701885 1.1922547527645122e-21 1.115697006910795e-13 1.0812959927226336e-13 3.4401014188161077e-15
3.5519380250092896 9.473801553751868e-22 8.932213516600402e-14 8.575563945937347e-14 3.5664957066305296e-15
3.578680990867387 8.55964004233013e-22 8.131074143377265e-14 7.76057263287306e-14 3.705015105042032e-15
3.605625307711299 8.249775403417498e-22 7.895727504422019e-14 7.510642624419151e-14 3.850848800028682e-15
3.660119384959845 8.1492947919859925e-22 7.917438755542833e-14 7.50174005448999e-14 4.156987010528451e-15
3.715437065384467 8.130397584322507e-22 8.018462932680772e-14 7.570527818867226e-14 4.4793511381354905e-15
3.8285932144167436 8.415583472123247e-22 8.552496208935501e-14 8.035407188844883e-14 5.170890200906196e-15
3.94519561050918 8.79082346460024e-22 9.20592713302359e-14 8.613626675172122e-14 5.923004578514649e-15
4.06534921144712 9.203380266060414e-22 9.93149565360724e-14 9.258065581100997e-14 6.7343007250624364e-15
4.189162171576248 9.636377561404815e-22 1.0715449994007363e-13 9.954876820524449e-14 7.605731734829175e-15
4.316745939156006 1.008122854108334e-21 1.155152659910422e-13 1.0698187762116502e-13 8.533388369877177e-15
4.448215356677963 1.053218184976715e-21 1.2435795944573833e-13 1.1485433343154337e-13 9.50362601419493e-15
4.58368876423945 1.098664073653161e-21 1.3367477981270993e-13 1.2315783092416815e-13 1.0516948888541743e-14
4.723288106065518 1.144374475540888e-21 1.4347691587488205e-13 1.3189789071928907e-13 1.1579025155592986e-14
4.867139040275056 1.1901351353938786e-21 1.537586165405932e-13 1.4109819229221864e-13 1.2660424248374542e-14
4.940699165968905 1.213421684730523e-21 1.591364244259321e-13 1.4592492608621612e-13 1.3211498339716013e-14
5.015371051989984 1.236313873718197e-21 1.6458916609186155e-13 1.508215175176274e-13 1.3767648574234129e-14
5.091171501069577 1.2602339508539992e-21 1.7030928879364734e-13 1.5596822324648981e-13 1.434106554715746e-14
5.129500256944802 1.272011957339301e-21 1.7319513266805164e-13 1.585661107407802e-13 1.4629021927271435e-14
5.168117569889187 1.283802147266789e-21 1.761164471365068e-13 1.6119575255448184e-13 1.4920694582024932e-14
5.20702561229733 1.2966657984246011e-21 1.7922030114712312e-13 1.6398054730122254e-13 1.523975384590061e-14
5.246226572918644 1.3094333759055178e-21 1.8234752889985312e-13 1.6678707765584392e-13 1.5560451244009218e-14
5.265937586045735 1.3157802992810655e-21 1.8391981439703767e-13 1.6819844535875132e-13 1.572136903828635e-14
5.285722656980489 1.3221022241937129e-21 1.8549783310639148e-13 1.696151912962272e-13 1.5882641810164282e-14
5.305582063971359 1.328398850769207e-21 1.870815505043363e-13 1.7103729944436579e-13 1.6044251059970546e-14
5.3255160863122235 1.33487507909831e-21 1.886999387342038e-13 1.7249241798234233e-13 1.620752075186153e-14
5.365609099470188 1.3493392435305953e-21 1.9218063067002641e-13 1.7563526984633497e-13 1.6545360823691432e-14
5.406003951863644 1.3637838873909729e-21 1.9570023492340252e-13 1.7881540649445044e-13 1.6884828428952077e-14
5.446702915881641 1.3782123035067803e-21 1.9925959509961468e-13 1.8203381959330825e-13 1.7225775506306447e-14
5.487708281020852 1.3930150671566977e-21 2.0291598648852458e-13 1.8534641017704128e-13 1.7569576311483305e-14
5.529022354014368 1.4112487888752611e-21 2.0711967744424224e-13 1.8919173323792697e-13 1.792794420631525e-14
5.570647458961463 1.429730040572018e-21 2.1141176414309426e-13 1.9312379865068994e-13 1.828796549240437e-14
5.612585937458331 1.4484863050234613e-21 2.1579770928098239e-13 1.9714821995414665e-13 1.8649489326835715e-14
5.654840148729818 1.4681282456322341e-21 2.2037065376019686e-13 2.0135641794804518e-13 1.9014235812151677e-14
5.67608639626678 1.4806463732806099e-21 2.2308469578232256e-13 2.0387947812521983e-13 1.920521765710279e-14
5.686739436050992 1.4869898504247552e-21 2.244609345532828e-13 2.0516005250891994e-13 1.9300882044362886e-14
5.6974124697621304 1.4933916843825906e-21 2.2585037892640544e-13 2.0645372003083515e-13 1.9396658895570303e-14
5.718818669136295 1.5063769178479581e-21 2.286701158020587e-13 2.0908157540570776e-13 1.9588540396350877e-14
5.740305295436557 1.5203385828681987e-21 2.316566335716555e-13 2.118742916835303e-13 1.9782341888125217e-14
5.7835210386641895 1.5550846706634349e-21 2.387348346630676e-13 2.1855200922798337e-13 2.018282543508423e-14
5.827062130521658 1.5934005428476344e-21 2.464586371258998e-13 2.25869658119843e-13 2.0588979006056822e-14
5.8489554468988025 1.6196655707071788e-21 2.514624234745456e-13 2.306536092368636e-13 2.0808814237682078e-14
5.870931020387893 1.6472063639834452e-21 2.566991450841161e-13 2.356697021921708e-13 2.102944289194517e-14
5.892989160043636 1.6761252959688478e-21 2.6218724236061974e-13 2.409363960498484e-13 2.1250846310771372e-14
5.915130176081913 1.7085096061231483e-21 2.6825706257721646e-13 2.467765502083219e-13 2.1480512368894514e-14
5.95966208400165 1.7978529223073094e-21 2.844102401856153e-13 2.624032991459467e-13 2.2006941039668667e-14
6.004529249263818 1.9235224454049745e-21 3.0658129628375866e-13 2.8398022929946646e-13 2.2601066984292164e-14
6.027089341400364 2.0099646585271106e-21 3.2156256444252094e-13 2.9861665810410043e-13 2.2945906338420418e-14
6.049734195844842 2.110550360538412e-21 3.3892331548460783e-13 3.156118006538855e-13 2.331151483072232e-14
6.095279466722835 2.398588027731339e-21 3.8807772648328827e-13 3.63862225088581e-13 2.4215501394707317e-14
6.141167624020661 2.834527367300672e-21 4.620628358124901e-13 4.3666749426403783e-13 2.53953415484522e-14
6.164241091010745 3.1118231926852245e-21 5.091713543316189e-13 4.830323365177664e-13 2.613901781385266e-14
6.187401249150058 3.422251079658974e-21 5.620689349527436e-13 5.351668613874042e-13 2.690207356533931e-14
6.1990139391386085 3.572995221840899e-21 5.879284568618869e-13 5.606382292315099e-13 2.7290227630377017e-14
6.204828454712694 3.651940012374305e-21 6.01482293672217e-13 5.739960758475713e-13 2.748621782464567e-14
6.210648424152782 3.709133236351922e-21 6.114751498928528e-13 5.838226610753664e-13 2.765248881748655e-14
6.233982942956859 3.900581871564291e-21 6.454527280137773e-13 6.172235598153814e-13 2.822916819839603e-14
6.239830258556775 3.923464461478797e-21 6.498482174196447e-13 6.21541300610239e-13 2.8306916809405473e-14
6.245683058788269 3.9232064993245835e-21 6.504149916634217e-13 6.220302244572828e-13 2.838476720613872e-14
6.257405133728602 3.912740407048549e-21 6.498973147404409e-13 6.213776132396271e-13 2.851970150081375e-14
6.269149208991335 3.868574892493391e-21 6.437675005321747e-13 6.152046471092511e-13 2.856285342292354e-14
6.280915325867298 3.765704897467851e-21 6.278250716238026e-13 5.993324792359082e-13 2.8492592387894375e-14
6.304513850009849 3.515296965527613e-21 5.882786071133451e-13 5.600290351038182e-13 2.8249572009527033e-14
6.32820103803542 3.210726397213682e-21 5.393280390152932e-13 5.114305319026982e-13 2.789750711259498e-14
6.3519772230701035 2.933273049317851e-21 4.94573516718163e-13 4.669932666021366e-13 2.7580250116026362e-14
6.375842739491607 2.6988892321467797e-21 4.567642342702349e-13 4.2946547939990343e-13 2.7298754870331507e-14
6.399797922933955 2.514015879769955e-21 4.2707456848192853e-13 3.999281969183479e-13 2.7146371563580624e-14
6.42384311029221 2.3594929063102253e-21 4.0233057198680574e-13 3.753108067438718e-13 2.701976524293386e-14
6.447978639727206 2.248012643936398e-21 3.84761644921613e-13 3.5776796454519935e-13 2.6993680376413608e-14
6.472204850670314 2.1547637047657947e-21 3.7018714989731543e-13 3.431996640503719e-13 2.6987485846943533e-14
