Dust emission spectrum from A.P. Jones, M. Kohler, N. Ysard, M. Bocchio, and L. Verstraete (2017), A&A, 602A, 46J 
inside the DustPedia framework.

lambda    nu*dP/dnu     j_nu    j_nu(carb.) j_nu(sil)
 (um)   (erg s-1 H-1) (Jy cm2 sr-1 H-1)
0.9927057738263894 7.671593241758452e-26 2.0215083929830707e-18 2.0215083929830653e-18 5.581378949551463e-33
1.0001793341362166 7.798375888561231e-26 2.0703867262214868e-18 2.0703867262214806e-18 6.726072309173784e-33
1.0077091589558085 7.924978889626912e-26 2.119838390020842e-18 2.119838390020834e-18 8.095327068053677e-33
1.0114953028030835 7.988197432685968e-26 2.144776752042663e-18 2.1447767520426534e-18 8.876972016569869e-33
1.0152956718711033 8.051352405128473e-26 2.1698554529686017e-18 2.169855452968592e-18 9.731003210224172e-33
1.0229392996569957 8.177385021025756e-26 2.2204129074637215e-18 2.2204129074637095e-18 1.1682469787379608e-32
1.0267826658714554 8.240109860471106e-26 2.2458511214194508e-18 2.245851121419438e-18 1.2794724321874037e-32
1.0306404723013447 8.302743398851744e-26 2.271424165302213e-18 2.2714241653021996e-18 1.4008411310524968e-32
1.03451277320114 8.365279592292265e-26 2.2971309396644434e-18 2.297130939664428e-18 1.5332338267697823e-32
1.0383996230291617 8.427712430377169e-26 2.3229703312924103e-18 2.3229703312923945e-18 1.6776035990429428e-32
1.0403485208654093 8.458888222339798e-26 2.3359394070023658e-18 2.3359394070023485e-18 1.7545988668285643e-32
1.0423010764483396 8.490035937303564e-26 2.34894121346956e-18 2.3489412134695414e-18 1.8349814282541668e-32
1.0462171883269815 8.552244173008506e-26 2.375042446240189e-18 2.3750424462401687e-18 2.0064821665369597e-32
1.0471985131304309 8.567777528197654e-26 2.3815879868853105e-18 2.38158798688529e-18 2.0517032013487078e-32
1.048180758391296 8.583303217927573e-26 2.3881415843067657e-18 2.388141584306745e-18 2.0979015163809275e-32
1.0501480137395462 8.61433123427076e-26 2.4012728766733454e-18 2.401272876673323e-18 2.193310933627374e-32
1.0521189612883777 8.645327490068531e-26 2.4144361772394996e-18 2.414436177239477e-18 2.2928762860147339e-32
1.0531058218030118 8.660789690185091e-26 2.4210231346490686e-18 2.4210231346490447e-18 2.3442743149186228e-32
1.0540936079674168 8.676165734761192e-26 2.427596218270806e-18 2.4275962182707814e-18 2.3967875724573782e-32
1.058054026499678 8.73758274103508e-26 2.4539662115521252e-18 2.4539662115520998e-18 2.6183478203412696e-32
1.0590464539527713 8.752914750428862e-26 2.4605780307438025e-18 2.4605780307437755e-18 2.676733417669296e-32
1.06003981227728 8.76823768385765e-26 2.467197540593512e-18 2.467197540593485e-18 2.7363663375119214e-32
1.0620293250338977 8.798855965950955e-26 2.480459556525079e-18 2.4804595565250506e-18 2.8594761766591213e-32
1.0660195594769086 8.859979702363721e-26 2.507075040630242e-18 2.507075040630211e-18 3.1218139579023556e-32
1.070024785945596 8.920948286196622e-26 2.5338114399806398e-18 2.5338114399806063e-18 3.407132318680752e-32
1.0740450607676866 8.981756097372906e-26 2.5606675196267016e-18 2.5606675196266647e-18 3.7173418561865796e-32
1.07808044048254 9.042397560721948e-26 2.587642033820727e-18 2.587642033820686e-18 4.054502871670696e-32
1.0861967418109137 9.163052245532465e-26 2.6419104432249315e-18 2.6419104432248838e-18 4.8187362451985565e-32
1.0902777775684922 9.222810938108415e-26 2.669131060926855e-18 2.6691310609268013e-18 5.250781889453603e-32
1.0943741465085532 9.282377187280868e-26 2.696463026443399e-18 2.6964630264433423e-18 5.719748230152296e-32
1.1026131145906286 9.400911177931785e-26 2.7514557718066626e-18 2.7514557718065937e-18 6.780625638732341e-32
1.1109141095355224 9.518612373606852e-26 2.806878133026137e-18 2.8068781330260555e-18 8.028106952363724e-32
1.1192775983109025 9.635330524970059e-26 2.8626869735595622e-18 2.862686973559468e-18 9.493113877349314e-32
1.1277040513999907 9.750523683072274e-26 2.918720545642519e-18 2.918720545642406e-18 1.1211358590511384e-31
1.1361939428280308 9.864748009652513e-26 2.9751433679704226e-18 2.97514336797029e-18 1.3224023931671456e-31
1.1447477501889525 9.977965402022384e-26 3.0319443477933508e-18 3.0319443477931948e-18 1.5578545685175594e-31
1.1533659546722406 1.0090200313026081e-25 3.089131163863303e-18 3.08913116386312e-18 1.8329514954567488e-31
1.1707974979042381 1.0312084871583715e-25 3.204776131467723e-18 3.2047761314674707e-18 2.5281107409757307e-31
1.1884924949847024 1.0529561429218793e-25 3.3218204872108976e-18 3.32182048721055e-18 3.469854621145746e-31
1.2064549276569216 1.0744329496069948e-25 3.4408033550022762e-18 3.4408033550018024e-18 4.7394234393315345e-31
1.2246888378427687 1.0954044377801904e-25 3.5609812641449856e-18 3.560981264144342e-18 6.442467630892848e-31
1.2431983285522175 1.1158215331933673e-25 3.682176388413549e-18 3.682176388412677e-18 8.715922408847944e-31
1.2619875648066055 1.1356765712035096e-25 3.8043386987664584e-18 3.8043386987652836e-18 1.1736364329145538e-30
1.3004222497298317 1.173370462772983e-25 4.050316638829801e-18 4.050316638827701e-18 2.0986388470762443e-30
1.3400274889804893 1.2083383719422617e-25 4.298052417162001e-18 4.2980524171583155e-18 3.685209778498596e-30
1.3808389325824078 1.240450377966953e-25 4.5466534404780444e-18 4.5466534404716866e-18 6.357789933410484e-30
1.4228933163050095 1.2698622735090562e-25 4.796212242653194e-18 4.7962122426424104e-18 1.0781579463557707e-29
1.466228494730424 1.2972809195889633e-25 5.0489970729802855e-18 5.048997072962303e-18 1.7980760200442333e-29
1.5108834753276823 1.3221734577086767e-25 5.3025996512266825e-18 5.302599651197178e-18 2.950368571576985e-29
1.5568984535646726 1.3441086171868503e-25 5.554744475675202e-18 5.554744475627521e-18 4.76801209831552e-29
1.6043148490894465 1.3631260438146728e-25 5.804904132022676e-18 5.8049041319466486e-18 7.602913850665042e-29
1.6531753430134553 1.3792831125567778e-25 6.052597179560663e-18 6.052597179441175e-18 1.1948823137177256e-28
1.7035239163302658 1.3927711470116541e-25 6.297924202348148e-18 6.297924202163014e-18 1.851343623306444e-28
1.755405889504358 1.404697362872331e-25 6.545302927972511e-18 6.545302927689571e-18 2.8293980932086e-28
1.8088679632656115 1.4147880113737753e-25 6.793094734188363e-18 6.793094733761671e-18 4.266916033034843e-28
1.8639582606462262 1.4228575580878108e-25 7.039908933130818e-18 7.039908932495578e-18 6.352378490348464e-28
1.9207263702978936 1.429040053188475e-25 7.285835029172774e-18 7.285835028238777e-18 9.339984267941471e-28
1.979223391128241 1.433647905682382e-25 7.531938280980743e-18 7.531938279623876e-18 1.3568654881257306e-27
2.039501978296691 1.4370550822866213e-25 7.77977396167854e-18 7.779773959730063e-18 1.9484779130864782e-27
2.1016163906111602 1.4403095520406677e-25 8.034867527137957e-18 8.034867524370758e-18 2.7671992992559923e-27
2.1656225393682647 1.4440189273470199e-25 8.30089808171072e-18 8.300898077822344e-18 3.88837667336064e-27
2.231578038680979 1.4482265681123014e-25 8.578631686780073e-18 8.578631681371655e-18 5.40841723918079e-27
2.299542257339062 1.4532962626740584e-25 8.870844869750712e-18 8.870844862300904e-18 7.449810092898721e-27
2.369576372248914 1.460032618091613e-25 9.183383101699044e-18 9.183383091531588e-18 1.0167451522239161e-26
2.4417434235010123 1.4693857812908678e-25 9.52369092649869e-18 9.523690912742673e-18 1.3756016231971922e-26
2.5161083711144245 1.482983072210842e-25 9.904555032812168e-18 9.904555014352142e-18 1.846002896816221e-26
2.5927381535095444 1.5034875687818795e-25 1.0347321263022429e-17 1.0347321238436376e-17 2.458605095515465e-26
2.6717017477616296 1.534078733614936e-25 1.0879402817737108e-17 1.0879402785220307e-17 3.251679910868775e-26
2.753070231689431 1.579543636785122e-25 1.1542990862955504e-17 1.1542990820224555e-17 4.2730950259454344e-26
2.836916847834745 1.650727671240843e-25 1.243058223453891e-17 1.2430582178707591e-17 5.583131533031165e-26
2.9233170693905177 1.7715166842865798e-25 1.374645144506156e-17 1.3746451372492119e-17 7.256943747834342e-26
2.967498994190263 1.8740947906426722e-25 1.4762216385365792e-17 1.4762216302878182e-17 8.248760892604708e-26
3.0123486681368425 1.9938940447888049e-25 1.594324601870679e-17 1.594324592498953e-17 9.371726764023891e-26
3.0578761833420214 2.2619483501977702e-25 1.8359971950389467e-17 1.835997184391935e-17 1.0647012056124367e-25
3.1040917844459814 2.607362087102831e-25 2.1483514717148254e-17 2.148351459627951e-17 1.208687452709996e-25
3.127460860933648 2.972765350592502e-25 2.4678681142714028e-17 2.4678681013897935e-17 1.2881609878553327e-25
3.1510058709225794 3.4596116728663156e-25 2.893649993849053e-17 2.893649980120783e-17 1.3728269433797181e-25
3.162844764501044 3.912794490668845e-25 3.284992241707758e-17 3.284992227530372e-17 1.417738572500311e-25
3.1747281389236908 4.439805348651068e-25 3.741449643960436e-17 3.741449629319523e-17 1.4640913942952067e-25
3.1986289994194426 5.9097811538344055e-25 5.017700116875636e-17 5.017700101255753e-17 1.5619884431625269e-25
3.2227097969389145 9.374879174298893e-25 8.019666557360141e-17 8.019666540643134e-17 1.6717002671231676e-25
3.2348180950136065 1.2660874954543198e-24 1.0871338445085584e-16 1.087133842774593e-16 1.7339651372160601e-25
3.240889293275058 1.51175860763276e-24 1.3005171366414612e-16 1.3005171348728486e-16 1.7686129021681836e-25
3.2469718861334385 1.7959624542177344e-24 1.5479082486915275e-16 1.5479082468857948e-16 1.805733164083588e-25
3.2714166318528037 3.311954569666525e-24 2.876005162310212e-16 2.876005160343834e-16 1.9663781864066013e-25
3.2744851364798273 3.406724828759193e-24 2.9610757131124153e-16 2.961075711127791e-16 1.9846247770680873e-25
3.2775565192852394 3.504217158514735e-24 3.04867152508731e-16 3.0486715230842437e-16 2.0030659397306856e-25
3.283707930232385 3.4104631057613395e-24 2.972674177250648e-16 2.9726741752189135e-16 2.0317343071877086e-25
3.2898708863219004 3.1131351313234433e-24 2.7186059278360164e-16 2.7186059257820554e-16 2.053960509923033e-25
3.29141343181113 3.043017729461688e-24 2.658620522451263e-16 2.658620520391714e-16 2.0595478051698601e-25
3.292184975758714 3.0085645151686588e-24 2.6291356287271954e-16 2.6291356266648497e-16 2.0623460791992086e-25
3.295272960557952 2.7910922116528794e-24 2.441377921242578e-16 2.4413779191703126e-16 2.072265011852886e-25
3.3076538914384823 2.037699700287211e-24 1.7890796419603692e-16 1.789079639848714e-16 2.1116547064129287e-25
3.310756385682612 1.884364709265465e-24 1.656004911531675e-16 1.656004909410067e-16 2.121608006188454e-25
3.313861789986515 1.7428891719563366e-24 1.533110988084435e-16 1.533110985952831e-16 2.131603979196972e-25
3.3200813396944477 1.5444856568999723e-24 1.3611376163972193e-16 1.3611376142413586e-16 2.1558608412594083e-25
3.345076488085796 1.190553393129097e-24 1.0571201787750585e-16 1.0571201764950914e-16 2.2799668935663465e-25
3.3482140837626964 1.2038256973545912e-24 1.0699075732027891e-16 1.0699075709042273e-16 2.298562181746863e-25
3.3513546224236106 1.2172447422122825e-24 1.0828485650512794e-16 1.0828485627339666e-16 2.317312657072691e-25
3.3576445397418455 1.3153132685349308e-24 1.172285387274647e-16 1.1722853849157407e-16 2.3589060730540706e-25
3.3702598118196083 1.677030919290664e-24 1.5002854053680415e-16 1.5002854029167985e-16 2.4512430542464017e-25
3.382922481734668 1.7594174402286282e-24 1.57990281127443e-16 1.5799028087387531e-16 2.5356765310215533e-25
3.389271646505754 1.8020994056525367e-24 1.6212670447563578e-16 1.6212670421773223e-16 2.579035801356818e-25
3.395632727569191 1.8480914778199415e-24 1.6657645220959677e-16 1.66576451947143e-16 2.6245376685653856e-25
3.421196662673239 2.0689286967891975e-24 1.878853837834945e-16 1.878853835016981e-16 2.817963978847901e-25
3.4276182099114902 2.0244271520584916e-24 1.8418914334959893e-16 1.841891430637834e-16 2.8581556315648343e-25
3.4340518103208963 1.8294181792143655e-24 1.6675899405165756e-16 1.6675899376228015e-16 2.8937738113232286e-25
3.4469541582030403 1.5516892011154065e-24 1.4197428114757382e-16 1.4197428085171538e-16 2.9585846017265455e-25
3.472904465399547 1.4738547146622472e-24 1.3586792559553635e-16 1.3586792528198206e-16 3.1355427453371386e-25
3.4990501388274233 1.354809172863588e-24 1.2583392031377002e-16 1.258339199818091e-16 3.319609329369303e-25
3.5253949054701885 9.311459792588212e-25 8.713546996958638e-17 8.71354696209451e-17 3.4864127418980435e-25
3.5519380250092896 5.329482508348422e-25 5.0248124184850344e-17 5.024812381959038e-17 3.652599576771477e-25
3.578680990867387 3.7505726024849513e-25 3.562788126616456e-17 3.562788088048897e-17 3.856755894538618e-25
3.605625307711299 3.111905602452223e-25 2.97835485875997e-17 2.9783548179027144e-17 4.085725462601561e-25
3.660119384959845 2.645923190282265e-25 2.5706438833862656e-17 2.5706438374144217e-17 4.597184407609753e-25
3.715437065384467 2.315886368971792e-25 2.2840025734668155e-17 2.284002521745476e-17 5.172133951219502e-25
3.8285932144167436 2.1481981277032003e-25 2.1831470633121297e-17 2.183146997757919e-17 6.5554211249649125e-25
3.94519561050918 2.1158335448694716e-25 2.2157434417961117e-17 2.2157433587040503e-17 8.309206163770192e-25
4.06534921144712 2.13911267256483e-25 2.3083462375773053e-17 2.308346132231936e-17 1.0534536967423032e-24
4.189162171576248 2.194693819324123e-25 2.440453554592384e-17 2.44045342096266e-17 1.3362972396388294e-24
4.316745939156006 2.27390386681395e-25 2.6055416653102272e-17 2.6055414957389075e-17 1.6957132036772355e-24
4.448215356677963 2.373861478795664e-25 2.802919411388611e-17 2.802919196269633e-17 2.1511897807582856e-24
4.58368876423945 2.494969280237089e-25 3.035636434949596e-17 3.035636162044336e-17 2.7290525983431536e-24
4.723288106065518 2.640061528152761e-25 3.309999426544814e-17 3.3099990802414047e-17 3.463034101838524e-24
4.867139040275056 2.8147638877462496e-25 3.636513101724792e-17 3.6365126625941275e-17 4.391306650265415e-24
4.940699165968905 2.920220282013414e-25 3.8297767384872915e-17 3.8297762439861155e-17 4.9450117702676326e-24
5.015371051989984 3.0295264656116054e-25 4.033176729859259e-17 4.033176173162883e-17 5.566963760306218e-24
5.091171501069577 3.16287525329707e-25 4.274341558303699e-17 4.274340931278638e-17 6.270250610758383e-24
5.129500256944802 3.2313566459473143e-25 4.399764009791858e-17 4.399763344444645e-17 6.653472117018463e-24
5.168117569889187 3.3027682907229556e-25 4.5308525018097064e-17 4.5308517958065993e-17 7.060031066621764e-24
5.20702561229733 3.3903387079019614e-25 4.685999468476532e-17 4.68599871877862e-17 7.496979121435569e-24
5.246226572918644 3.4801704673379837e-25 4.8463747491580506e-17 4.84637395317263e-17 7.959854205922456e-24
5.265937586045735 3.5259570945703737e-25 4.92858401026094e-17 4.9285831901151325e-17 8.20145806142302e-24
5.285722656980489 3.5723367429977363e-25 5.012174647512973e-17 5.012173802504493e-17 8.450084791720372e-24
5.305582063971359 3.61931905809631e-25 5.0971725906453e-17 5.0971717200528985e-17 8.705923999057085e-24
5.3255160863122235 3.669782728643022e-25 5.1876597810975964e-17 5.187658884075678e-17 8.970219174531203e-24
5.365609099470188 3.795352688787339e-25 5.4055588825671966e-17 5.405557929526598e-17 9.530405997292794e-24
5.406003951863644 3.9257251649508364e-25 5.633336367504275e-17 5.633335355106948e-17 1.0123973265980652e-23
5.446702915881641 4.061132176685076e-25 5.871515956672809e-17 5.871514881396976e-17 1.0752758335756469e-23
5.487708281020852 4.207436838922587e-25 6.12883677202968e-17 6.128835629901728e-17 1.1421279538591009e-23
5.529022354014368 4.410545817067292e-25 6.473067216674677e-17 6.473066001386126e-17 1.2152885499095192e-23
5.570647458961463 4.625637759296998e-25 6.839852358341969e-17 6.839851065427774e-17 1.2929141950334532e-23
5.612585937458331 4.853574089157883e-25 7.230929050784759e-17 7.230927675528992e-17 1.375255762950241e-23
5.654840148729818 5.1041021803521275e-25 7.661417438765122e-17 7.661415975685968e-17 1.4630791559596427e-23
5.67608639626678 5.274579039547752e-25 7.947055297276736e-17 7.94705378607972e-17 1.5111970164976955e-23
5.686739436050992 5.362450628786553e-25 8.094612611440797e-17 8.094611075620274e-17 1.535820523251891e-23
5.6974124697621304 5.452133619130792e-25 8.245435251282822e-17 8.245433690455161e-17 1.5608276591536147e-23
5.718818669136295 5.637108139426305e-25 8.557208728827893e-17 8.557207116812923e-17 1.6120149727146555e-23
5.740305295436557 5.840973555124026e-25 8.89999297398874e-17 8.899991308439886e-17 1.6655488552837222e-23
5.7835210386641895 6.36959755058216e-25 9.778533907480232e-17 9.778532123644275e-17 1.7838359550312873e-23
5.827062130521658 6.978487344708966e-25 1.0793949380132562e-16 1.0793947468294141e-16 1.911838421532181e-23
5.8489554468988025 7.405441035739801e-25 1.149737441743551e-16 1.1497372430950861e-16 1.9864846485675934e-23
5.870931020387893 7.863594771581817e-25 1.2254554737582743e-16 1.2254552673601627e-16 2.0639811148246477e-23
5.892989160043636 8.355459051546917e-25 1.306999406697625e-16 1.3069991922545983e-16 2.1444302674368624e-23
5.915130176081913 8.914796316606662e-25 1.3997328811007676e-16 1.3997326580331857e-16 2.230675820956662e-23
5.95966208400165 1.0478294044381612e-24 1.6576072986401273e-16 1.6576070547063683e-16 2.4393375833885312e-23
6.004529249263818 1.2731407029286408e-24 2.029199752713574e-16 2.0291994825699974e-16 2.701435760178069e-23
6.027089341400364 1.429740131931619e-24 2.2873581451288905e-16 2.287357858390284e-16 2.867386073062874e-23
6.049734195844842 1.6147910606547486e-24 2.5931167070204253e-16 2.593116401745287e-16 3.05275137898756e-23
6.095279466722835 2.1492795480415724e-24 3.4774105054210143e-16 3.477410150164888e-16 3.5525612738421446e-23
6.141167624020661 2.97178765334412e-24 4.844379512357245e-16 4.844379084864456e-16 4.274927877223875e-23
6.164241091010745 3.4970364525988495e-24 5.722017854042364e-16 5.72201737914625e-16 4.748961130219172e-23
6.187401249150058 4.095366764944994e-24 6.726211438708576e-16 6.726210911555229e-16 5.271533440079365e-23
6.1990139391386085 4.387527582375221e-24 7.219579542610688e-16 7.219578988548086e-16 5.54062603714894e-23
6.204828454712694 4.5414262760320766e-24 7.479825746850396e-16 7.479825178801091e-16 5.680493073775761e-23
6.210648424152782 4.653782221992928e-24 7.672067840196137e-16 7.672067260495414e-16 5.797007231541709e-23
6.233982942956859 5.035533109797232e-24 8.332599314006611e-16 8.332598692867895e-16 6.211387159032524e-23
6.239830258556775 5.084352519953468e-24 8.421275263901596e-16 8.421274636983978e-16 6.269176190375713e-23
6.245683058788269 5.088621001386118e-24 8.43625077284273e-16 8.436250140095616e-16 6.327471139215519e-23
6.257405133728602 5.078214837665941e-24 8.43479976522043e-16 8.434799122248477e-16 6.429719536163787e-23
6.269149208991335 5.003239902426943e-24 8.325865043476697e-16 8.325864397060001e-16 6.464166947979381e-23
6.280915325867298 4.815104436052465e-24 8.027828440495941e-16 8.02782779906746e-16 6.414284807012132e-23
6.304513850009849 4.351111872890255e-24 7.281507244137014e-16 7.281506620536589e-16 6.236004235323351e-23
6.32820103803542 3.775947389628561e-24 6.342721394263213e-16 6.342720798279747e-16 5.959834659019983e-23
6.3519772230701035 3.24848715779616e-24 5.477211601622509e-16 5.477211031722104e-16 5.699004042977626e-23
6.375842739491607 2.804756692100418e-24 4.746814087521954e-16 4.746813540489474e-16 5.470324800220112e-23
6.399797922933955 2.4491575440063628e-24 4.160566007826845e-16 4.160565476010331e-16 5.318165137108378e-23
6.42384311029221 2.1535298448393724e-24 3.672106374838847e-16 3.672105855816681e-16 5.190221656414041e-23
6.447978639727206 1.9381445263464105e-24 3.3172574810213733e-16 3.317256967670098e-16 5.133512759025302e-23
6.472204850670314 1.7587440694474047e-24 3.0215120712658674e-16 3.0215115618094886e-16 5.09456379622317e-23
6.496522083828205 1.6422083974943525e-24 2.8319046116932156e-16 2.8319040999240317e-16 5.117691840219194e-23
