Dust emission spectrum from A.P. Jones, M. Kohler, N. Ysard, M. Bocchio, and L. Verstraete (2017), A&A, 602A, 46J 
inside the DustPedia framework.

lambda    nu*dP/dnu     j_nu    j_nu(carb.) j_nu(sil)
 (um)   (erg s-1 H-1) (Jy cm2 sr-1 H-1)
0.9927057738263894 1.83932346280235e-23 4.84672179597124e-16 4.846721512463279e-16 2.835079615440939e-23
1.0001793341362166 1.870288284831242e-23 4.96541856209058e-16 4.96541822085582e-16 3.4123475871374576e-23
1.0077091589558085 1.901361723859795e-23 5.085918374911848e-16 5.085917964740554e-16 4.101712941659721e-23
1.0114953028030835 1.9169375111403922e-23 5.146847012305264e-16 5.146846562830916e-16 4.494743477024118e-23
1.0152956718711033 1.932538479095354e-23 5.208229556894907e-16 5.20822906451515e-16 4.923797555903673e-23
1.0229392996569957 1.963798254766311e-23 5.332319538980054e-16 5.332318948693207e-16 5.902868463680432e-23
1.0267826658714554 1.9794214058220895e-23 5.394935091039001e-16 5.394934445022555e-16 6.460164461971095e-23
1.0306404723013447 1.9950664835932936e-23 5.458005871703848e-16 5.458005164931299e-16 7.067725474281201e-23
1.03451277320114 2.0107329055324034e-23 5.521533043504864e-16 5.521532270519246e-16 7.729856202694989e-23
1.0383996230291617 2.0264201031300587e-23 5.585517798801976e-16 5.585516953681085e-16 8.451208911316212e-23
1.0403485208654093 2.0342713190737095e-23 5.617682151431169e-16 5.61768126786629e-16 8.835648794214692e-23
1.0423010764483396 2.042127522294789e-23 5.649961361414664e-16 5.649960437733694e-16 9.236809651962772e-23
1.0462171883269815 2.057854623730884e-23 5.714864988277296e-16 5.714863979068664e-16 1.0092086318035475e-22
1.0471985131304309 2.0617894126853113e-23 5.731162930617797e-16 5.731161898870886e-16 1.0317469097665604e-22
1.048180758391296 2.06572539090905e-23 5.747489728062266e-16 5.747488673295609e-16 1.0547666558823013e-22
1.0501480137395462 2.0736008833142823e-23 5.780229971119742e-16 5.780228868829879e-16 1.1022898642389761e-22
1.0521189612883777 2.0814810378629628e-23 5.8130858846326e-16 5.813084732773826e-16 1.151858777040478e-22
1.0531058218030118 2.0854175572462425e-23 5.829542492202697e-16 5.829541314764606e-16 1.1774380899521263e-22
1.0540936079674168 2.0893378985843917e-23 5.845979590929227e-16 5.845978387363e-16 1.203566226319203e-22
1.058054026499678 2.105029830688416e-23 5.912015064027564e-16 5.912013750292525e-16 1.313735037833018e-22
1.0590464539527713 2.108955418593507e-23 5.92859580924746e-16 5.928594466498647e-16 1.3427488141054127e-22
1.06003981227728 2.1128820339554812e-23 5.945205348773951e-16 5.945203976398958e-16 1.3723749913444405e-22
1.0620293250338977 2.1207383185886462e-23 5.978510899130972e-16 5.978509465617065e-16 1.433513905861255e-22
1.0660195594769086 2.1364629080050685e-23 6.045468513277555e-16 6.045466949580834e-16 1.5636967190891575e-22
1.070024785945596 2.1522031618608598e-23 6.112889367516461e-16 6.112887662377446e-16 1.7051390150480956e-22
1.0740450607676866 2.16795866064117e-23 6.180774968740241e-16 6.180773109977803e-16 1.8587624380208924e-22
1.07808044048254 2.1837290027489158e-23 6.24912687154109e-16 6.249124845981598e-16 2.0255594933361573e-22
1.0861967418109137 2.215288265012185e-23 6.387165592057842e-16 6.387163189027992e-16 2.403029849691871e-22
1.0902777775684922 2.2310209088432253e-23 6.456694434410744e-16 6.456691818320262e-16 2.616090482105481e-22
1.0943741465085532 2.2467660098069027e-23 6.526691764708144e-16 6.526688917598137e-16 2.8471100077707056e-22
1.1026131145906286 2.2782923951762858e-23 6.668099125631909e-16 6.668095756780244e-16 3.368851662828901e-22
1.1109141095355224 2.309865248640507e-23 6.811402757216434e-16 6.81139877619825e-16 3.9810181842095e-22
1.1192775983109025 2.3414576452158687e-23 6.956544233464936e-16 6.956539535137485e-16 4.698327452551844e-22
1.1277040513999907 2.3729527791898285e-23 7.10319389561092e-16 7.103188357883344e-16 5.537727573345098e-22
1.1361939428280308 2.404486165354574e-23 7.251772737865694e-16 7.251766219158084e-16 6.518707610676439e-22
1.1447477501889525 2.4360570603578854e-23 7.402300105748159e-16 7.402292442099571e-16 7.663648588527309e-22
1.1533659546722406 2.467676826130278e-23 7.554832559767263e-16 7.554823561536638e-16 8.998230623367083e-22
1.1707974979042381 2.5311594541242572e-23 7.866303957475567e-16 7.866291599178286e-16 1.2358297282194332e-21
1.1884924949847024 2.5948362729828588e-23 8.186077217455325e-16 8.186060329321567e-16 1.6888133755386318e-21
1.2064549276569216 2.6591434984344715e-23 8.515738347555842e-16 8.515715383034466e-16 2.2964521373396e-21
1.2246888378427687 2.723644319389498e-23 8.854123698088528e-16 8.854092623755194e-16 3.1074333334444312e-21
1.2431983285522175 2.78828098215111e-23 9.201240602837638e-16 9.201198758351036e-16 4.184448660343499e-21
1.2619875648066055 2.853141327416647e-23 9.55757672577362e-16 9.557520647662057e-16 5.607811155901143e-21
1.3004222497298317 2.983100403469215e-23 1.0297260398831863e-15 1.0297161098611532e-15 9.93002203313135e-21
1.3400274889804893 3.113886700295881e-23 1.1076076511137092e-15 1.1075903896426818e-15 1.7261471027310894e-20
1.3808389325824078 3.2459720618984455e-23 1.1897541655083726e-15 1.1897246955401976e-15 2.946996817477502e-20
1.4228933163050095 3.3805118326404414e-23 1.2768039949198821e-15 1.2767545558125152e-15 4.9439107366757436e-20
1.466228494730424 3.519988211369751e-23 1.3699739129565e-15 1.369892373522702e-15 8.153943379831879e-20
1.5108834753276823 3.6641507445816103e-23 1.469514029871069e-15 1.4693817596467606e-15 1.3227022430868991e-19
1.5568984535646726 3.812962505502304e-23 1.5757679210274177e-15 1.5755566640185499e-15 2.112570088680235e-19
1.6043148490894465 3.967495861506378e-23 1.6895673899524199e-15 1.6892345585121525e-15 3.3283144026758033e-19
1.6531753430134553 4.12893238334642e-23 1.8118661985003087e-15 1.81134955762795e-15 5.166408723587779e-19
1.7035239163302658 4.2987052973060624e-23 1.9438168423257476e-15 1.9430265167968044e-15 7.903255289431385e-19
1.755405889504358 4.480491783529945e-23 2.0877220079298112e-15 2.086529963177525e-15 1.1920447522862526e-18
1.8088679632656115 4.674732069772462e-23 2.244569331350033e-15 2.2427959537426654e-15 1.7733776073680483e-18
1.8639582606462262 4.8819007383586537e-23 2.4154305835656964e-15 2.4128274077454445e-15 2.6031758202510034e-18
1.9207263702978936 5.103282584984387e-23 2.6018637433210403e-15 2.5980918302614723e-15 3.7719130595674e-18
1.979223391128241 5.340595265184527e-23 2.8057819330417594e-15 2.8003850630856135e-15 5.396869956145949e-18
2.039501978296691 5.595566250934959e-23 3.029267364658224e-15 3.0216395955919624e-15 7.62776906626022e-18
2.1016163906111602 5.871770339491212e-23 3.275608133039559e-15 3.26495429736194e-15 1.0653835677620185e-17
2.1656225393682647 6.171594290561994e-23 3.5477218641270347e-15 3.5330117891889795e-15 1.4710074938054203e-17
2.231578038680979 6.49565063455792e-23 3.847726287227635e-15 3.82764195247294e-15 2.0084334754694263e-17
2.299542257339062 6.845572147721923e-23 4.178501667333254e-15 4.151376995153037e-15 2.7124672180217345e-17
2.369576372248914 7.223788677955695e-23 4.543653207014901e-15 4.507406026312165e-15 3.624718070273696e-17
2.4417434235010123 7.633020295392775e-23 4.94727300717105e-15 4.899331128852533e-15 4.7941878318515576e-17
2.5161083711144245 8.077447897470841e-23 5.3947700903897074e-15 5.331989610741891e-15 6.278047964781646e-17
2.5927381535095444 8.563110412190217e-23 5.893314736047485e-15 5.811893711685938e-15 8.142102436154778e-17
2.6717017477616296 9.095639527812606e-23 6.450459428169342e-15 6.345852659563884e-15 1.0460676860545651e-16
2.753070231689431 9.682593740472816e-23 7.075847002458741e-15 6.9426797788994975e-15 1.331672235592436e-16
2.836916847834745 1.0341496793640428e-22 7.787524772328851e-15 7.619502684859397e-15 1.6802208746945283e-16
2.9233170693905177 1.1108843186332066e-22 8.620137468996772e-15 8.410002522170415e-15 2.101349468263561e-16
2.967498994190263 1.156546952240266e-22 9.110102890233909e-15 8.876316211809277e-15 2.337866784246319e-16
3.0123486681368425 1.2055378247387592e-22 9.639522308068526e-15 9.379763226175386e-15 2.597590818931397e-16
3.0578761833420214 1.278723864977655e-22 1.0379253041401515e-14 1.0090929033325514e-14 2.8832400807600384e-16
3.1040917844459814 1.3632203893020577e-22 1.1232335332768954e-14 1.0912937055128616e-14 3.19398277640334e-16
3.127460860933648 1.4354309444154603e-22 1.1916360156900222e-14 1.1580328179377867e-14 3.360319775223541e-16
3.1510058709225794 1.5254162689500396e-22 1.2758717436074197e-14 1.2405350268001934e-14 3.533671680722631e-16
3.162844764501044 1.6033615179449436e-22 1.3461044682164177e-14 1.3098707704378525e-14 3.6233697778565594e-16
3.1747281389236908 1.6912660885795611e-22 1.425239713916942e-14 1.3880908812057195e-14 3.7148832711222665e-16
3.1986289994194426 1.9268771400936882e-22 1.6360151754147353e-14 1.5969759437911503e-14 3.903923162358479e-16
3.2227097969389145 2.4608255204277043e-22 2.1050938111048578e-14 2.064051754890204e-14 4.1042056214653713e-16
3.2348180950136065 2.958105159106454e-22 2.539995257536313e-14 2.497884458975043e-14 4.2110798561270626e-16
3.240889293275058 3.328385265946813e-22 2.863302417366025e-14 2.8206278836242405e-14 4.267453374178485e-16
3.2469718861334385 3.757034270887943e-22 3.238121334255441e-14 3.194863499382078e-14 4.3257834873363047e-16
3.2714166318528037 6.00746941139266e-22 5.2167119675574586e-14 5.171043884017418e-14 4.56680835400423e-16
3.2744851364798273 6.1488968563444e-22 5.344531789022188e-14 5.298579723883137e-14 4.595206513905151e-16
3.2775565192852394 6.29410963345435e-22 5.4758800460366274e-14 5.4296425856109486e-14 4.623746042567852e-16
3.283707930232385 6.15907526561315e-22 5.368456842972993e-14 5.3217091217952826e-14 4.674772117771115e-16
3.2898708863219004 5.723330102284788e-22 4.9980095584283727e-14 4.9507975800164784e-14 4.721197841189552e-16
3.29141343181113 5.620404963243483e-22 4.910429484224333e-14 4.86310093125745e-14 4.732855296688353e-16
3.292184975758714 5.569806503881587e-22 4.867363372345902e-14 4.8199764554745224e-14 4.738691687137978e-16
3.295272960557952 5.253064181100411e-22 4.5948732388938167e-14 4.547259317977887e-14 4.761392091592792e-16
3.3076538914384823 4.1489629122260625e-22 3.642747300039361e-14 3.5942216775406865e-14 4.852562249867456e-16
3.310756385682612 3.922381886021335e-22 3.44704166673031e-14 3.398286254117647e-14 4.875541261266213e-16
3.313861789986515 3.712601273148466e-22 3.265743971460492e-14 3.216758021568349e-14 4.898594989214308e-16
3.3200813396944477 3.4204058311530863e-22 3.01436469761168e-14 2.9648828359004926e-14 4.948186171118637e-16
3.345076488085796 2.9159517558896913e-22 2.5891417044168683e-14 2.5374497399337664e-14 5.169196448310134e-16
3.3482140837626964 2.9383728460724025e-22 2.611497136017926e-14 2.55950577453704e-14 5.199136148088544e-16
3.3513546224236106 2.96099385452825e-22 2.6340700726086224e-14 2.581777971307776e-14 5.229210130084692e-16
3.3576445397418455 3.112398633457053e-22 2.773954710758235e-14 2.7210338159400167e-14 5.292089481821845e-16
3.3702598118196083 3.6568069042479253e-22 3.2714089916796394e-14 3.217169189303681e-14 5.423980237595775e-16
3.382922481734668 3.7912692207691875e-22 3.404443290850354e-14 3.3489215480505856e-14 5.552174279976981e-16
3.389271646505754 3.8605584589114395e-22 3.473169229264653e-14 3.416997721476139e-14 5.617150778851534e-16
3.395632727569191 3.9363892047729343e-22 3.5480372920756297e-14 3.491196160978563e-14 5.684113109706609e-16
3.421196662673239 4.30149256996443e-22 3.9063095001961914e-14 3.846696461147551e-14 5.961303904864034e-16
3.4276182099114902 4.240606157559192e-22 3.8582451072622956e-14 3.798013486528522e-14 6.023162073377363e-16
3.4340518103208963 3.953687233815883e-22 3.603948585386616e-14 3.543131902111938e-14 6.081668327467873e-16
3.4469541582030403 3.543954600683144e-22 3.2425978507161414e-14 3.180658231301903e-14 6.193961941423888e-16
3.472904465399547 3.4417032906837443e-22 3.172748860308745e-14 3.108222474909158e-14 6.452638539958702e-16
3.4990501388274233 3.280146247277452e-22 3.046581539044404e-14 2.97940814469865e-14 6.717339434575363e-16
3.5253949054701885 2.67237485725797e-22 2.500774790516e-14 2.4310299297005884e-14 6.974486081541224e-16
3.5519380250092896 2.0949812287575864e-22 1.9752176085134355e-14 1.902888278198413e-14 7.232933031502319e-16
3.578680990867387 1.8783186312783384e-22 1.7842745699915533e-14 1.709112615598945e-14 7.516195439260886e-16
3.605625307711299 1.803682223445478e-22 1.7262752795665178e-14 1.6481301455114848e-14 7.814513405503296e-16
3.660119384959845 1.7765312287552195e-22 1.725987040597768e-14 1.6415750783537974e-14 8.441196224397143e-16
3.715437065384467 1.768672076997679e-22 1.7443220140697672e-14 1.6533045856184116e-14 9.101742845135542e-16
3.8285932144167436 1.8289884034528082e-22 1.858744130877305e-14 1.7535338828793546e-14 1.0521024799795084e-15
3.94519561050918 1.9107161834182537e-22 2.00094041556746e-14 1.8802599657234612e-14 1.2068044984399838e-15
4.06534921144712 2.0015318779159345e-22 2.159880888480063e-14 2.0224732947559873e-14 1.3740759372407548e-15
4.189162171576248 2.0975451289264625e-22 2.332426245854631e-14 2.177006759448847e-14 1.5541948640578339e-15
4.316745939156006 2.196837452840198e-22 2.5172354903943964e-14 2.3425906367116838e-14 1.7464485368271315e-15
4.448215356677963 2.2981806041425217e-22 2.7135597775047587e-14 2.5187478126822082e-14 1.948119648225499e-15
4.58368876423945 2.4010517361671094e-22 2.921366683847601e-14 2.7054268255173084e-14 2.1593985833029265e-15
4.723288106065518 2.5053287158703516e-22 3.1410770258219855e-14 2.902922348520233e-14 2.3815467730175302e-15
4.867139040275056 2.610672538077735e-22 3.372838812648806e-14 3.1119795611035164e-14 2.608592515452892e-15
4.940699165968905 2.6646831029181433e-22 3.494647792789067e-14 3.22218539663775e-14 2.724623961513168e-15
5.015371051989984 2.7180341674238036e-22 3.618490308452538e-14 3.334294527391674e-14 2.841957810608637e-15
5.091171501069577 2.7740802954293196e-22 3.74892012590901e-14 3.452606862456658e-14 2.963132634523521e-15
5.129500256944802 2.801786890771678e-22 3.814868637475943e-14 3.512460474416305e-14 3.0240816305963845e-15
5.168117569889187 2.8295937958875906e-22 3.8817352598465775e-14 3.573148718479599e-14 3.08586541366979e-15
5.20702561229733 2.8599691668533164e-22 3.95294250822135e-14 3.637607492375313e-14 3.1533501584603772e-15
5.246226572918644 2.8902013863008604e-22 4.0248025635549323e-14 3.702677529540807e-14 3.221250340141261e-15
5.265937586045735 2.9052622265482833e-22 4.060976515406428e-14 3.7354417836945846e-14 3.2553473171184154e-15
5.285722656980489 2.920285428602416e-22 4.0973126672431006e-14 3.768358927117688e-14 3.289537401254122e-15
5.305582063971359 2.9352704340489395e-22 4.133810742409452e-14 3.8014290485653556e-14 3.32381693844098e-15
5.3255160863122235 2.950701867518874e-22 4.1711563152397844e-14 3.8353104138011744e-14 3.3584590143861032e-15
5.365609099470188 2.9852110567143185e-22 4.2517087256825594e-14 3.90869517940631e-14 3.430135462762486e-15
5.406003951863644 3.0197743456235037e-22 4.333315229180173e-14 3.983091947098866e-14 3.5022328208130703e-15
5.446702915881641 3.0544013140128587e-22 4.41600156632863e-14 4.0585293740570913e-14 3.574721922715387e-15
5.487708281020852 3.090022330910756e-22 4.501135302349134e-14 4.13634643487636e-14 3.6478886747277346e-15
5.529022354014368 3.1339200194053167e-22 4.599447727941721e-14 4.227031656555402e-14 3.7241607138631986e-15
5.570647458961463 3.1785397411210656e-22 4.700052982033496e-14 4.319966203328196e-14 3.800867787052998e-15
5.612585937458331 3.2239508354344643e-22 4.803091356186472e-14 4.41529333545783e-14 3.877980207286428e-15
5.654840148729818 3.2716155401269175e-22 4.910797524499033e-14 4.5152118518782156e-14 3.955856726208189e-15
5.67608639626678 3.3019486456930758e-22 4.974950281215392e-14 4.5752883679205376e-14 3.9966191329485215e-15
5.686739436050992 3.3173344062691054e-22 5.0075121954882616e-14 4.605807612999914e-14 4.017045824883484e-15
5.6974124697621304 3.3328714753054916e-22 5.040407640423904e-14 4.636657418480603e-14 4.0375022194330096e-15
5.718818669136295 3.3644156694692385e-22 5.1072298813691905e-14 4.699379657915909e-14 4.078502234532817e-15
5.740305295436557 3.3983454241436594e-22 5.178118016222233e-14 4.766125148703794e-14 4.1199286751843995e-15
5.7835210386641895 3.4827203230857853e-22 5.346632734504909e-14 4.9260775524420753e-14 4.205551820628354e-15
5.827062130521658 3.5759205308472025e-22 5.531041798994792e-14 5.101795168006397e-14 4.292466309883957e-15
5.8489554468988025 3.6396778693406673e-22 5.6508098600346334e-14 5.216863375566534e-14 4.339464844680991e-15
5.870931020387893 3.7066042404252285e-22 5.776338414461577e-14 5.337672536194763e-14 4.3866587826681536e-15
5.892989160043636 3.776952077307784e-22 5.908082480821572e-14 5.464678025315829e-14 4.434044555057439e-15
5.915130176081913 3.8557346378767127e-22 6.053978533846655e-14 5.6056600735799195e-14 4.483184602667354e-15
5.95966208400165 4.072779877488296e-22 6.442909143496614e-14 5.983352345538103e-14 4.595567979585115e-15
6.004529249263818 4.378055771689474e-22 6.977979471430391e-14 6.505753095494967e-14 4.7222637593542594e-15
6.027089341400364 4.587957036315619e-22 7.340005824932561e-14 6.860438336710477e-14 4.795674882220828e-15
6.049734195844842 4.832342029335342e-22 7.76002986121659e-14 7.272681745475917e-14 4.873481157406744e-15
6.095279466722835 5.532081037885025e-22 8.950588459054036e-14 8.44404444284523e-14 5.0654401620880735e-15
6.141167624020661 6.591804051000013e-22 1.0745451633532386e-13 1.0213905793508072e-13 5.3154584002431515e-15
6.164241091010745 7.266110540710903e-22 1.1889156663635881e-13 1.1341876401344476e-13 5.472802622914093e-15
6.187401249150058 8.021866445760603e-22 1.317507635924573e-13 1.2611646177322846e-13 5.634301819228867e-15
6.1990139391386085 8.389143836555704e-22 1.3804150534736513e-13 1.3232504118213761e-13 5.71646416522752e-15
6.204828454712694 8.581559587940672e-22 1.413401131111e-13 1.355821569734408e-13 5.7579561376591445e-15
6.210648424152782 8.721187559123308e-22 1.437745459692253e-13 1.3798133465750308e-13 5.7932113117222394e-15
6.233982942956859 9.189497772587811e-22 1.5206414329189835e-13 1.461484223907751e-13 5.915720901123269e-15
6.239830258556775 9.246040057833979e-22 1.5314329233173073e-13 1.4721087722292722e-13 5.932415108803507e-15
6.245683058788269 9.246309064855426e-22 1.532913965749883e-13 1.473422632763909e-13 5.949133298597391e-15
6.257405133728602 9.222686441480622e-22 1.531867317906878e-13 1.4720851492592625e-13 5.978216864761592e-15
6.269149208991335 9.117197603788037e-22 1.5171880282420007e-13 1.4573076323746904e-13 5.988039586731038e-15
6.280915325867298 8.868963045096186e-22 1.478649419066409e-13 1.4189088690955467e-13 5.974054997086212e-15
6.304513850009849 8.26360654694372e-22 1.3828996516768346e-13 1.3236540650513836e-13 5.9245586625451e-15
6.32820103803542 7.525711203825162e-22 1.2641460416174856e-13 1.205624449898392e-13 5.852159171909329e-15
6.3519772230701035 6.853109021041134e-22 1.1554895067738398e-13 1.0976189145411613e-13 5.787059223267801e-15
6.375842739491607 6.285090806975452e-22 1.063698597027455e-13 1.006404076463882e-13 5.729452056357304e-15
6.399797922933955 5.83673799792585e-22 9.915300781768949e-14 9.345402352086718e-14 5.698984296822304e-15
6.42384311029221 5.462189678563527e-22 9.313890674558146e-14 8.746497788301476e-14 5.673928862566717e-15
6.447978639727206 5.19207426719277e-22 8.886564944324169e-14 8.319562921087157e-14 5.670020232370095e-15
6.472204850670314 4.966308697652792e-22 8.53208942692007e-14 7.965059342516978e-14 5.670300844030892e-15
6.496522083828205 4.82110536534283e-22 8.31375027578996e-14 7.744980221381225e-14 5.6877005440873475e-15
6.520930681187647 4.698585189729753e-22 8.132912915963631e-14 7.562145346252986e-14 5.707675697106441e-15
6.57002334288761 4.573472119672157e-22 7.975949242890139e-14 7.398822212167567e-14 5.77127030722572e-15
