Dust emission spectrum from A.P. Jones, M. Kohler, N. Ysard, M. Bocchio, and L. Verstraete (2017), A&A, 602A, 46J 
inside the DustPedia framework.

lambda    nu*dP/dnu     j_nu    j_nu(carb.) j_nu(sil)
 (um)   (erg s-1 H-1) (Jy cm2 sr-1 H-1)
0.9927057738263894 6.2307644916111546e-24 1.6418418335753346e-16 1.6418417245193594e-16 1.0905597475672108e-23
1.0001793341362166 6.3351641806766785e-24 1.6819194170091114e-16 1.6819192857119516e-16 1.312971598622779e-23
1.0077091589558085 6.439723983650615e-24 1.722550218972657e-16 1.7225500611060672e-16 1.5786658959201132e-23
1.0114953028030835 6.492055308666989e-24 1.743072754064652e-16 1.7430725810459194e-16 1.7301873249521818e-23
1.0152956718711033 6.544416379512375e-24 1.7637332031990924e-16 1.763733013636423e-16 1.895626694320337e-23
1.0229392996569957 6.649163344465595e-24 1.805453464148384e-16 1.8054532368230309e-16 2.273253534145534e-23
1.0267826658714554 6.7014269538346e-24 1.8264813812226895e-16 1.8264811323965994e-16 2.4882608998369943e-23
1.0306404723013447 6.753704380981859e-24 1.8476456033063947e-16 1.847645331035869e-16 2.722705261654689e-23
1.03451277320114 6.805992403275806e-24 1.8689459870643595e-16 1.8689456892387703e-16 2.978255896523258e-23
1.0383996230291617 6.858287836824755e-24 1.89038239024187e-16 1.890382064570138e-16 3.256717318989079e-23
1.0403485208654093 6.884437348742413e-24 1.901151555058376e-16 1.901151214544079e-16 3.4051429725641536e-23
1.0423010764483396 6.91058753767815e-24 1.9119546720902095e-16 1.9119543160862567e-16 3.56003952807337e-23
1.0462171883269815 6.962888403019997e-24 1.9336626937989563e-16 1.9336623047660586e-16 3.8903289720943565e-23
1.0471985131304309 6.975963441708165e-24 1.9391108925325027e-16 1.9391104947947377e-16 3.9773776504015466e-23
1.048180758391296 6.989038314283723e-24 1.9445675643606345e-16 1.9445671577316031e-16 4.0662903213059234e-23
1.0501480137395462 7.015187372354295e-24 1.9555063189350138e-16 1.955505893948986e-16 4.249860277246874e-23
1.0521189612883777 7.041335201475386e-24 1.9664789409125535e-16 1.9664784967774033e-16 4.441351503293544e-23
1.0531058218030118 7.054390005808773e-24 1.9719727664389484e-16 1.9719723124214352e-16 4.5401751372502914e-23
1.0540936079674168 7.067383644796266e-24 1.9774580539001875e-16 1.9774575897877874e-16 4.641124004843296e-23
1.058054026499678 7.119350308516492e-24 1.9994826513348756e-16 1.9994821446521152e-16 5.066827606515327e-23
1.0590464539527713 7.132339774506048e-24 2.0050096519093728e-16 2.0050091340139787e-16 5.1789539422522515e-23
1.06003981227728 7.145328270414027e-24 2.0105449887556892e-16 2.0105444594104075e-16 5.29345281062528e-23
1.0620293250338977 7.171302173271701e-24 2.0216406629743457e-16 2.0216401099983525e-16 5.529759935119602e-23
1.0660195594769086 7.223236382785233e-24 2.0439319565282803e-16 2.0439313532276888e-16 6.033005914483661e-23
1.070024785945596 7.275150129644946e-24 2.0663564045757003e-16 2.0663557465866082e-16 6.579890912098462e-23
1.0740450607676866 7.327040656428623e-24 2.0889138850462504e-16 2.0889131676464303e-16 7.17399820410809e-23
1.07808044048254 7.378905256820604e-24 2.1116042817083635e-16 2.1116034997896022e-16 7.819187607985713e-23
1.0861967418109137 7.48246139938531e-24 2.1573589653711254e-16 2.157358037395486e-16 9.279756393154755e-23
1.0902777775684922 7.533955144460728e-24 2.1803671161271952e-16 2.1803661056845458e-16 1.0104426495719809e-22
1.0943741465085532 7.585409292019174e-24 2.203506201449838e-16 2.2035051015696806e-16 1.0998801580323649e-22
1.1026131145906286 7.688189193149243e-24 2.2501768317830163e-16 2.250175529847398e-16 1.301935618856333e-22
1.1109141095355224 7.790782488552547e-24 2.297370262383615e-16 2.297368723269018e-16 1.5391145965149905e-22
1.1192775983109025 7.893084813414891e-24 2.345060298451342e-16 2.345058481296974e-16 1.8171543674957222e-22
1.1277040513999907 7.994680983103968e-24 2.393126810383864e-16 2.3931246677184686e-16 2.142665395402582e-22
1.1361939428280308 8.096027861659955e-24 2.4417089596158724e-16 2.441706436362458e-16 2.523253414943069e-22
1.1447477501889525 8.197111059316683e-24 2.490806847204764e-16 2.4908038795468865e-16 2.9676578771395296e-22
1.1533659546722406 8.297961496799429e-24 2.540434348286326e-16 2.54043086237401e-16 3.4859123155233126e-22
1.1707974979042381 8.499279137544356e-24 2.641394757110888e-16 2.6413899654450896e-16 4.791665798531131e-22
1.1884924949847024 8.699503168443282e-24 2.7444816242109156e-16 2.744475070518672e-16 6.553692243499794e-22
1.2064549276569216 8.900078681370692e-24 2.850193732223674e-16 2.8501848126144935e-16 8.919609180854448e-22
1.2246888378427687 9.099348771516317e-24 2.958049956137969e-16 2.9580378757366867e-16 1.2080401283594792e-21
1.2431983285522175 9.297039793787929e-24 3.0679942439231084e-16 3.0679779616255174e-16 1.62822975905856e-21
1.2619875648066055 9.493308401929347e-24 3.1801096763413597e-16 3.180087835209933e-16 2.1841131426216327e-21
1.3004222497298317 9.879652656908388e-24 3.410322895598327e-16 3.4102841467376907e-16 3.874886063685313e-21
1.3400274889804893 1.0258747253921367e-23 3.649030309357556e-16 3.648962819805665e-16 6.748955189030408e-21
1.3808389325824078 1.0631309074437729e-23 3.896720000948358e-16 3.8966045465988634e-16 1.154543494943596e-20
1.4228933163050095 1.100048908728303e-23 4.1548348617212036e-16 4.154640775720189e-16 1.940860010132958e-20
1.466228494730424 1.1374086538282712e-23 4.4267767121564974e-16 4.4264559339953144e-16 3.207781611827846e-20
1.5108834753276823 1.1750437382763216e-23 4.712533352135246e-16 4.712011877800806e-16 5.2147433444069595e-20
1.5568984535646726 1.2128859007027926e-23 5.012445549716018e-16 5.01161084319337e-16 8.347065226473803e-20
1.6043148490894465 1.2512743377959298e-23 5.328581026475541e-16 5.327263036638965e-16 1.3179898365772953e-19
1.6531753430134553 1.2906074770885823e-23 5.663469018529504e-16 5.661418518182938e-16 2.050500346566981e-19
1.7035239163302658 1.3314183795172428e-23 6.020495221920787e-16 6.017351242570544e-16 3.1439793502396715e-19
1.755405889504358 1.3750443033079963e-23 6.407132057349597e-16 6.402378832497908e-16 4.753224851687573e-19
1.8088679632656115 1.4217594906361683e-23 6.826568243071775e-16 6.819479991309711e-16 7.088251762065105e-19
1.8639582606462262 1.4719331516437762e-23 7.282721509491337e-16 7.272291038681995e-16 1.0430470809340325e-18
1.9207263702978936 1.5262696061687755e-23 7.781551353844083e-16 7.766400202666185e-16 1.5151151177899707e-18
1.979223391128241 1.585693159213387e-23 8.330736550048426e-16 8.309002978561307e-16 2.173357148712191e-18
2.039501978296691 1.6512288385510654e-23 8.93924476610292e-16 8.908447346301598e-16 3.0797419801323503e-18
2.1016163906111602 1.7245882518023318e-23 9.620736127492489e-16 9.577606695566455e-16 4.312943192603371e-18
2.1656225393682647 1.80718606142768e-23 1.038855310446658e-15 1.0328841626180854e-15 5.9711478285725814e-18
2.231578038680979 1.8999722208400843e-23 1.125456627891165e-15 1.1172813827028351e-15 8.175245188329492e-18
2.299542257339062 2.0043000500401278e-23 1.2234143356031722e-15 1.2123421216464794e-15 1.1072213956693006e-17
2.369576372248914 2.1219247880282837e-23 1.3346584179006707e-15 1.3198196362389217e-15 1.483878166174901e-17
2.4417434235010123 2.2547895617140906e-23 1.4614214431281231e-15 1.4417370631967345e-15 1.968437993138878e-17
2.5161083711144245 2.405454724984405e-23 1.6065563490908683e-15 1.580701383581285e-15 2.585496550958347e-17
2.5927381535095444 2.5772784669259245e-23 1.7737378635700144e-15 1.740102201577672e-15 3.363566199234259e-17
2.6717017477616296 2.773759636031231e-23 1.9670990633482193e-15 1.9237479669092782e-15 4.335109643894155e-17
2.753070231689431 2.999354753078066e-23 2.191868822314285e-15 2.1365020891703435e-15 5.536673314394098e-17
2.836916847834745 3.2626555295588506e-23 2.456898770750485e-15 2.3868073155154834e-15 7.009145523500148e-17
2.9233170693905177 3.5804747999489725e-23 2.7783437449016356e-15 2.690383599483355e-15 8.79601454182799e-17
2.967498994190263 3.7739599446966527e-23 2.9727425534441685e-15 2.8747007259301102e-15 9.80418275140572e-17
3.0123486681368425 3.9846071368132236e-23 3.18610570286532e-15 3.0769715965807002e-15 1.0913410628461891e-16
3.0578761833420214 4.3001628714726405e-23 3.4903922406292324e-15 3.3690367615289385e-15 1.2135547910029387e-16
3.1040917844459814 4.66963123780484e-23 3.847570382236635e-15 3.71288775415021e-15 1.3468262808642546e-16
3.127460860933648 4.98296113253904e-23 4.136650372083972e-15 3.994821128319487e-15 1.4182924376448496e-16
3.1510058709225794 5.374998765589022e-23 4.4956968052137646e-15 4.3464102240586905e-15 1.4928658115507383e-16
3.162844764501044 5.710355146432475e-23 4.794136875361457e-15 4.6409880284115545e-15 1.5314884694990138e-16
3.1747281389236908 6.091228690451328e-23 5.133113644744569e-15 4.976021844683572e-15 1.5709180006099704e-16
3.1986289994194426 7.116942314019414e-23 6.042640387399532e-15 5.877395897983058e-15 1.652444894164727e-16
3.2227097969389145 9.431361669397579e-23 8.06798406296181e-15 7.894092354164914e-15 1.738917087968959e-16
3.2348180950136065 1.1587186119449345e-22 9.94940889812118e-15 9.770900413226433e-15 1.7850848489474763e-16
3.240889293275058 1.319035847752918e-22 1.1347239666346146e-14 1.1166295914596267e-14 1.8094375174987468e-16
3.2469718861334385 1.504407001354884e-22 1.2966217647355072e-14 1.2782754062151722e-14 1.8346358520334946e-16
3.2714166318528037 2.4836434523320937e-22 2.1567238438793773e-14 2.137335475397737e-14 1.9388368481640538e-16
3.2744851364798273 2.5453629019734622e-22 2.2123924440460624e-14 2.192881080339385e-14 1.9511363706677844e-16
3.2775565192852394 2.6087792535175848e-22 2.2696398840785897e-14 2.2500048920691834e-14 1.963499200940615e-16
3.283707930232385 2.550735990417717e-22 2.223307151128355e-14 2.2034506724502e-14 1.9856478678154628e-16
3.2898708863219004 2.362146348565141e-22 2.062790336664701e-14 2.0427319244844976e-14 2.0058412180203e-16
3.29141343181113 2.3176478025643986e-22 2.0248800892795984e-14 2.0047709608865247e-14 2.0109128393073175e-16
3.292184975758714 2.295779205221209e-22 2.0062441319460003e-14 1.9861096104687012e-14 2.013452147729943e-16
3.295272960557952 2.158003971016704e-22 1.887613467873923e-14 1.8673801026706972e-14 2.0233365203225425e-16
3.3076538914384823 1.6793878337839563e-22 1.4744854621882268e-14 1.4538549047498628e-14 2.0630557438363956e-16
3.310756385682612 1.581639386527901e-22 1.3899658486934451e-14 1.3692351368456154e-14 2.0730711847829842e-16
3.313861789986515 1.4913230681927115e-22 1.3118239641500955e-14 1.2909927545063103e-14 2.0831209643785068e-16
3.3200813396944477 1.365506028212696e-22 1.2034049083680402e-14 1.182357708425883e-14 2.104719994215738e-16
3.345076488085796 1.1478483994073433e-22 1.0192014169133355e-14 9.971921181170386e-15 2.200929879629708e-16
3.3482140837626964 1.157684924884671e-22 1.0288996747940105e-14 1.006760062284901e-14 2.2139612509109676e-16
3.3513546224236106 1.1676149149422746e-22 1.0386983745600899e-14 1.0164278405911052e-14 2.227053396898432e-16
3.3576445397418455 1.2334364427172694e-22 1.0993118920939989e-14 1.0767676977611152e-14 2.2544194332883793e-16
3.3702598118196083 1.4707484858522166e-22 1.3157434743209923e-14 1.2926252255561178e-14 2.311824876487438e-16
3.382922481734668 1.52940682202472e-22 1.3733603421511825e-14 1.3496833534593751e-14 2.367698869180763e-16
3.389271646505754 1.5596806140647713e-22 1.4031738604413733e-14 1.3792135151249151e-14 2.3960345316458155e-16
3.395632727569191 1.5925054097693842e-22 1.4353937803820095e-14 1.4111414140393868e-14 2.4252366342622913e-16
3.421196662673239 1.7494429077500986e-22 1.58871957569174e-14 1.563257522214132e-14 2.546205347760821e-16
3.4276182099114902 1.723341173585532e-22 1.5679533547998988e-14 1.542220498895394e-14 2.5732855904504457e-16
3.4340518103208963 1.5995637893027033e-22 1.4580682069100634e-14 1.432078810907886e-14 2.5989396002177147e-16
3.4469541582030403 1.4237316258251172e-22 1.3026659847750913e-14 1.2761833615442415e-14 2.6482623230850125e-16
3.472904465399547 1.382229438233124e-22 1.2742141040194387e-14 1.24659650438817e-14 2.7617599631268586e-16
3.4990501388274233 1.3146486150831626e-22 1.2210383010717863e-14 1.1922573646092412e-14 2.878093646254517e-16
3.5253949054701885 1.0518197180046508e-22 9.842796671319545e-15 9.543655262931072e-15 2.991414083884718e-16
3.5519380250092896 8.035505292013219e-23 7.576140219404308e-15 7.265584528720812e-15 3.105556906834939e-16
3.578680990867387 7.115970295483278e-23 6.7596863639716566e-15 6.436616400119707e-15 3.230699638519477e-16
3.605625307711299 6.810978772967492e-23 6.5186783639559915e-15 6.1824135184731246e-15 3.3626484548286677e-16
3.660119384959845 6.732853961789172e-23 6.5412971616760886e-15 6.177244316070219e-15 3.6405284560586973e-16
3.715437065384467 6.745251847968531e-23 6.652387088526263e-15 6.258943244667184e-15 3.9344384385907963e-16
3.8285932144167436 7.110831493802968e-23 7.226517281253391e-15 6.769565524378039e-15 4.569517568753504e-16
3.94519561050918 7.587705188936592e-23 7.945997477654017e-15 7.419279595867751e-15 5.267178817862662e-16
4.06534921144712 8.123029486853149e-23 8.765674101320016e-15 8.162886396211295e-15 6.027877051087231e-16
4.189162171576248 8.70035865963052e-23 9.674616582126603e-15 8.989189008108926e-15 6.854275740176807e-16
4.316745939156006 9.311882539447012e-23 1.066997523206602e-14 9.895499680891116e-15 7.74475551174905e-16
4.448215356677963 9.952613557892676e-23 1.1751474963745387e-14 1.0882608136702523e-14 8.688668270428654e-16
4.58368876423945 1.062066427866274e-22 1.2922193352461864e-14 1.1953345638145245e-14 9.688477143166183e-16
4.723288106065518 1.1315859967971528e-22 1.4187354955721284e-14 1.3112187757166835e-14 1.0751671985544493e-15
4.867139040275056 1.2037064863741858e-22 1.5551195705568373e-14 1.4365901026485802e-14 1.1852946790825738e-15
4.940699165968905 1.2411771927857806e-22 1.6277647171173598e-14 1.5035500282412457e-14 1.2421468887611354e-15
5.015371051989984 1.2789081280551446e-22 1.7025969438621678e-14 1.5725924305948508e-14 1.3000451326731682e-15
5.091171501069577 1.3184153413772134e-22 1.7817198066472357e-14 1.6457006880187764e-14 1.360191186284596e-15
5.129500256944802 1.3382454827660297e-22 1.8221338454624146e-14 1.6830722138030153e-14 1.3906163165939905e-15
5.168117569889187 1.3582663206262653e-22 1.8633170162797833e-14 1.7211624139807973e-14 1.421546022989863e-15
5.20702561229733 1.379598023443343e-22 1.9068288337973703e-14 1.7613114218025558e-14 1.4551741199481482e-15
5.246226572918644 1.4010244499705557e-22 1.9510221068234056e-14 1.8021088820800607e-14 1.4891322474334466e-15
5.265937586045735 1.4117724553225272e-22 1.9733760119044355e-14 1.8227528147390634e-14 1.5062319716537272e-15
5.285722656980489 1.4225432870348778e-22 1.9959023774121576e-14 1.8435613327787227e-14 1.5234104463343483e-15
5.305582063971359 1.4333366823852593e-22 2.0186019340509327e-14 1.864535295839574e-14 1.5406663821135888e-15
5.3255160863122235 1.444373809796295e-22 2.0417884316332837e-14 1.8859759846704327e-14 1.5581244696285135e-15
5.365609099470188 1.4682465953694022e-22 2.0911609740105565e-14 1.9317364964326386e-14 1.5942447757791823e-15
5.406003951863644 1.4923311153300115e-22 2.141465026488183e-14 1.9783936397934128e-14 1.6307138669477018e-15
5.446702915881641 1.5166331904161623e-22 2.192722519368182e-14 2.0259703500771317e-14 1.6675216929105023e-15
5.487708281020852 1.5415845662285194e-22 2.2455762352250037e-14 2.0750958562850174e-14 1.70480378939986e-15
5.529022354014368 1.5705860412770818e-22 2.3050455513729512e-14 2.130676720622326e-14 1.7436883075062492e-15
5.570647458961463 1.6001737793562795e-22 2.3661499166226197e-14 2.1878552238504928e-14 1.7829469277212657e-15
5.612585937458331 1.6303867185239447e-22 2.4289751161569076e-14 2.2467181549009193e-14 1.822569612559879e-15
5.654840148729818 1.6619201620780021e-22 2.494594281555185e-14 2.3083214916938768e-14 1.8627278986130778e-15
5.67608639626678 1.6808611654317943e-22 2.532504779732489e-14 2.3441318836403878e-14 1.883728960921009e-15
5.686739436050992 1.6904690695888353e-22 2.5517609759403608e-14 2.362334114559936e-14 1.894268613804251e-15
5.6974124697621304 1.7001714225961594e-22 2.5712233705917423e-14 2.3807399560977625e-14 1.9048341449398007e-15
5.718818669136295 1.7198683589418358e-22 2.6107841413646845e-14 2.418179918697027e-14 1.926042226676584e-15
5.740305295436557 1.74079109249564e-22 2.6524736580603128e-14 2.4577234647477635e-14 1.9475019331254912e-15
5.7835210386641895 1.7908331473563312e-22 2.749266733886965e-14 2.550077174267395e-14 1.9918955961957048e-15
5.827062130521658 1.8456291866383597e-22 2.8547200891858196e-14 2.6510091464267982e-14 2.037109427590216e-15
5.8489554468988025 1.8814836474499902e-22 2.921111902804277e-14 2.714963268207424e-14 2.061486345968527e-15
5.870931020387893 1.9190730199715858e-22 2.990665980608424e-14 2.782064669777621e-14 2.086013108308041e-15
5.892989160043636 1.9585332150547294e-22 3.063627903963225e-14 2.852559027343483e-14 2.1106887661974134e-15
5.915130176081913 2.0023002686785993e-22 3.1438581705848264e-14 2.9302324356520754e-14 2.1362573493275054e-15
5.95966208400165 2.1195537779116525e-22 3.353015096966537e-14 3.133584642147611e-14 2.1943045481892674e-15
6.004529249263818 2.2814151605114947e-22 3.6362415158809056e-14 3.4102899231333325e-14 2.259515927475742e-15
6.027089341400364 2.3911737136335063e-22 3.825499857032263e-14 3.5957910903745297e-14 2.2970876665773377e-15
6.049734195844842 2.5185911651942226e-22 4.044486613624835e-14 3.8107999232189547e-14 2.3368669040588004e-15
6.095279466722835 2.880066640017187e-22 4.6597819252661735e-14 4.4163543730471646e-14 2.434275522190089e-15
6.141167624020661 3.4247194044005085e-22 5.5827139935724754e-14 5.326689492089149e-14 2.560245014833252e-15
6.164241091010745 3.7708613252876276e-22 6.170063172312254e-14 5.906154478065992e-14 2.6390869424626192e-15
6.187401249150058 4.1594876745284593e-22 6.831523324128072e-14 6.559511776935096e-14 2.7201154719297543e-15
6.1990139391386085 4.348920772718742e-22 7.156052891673832e-14 6.879916932031782e-14 2.7613595964205192e-15
6.204828454712694 4.448213158858408e-22 7.326301758701686e-14 7.048081862192117e-14 2.7821989650956947e-15
6.210648424152782 4.520931941683163e-22 7.453055365072384e-14 7.17305480074437e-14 2.800005643280162e-15
6.233982942956859 4.766926192717219e-22 7.888119302815009e-14 7.601888439515671e-14 2.862308632993399e-15
6.239830258556775 4.797984627179265e-22 7.946960620624837e-14 7.659848664736326e-14 2.8711195588851116e-15
6.245683058788269 4.8006042392791225e-22 7.958757630544467e-14 7.670762903793378e-14 2.8799472675109023e-15
6.257405133728602 4.79362296736064e-22 7.96209911793192e-14 7.672549498324838e-14 2.8954961960708094e-15
6.269149208991335 4.7451943479550195e-22 7.89645280190895e-14 7.606284833369346e-14 2.901679685396033e-15
6.280915325867298 4.624345296058675e-22 7.709791382387571e-14 7.420164038942405e-14 2.8962734344516437e-15
6.304513850009849 4.326712178904523e-22 7.240674796316308e-14 6.953178468137006e-14 2.874963281793039e-15
6.32820103803542 3.9606893771314874e-22 6.653045356872444e-14 6.368797030218442e-14 2.8424832665400172e-15
6.3519772230701035 3.626684709041232e-22 6.11488320528372e-14 5.833528358251616e-14 2.8135484703210372e-15
6.375842739491607 3.344864651860347e-22 5.660901245025519e-14 5.3820772335807704e-14 2.7882401144475016e-15
6.399797922933955 3.123292003608558e-22 5.3057683343123486e-14 5.028146555075139e-14 2.7762177923720874e-15
6.42384311029221 2.9387498945200164e-22 5.011029797234527e-14 4.734345992702397e-14 2.766838045321294e-15
6.447978639727206 2.807151553648191e-22 4.804618213510804e-14 4.527833823555874e-14 2.7678438995493053e-15
6.472204850670314 2.697884859928214e-22 4.634950481294173e-14 4.357858411386042e-14 2.7709206990813115e-15
