Dust emission spectrum from A.P. Jones, M. Kohler, N. Ysard, M. Bocchio, and L. Verstraete (2017), A&A, 602A, 46J 
inside the DustPedia framework.

lambda    nu*dP/dnu     j_nu    j_nu(carb.) j_nu(sil)
 (um)   (erg s-1 H-1) (Jy cm2 sr-1 H-1)
0.9927057738263894 3.1524619494841335e-24 8.306916293154793e-17 8.306916292729795e-17 4.249998300817236e-27
1.0001793341362166 3.2044845856070904e-24 8.507569326266889e-17 8.50756932575502e-17 5.118685781963387e-27
1.0077091589558085 3.2564332810119445e-24 8.710574980415664e-17 8.710574979799968e-17 6.156943958564772e-27
1.0114953028030835 3.2823735309521478e-24 8.81294998030516e-17 8.812949979630231e-17 6.749271296590951e-27
1.0152956718711033 3.3082876722826254e-24 8.915900937485684e-17 8.915900936746068e-17 7.396175513720633e-27
1.0229392996569957 3.360002096161483e-24 9.123444724981623e-17 9.123444724094285e-17 8.873374742378032e-27
1.0267826658714554 3.3857396192284885e-24 9.227871047151103e-17 9.227871046179626e-17 9.714770478544852e-27
1.0306404723013447 3.411439701795588e-24 9.332850848072124e-17 9.332850847008876e-17 1.0632480884926631e-26
1.03451277320114 3.43709987602617e-24 9.438379651065564e-17 9.438379649902256e-17 1.1633086827605085e-26
1.0383996230291617 3.46271768800087e-24 9.544452923991721e-17 9.544452922719349e-17 1.2723704992348662e-26
1.0403485208654093 3.475509945214721e-24 9.59769230549075e-17 9.597692304160232e-17 1.3305149129305903e-26
1.0423010764483396 3.4882906981911815e-24 9.651066080347027e-17 9.651066078955823e-17 1.3912028731448233e-26
1.0462171883269815 3.513816481922716e-24 9.758214480362595e-17 9.758214478841958e-17 1.5206371794328277e-26
1.0471985131304309 3.520190266030968e-24 9.785084663482815e-17 9.785084661928065e-17 1.554756017304593e-26
1.048180758391296 3.526560910329026e-24 9.811987932521081e-17 9.811987930931476e-17 1.58960797098546e-26
1.0501480137395462 3.539292629828044e-24 9.865893432103924e-17 9.865893430442352e-17 1.6615715127643462e-26
1.0521189612883777 3.552011341713144e-24 9.91993038464902e-17 9.91993038291237e-17 1.7366513128917775e-26
1.0531058218030118 3.55835595688147e-24 9.94697065867934e-17 9.946970656903938e-17 1.7754022442075227e-26
1.0540936079674168 3.564665199596775e-24 9.973953959030573e-17 9.973953957215582e-17 1.8149893120729753e-26
1.058054026499678 3.5898664747321086e-24 1.0082206136491185e-16 1.0082206134509225e-16 1.981959918950908e-26
1.0590464539527713 3.596157686332281e-24 1.0109348543176571e-16 1.0109348541150623e-16 2.0259464615609572e-26
1.06003981227728 3.6024451819953195e-24 1.013652254147322e-16 1.013652253940235e-16 2.070867074423905e-26
1.0620293250338977 3.615008879930672e-24 1.0190965004821445e-16 1.0190965002657858e-16 2.1635863497015828e-26
1.0660195594769086 3.6400900870694164e-24 1.030022563200976e-16 1.0300225629648671e-16 2.3610885033456902e-26
1.070024785945596 3.665107785890272e-24 1.0409983040726937e-16 1.0409983038151157e-16 2.5757818772692025e-26
1.0740450607676866 3.690059684383571e-24 1.0520232209432556e-16 1.0520232206623473e-16 2.8090845573475105e-26
1.07808044048254 3.714943509161042e-24 1.0630968073479715e-16 1.0630968070417188e-16 3.062524679308371e-26
1.0861967418109137 3.764453943505873e-24 1.085375257053281e-16 1.085375256689628e-16 3.636528810541965e-26
1.0902777775684922 3.788976057198489e-24 1.0965500378619786e-16 1.0965500374659008e-16 3.9607748915581466e-26
1.0943741465085532 3.813419450272124e-24 1.1077706006246732e-16 1.1077706001934193e-16 4.312539091940623e-26
1.1026131145906286 3.862061446146512e-24 1.1303469478593251e-16 1.1303469473485626e-16 5.107624015267984e-26
1.1109141095355224 3.910362886044941e-24 1.153100015656742e-16 1.1531000150525896e-16 6.04152302458856e-26
1.1192775983109025 3.958262208769095e-24 1.1760121392422704e-16 1.1760121385285677e-16 7.137030211239018e-26
1.1277040513999907 4.005537002417363e-24 1.1990169477341546e-16 1.199016946892111e-16 8.420431302730078e-26
1.1361939428280308 4.052415820047231e-24 1.2221820607556135e-16 1.222182059763414e-16 9.921994463831071e-26
1.1447477501889525 4.0988831651717094e-24 1.24550298023571e-16 1.2455029790680573e-16 1.1676529930508793e-25
1.1533659546722406 4.1449492086750195e-24 1.2689829117285873e-16 1.2689829103561836e-16 1.3724037097153778e-25
1.1707974979042381 4.236026533298763e-24 1.3164667373509439e-16 1.3164667354621123e-16 1.8888318190021506e-25
1.1884924949847024 4.325304282769709e-24 1.364528283206135e-16 1.3645282806194279e-16 2.586707065482978e-25
1.2064549276569216 4.413481340168798e-24 1.413389398384277e-16 1.413389394859157e-16 3.525120129619674e-25
1.2246888378427687 4.499596578552666e-24 1.4627454992703054e-16 1.4627454944896422e-16 4.780662448196851e-25
1.2431983285522175 4.5834497259153795e-24 1.51252416772651e-16 1.5125241612742425e-16 6.452267237174018e-25
1.2619875648066055 4.665011085428639e-24 1.5627056727659158e-16 1.562705664098843e-16 8.667073286754272e-25
1.3004222497298317 4.819909905842376e-24 1.6637679154764088e-16 1.663767900056259e-16 1.542015026748965e-24
1.3400274889804893 4.963699915510385e-24 1.7655851138480307e-16 1.765585086911739e-16 2.693629169001763e-24
1.3808389325824078 5.095862398790123e-24 1.8677990445401812e-16 1.8677989983211481e-16 4.6219033028714944e-24
1.4228933163050095 5.2170522044784094e-24 1.9704569681037723e-16 1.9704568901654955e-16 7.793827641119797e-24
1.466228494730424 5.3301867444385386e-24 2.0745003541434544e-16 2.07450022491931e-16 1.2922414418738497e-23
1.5108834753276823 5.4330967371801386e-24 2.1789528972680385e-16 2.1789526865070562e-16 2.1076098274029085e-23
1.5568984535646726 5.524030611120395e-24 2.2828942637688725e-16 2.2828939252813e-16 3.3848757274713834e-23
1.6043148490894465 5.603170169216527e-24 2.386123118643411e-16 2.3861225823544534e-16 5.362889579155854e-23
1.6531753430134553 5.670771028061869e-24 2.4884588535820773e-16 2.48845801632483e-16 8.372572465554533e-23
1.7035239163302658 5.72763775086332e-24 2.589960920057972e-16 2.5899596317276415e-16 1.2883303303049924e-22
1.755405889504358 5.778334723571921e-24 2.6924626033086657e-16 2.6924606484221387e-16 1.9548865268429426e-22
1.8088679632656115 5.821758263571109e-24 2.795313155472753e-16 2.7953102293242273e-16 2.9261485259974396e-22
1.8639582606462262 5.857164298304048e-24 2.897964243297841e-16 2.897959920900274e-16 4.322397567329297e-22
1.9207263702978936 5.885119914358631e-24 3.000476629556109e-16 3.0004703262102897e-16 6.303345820138964e-22
1.979223391128241 5.906923085866707e-24 3.1033128801643866e-16 3.10330380187621e-16 9.078288176556594e-22
2.039501978296691 5.924120856144295e-24 3.207136716647848e-16 3.2071237991280765e-16 1.2917519772329155e-21
2.1016163906111602 5.9410273988164086e-24 3.3142436677555977e-16 3.3142255010144826e-16 1.8166741116205803e-21
2.1656225393682647 5.96014568589086e-24 3.4261712886010103e-16 3.4261460277284206e-16 2.526087259003202e-21
2.231578038680979 5.981654589270411e-24 3.5432585431556223e-16 3.54322380317662e-16 3.473997900104977e-21
2.299542257339062 6.007048378390616e-24 3.666671115753219e-16 3.6666238490940577e-16 4.726665916112997e-21
2.369576372248914 6.0396236763181096e-24 3.798831431740038e-16 3.798767786420209e-16 6.364531982841274e-21
2.4417434235010123 6.083270571093566e-24 3.9428167523483005e-16 3.9427319131165935e-16 8.483923170765085e-21
2.5161083711144245 6.1446530084650866e-24 4.103894037653895e-16 4.103782045466893e-16 1.119921870009393e-20
2.5927381535095444 6.23467530408443e-24 4.290836165294083e-16 4.2906897191574183e-16 1.4644613666362706e-20
2.6717017477616296 6.366334687212108e-24 4.514886884032518e-16 4.51469713444503e-16 1.8974958748672682e-20
2.753070231689431 6.55919618973566e-24 4.7933301697540305e-16 4.793086498229054e-16 2.4367152497698088e-20
2.836916847834745 6.85762467904518e-24 5.164041833889957e-16 5.163731612263821e-16 3.1022162613638895e-20
2.9233170693905177 7.359339915566083e-24 5.710632573453486e-16 5.710240984457012e-16 3.9158899647515936e-20
2.967498994190263 7.782919686466226e-24 6.130594092422512e-16 6.130156243392835e-16 4.378490296768897e-20
3.0123486681368425 8.277012806091849e-24 6.61832818109884e-16 6.617839259103991e-16 4.889219948497741e-20
3.0578761833420214 9.377944769063149e-24 7.611968809864594e-16 7.611423432480589e-16 5.453773840036625e-20
3.1040917844459814 1.0795351537332665e-23 8.894893991757604e-16 8.894286790827533e-16 6.072009300710697e-20
3.127460860933648 1.2292693266319395e-23 1.02048907911356e-15 1.0204250334191091e-15 6.404569445082455e-20
3.1510058709225794 1.428692293332268e-23 1.1949709495539838e-15 1.1949034260468809e-15 6.752350710308288e-20
3.162844764501044 1.6142602604191894e-23 1.3552545231343669e-15 1.3551851954716739e-15 6.93276626932096e-20
3.1747281389236908 1.8300218472451896e-23 1.5421699942083307e-15 1.5420988226307257e-15 7.117157760541222e-20
3.1986289994194426 2.4317194605222597e-23 2.0646515841546167e-15 2.0645765936270802e-15 7.499052753674751e-20
3.2227097969389145 3.8498235606550244e-23 3.2933012454991114e-15 3.2932221962939018e-15 7.904920520944196e-20
3.2348180950136065 5.194520100973348e-23 4.46030675448835e-15 4.460225536215068e-15 8.121827328175438e-20
3.240889293275058 6.199842704163345e-23 5.3335245723334765e-15 5.333442209841109e-15 8.236249236686599e-20
3.2469718861334385 7.362860647894545e-23 6.345919261327991e-15 6.3458357148144605e-15 8.354651353102562e-20
3.2714166318528037 1.3565966570160158e-22 1.1780291385892047e-14 1.1780202936542641e-14 8.844934940814683e-20
3.2744851364798273 1.3953750034730307e-22 1.2128396748066803e-14 1.2128307718201249e-14 8.902986555557173e-20
3.2775565192852394 1.435266682539386e-22 1.2486830775690221e-14 1.2486741162146833e-14 8.961354338822146e-20
3.283707930232385 1.3969079877945312e-22 1.2175919148038885e-14 1.2175828485213265e-14 9.066282562364842e-20
3.2898708863219004 1.275252428701505e-22 1.1136390377893265e-14 1.1136298755098635e-14 9.162279463155405e-20
3.29141343181113 1.246562631643381e-22 1.0890955261027086e-14 1.0890863397041652e-14 9.186398543317253e-20
3.292184975758714 1.232465424371134e-22 1.0770315019177443e-14 1.0770223034416459e-14 9.198476098206526e-20
3.295272960557952 1.1434883841807197e-22 1.0002132078190739e-14 1.0002039622683065e-14 9.245550767612302e-20
3.3076538914384823 8.35230246536851e-23 7.33323673855378e-15 7.333142389632772e-15 9.434892100701915e-20
3.310756385682612 7.72487788181971e-23 6.788726009553849e-15 6.788631182826162e-15 9.482672768809503e-20
3.313861789986515 7.145964941384738e-23 6.285860023908363e-15 6.285764717585985e-15 9.530632237563147e-20
3.3200813396944477 6.33413048259486e-23 5.582197043081062e-15 5.5821007075034544e-15 9.633557760819993e-20
3.345076488085796 4.886132171592992e-23 4.3385109349672475e-15 4.338410018214076e-15 1.0091675317162467e-19
3.3482140837626964 4.94047169825449e-23 4.3908749387657894e-15 4.390773401611263e-15 1.0153715452532506e-19
3.3513546224236106 4.995411275836349e-23 4.443867156944362e-15 4.443764996298271e-15 1.0216064609126208e-19
3.3576445397418455 5.396762429925076e-23 4.809915543725062e-15 4.809812080370608e-15 1.0346335445409782e-19
3.3702598118196083 6.876913774510043e-23 6.152142605835676e-15 6.152036409303167e-15 1.0619653250999295e-19
3.382922481734668 7.214170313147169e-23 6.478103318830731e-15 6.477994455642992e-15 1.0886318774034888e-19
3.389271646505754 7.38888677526243e-23 6.647446077943383e-15 6.6473358610980585e-15 1.102168453218701e-19
3.395632727569191 7.577176640707369e-23 6.829635966198841e-15 6.829524354220981e-15 1.1161197786033678e-19
3.421196662673239 8.481324001229938e-23 7.702135010434402e-15 7.702017611691016e-15 1.1739874338725122e-19
3.4276182099114902 8.299296443116587e-23 7.550977078664724e-15 7.550858377527076e-15 1.1870113764903898e-19
3.4340518103208963 7.501375013413651e-23 6.837811963682909e-15 6.837692025379275e-15 1.1993830363366953e-19
3.4469541582030403 6.364943446586175e-23 5.823706639992423e-15 5.8235843161989036e-15 1.2232379352181853e-19
3.472904465399547 6.046569073999403e-23 5.574055494626465e-15 5.57392769058791e-15 1.2780403855321322e-19
3.4990501388274233 5.559598065852934e-23 5.163723674209042e-15 5.163590236408672e-15 1.3343780036987969e-19
3.5253949054701885 3.826297521652293e-23 3.580601111095627e-15 3.5804621595797495e-15 1.389515158776495e-19
3.5519380250092896 2.1970447630970956e-23 2.071446485148321e-15 2.071301958576912e-15 1.445265714090116e-19
3.578680990867387 1.5511498858657622e-23 1.4734865797034473e-15 1.4733359363618575e-15 1.5064334158971088e-19
3.605625307711299 1.2900261966918064e-23 1.2346633483409701e-15 1.2345062416463775e-15 1.571066945927333e-19
3.660119384959845 1.0997865034015537e-23 1.0684964168209181e-15 1.0683256376097169e-15 1.7077921120151456e-19
3.715437065384467 9.651405407511387e-24 9.51853039236747e-16 9.51667708608742e-16 1.8533062800529252e-19
3.8285932144167436 8.973246990632136e-24 9.119232329337333e-16 9.117061391180179e-16 2.1709381571550926e-19
3.94519561050918 8.84830159285119e-24 9.26611938492714e-16 9.263594561976617e-16 2.5248229505215575e-19
4.06534921144712 8.950345180307452e-24 9.658441973142358e-16 9.655525392541543e-16 2.916580600812691e-19
4.189162171576248 9.183660750260544e-24 1.0212038383124435e-15 1.0208689328601844e-15 3.349054522591184e-19
4.316745939156006 9.512486894083821e-24 1.0899836754304084e-15 1.0896013589428847e-15 3.8231648752341417e-19
4.448215356677963 9.924718595938393e-24 1.1718538193407265e-15 1.1714202831802866e-15 4.335361604400868e-19
4.58368876423945 1.0421634731421644e-23 1.2680033519063365e-15 1.2675144679704926e-15 4.888839358438397e-19
4.723288106065518 1.1014413937039337e-23 1.380941444983546e-15 1.38039247961775e-15 5.4896536579555765e-19
4.867139040275056 1.172557248219427e-23 1.514876545857091e-15 1.5142638277952233e-15 6.127180618674437e-19
4.940699165968905 1.2154047200470115e-23 1.5939649324928305e-15 1.5933186983271907e-15 6.462341656392827e-19
5.015371051989984 1.2597318291245959e-23 1.6770677387241956e-15 1.6763869342321932e-15 6.808044920028693e-19
5.091171501069577 1.3138043091804386e-23 1.775488411170982e-15 1.774771303307019e-15 7.171078639631386e-19
5.129500256944802 1.3415368081109282e-23 1.826615261902522e-15 1.8258796016447916e-15 7.356602577305526e-19
5.168117569889187 1.370439280568359e-23 1.8800163064367666e-15 1.879261684706231e-15 7.546217305352548e-19
5.20702561229733 1.4059326263563087e-23 1.9432275378457525e-15 1.942452426773726e-15 7.751110720262309e-19
5.246226572918644 1.4423172109756842e-23 2.0085250929950414e-15 2.0077291544318195e-15 7.959385632214511e-19
5.265937586045735 1.4608525898836878e-23 2.0419802404675362e-15 2.0411737613722197e-15 8.064790953158532e-19
5.285722656980489 1.4796215811839414e-23 2.0759861991341695e-15 2.0751690950051003e-15 8.171041290695938e-19
5.305582063971359 1.4986279517618088e-23 2.1105531722072156e-15 2.1097253585671857e-15 8.278136400299305e-19
5.3255160863122235 1.519051631036647e-23 2.1473541172431833e-15 2.1465154442507147e-15 8.386729924684904e-19
5.365609099470188 1.5699685934537996e-23 2.2360392752872918e-15 2.235178118985688e-15 8.611563016036012e-19
5.406003951863644 1.622808200906752e-23 2.3286970104965752e-15 2.3278129979397755e-15 8.840125567993427e-19
5.446702915881641 1.6776636048018626e-23 2.4255375587316726e-15 2.4246303164922346e-15 9.072422394371304e-19
5.487708281020852 1.7369363692619226e-23 2.530138870328045e-15 2.5292079465826273e-15 9.309237454169939e-19
5.529022354014368 1.8194381762297174e-23 2.670269417844992e-15 2.669313748612887e-15 9.556692321050057e-19
5.570647458961463 1.9067868478124492e-23 2.8195334776598603e-15 2.818552647008463e-15 9.808306513973242e-19
5.612585937458331 1.9993320484583257e-23 2.9786355221520207e-15 2.9776291128951814e-15 1.0064092568389387e-18
5.654840148729818 2.1010649901745277e-23 3.153764440231381e-15 3.1527319345004293e-15 1.0325057309521686e-18
5.67608639626678 2.1704302849726593e-23 3.270124376606315e-15 3.2690782306738878e-15 1.0461459324268185e-18
5.686739436050992 2.20618304194899e-23 3.330230581264702e-15 3.3291775711360917e-15 1.0530101286107579e-18
5.6974124697621304 2.242671995282941e-23 3.3916642582062762e-15 3.3906043544360543e-15 1.0599037702222644e-18
5.718818669136295 2.3179294920067676e-23 3.5186492774691644e-15 3.5175754979351135e-15 1.0737795340517004e-18
5.740305295436557 2.400903106206887e-23 3.6582978119672904e-15 3.65720995263299e-15 1.0878593343003742e-18
5.7835210386641895 2.61629827120869e-23 4.0165114285372444e-15 4.015394377871331e-15 1.117050665914069e-18
5.827062130521658 2.864437726042672e-23 4.4305584133342116e-15 4.429411443301157e-15 1.1469700330548377e-18
5.8489554468988025 3.038641494207315e-23 4.717666214699263e-15 4.71650317431548e-15 1.1630403837830079e-18
5.870931020387893 3.225570404236039e-23 5.026699649057083e-15 5.025520380028369e-15 1.1792690287145413e-18
5.892989160043636 3.426248721945568e-23 5.359496131995625e-15 5.358300475245078e-15 1.1956567505466425e-18
5.915130176081913 3.6545045431090455e-23 5.7380224869444605e-15 5.736809860987736e-15 1.2126259567233167e-18
5.95966208400165 4.2929819801253003e-23 6.791256508975175e-15 6.7900057741535365e-15 1.2507348216390082e-18
6.004529249263818 5.213457411006367e-23 8.309487289866205e-15 8.308193941232534e-15 1.2933486336719742e-18
6.027089341400364 5.853432672268646e-23 9.36456674947529e-15 9.363249060273529e-15 1.3176892017599473e-18
6.049734195844842 6.609705755968791e-23 1.0614214335161168e-14 1.0612870908564135e-14 1.3434265970317977e-18
6.095279466722835 8.794571201394462e-23 1.4229109616880174e-14 1.4227703924246195e-14 1.4056926339762203e-18
6.141167624020661 1.215718096342595e-22 1.9817700743512894e-14 1.9816215463200517e-14 1.4852803123752983e-18
6.164241091010745 1.4304674223250666e-22 2.340599030383891e-14 2.3404455675528777e-14 1.5346283101346312e-18
6.187401249150058 1.675081285596332e-22 2.7511457582715525e-14 2.750987210035173e-14 1.585482363796745e-18
6.1990139391386085 1.7945201772937492e-22 2.952843239740592e-14 2.9526820999778456e-14 1.6113976274748452e-18
6.204828454712694 1.8574347115600779e-22 3.059234507877891e-14 3.059072057252051e-14 1.6245062584006427e-18
6.210648424152782 1.903359426123973e-22 3.137813921006057e-14 3.137650338787937e-14 1.6358221811897928e-18
6.233982942956859 2.0593730887937838e-22 3.4077684353976465e-14 3.407600844429436e-14 1.6759096821042198e-18
6.239830258556775 2.0793085282054584e-22 3.4439841466296514e-14 3.443815952137104e-14 1.681944925469122e-18
6.245683058788269 2.0810236107877718e-22 3.45005789191809e-14 3.449889092214207e-14 1.6879970388257467e-18
6.257405133728602 2.076706195348729e-22 3.449361929124347e-14 3.449192042139762e-14 1.698869845845664e-18
6.269149208991335 2.0459817448530873e-22 3.404707393863074e-14 3.40453697320459e-14 1.7042065848336806e-18
6.280915325867298 1.968978821994891e-22 3.282716791684673e-14 3.282546524164262e-14 1.70267520409732e-18
6.304513850009849 1.779102358006847e-22 2.9772957088513e-14 2.9771263712666315e-14 1.6933758466763134e-18
6.32820103803542 1.5437707903225625e-22 2.5931791439977545e-14 2.593011399993715e-14 1.6774400403880911e-18
6.3519772230701035 1.3279554812790448e-22 2.2390401485946686e-14 2.2388737878736636e-14 1.6636072100509814e-18
6.375842739491607 1.14638377784626e-22 1.9401578331959066e-14 1.939992642019647e-14 1.6519117625931893e-18
6.399797922933955 1.0008611864411882e-22 1.7002373085598595e-14 1.7000724891059908e-14 1.6481945386874908e-18
6.42384311029221 8.798622735628174e-23 1.5003032678988547e-14 1.5001386611595345e-14 1.6460673932018643e-18
6.447978639727206 7.916804576915902e-23 1.3550113962896814e-14 1.3548463740630174e-14 1.6502222666348784e-18
6.472204850670314 7.182127049367205e-23 1.2338852453868691e-14 1.2337196795527596e-14 1.6556583410913893e-18
6.496522083828205 6.704522119739478e-23 1.1561606394814877e-14 1.1559940154691996e-14 1.6662401228782206e-18
