Dust emission spectrum from A.P. Jones, M. Kohler, N. Ysard, M. Bocchio, and L. Verstraete (2017), A&A, 602A, 46J 
inside the DustPedia framework.

lambda    nu*dP/dnu     j_nu    j_nu(carb.) j_nu(sil)
 (um)   (erg s-1 H-1) (Jy cm2 sr-1 H-1)
0.9927057738263894 7.620515006945796e-23 2.0080489879913532e-15 2.0080489638501904e-15 2.4141162558882152e-23
1.0001793341362166 7.748792882105534e-23 2.0572229598323077e-15 2.0572229307730235e-15 2.9059284113040355e-23
1.0077091589558085 7.877468345771731e-23 2.1071298798534766e-15 2.1071298449203673e-15 3.493310878861207e-23
1.0114953028030835 7.941947438160964e-23 2.1323589426588533e-15 2.132358904376589e-15 3.8282264487161695e-23
1.0152956718711033 8.006516732710366e-23 2.1577721502650738e-15 2.1577721083264667e-15 4.1938606954688606e-23
1.0229392996569957 8.135851294627157e-23 2.2091352163737957e-15 2.209135166090912e-15 5.028288390265886e-23
1.0267826658714554 8.200468349409642e-23 2.2350467834215758e-15 2.2350467283886306e-15 5.503294477492227e-23
1.0306404723013447 8.265160712253631e-23 2.261142476656055e-15 2.2611424164443e-15 6.021175522221132e-23
1.03451277320114 8.32992560765001e-23 2.2874226291332595e-15 2.2874225632771916e-15 6.585606701659653e-23
1.0383996230291617 8.394760314196166e-23 2.3138875832900157e-15 2.313887511284413e-15 7.200560255495093e-23
1.0403485208654093 8.427203011371633e-23 2.3271894707253682e-15 2.3271893954422587e-15 7.528310967672266e-23
1.0423010764483396 8.459662166077449e-23 2.3405376915565326e-15 2.3405376128532535e-15 7.870327931192191e-23
1.0462171883269815 8.524628554537566e-23 2.367373316977643e-15 2.3673732309821932e-15 8.599544996532977e-23
1.0471985131304309 8.540879935330387e-23 2.3741112539941972e-15 2.3741111660770354e-15 8.791716194319104e-23
1.048180758391296 8.557135150709476e-23 2.380860815129936e-15 2.380860725249978e-15 8.987995786493876e-23
1.0501480137395462 8.589656929337271e-23 2.394394833842599e-15 2.3943947399104396e-15 9.393215918907375e-23
1.0521189612883777 8.622193581021646e-23 2.4079754217634427e-15 2.407975323604511e-15 9.815893143008368e-23
1.0531058218030118 8.638445312902365e-23 2.4147770235823017e-15 2.4147769232421536e-15 1.0034014848031174e-22
1.0540936079674168 8.654628323850985e-23 2.4215700381728988e-15 2.4215699356046986e-15 1.0256820034963029e-22
1.058054026499678 8.719392701065507e-23 2.4488575053120708e-15 2.4488573933489396e-15 1.1196313187010885e-22
1.0590464539527713 8.7355916956494e-23 2.45570825544825e-15 2.4557081410107917e-15 1.144374583306011e-22
1.06003981227728 8.751793777998886e-23 2.462570571577015e-15 2.4625704546129624e-15 1.169640530071229e-22
1.0620293250338977 8.784207063340765e-23 2.4763299275582386e-15 2.4763298053799744e-15 1.2217826371752225e-22
1.0660195594769086 8.84906913247076e-23 2.503987717817257e-15 2.5039875845358358e-15 1.3328142034118043e-22
1.070024785945596 8.913976696663714e-23 2.5318313037051433e-15 2.5318311583594444e-15 1.4534569935689424e-22
1.0740450607676866 8.97892761190751e-23 2.5598611282281316e-15 2.5598609697782788e-15 1.58449853410814e-22
1.07808044048254 9.043919803319011e-23 2.5880776504703355e-15 2.5880774777916376e-15 1.7267869747786456e-22
1.0861967418109137 9.173918265336464e-23 2.6450433568466428e-15 2.6450431519639575e-15 2.0488268545985083e-22
1.0902777775684922 9.238689250739772e-23 2.6737263299531713e-15 2.6737261068912842e-15 2.2306188586870607e-22
1.0943741465085532 9.303489890627134e-23 2.7025961131315243e-15 2.702595870356728e-15 2.4277479642968903e-22
1.1026131145906286 9.433173454595612e-23 2.7608982849480155e-15 2.760897997648179e-15 2.8729983717000506e-22
1.1109141095355224 9.562956381386212e-23 2.8199544324783284e-15 2.8199540929291857e-15 3.395491426541343e-22
1.1192775983109025 9.692722933143234e-23 2.8797384383570366e-15 2.8797380375756384e-15 4.0078139798377926e-22
1.1277040513999907 9.821983048528713e-23 2.9401111832036976e-15 2.9401107107574073e-15 4.724462890050978e-22
1.1361939428280308 9.951297073551755e-23 3.0012459985912896e-15 3.0012454423801456e-15 5.562111438361167e-22
1.1447477501889525 1.0080657930296916e-22 3.0631489088554156e-15 3.06314825486435e-15 6.53991065496958e-22
1.1533659546722406 1.021010977512616e-22 3.1258416398423817e-15 3.1258408718585143e-15 7.679838673913772e-22
1.1707974979042381 1.0469679048308965e-22 3.2537530417935028e-15 3.25375198674334e-15 1.0550501628148617e-21
1.1884924949847024 1.0729551565908948e-22 3.3849125103462563e-15 3.3849110681707087e-15 1.4421755477142789e-21
1.2064549276569216 1.0991516007685109e-22 3.5199632671017577e-15 3.5199613054666146e-15 1.961635142342677e-21
1.2246888378427687 1.1253701511203027e-22 3.658394913469904e-15 3.658392258318811e-15 2.6551510933946526e-21
1.2431983285522175 1.151583224456846e-22 3.800188858385569e-15 3.800185281917298e-15 3.576468271957086e-21
1.2619875648066055 1.1778216630565384e-22 3.9455181577471385e-15 3.945513363281292e-15 4.794465846132039e-21
1.3004222497298317 1.2301738894573722e-22 4.24639440927121e-15 4.2463859142547425e-15 8.495016467733321e-21
1.3400274889804893 1.282532608530517e-22 4.561960876342237e-15 4.561946100026786e-15 1.4776315452099538e-20
1.3808389325824078 1.3350392280671303e-22 4.893352291458032e-15 4.893327047982946e-15 2.524347508580215e-20
1.4228933163050095 1.3881106968167965e-22 5.242831177142688e-15 5.242788800384411e-15 4.237675827734536e-20
1.466228494730424 1.4427040513464666e-22 5.6149816299873365e-15 5.614911691092078e-15 6.993889525956121e-20
1.5108834753276823 1.498619077493416e-22 6.010237878628751e-15 6.010124347921706e-15 1.1353070704611284e-19
1.5568984535646726 1.5557274360644262e-22 6.429293191514373e-15 6.429111736884924e-15 1.814546294505437e-19
1.6043148490894465 1.6143395756443796e-22 6.8747028315305706e-15 6.8744167493211694e-15 2.860822094031747e-19
1.6531753430134553 1.674782114270243e-22 7.349311688751237e-15 7.348867292502602e-15 4.4439624863629e-19
1.7035239163302658 1.7374555838726628e-22 7.856540965581197e-15 7.855860652929802e-15 6.803126513967283e-19
1.755405889504358 1.8036511427671727e-22 8.4042608876656e-15 8.403234002489422e-15 1.0268851761771571e-18
1.8088679632656115 1.8732664323874718e-22 8.994475663690965e-15 8.992946819155797e-15 1.5288445351676623e-18
1.8639582606462262 1.9461665888792924e-22 9.6290984832134e-15 9.626852510489619e-15 2.2459727237831127e-18
1.9207263702978936 2.0224915147096419e-22 1.0311495112539545e-14 1.0308238187244317e-14 3.2569252952277214e-18
1.979223391128241 2.1024923849177832e-22 1.1045838254055317e-14 1.1041174456842226e-14 4.6637972130908445e-18
2.039501978296691 2.186358002360249e-22 1.1836269372921121e-14 1.1829672266530687e-14 6.597106390430962e-18
2.1016163906111602 2.2749570851839826e-22 1.2691007140429689e-14 1.2681785098536721e-14 9.222041892965445e-18
2.1656225393682647 2.368586239713902e-22 1.3615744642440277e-14 1.3603000568179884e-14 1.2744074260389926e-17
2.231578038680979 2.466743588918202e-22 1.461186058935382e-14 1.4594445303560166e-14 1.7415285793661666e-17
2.299542257339062 2.569260402444271e-22 1.568263199008036e-14 1.5659090978298997e-14 2.3541011781361085e-17
2.369576372248914 2.6762319234643085e-22 1.6833091752630643e-14 1.6801604817613853e-14 3.1486935016787285e-17
2.4417434235010123 2.787812134048745e-22 1.8068951982438778e-14 1.8027267430689844e-14 4.1684551748939855e-17
2.5161083711144245 2.9047013328315264e-22 1.9399934324282288e-14 1.9345295991947417e-14 5.46383323348749e-17
2.5927381535095444 3.0283597951457007e-22 2.0841816288365586e-14 2.0770886071561922e-14 7.093021680366129e-17
2.6717017477616296 3.1601189530845214e-22 2.2410979494877635e-14 2.2319760346376106e-14 9.121914850153311e-17
2.753070231689431 3.3022016865097493e-22 2.4131833402589113e-14 2.4015590859582125e-14 1.1624254300698375e-16
2.836916847834745 3.4611536145235495e-22 2.6063750781717702e-14 2.5916930479047695e-14 1.4682030267001597e-16
2.9233170693905177 3.6520533329769682e-22 2.8338865934396015e-14 2.8155050367104274e-14 1.838155672917328e-16
2.967498994190263 3.7747649558238875e-22 2.973376659494309e-14 2.952914354310182e-14 2.0462305184126826e-16
3.0123486681368425 3.907683790433205e-22 3.124597527988919e-14 3.101848957254049e-14 2.274857073487051e-16
3.0578761833420214 4.14119924399139e-22 3.361363311147586e-14 3.336098884960388e-14 2.526442618719892e-16
3.1040917844459814 4.420620774302038e-22 3.6423967324452264e-14 3.614393391516942e-14 2.800334092828258e-16
3.127460860933648 4.689869380947148e-22 3.893337596601903e-14 3.863867335346308e-14 2.9470261255596017e-16
3.1510058709225794 5.036448089479704e-22 4.212530006603192e-14 4.181530368765969e-14 3.0999637837222617e-16
3.162844764501044 5.353360705831344e-22 4.494421679354048e-14 4.4626304632679116e-14 3.1791216086136085e-16
3.1747281389236908 5.714392681337653e-22 4.815551760515072e-14 4.782952785892807e-14 3.2598974622263283e-16
3.1986289994194426 6.699895651413354e-22 5.688546888295377e-14 5.6542788349325186e-14 3.426805336285846e-16
3.2227097969389145 8.996072682255695e-22 7.695619527049807e-14 7.659582521680003e-14 3.6037005369805106e-16
3.2348180950136065 1.1157436079289675e-21 9.580401372958916e-14 9.54342026949243e-14 3.6981103466488794e-16
3.240889293275058 1.2772908579799586e-21 1.0988120992937909e-13 1.0950641899989539e-13 3.7479092948368837e-16
3.2469718861334385 1.4644786249090289e-21 1.2622082038549595e-13 1.2584087669868433e-13 3.799436868116634e-16
3.2714166318528037 2.4507219912622055e-21 2.1281358031933826e-13 2.1241234000817809e-13 4.0124031116014325e-16
3.2744851364798273 2.512407325079065e-21 2.1837479355345989e-13 2.1797104260364364e-13 4.0375094981626067e-16
3.2775565192852394 2.575773204042734e-21 2.240924596572763e-13 2.236861854396415e-13 4.0627421763489036e-16
3.283707930232385 2.515032212932821e-21 2.1921865396253726e-13 2.1880786550245618e-13 4.1078846008104436e-16
3.2898708863219004 2.321821506263744e-21 2.0275758822015481e-13 2.02342689864633e-13 4.148983555218308e-16
3.29141343181113 2.276177326080283e-21 1.9886482070959842e-13 1.9844889029476674e-13 4.159304148317568e-16
3.292184975758714 2.2537373702665702e-21 1.9695044557253247e-13 1.9653399843935104e-13 4.1644713318144775e-16
3.295272960557952 2.1134000169557957e-21 1.8485982364208812e-13 1.8444136625488774e-13 4.184573872004143e-16
3.3076538914384823 1.6242709794226591e-21 1.42609342382615e-13 1.4218281000542665e-13 4.265323771883456e-16
3.310756385682612 1.5238913258960422e-21 1.3392160805792542e-13 1.334930401417052e-13 4.285679162202232e-16
3.313861789986515 1.4309511277836228e-21 1.2587185305388115e-13 1.2544124286891704e-13 4.306101849641115e-16
3.3200813396944477 1.3010109211894613e-21 1.1465661052035674e-13 1.1422160841124135e-13 4.3500210911533946e-16
3.345076488085796 1.0728379969500348e-21 9.525979277180716e-14 9.480522063790364e-14 4.545721339035313e-16
3.3482140837626964 1.0819183411454036e-21 9.615616524237603e-14 9.569894213936019e-14 4.572231030158411e-16
3.3513546224236106 1.0910857277379798e-21 9.70618786557023e-14 9.660199254782348e-14 4.598861078788159e-16
3.3576445397418455 1.1561188915109234e-21 1.0304018935200342e-13 1.0257473584487601e-13 4.654535071274036e-16
3.3702598118196083 1.3927602861117861e-21 1.245974600941493e-13 1.2412032858225667e-13 4.771315118926103e-16
3.382922481734668 1.4486911718054167e-21 1.300880167873298e-13 1.2959952969742791e-13 4.884870899019006e-16
3.389271646505754 1.4775614264980315e-21 1.3292949544684188e-13 1.3243525170257357e-13 4.942437442682929e-16
3.395632727569191 1.5091868073498248e-21 1.3602951320700546e-13 1.355293368534088e-13 5.001763535966239e-16
3.421196662673239 1.6623554367582655e-21 1.509632930823661e-13 1.5043855328358423e-13 5.247397987818508e-16
3.4276182099114902 1.6340765954680971e-21 1.4867374604260488e-13 1.4814351929271654e-13 5.302267498883426e-16
3.4340518103208963 1.5065219067565334e-21 1.373256702824459e-13 1.3679025130435052e-13 5.354189780953811e-16
3.4469541582030403 1.3237600891959605e-21 1.2111954310202532e-13 1.205741531692054e-13 5.453899328199324e-16
3.472904465399547 1.2729544231839995e-21 1.173478465245518e-13 1.1677949554567594e-13 5.683509788758426e-16
3.4990501388274233 1.1958653716098447e-21 1.1107130870622002e-13 1.1047944993591275e-13 5.918587703072881e-16
3.5253949054701885 9.220909480142373e-22 8.628811153099421e-14 8.567339666127377e-14 6.147148697204609e-16
3.5519380250092896 6.619691695296441e-22 6.24126432256098e-14 6.177494114550417e-14 6.37702080105622e-16
3.578680990867387 5.600357919061627e-22 5.319957994044794e-14 5.2536681161691356e-14 6.628987787566044e-16
3.605625307711299 5.203167538733744e-22 4.9798680614598525e-14 4.9109236416521957e-14 6.894441980765491e-16
3.660119384959845 4.94244976958908e-22 4.801831858083016e-14 4.727306708107875e-14 7.452514997514092e-16
3.715437065384467 4.763401774596916e-22 4.69782199049174e-14 4.6174083018024775e-14 8.041368868926384e-16
3.8285932144167436 4.72822334683592e-22 4.8051465929565565e-14 4.7120586026887245e-14 9.308799026783181e-16
3.94519561050918 4.773766189915231e-22 4.9991839639848514e-14 4.892247874199107e-14 1.0693608978574338e-15
4.06534921144712 4.847375941118109e-22 5.230870799520085e-14 5.108922953635244e-14 1.2194784588484226e-15
4.189162171576248 4.933611280027386e-22 5.486072398485101e-14 5.3479160125656053e-14 1.3815638591949574e-15
4.316745939156006 5.02624371175266e-22 5.759296864789845e-14 5.6037897149777865e-14 1.5550714981205836e-15
4.448215356677963 5.12281633491999e-22 6.048727558193747e-14 5.874961500166532e-14 1.7376605802721604e-15
4.58368876423945 5.223152608244007e-22 6.355025085271115e-14 6.162065917912408e-14 1.9295916735870613e-15
4.723288106065518 5.32871341106254e-22 6.680919420533325e-14 6.467710003522966e-14 2.1320941701036003e-15
4.867139040275056 5.442063619604037e-22 7.030833292719152e-14 6.796842238871032e-14 2.339910538481175e-15
4.940699165968905 5.506207124890662e-22 7.221216869865706e-14 6.976572487822224e-14 2.446443820434811e-15
5.015371051989984 5.569266735341827e-22 7.414306246974895e-14 7.158865634387814e-14 2.5544061258707908e-15
5.091171501069577 5.645161472827308e-22 7.628928223295425e-14 7.362318024959442e-14 2.666101983359834e-15
5.129500256944802 5.682678563600713e-22 7.737445092823026e-14 7.46520697300276e-14 2.72238119820264e-15
5.168117569889187 5.721134059500285e-22 7.84845084031054e-14 7.570502818258957e-14 2.7794802205158455e-15
5.20702561229733 5.769883300908551e-22 7.974917083715443e-14 7.690741737308532e-14 2.841753464069119e-15
5.246226572918644 5.818774297370904e-22 8.10304009257301e-14 7.812592150420339e-14 2.9044794215267053e-15
5.265937586045735 5.843280593296062e-22 8.16773957457815e-14 7.874139108882346e-14 2.936004656958035e-15
5.285722656980489 5.8678316945707785e-22 8.232873710198092e-14 7.936110311011788e-14 2.9676339918630407e-15
5.305582063971359 5.892430933902445e-22 8.298449781975208e-14 7.998513348704826e-14 2.999364332703823e-15
5.3255160863122235 5.919075654815802e-22 8.3672939207265e-14 8.064149824965185e-14 3.0314409576131515e-15
5.365609099470188 5.988057148337049e-22 8.52853427907791e-14 8.21875367145955e-14 3.0978060761836176e-15
5.406003951863644 6.058270261395952e-22 8.693495533612793e-14 8.377031803179191e-14 3.164637304335998e-15
5.446702915881641 6.129807439594724e-22 8.86237153263261e-14 8.539180526814285e-14 3.23191005818325e-15
5.487708281020852 6.206604689988487e-22 9.040959736235555e-14 8.710971357677873e-14 3.2998837855768104e-15
5.529022354014368 6.319255002572498e-22 9.274353807338624e-14 8.937278760194021e-14 3.370750471446022e-15
5.570647458961463 6.436412894234144e-22 9.517414939249554e-14 9.173204365886633e-14 3.4421057336292187e-15
5.612585937458331 6.55845106821108e-22 9.770880898514535e-14 9.419488437295527e-14 3.5139246121900748e-15
5.654840148729818 6.69161113730351e-22 1.0044318167869272e-13 9.685664814860545e-14 3.58653353008725e-15
5.67608639626678 6.786288462036994e-22 1.0224704050638929e-13 9.86225140437127e-14 3.624526462676569e-15
5.686739436050992 6.834766698263445e-22 1.0317071902727816e-13 9.952714507812445e-14 3.643573949153719e-15
5.6974124697621304 6.884029888428012e-22 1.0410937566489456e-13 1.0044672073619901e-13 3.66265492869556e-15
5.718818669136295 6.984989750182815e-22 1.0603311801487068e-13 1.0233220222117701e-13 3.700915793693674e-15
5.740305295436557 7.096650191625888e-22 1.0813289299849453e-13 1.0439330165767238e-13 3.739591340822095e-15
5.7835210386641895 7.392226660778691e-22 1.1348462517478387e-13 1.096650771463371e-13 3.819548028446752e-15
5.827062130521658 7.728802974102677e-22 1.1954497292989142e-13 1.1564418078959633e-13 3.900792140295104e-15
5.8489554468988025 7.971306898820215e-22 1.2375913813871452e-13 1.198144564961107e-13 3.944681642603836e-15
5.870931020387893 8.228857415194443e-22 1.282377672698654e-13 1.2424898723311177e-13 3.988780036753625e-15
5.892989160043636 8.502640762555892e-22 1.3300222481452003e-13 1.2896914036592635e-13 4.033084448593675e-15
5.915130176081913 8.81388241075915e-22 1.3838881542939488e-13 1.3430979928574718e-13 4.07901614364767e-15
5.95966208400165 9.695602573750647e-22 1.5337899015709052e-13 1.491951748182719e-13 4.1838153388185635e-15
6.004529249263818 1.0966820255631353e-21 1.747950473941345e-13 1.7049322069209174e-13 4.30182670204278e-15
6.027089341400364 1.1853728402949866e-21 1.8964091170891068e-13 1.8527082851526062e-13 4.370083193650089e-15
6.049734195844842 1.2895258079135536e-21 2.070788598048593e-13 2.02636458627887e-13 4.4424011769723325e-15
6.095279466722835 1.5908131811316026e-21 2.573844092672796e-13 2.5276400651439883e-13 4.620402752880744e-15
6.141167624020661 2.0520808646322076e-21 3.3451442895450634e-13 3.29662700248232e-13 4.851728706274285e-15
6.164241091010745 2.3464867265344948e-21 3.8394335104873415e-13 3.7894628829451343e-13 4.997062754220636e-15
6.187401249150058 2.678649711207917e-21 4.3994019002256816e-13 4.347938986025951e-13 5.146291419973115e-15
6.1990139391386085 2.840250644784736e-21 4.673569582410223e-13 4.621347360273076e-13 5.222222213714793e-15
6.204828454712694 2.92510382022245e-21 4.817708256584678e-13 4.765102523702405e-13 5.260573288227212e-15
6.210648424152782 2.9866101685247528e-21 4.923624426784864e-13 4.870692273828675e-13 5.2932152956190425e-15
6.233982942956859 3.1933896084681573e-21 5.284293734283298e-13 5.230224922510178e-13 5.406881177312083e-15
6.239830258556775 3.2185700025993673e-21 5.330956860613946e-13 5.276731367951146e-13 5.422549266279953e-15
6.245683058788269 3.2187325411646128e-21 5.336226628113466e-13 5.281844207433837e-13 5.438242067962792e-15
6.257405133728602 3.208412196824626e-21 5.329099951380779e-13 5.274443465101202e-13 5.4656486279577506e-15
6.269149208991335 3.1619339157278616e-21 5.261757495572421e-13 5.207003251674254e-13 5.4754243898166886e-15
6.280915325867298 3.0522321662017922e-21 5.088736187603699e-13 5.034102185816018e-13 5.4634001787683644e-15
6.304513850009849 2.7845478019781597e-21 4.659890525471939e-13 4.605694235437085e-13 5.419629003485463e-15
6.32820103803542 2.4569266672417626e-21 4.127070567575651e-13 4.0735218328900437e-13 5.354873468560622e-15
6.3519772230701035 2.1575561103037508e-21 3.6378137836088585e-13 3.5848458249168753e-13 5.296795869198359e-15
6.375842739491607 1.905127152791172e-21 3.2242669864591416e-13 3.171811326490025e-13 5.245565996911631e-15
6.399797922933955 1.7039998768787498e-21 2.894711278346591e-13 2.8425190138639097e-13 5.2192264482681845e-15
6.42384311029221 1.536128324656467e-21 2.6193398838000633e-13 2.567361428149576e-13 5.1978455650487475e-15
6.447978639727206 1.413836246684748e-21 2.419870552737042e-13 2.367911783005011e-13 5.1958769732030885e-15
6.472204850670314 1.311484299680482e-21 2.253122390914616e-13 2.2011447893965228e-13 5.197760151809342e-15
6.496522083828205 1.2444431383933857e-21 2.1459787125575981e-13 2.0938249671819002e-13 5.215374537569836e-15
