Dust emission spectrum from A.P. Jones, M. Kohler, N. Ysard, M. Bocchio, and L. Verstraete (2017), A&A, 602A, 46J 
inside the DustPedia framework.

lambda    nu*dP/dnu     j_nu    j_nu(carb.) j_nu(sil)
 (um)   (erg s-1 H-1) (Jy cm2 sr-1 H-1)
0.9927057738263894 4.730937141807336e-25 1.2466288080527494e-17 1.2466288080303054e-17 2.2443830191465788e-28
1.0001793341362166 4.808703151009739e-25 1.2766600785162743e-17 1.276660078489238e-17 2.703649470475472e-28
1.0077091589558085 4.886348008164809e-25 1.3070404652140697e-17 1.3070404651815423e-17 3.252711089825813e-28
1.0114953028030835 4.925115442334374e-25 1.3223600431584807e-17 1.3223600431228208e-17 3.5660140150490432e-28
1.0152956718711033 4.963841145268394e-25 1.3377650405501865e-17 1.337765040511104e-17 3.9082318855997815e-28
1.0229392996569957 5.041114052280339e-25 1.368818354632877e-17 1.368818354585978e-17 4.6898500573933295e-28
1.0267826658714554 5.079567122742511e-25 1.3844416776118592e-17 1.3844416775605085e-17 5.1351437725515155e-28
1.0306404723013447 5.117961467129262e-25 1.400147011062717e-17 1.4001470110065075e-17 5.620896454984251e-28
1.03451277320114 5.156293383583859e-25 1.4159336737927062e-17 1.4159336737312003e-17 6.150604690046243e-28
1.0383996230291617 5.1945591915129455e-25 1.431800976328144e-17 1.4318009762608635e-17 6.7280505284148505e-28
1.0403485208654093 5.213666160583713e-25 1.4397646498387538e-17 1.4397646497683945e-17 7.0359403385243175e-28
1.0423010764483396 5.232755232294393e-25 1.447748221079797e-17 1.4477482210062236e-17 7.357323320189542e-28
1.0462171883269815 5.270877869969509e-25 1.463774702508509e-17 1.463774702428081e-17 8.0428430968729685e-28
1.0471985131304309 5.280396636276809e-25 1.4677936201725725e-17 1.4677936200903372e-17 8.223563098937919e-28
1.048180758391296 5.289910532768934e-25 1.4718174343627684e-17 1.4718174342786866e-17 8.408173409353032e-28
1.0501480137395462 5.308923491919489e-25 1.4798797072909867e-17 1.4798797072030925e-17 8.789385601448167e-28
1.0521189612883777 5.327916299599091e-25 1.4879614309386996e-17 1.4879614308468278e-17 9.187136614894385e-28
1.0531058218030118 5.33739034373571e-25 1.4920054594421793e-17 1.4920054593482553e-17 9.392439750733266e-28
1.0540936079674168 5.346811141633681e-25 1.496040866904371e-17 1.4960408668083486e-17 9.602180660265505e-28
1.058054026499678 5.384439198951681e-25 1.5122296696922538e-17 1.512229669587385e-17 1.0486915676633218e-27
1.0590464539527713 5.393832155055591e-25 1.5162886056440806e-17 1.5162886055368808e-17 1.0720012152284838e-27
1.06003981227728 5.403219378367239e-25 1.5203522124105868e-17 1.520352212301006e-17 1.09580680231115e-27
1.0620293250338977 5.421976408443069e-25 1.528493391597712e-17 1.5284933914832173e-17 1.1449461564863431e-27
1.0660195594769086 5.4594192811191e-25 1.5448312835725398e-17 1.5448312834475766e-17 1.2496310747254442e-27
1.070024785945596 5.49676435515024e-25 1.561242589816142e-17 1.5612425896797976e-17 1.3634465935362602e-27
1.0740450607676866 5.534008196437772e-25 1.577726547942109e-17 1.577726547793394e-17 1.4871477577764011e-27
1.07808044048254 5.571147399169552e-25 1.5942823891444964e-17 1.5942823889823417e-17 1.621548384386866e-27
1.0861967418109137 5.645032411566466e-25 1.6275875855375564e-17 1.6275875853449542e-17 1.9260233014071938e-27
1.0902777775684922 5.68162148405946e-25 1.6442917979453616e-17 1.644291797735556e-17 2.0980596049474666e-27
1.0943741465085532 5.718089980451981e-25 1.661063529641147e-17 1.6610635294126748e-17 2.2847282436156578e-27
1.1026131145906286 5.790652327443352e-25 1.6948063296535604e-17 1.694806329382884e-17 2.7067622878812745e-27
1.1109141095355224 5.862693938434485e-25 1.728809491396599e-17 1.7288094910763343e-17 3.20265316343239e-27
1.1192775983109025 5.934122540779334e-25 1.763046452114102e-17 1.7630464517356457e-17 3.7845633295255596e-27
1.1277040513999907 6.004604658525587e-25 1.7974176110895053e-17 1.7974176106428525e-17 4.4665249062369105e-27
1.1361939428280308 6.074483155538807e-25 1.8320243209827246e-17 1.8320243204562552e-17 5.2647032845896415e-27
1.1447477501889525 6.1437348617994e-25 1.8668597693070924e-17 1.8668597686873226e-17 6.197698559604094e-27
1.1533659546722406 6.2123751567630815e-25 1.9019287133073396e-17 1.9019287125786497e-17 7.286893770385699e-27
1.1707974979042381 6.348045882727053e-25 1.97283732434033e-17 1.972837323336759e-17 1.0035706052217851e-26
1.1884924949847024 6.480980214105406e-25 2.0445916002430365e-17 2.0445915988677154e-17 1.3753204315632875e-26
1.2064549276569216 6.6122270192428e-25 2.1175237524286002e-17 2.1175237505529996e-17 1.8755995788028006e-26
1.2246888378427687 6.74034541052448e-25 2.1911764178519543e-17 2.191176415306467e-17 2.545487653920291e-26
1.2431983285522175 6.865036536976227e-25 2.2654407259650507e-17 2.265440722526949e-17 3.438103034746497e-26
1.2619875648066055 6.986256199296467e-25 2.3402864417917023e-17 2.340286437169922e-17 4.6217796357232745e-26
1.3004222497298317 7.216264665726762e-25 2.4909572699417412e-17 2.490957261705957e-17 8.23578396770117e-26
1.3400274889804893 7.429490622304849e-25 2.642665404736944e-17 2.642665390327136e-17 1.4409806496046372e-25
1.3808389325824078 7.625165812739188e-25 2.794870878553581e-17 2.79487085378684e-17 2.4766741334694423e-25
1.4228933163050095 7.804280591768158e-25 2.9476414017643636e-17 2.9476413599284025e-17 4.183596093719907e-25
1.466228494730424 7.971211795114931e-25 3.102383178070109e-17 3.102383108581002e-17 6.948910639454473e-25
1.5108834753276823 8.122717244323465e-25 3.2576298802280744e-17 3.2576297666849916e-17 1.1354308195305119e-24
1.5568984535646726 8.2561839869846625e-25 3.412000474176394e-17 3.4120002914789455e-17 1.8269744880383e-24
1.6043148490894465 8.37189391864204e-25 3.5651906015367695e-17 3.565190311518019e-17 2.900187502366285e-24
1.6531753430134553 8.470238741774038e-25 3.7169267608615495e-17 3.7169263071847044e-17 4.5367684419432e-24
1.7035239163302658 8.552432478013286e-25 3.867295183978815e-17 3.867294484459515e-17 6.995193002589551e-24
1.755405889504358 8.625311651407755e-25 4.0190349251595806e-17 4.019033861496887e-17 1.0636626940789023e-23
1.8088679632656115 8.687232921866415e-25 4.17116880704241e-17 4.171167211476371e-17 1.595566039332646e-23
1.8639582606462262 8.737095787189087e-25 4.322875352646941e-17 4.322872990503376e-17 2.362143564877551e-23
1.9207263702978936 8.775760030098608e-25 4.474244069803824e-17 4.474240617219728e-17 3.4525840978835744e-23
1.979223391128241 8.805179762946962e-25 4.625966408111229e-17 4.625961423878831e-17 4.984232396329831e-23
2.039501978296691 8.827683544093989e-25 4.7790361987379163e-17 4.779029089455258e-17 7.10928265527431e-23
2.1016163906111602 8.84973222056186e-25 4.9368849871274934e-17 4.9368749638742706e-17 1.0023253221837955e-22
2.1656225393682647 8.87508311778564e-25 5.101814043587373e-17 5.101800070271582e-17 1.3973315791190355e-22
2.231578038680979 8.9040276749048e-25 5.274338672813373e-17 5.274319404826647e-17 1.9267986726114082e-22
2.299542257339062 8.938822194981453e-25 5.4562106190284125e-17 5.456184331152897e-17 2.628787551570944e-22
2.369576372248914 8.984420369160319e-25 5.65106376216113e-17 5.651028264389299e-17 3.549777183105271e-22
2.4417434235010123 9.04666631127157e-25 5.863514875448721e-17 5.8634674176193e-17 4.745782942105112e-22
2.5161083711144245 9.135551829088767e-25 6.101457092927161e-17 6.101394255226627e-17 6.283770053615837e-22
2.5927381535095444 9.267415634272167e-25 6.378032571527212e-17 6.377950142640274e-17 8.242888693902743e-22
2.6717017477616296 9.461750056294183e-25 6.710098247735007e-17 6.709991095443125e-17 1.0715229188255145e-21
2.753070231689431 9.747886163020323e-25 7.123561406754662e-17 7.123423337307377e-17 1.3806944728416678e-21
2.836916847834745 1.0192277332996459e-24 7.675157068749125e-17 7.67498067097321e-17 1.763977759163799e-21
2.9233170693905177 1.094126618389006e-24 8.490102615370446e-17 8.489879133317985e-17 2.234820524603998e-21
2.967498994190263 1.1574452831735736e-24 9.117179029439554e-17 9.116928652746659e-17 2.503766928965871e-21
3.0123486681368425 1.2313332564634108e-24 9.845783475867156e-17 9.845503339694635e-17 2.801361725181518e-21
3.0578761833420214 1.3960700863042042e-24 1.133173868584661e-16 1.1331425583075527e-16 3.131027710835805e-21
3.1040917844459814 1.6082400126928217e-24 1.325118906664163e-16 1.3250839765156922e-16 3.493014847094335e-21
3.127460860933648 1.832392613913548e-24 1.5211773454646778e-16 1.52114046423831e-16 3.688122636720302e-21
3.1510058709225794 2.1309738963691085e-24 1.7823655326645782e-16 1.7823266081873727e-16 3.892447720551243e-21
3.162844764501044 2.4087810986404085e-24 2.0222956354790386e-16 2.0222556499273456e-16 3.9985551692427254e-21
3.1747281389236908 2.7318346724940872e-24 2.3021328774846397e-16 2.3020918066924385e-16 4.107079220174153e-21
3.1986289994194426 3.63285060975108e-24 3.0844720734392345e-16 3.0844287525795585e-16 4.3320859675529095e-21
3.2227097969389145 5.756366750171947e-24 4.924238601902434e-16 4.924192886627269e-16 4.5715275165211236e-21
3.2348180950136065 7.770003397705803e-24 6.671761387676731e-16 6.67171439191662e-16 4.69957601098922e-21
3.240889293275058 9.275416500444442e-24 7.979341442086434e-16 7.979293770801654e-16 4.767128478326091e-21
3.2469718861334385 1.1016943908697661e-23 9.495308942342473e-16 9.49526057199582e-16 4.837034665146368e-21
3.2714166318528037 2.0306032393949737e-23 1.7633168801864952e-15 1.7633117534268052e-15 5.126759689402701e-21
3.2744851364798273 2.0886686259123716e-23 1.8154404161787307e-15 1.815435255047564e-15 5.16113116661974e-21
3.2775565192852394 2.148401310068937e-23 1.8691107320653506e-15 1.8691055363688544e-15 5.195696496420218e-21
3.283707930232385 2.0909467875905535e-23 1.822539440750837e-15 1.8225341827851642e-15 5.25796567304973e-21
3.2898708863219004 1.9087576310052983e-23 1.666859802596247e-15 1.666854487540682e-15 5.315055565856666e-21
3.29141343181113 1.8657929373836205e-23 1.6301040069359775e-15 1.6300986775331383e-15 5.329402838338007e-21
3.292184975758714 1.8446816153249118e-23 1.6120372802565196e-15 1.612031943668799e-15 5.3365877210331765e-21
3.295272960557952 1.7114299744434012e-23 1.4969936628802817e-15 1.4969882982655623e-15 5.3646147200713274e-21
3.3076538914384823 1.2498062995829762e-23 1.0973172379927045e-15 1.0973117605818675e-15 5.477410836802441e-21
3.310756385682612 1.1558535793087738e-23 1.0157795860510047e-15 1.0157740801615485e-15 5.505889456022786e-21
3.313861789986515 1.0691672216831322e-23 9.404797746389245e-16 9.404742401585075e-16 5.534480417072867e-21
3.3200813396944477 9.476011008550756e-24 8.351100561866811e-16 8.351044603999265e-16 5.595786754585177e-21
3.345076488085796 7.307579441890727e-24 6.488570550978063e-16 6.488511865481821e-16 5.8685496244290305e-21
3.3482140837626964 7.388917372305456e-24 6.56694625457117e-16 6.566887199707107e-16 5.905486406428314e-21
3.3513546224236106 7.47115379816742e-24 6.646262570762552e-16 6.646203144614856e-16 5.942614769707172e-21
3.3576445397418455 8.07204677421453e-24 7.194288011212169e-16 7.194227809500686e-16 6.02017114847657e-21
3.3702598118196083 1.0288254395401886e-23 9.203955477853534e-16 9.203893648713485e-16 6.182914004474408e-21
3.382922481734668 1.0793032282970934e-23 9.691811423573042e-16 9.691748004213857e-16 6.341935918529532e-21
3.389271646505754 1.105453473496755e-23 9.945263177326062e-16 9.945198950228952e-16 6.422709710962936e-21
3.395632727569191 1.1336321246987128e-23 1.0217915060454435e-15 1.0217850000821604e-15 6.5059632829789905e-21
3.421196662673239 1.2689322158679049e-23 1.1523539537325742e-15 1.1523471021537147e-15 6.851578859615617e-21
3.4276182099114902 1.2416690796208458e-23 1.1297119971271788e-15 1.129705067502262e-15 6.929624917106326e-21
3.4340518103208963 1.122200573564729e-23 1.0229319949811167e-15 1.022924991094056e-15 7.003887060772454e-21
3.4469541582030403 9.52055459895526e-24 8.71098345172005e-16 8.710911978358455e-16 7.147336159486182e-21
3.472904465399547 9.043815009495193e-24 8.337079446066534e-16 8.337004680239238e-16 7.476582729687138e-21
3.4990501388274233 8.314648378920346e-24 7.72259903834756e-16 7.722520881358673e-16 7.8156988885204e-21
3.5253949054701885 5.719519001992493e-24 5.352253968118868e-16 5.3521724823422e-16 8.148577666630082e-21
3.5519380250092896 3.2804917786705415e-24 3.09295617395882e-16 3.092871314112396e-16 8.485984642327349e-21
3.578680990867387 2.3136187682284038e-24 2.1977800060448822e-16 2.1976914421707355e-16 8.856387414676424e-21
3.605625307711299 1.9227254385597543e-24 1.8402096283008172e-16 1.840117144888797e-16 9.248341202051149e-21
3.660119384959845 1.6379302677357924e-24 1.5913294231791616e-16 1.5912286242572427e-16 1.0079892191934324e-20
3.715437065384467 1.4364373686802663e-24 1.4166613226996333e-16 1.416551637689156e-16 1.0968501047742307e-20
3.8285932144167436 1.3350130965921902e-24 1.3567323626823078e-16 1.356603151844511e-16 1.2921083779657724e-20
3.94519561050918 1.3164492272709682e-24 1.378612107202958e-16 1.3784609401824547e-16 1.5116702050353865e-20
4.06534921144712 1.3319140254127495e-24 1.437286950224818e-16 1.4371112345204247e-16 1.7571570439399293e-20
4.189162171576248 1.3670803490568697e-24 1.520164711766801e-16 1.5199616094398688e-16 2.0310232693186144e-20
4.316745939156006 1.4165964287729348e-24 1.6232001149939334e-16 1.6229666481905523e-16 2.3346680338116336e-20
4.448215356677963 1.4786515000978842e-24 1.7459068396888545e-16 1.7456401587635885e-16 2.6668092526613663e-20
4.58368876423945 1.5534373772264514e-24 1.8900718093302696e-16 1.8897687655693889e-16 3.0304376088098576e-20
4.723288106065518 1.642627244073449e-24 2.059457773211186e-16 2.0591147219259302e-16 3.43051285255093e-20
4.867139040275056 1.7495922027575093e-24 2.260372529184867e-16 2.2599863593462147e-16 3.861698386521248e-20
4.940699165968905 1.814003611570373e-24 2.379008487104344e-16 2.378599381771788e-16 4.09105332555809e-20
5.015371051989984 1.8806488479448055e-24 2.503688037277582e-16 2.5032550803673937e-16 4.329569101886193e-20
5.091171501069577 1.9618877839288896e-24 2.651314963760911e-16 2.6508567813053196e-16 4.581824555915103e-20
5.129500256944802 2.0035574057141733e-24 2.728012018193331e-16 2.7275408602937897e-16 4.711578995412332e-20
5.168117569889187 2.046982540278857e-24 2.8081218987823993e-16 2.807637431918808e-16 4.8446686359194404e-20
5.20702561229733 2.1002694272936214e-24 2.902913917425626e-16 2.902415108673286e-16 4.9880875233977374e-20
5.246226572918644 2.1548960934143232e-24 3.000839789945919e-16 3.000326340269277e-16 5.1344967664074285e-20
5.265937586045735 2.1827251373760747e-24 3.051013929645429e-16 3.050493046352966e-16 5.208832924629892e-20
5.285722656980489 2.2109053123693725e-24 3.102015389907082e-16 3.1014869970192186e-16 5.283928878628963e-20
5.305582063971359 2.2394422621775205e-24 3.1538594785031013e-16 3.1533234996308166e-16 5.3597887228552564e-20
5.3255160863122235 2.27010073374777e-24 3.2090483677920775e-16 3.2085046847928837e-16 5.436829991927176e-20
5.365609099470188 2.346484190084355e-24 3.3419973047529056e-16 3.341437657134072e-16 5.596476188337458e-20
5.406003951863644 2.4257519018653857e-24 3.480905013250481e-16 3.4803290643540457e-16 5.75948896434559e-20
5.446702915881641 2.5080433832595108e-24 3.626086545367277e-16 3.6254939544026574e-16 5.925909646180228e-20
5.487708281020852 2.596951458831626e-24 3.7828949560985286e-16 3.7822853277364037e-16 6.096283621251235e-20
5.529022354014368 2.7206192397359645e-24 3.992873431139002e-16 3.992245969434045e-16 6.274617049567965e-20
5.570647458961463 2.851549060636138e-24 4.2165373905725277e-16 4.2158917126442414e-16 6.456779282838123e-20
5.612585937458331 2.9902644499349155e-24 4.454941798223351e-16 4.454277515898448e-16 6.642823249040362e-20
5.654840148729818 3.1427376926087733e-24 4.7173478337293435e-16 4.716664488164233e-16 6.83345565110648e-20
5.67608639626678 3.246657928627642e-24 4.891645361021655e-16 4.890952048729698e-16 6.933122919584576e-20
5.686739436050992 3.300220482483962e-24 4.981678748638645e-16 4.980980411937749e-16 6.983367008959926e-20
5.6974124697621304 3.3548854417469144e-24 5.073700062729872e-16 5.072996674116502e-16 7.03388613370138e-20
5.718818669136295 3.467628859721172e-24 5.26390894281503e-16 5.26319536744384e-16 7.135753711899451e-20
5.740305295436557 3.591922170293253e-24 5.473074270415102e-16 5.472350338927887e-16 7.239314872149783e-20
5.7835210386641895 3.9145160005761785e-24 6.009520560605838e-16 6.008775120308523e-16 7.45440297315476e-20
5.827062130521658 4.286126125923344e-24 6.629549665251946e-16 6.628782087023801e-16 7.675782281446116e-20
5.8489554468988025 4.5469677224342005e-24 7.059429697234419e-16 7.058650246094981e-16 7.794511394379586e-20
5.870931020387893 4.8268562319629654e-24 7.522128952880148e-16 7.521337483175603e-16 7.914697045464139e-20
5.892989160043636 5.127324536085605e-24 8.020397305842069e-16 8.019593670512413e-16 8.036353296580103e-20
5.915130176081913 5.4690700889485425e-24 8.587114007625329e-16 8.586297774905737e-16 8.162327195930394e-20
5.95966208400165 6.4249179296919994e-24 1.0163859506435327e-15 1.0163015137488908e-15 8.443689464225896e-20
6.004529249263818 7.802847379230935e-24 1.2436595527874371e-15 1.2435719757895346e-15 8.757699790272443e-20
6.027089341400364 8.760840851725109e-24 1.4015960126472672e-15 1.4015066501154017e-15 8.936253186538029e-20
6.049734195844842 9.89289747196287e-24 1.5886536865633474e-15 1.5885624368556816e-15 9.124970766659627e-20
6.095279466722835 1.316333433521617e-23 2.129751671687357e-15 2.129655886977102e-15 9.578471025551584e-20
6.141167624020661 1.8196605849631855e-23 2.966270637580747e-15 2.9661690942765802e-15 1.0154330416583646e-19
6.164241091010745 2.1411111862186266e-23 3.5033882549116778e-15 3.5032831606410396e-15 1.0509427063755117e-19
6.187401249150058 2.5072598765880438e-23 4.117912028313308e-15 4.117803267539707e-15 1.0876077360096049e-19
6.1990139391386085 2.686045633691831e-23 4.419828649150563e-15 4.419718018253738e-15 1.1063089682432681e-19
6.204828454712694 2.7802206167629083e-23 4.579082536457456e-15 4.57897095885452e-15 1.1157760293726969e-19
6.210648424152782 2.848968120955809e-23 4.696712406359419e-15 4.696600006238365e-15 1.1240012105380388e-19
6.233982942956859 3.0825237358960385e-23 5.1008373109815e-15 5.1007219741850935e-15 1.1533679640543702e-19
6.239830258556775 3.112373351373839e-23 5.155062048331553e-15 5.154946252926934e-15 1.1579540461860009e-19
6.245683058788269 3.1149518380763446e-23 5.164172148835863e-15 5.164055893271934e-15 1.1625556392770933e-19
6.257405133728602 3.108512737781246e-23 5.163169213784801e-15 5.163052122441492e-15 1.170913433081013e-19
6.269149208991335 3.06254872241227e-23 5.09637112134238e-15 5.096253577712911e-15 1.1754362946957241e-19
6.280915325867298 2.9473156824705733e-23 4.913817544994817e-15 4.913700025736778e-15 1.1751925803750553e-19
6.304513850009849 2.663154101134062e-23 4.456740356524034e-15 4.4566233193065065e-15 1.1703721752656932e-19
6.32820103803542 2.3109499996769364e-23 3.881863408447898e-15 3.881747314315222e-15 1.1609413267469852e-19
6.3519772230701035 1.987949868184322e-23 3.3518439669159823e-15 3.351728669191604e-15 1.152977243784793e-19
6.375842739491607 1.7161945104311913e-23 2.904514427931332e-15 2.904399778138681e-15 1.1464979265056784e-19
6.399797922933955 1.4983991721824277e-23 2.5454420754575573e-15 2.5453275139146843e-15 1.1456154287291252e-19
6.42384311029221 1.3173031002126568e-23 2.246208532228016e-15 2.2460939466271458e-15 1.145856008702906e-19
6.447978639727206 1.1853299432994894e-23 2.028767498211888e-15 2.028652445350898e-15 1.1505286099065648e-19
6.472204850670314 1.0753768796449346e-23 1.847491217996434e-15 1.8473756054599537e-15 1.1561253648120582e-19
6.496522083828205 1.0039061599318535e-23 1.7311849630996784e-15 1.7310684255415272e-15 1.1653755815113925e-19
6.520930681187647 9.436902780985105e-24 1.6334599760354935e-15 1.633342450162512e-15 1.1752587298074256e-19
6.57002334288761 8.820577832806378e-24 1.538272875542722e-15 1.5381528424527388e-15 1.2003308998300572e-19
