Dust emission spectrum from A.P. Jones, M. Kohler, N. Ysard, M. Bocchio, and L. Verstraete (2017), A&A, 602A, 46J 
inside the DustPedia framework.

lambda    nu*dP/dnu     j_nu    j_nu(carb.) j_nu(sil)
 (um)   (erg s-1 H-1) (Jy cm2 sr-1 H-1)
0.9927057738263894 8.678742505843576e-23 2.2868979445631183e-15 2.286897913859222e-15 3.0703896004934047e-23
1.0001793341362166 8.824151562391634e-23 2.342719372086188e-15 2.342719335120453e-15 3.69657357255993e-23
1.0077091589558085 8.969782366181903e-23 2.399310998146967e-15 2.3993109537008066e-15 4.444616042632724e-23
1.0114953028030835 9.042668864161156e-23 2.4278951690546322e-15 2.427895120342499e-15 4.8712133207642364e-23
1.0152956718711033 9.115596409444581e-23 2.4566713243722082e-15 2.4566712710022532e-15 5.336995521467427e-23
1.0229392996569957 9.2614848171467e-23 2.5147795263885304e-15 2.5147794623867735e-15 6.400175713522898e-23
1.0267826658714554 9.334275293952688e-23 2.5440671291441964e-15 2.5440670590890673e-15 7.00551290950982e-23
1.0306404723013447 9.407084521631893e-23 2.5735444395921203e-15 2.5735443629363845e-15 7.665573517858106e-23
1.03451277320114 9.479907979600156e-23 2.603211247735966e-15 2.603211163885393e-15 8.385057263201073e-23
1.0383996230291617 9.552741199349244e-23 2.6330673444217004e-15 2.6330672527312547e-15 9.16904462160572e-23
1.0403485208654093 9.589160088109331e-23 2.6480663109735387e-15 2.6480662151042803e-15 9.586925974919891e-23
1.0423010764483396 9.625579766018362e-23 2.663112521891176e-15 2.6631124216609198e-15 1.002302566982307e-22
1.0462171883269815 9.698419319949938e-23 2.6933465743429606e-15 2.6933464648136522e-15 1.0952930955926883e-22
1.0471985131304309 9.716628857176146e-23 2.700934575286745e-15 2.7009344633066453e-15 1.1198010014829725e-22
1.048180758391296 9.73483812022001e-23 2.708534365048955e-15 2.7085342505655855e-15 1.144833700581383e-22
1.0501480137395462 9.771255558229174e-23 2.723769298500357e-15 2.7237691788487114e-15 1.1965164520254433e-22
1.0521189612883777 9.80767110522902e-23 2.7390513497764265e-15 2.7390512247334885e-15 1.2504293779656326e-22
1.0531058218030118 9.825852191204676e-23 2.746702820818684e-15 2.74670269299344e-15 1.278252434763817e-22
1.0540936079674168 9.843948033179466e-23 2.75434238450017e-15 2.754342253832786e-15 1.3066738352355083e-22
1.058054026499678 9.916319924678955e-23 2.7850167213661835e-15 2.7850165787134332e-15 1.426527508028969e-22
1.0590464539527713 9.934409708733586e-23 2.7927143099982917e-15 2.792714164188707e-15 1.4580958412593194e-22
1.06003981227728 9.952498090237939e-23 2.800423494016601e-15 2.8004233449833862e-15 1.4903321433514379e-22
1.0620293250338977 9.988670393551607e-23 2.815876635615143e-15 2.815876479928877e-15 1.5568626511194359e-22
1.0660195594769086 1.0060995411275766e-22 2.8469219261050385e-15 2.8469217562502584e-15 1.6985478017933377e-22
1.070024785945596 1.0133291014544947e-22 2.8781523974346137e-15 2.8781522121826938e-15 1.8525191924565405e-22
1.0740450607676866 1.020555330668854e-22 2.909567860554567e-15 2.9095676585759997e-15 2.019785667771891e-22
1.07808044048254 1.0277778459073721e-22 2.941168133385302e-15 2.9411679132419087e-15 2.201433930550111e-22
1.0861967418109137 1.0421984377554795e-22 3.0048883961797278e-15 3.0048881349151104e-15 2.6126461744269133e-22
1.0902777775684922 1.0493689496466726e-22 3.0369301470778965e-15 3.0369298625953073e-15 2.8448258887802087e-22
1.0943741465085532 1.0565338162031704e-22 3.069153853694603e-15 3.0691535440315517e-15 3.0966305207441068e-22
1.1026131145906286 1.0708452445738332e-22 3.134146545082664e-15 3.1341461785324053e-15 3.6655025949433966e-22
1.1109141095355224 1.0851300630317213e-22 3.1998654067040955e-15 3.1998649733778647e-15 4.33326231015691e-22
1.1192775983109025 1.0993736600137913e-22 3.2662736866577378e-15 3.266273175051483e-15 5.1160625402655265e-22
1.1277040513999907 1.113518121277734e-22 3.3332037582360166e-15 3.3332031549845612e-15 6.032514552326924e-22
1.1361939428280308 1.1276269920336893e-22 3.400849128240066e-15 3.4008484178368932e-15 7.104031724931419e-22
1.1447477501889525 1.1416981663306698e-22 3.4692095661012213e-15 3.4692087305792894e-15 8.355219330365011e-22
1.1533659546722406 1.1557358383995673e-22 3.5383039829097963e-15 3.5383030014771927e-15 9.814326033663764e-22
1.1707974979042381 1.1837540451577495e-22 3.6788552040566116e-15 3.678853854998857e-15 1.3490577540267408e-21
1.1884924949847024 1.2116139300039233e-22 3.8223472101209316e-15 3.822345364977778e-15 1.845143152785943e-21
1.2064549276569216 1.239515361890494e-22 3.969469306883872e-15 3.969466795634458e-15 2.511249413932102e-21
1.2246888378427687 1.267225858032757e-22 4.119544692587978e-15 4.119541291441131e-15 3.401146847174522e-21
1.2431983285522175 1.2947052480263255e-22 4.2724870890365625e-15 4.272482504877161e-15 4.5841594012428714e-21
1.2619875648066055 1.32197289682341e-22 4.428402220868281e-15 4.428396071660691e-15 6.1492075921251955e-21
1.3004222497298317 1.375592402365823e-22 4.748359509905363e-15 4.7483486004527645e-15 1.0909452599526623e-20
1.3400274889804893 1.4281044984264026e-22 5.0797592246907654e-15 5.079740223510984e-15 1.900117978205305e-20
1.3808389325824078 1.479566053301881e-22 5.4230900374144085e-15 5.423057532103736e-15 3.2505310672798836e-20
1.4228933163050095 1.5303567851324364e-22 5.780088204523883e-15 5.78003356105841e-15 5.464346547192268e-20
1.466228494730424 1.5814827465467872e-22 6.155106143712902e-15 6.1550158310150095e-15 9.031269789281478e-20
1.5108834753276823 1.632604966891925e-22 6.54759061873373e-15 6.5474438015256884e-15 1.4681720804042927e-19
1.5568984535646726 1.683487174548456e-22 6.9572808053749124e-15 6.957045799981368e-15 2.3500539354379387e-19
1.6043148490894465 1.7344174058796353e-22 7.386057079407975e-15 7.385686009203266e-15 3.7107020471003854e-19
1.6531753430134553 1.785715157129988e-22 7.836110240999396e-15 7.835532937926002e-15 5.773030733943687e-19
1.7035239163302658 1.8378239703216763e-22 8.310393338617605e-15 8.309508174689385e-15 8.851639282190702e-19
1.755405889504358 1.892231256555696e-22 8.817007215425919e-15 8.815668980433661e-15 1.3382349922583113e-18
1.8088679632656115 1.9488575018086684e-22 9.357425654437766e-15 9.355430010040981e-15 1.995644396785556e-18
1.8639582606462262 2.007655122311504e-22 9.933326881434992e-15 9.930390260202393e-15 2.9366212326000802e-18
1.9207263702978936 2.0689295013397706e-22 1.0548255103219408e-14 1.0543989409650951e-14 4.265693568454364e-18
1.979223391128241 2.1331631032934907e-22 1.1206972628069707e-14 1.1200853703175908e-14 6.118924893798769e-18
2.039501978296691 2.2008413792995805e-22 1.1914677918410204e-14 1.1906007134650675e-14 8.670783759528557e-18
2.1016163906111602 2.273250783440159e-22 1.2681488416865354e-14 1.2669345647103649e-14 1.2142769761701737e-17
2.1656225393682647 2.351102428516613e-22 1.3515239495256916e-14 1.3498428174064516e-14 1.681132119240273e-17
2.231578038680979 2.4343096227169435e-22 1.441973661075237e-14 1.4396719817895557e-14 2.3016792856811023e-17
2.299542257339062 2.523181838762524e-22 1.540137083174668e-14 1.5370197839471013e-14 3.1172992275668944e-17
2.369576372248914 2.618424271262572e-22 1.646949041263304e-14 1.642771293001472e-14 4.177748261831799e-17
2.4417434235010123 2.720859735174261e-22 1.76350060699446e-14 1.7579586166937616e-14 5.5419903006985276e-17
2.5161083711144245 2.83201057099802e-22 1.891444688720475e-14 1.884165416090174e-14 7.2792726303011e-17
2.5927381535095444 2.954396735199251e-22 2.0332786776746706e-14 2.0238088080029372e-14 9.469869671733432e-17
2.6717017477616296 3.0906537597011945e-22 2.191834518343759e-14 2.17962934059233e-14 1.2205177751428933e-16
2.753070231689431 3.2447267781033277e-22 2.371181819874528e-14 2.3555937292598066e-14 1.5588090614721038e-16
2.836916847834745 3.426244639892059e-22 2.5800873453470108e-14 2.5603536190915645e-14 1.973372625544611e-16
2.9233170693905177 3.6564693715220097e-22 2.8373133102172293e-14 2.812548787562451e-14 2.4764522654778233e-16
2.967498994190263 3.8107139579844705e-22 3.00169363424832e-14 2.9740906892208653e-14 2.7602945027455004e-16
3.0123486681368425 3.9809046398515363e-22 3.183145173438094e-14 3.152419280084434e-14 3.0725893353659176e-16
3.0578761833420214 4.287927002960322e-22 3.480460528322221e-14 3.4462937986383466e-14 3.4166729683874857e-16
3.1040917844459814 4.661898799991534e-22 3.841199194192471e-14 3.8032803051479987e-14 3.791888904447174e-16
3.127460860933648 5.024485724469647e-22 4.171122388640292e-14 4.13119142327395e-14 3.993096536634098e-16
3.1510058709225794 5.494423569363849e-22 4.595584773975919e-14 4.553554250907899e-14 4.2030523068017805e-16
3.162844764501044 5.922210836900424e-22 4.972000624967657e-14 4.92888270978222e-14 4.311791518543583e-16
3.1747281389236908 6.412837367769258e-22 5.4041351370744834e-14 5.359907112859759e-14 4.422802421472542e-16
3.1986289994194426 7.7596413928255e-22 6.588324086828703e-14 6.541800733754743e-14 4.652335307395999e-16
3.2227097969389145 1.089603086060008e-21 9.32092378750614e-14 9.27196587433421e-14 4.895791317193391e-16
3.2348180950136065 1.3851878214349515e-21 1.1894000747101963e-13 1.1843743015066344e-13 5.025773203562039e-16
3.240889293275058 1.6059870708628348e-21 1.3815788422414014e-13 1.376484505916533e-13 5.094336324868215e-16
3.2469718861334385 1.861621365007469e-21 1.6044985016630463e-13 1.5993332213073924e-13 5.165280355654089e-16
3.2714166318528037 3.215151561228747e-21 2.7919442411417663e-13 2.7864855906561456e-13 5.458650485620861e-16
3.2744851364798273 3.2999288675363804e-21 2.8682502156241005e-13 2.8627569367505615e-13 5.493278873538839e-16
3.2775565192852394 3.3870655771888245e-21 2.9467495625059063e-13 2.9412214770061485e-13 5.528085499757202e-16
3.283707930232385 3.304147172447557e-21 2.8800056393449633e-13 2.874415195926176e-13 5.590443418788261e-16
3.2898708863219004 3.039636643739749e-21 2.6544219410821003e-13 2.6487746447924755e-13 5.647296289624877e-16
3.29141343181113 2.9771971113977303e-21 2.6011144342378955e-13 2.595452859176941e-13 5.661575060954956e-16
3.292184975758714 2.9465073626814763e-21 2.5749048918429434e-13 2.5692361675485874e-13 5.668724294356122e-16
3.295272960557952 2.7537039585455267e-21 2.408674288138295e-13 2.4029777351303963e-13 5.696553007898337e-16
3.3076538914384823 2.0834413952984975e-21 1.8292403856273175e-13 1.8234320061091445e-13 5.808379518173137e-16
3.310756385682612 1.9463819202220327e-21 1.710506466054846e-13 1.704669888809959e-13 5.836577244886746e-16
3.313861789986515 1.8196722059082177e-21 1.600652237949425e-13 1.5947873662999206e-13 5.864871649504352e-16
3.3200813396944477 1.6424179036152826e-21 1.4474441898943506e-13 1.4415185077878853e-13 5.925682106465486e-16
3.345076488085796 1.3300620461708066e-21 1.180993171868219e-13 1.174796618007777e-13 6.196553860442002e-16
3.3482140837626964 1.3424836137977223e-21 1.1931406585348496e-13 1.1869074158208613e-13 6.233242713988453e-16
3.3513546224236106 1.355030718259607e-21 1.2054215705225285e-13 1.1991514678483427e-13 6.270102674185702e-16
3.3576445397418455 1.4439852016302892e-21 1.2869654642787237e-13 1.2806183145709155e-13 6.347149707808446e-16
3.3702598118196083 1.768777556512413e-21 1.5823626880418794e-13 1.575853917591876e-13 6.508770450003721e-16
3.382922481734668 1.84514243867613e-21 1.6568812263719327e-13 1.6502151468643683e-13 6.666079507564602e-16
3.389271646505754 1.8846129945195593e-21 1.695500775678787e-13 1.6887549192277303e-13 6.745856451056114e-16
3.395632727569191 1.927538962830817e-21 1.7373739653995968e-13 1.7305458926074491e-13 6.828072792147178e-16
3.421196662673239 2.1344395630403545e-21 1.9383461454562258e-13 1.9311774942769346e-13 7.16865117929149e-16
3.4276182099114902 2.0957358790515397e-21 1.9067704948385756e-13 1.8995256012565013e-13 7.244893582074596e-16
3.4340518103208963 1.9215088243059056e-21 1.7515343525242684e-13 1.7442172319917897e-13 7.31712053247882e-16
3.4469541582030403 1.6727110708345518e-21 1.5304737036167672e-13 1.52301771863812e-13 7.455984978647494e-16
3.472904465399547 1.6049580023241295e-21 1.4795373809535037e-13 1.4717618518375977e-13 7.775529115905827e-16
3.4990501388274233 1.5008127401152424e-21 1.3939465020478373e-13 1.3858434441269676e-13 8.103057920869572e-16
3.5253949054701885 1.1256001740271826e-21 1.0533224902047777e-13 1.0449003870468181e-13 8.422103157959337e-16
3.5519380250092896 7.706125283401812e-22 7.265589850756186e-14 7.178155213160605e-14 8.743463759557844e-16
3.578680990867387 6.31927597754285e-22 6.002881108523375e-14 5.911923170688643e-14 9.095793783473257e-16
3.605625307711299 5.781768615594196e-22 5.53363785678819e-14 5.4389649984798476e-14 9.467285830834182e-16
3.660119384959845 5.437895025474643e-22 5.283181173615904e-14 5.180684811204598e-14 1.0249636241130426e-15
3.715437065384467 5.211197197561658e-22 5.1394524228571326e-14 5.028681244179584e-14 1.1077117867754591e-15
3.8285932144167436 5.204712931534474e-22 5.2893881645874146e-14 5.16073680684502e-14 1.2865135774239627e-15
3.94519561050918 5.318972740911417e-22 5.5701352293730744e-14 5.4218417397006256e-14 1.4829348967244885e-15
4.06534921144712 5.481874486206556e-22 5.915567004674655e-14 5.745856623817503e-14 1.6971038085715194e-15
4.189162171576248 5.672088673293766e-22 6.307243790829053e-14 6.114266771472706e-14 1.929770193563474e-15
4.316745939156006 5.881032414328843e-22 6.738752334347274e-14 6.520704521426572e-14 2.180478129207014e-15
4.448215356677963 6.105176842731599e-22 7.208642473584542e-14 6.96401950121487e-14 2.4462297236967315e-15
4.58368876423945 6.344170510375464e-22 7.718970852017242e-14 7.446199006812473e-14 2.7277184520476876e-15
4.723288106065518 6.599919165038078e-22 8.274704365243915e-14 7.97199906252232e-14 3.027053027215969e-15
4.867139040275056 6.875957248754773e-22 8.883341416610656e-14 8.549630543428897e-14 3.3371087318175676e-15
4.940699165968905 7.027903460256623e-22 9.216873589367642e-14 8.867156400736271e-14 3.4971718863137118e-15
5.015371051989984 7.180875508498462e-22 9.559824061495834e-14 9.193806054281082e-14 3.660180072147546e-15
5.091171501069577 7.35417505172759e-22 9.938506432674369e-14 9.55555475282671e-14 3.829516798476578e-15
5.129500256944802 7.441266608371931e-22 1.0131910710581021e-13 9.740393062302561e-14 3.915176482784579e-15
5.168117569889187 7.530342956256533e-22 1.033038657863934e-13 9.930160902297675e-14 4.002256763416659e-15
5.20702561229733 7.634442642434643e-22 1.0552041328844662e-13 1.014234791271016e-13 4.096934161345046e-15
5.246226572918644 7.73956123310684e-22 1.077786691247409e-13 1.0358612838914286e-13 4.1925407355980204e-15
5.265937586045735 7.7925133806563185e-22 1.0892377819000883e-13 1.0468309445671228e-13 4.2406837332965655e-15
5.285722656980489 7.845733468251753e-22 1.1007972990731121e-13 1.0579068146027076e-13 4.2890484470404755e-15
5.305582063971359 7.899226217240562e-22 1.112466702037683e-13 1.0690903895704025e-13 4.337631246728025e-15
5.3255160863122235 7.955778222879953e-22 1.1246407148857985e-13 1.0807728829903541e-13 4.386783189544457e-15
5.365609099470188 8.091544030842337e-22 1.152444088762107e-13 1.1075593165970527e-13 4.488477216505431e-15
5.406003951863644 8.230139913754155e-22 1.1810084643655995e-13 1.1350969321489933e-13 4.591153221660634e-15
5.446702915881641 8.371714065399516e-22 1.2103682072179743e-13 1.1634203781244198e-13 4.694782909355474e-15
5.487708281020852 8.521823853738854e-22 1.2413464396278088e-13 1.193348960924493e-13 4.799747870331594e-15
5.529022354014368 8.723874555296272e-22 1.2803455338282702e-13 1.231253290530164e-13 4.909224329810669e-15
5.570647458961463 8.9341015338509e-22 1.3210704907265338e-13 1.2708729502678927e-13 5.019754045864101e-15
5.612585937458331 9.153114049488644e-22 1.3636449566813357e-13 1.312331869094319e-13 5.131308758701701e-15
5.654840148729818 9.38989612047259e-22 1.4094528546569696e-13 1.3570091404890023e-13 5.24437141679672e-15
5.67608639626678 9.549251817459292e-22 1.4387580823412234e-13 1.385723098933277e-13 5.30349834079463e-15
5.686739436050992 9.630847619780465e-22 1.453775260576717e-13 1.4004435411056827e-13 5.333171947103414e-15
5.6974124697621304 9.713763108125614e-22 1.4690433204591661e-13 1.4154141363421586e-13 5.3629184117007426e-15
5.718818669136295 9.883681052438872e-22 1.5003565601898891e-13 1.4461302783553443e-13 5.422628183454465e-15
5.740305295436557 1.006974622182864e-21 1.5343447419909016e-13 1.4795142781327916e-13 5.483046385810963e-15
5.7835210386641895 1.054876509952727e-21 1.619434452312357e-13 1.5633541179934805e-13 5.608033431887672e-15
5.827062130521658 1.1092050390836255e-21 1.715658774266349e-13 1.6583054782594776e-13 5.735329600687096e-15
5.8489554468988025 1.1473125920633519e-21 1.7812689860237364e-13 1.7232293760680167e-13 5.803960995571976e-15
5.870931020387893 1.1878251579172589e-21 1.851095947743861e-13 1.7923658050943661e-13 5.873014264949476e-15
5.892989160043636 1.2309328686465675e-21 1.9254819143752652e-13 1.8660570469888827e-13 5.942486738638216e-15
5.915130176081913 1.2797330147855083e-21 2.0093385380983412e-13 1.949193806331148e-13 6.014473176719315e-15
5.95966208400165 1.4160851074620884e-21 2.240167149044036e-13 2.1783881417030336e-13 6.177900734100295e-15
6.004529249263818 1.6112761108061787e-21 2.5681380526755866e-13 2.5045230676062507e-13 6.36149850693363e-15
6.027089341400364 1.7466982702647775e-21 2.794441050049345e-13 2.7297682606986083e-13 6.467278935073702e-15
6.049734195844842 1.905775900271308e-21 3.0603955194219556e-13 2.9946027753199897e-13 6.579274410196549e-15
6.095279466722835 2.3644535301763295e-21 3.825549614012302e-13 3.757014402945313e-13 6.853521106698898e-15
6.141167624020661 3.0664198914263586e-21 4.998641703620552e-13 4.926559915476481e-13 7.208178814407078e-15
6.164241091010745 3.514484006897108e-21 5.750566374641801e-13 5.67626485085082e-13 7.430152379098124e-15
6.187401249150058 4.021354076378066e-21 6.604653341223955e-13 6.528070519642789e-13 7.658282158116792e-15
6.1990139391386085 4.268451786587062e-21 7.023642955739843e-13 6.945898936606683e-13 7.774401913316263e-15
6.204828454712694 4.3983084151490504e-21 7.244107583524334e-13 7.165776847514779e-13 7.833073600955424e-15
6.210648424152782 4.492903175235876e-21 7.406848089483859e-13 7.328016019735931e-13 7.88320697479293e-15
6.233982942956859 4.812637736892602e-21 7.963760942604232e-13 7.883174778666396e-13 8.05861639378341e-15
6.239830258556775 4.852616518181386e-21 8.037448089876977e-13 7.956613860894664e-13 8.083422898231227e-15
6.245683058788269 4.854750253947142e-21 8.04852445695284e-13 7.967441690420694e-13 8.10827665321464e-15
6.257405133728602 4.842899007014869e-21 8.043945503126904e-13 7.962424968112512e-13 8.152053501439288e-15
6.269149208991335 4.7762322851762586e-21 7.948102868979808e-13 7.866408242437087e-13 8.169462654272297e-15
6.280915325867298 4.6136122110394474e-21 7.691896990621843e-13 7.610354573040749e-13 8.15424175810926e-15
6.304513850009849 4.2144664668820764e-21 7.052833621671483e-13 6.971891175538572e-13 8.09424461329086e-15
6.32820103803542 3.723034066348452e-21 6.253839205774e-13 6.173811210236572e-13 8.002799553743034e-15
6.3519772230701035 3.2733351109202465e-21 5.519107256589527e-13 5.439893898650828e-13 7.92133579386987e-15
6.375842739491607 2.894282230312277e-21 4.898328508424822e-13 4.819827688362685e-13 7.850082006213545e-15
6.399797922933955 2.5922084895091744e-21 4.403577284379066e-13 4.325414943824875e-13 7.81623405541903e-15
6.42384311029221 2.3404026575332728e-21 3.9907538495519365e-13 3.912855588777549e-13 7.789826077438678e-15
6.447978639727206 2.157520128530852e-21 3.692732760396819e-13 3.61480618054713e-13 7.792657984968904e-15
6.472204850670314 2.004825045365889e-21 3.444277755121281e-13 3.3662645502764276e-13 7.801320484485273e-15
6.496522083828205 1.9057951127885406e-21 3.286446456541652e-13 3.208109065199942e-13 7.83373913417085e-15
