Dust emission spectrum from A.P. Jones, M. Kohler, N. Ysard, M. Bocchio, and L. Verstraete (2017), A&A, 602A, 46J 
inside the DustPedia framework.

lambda    nu*dP/dnu     j_nu    j_nu(carb.) j_nu(sil)
 (um)   (erg s-1 H-1) (Jy cm2 sr-1 H-1)
0.9927057738263894 7.002278832526232e-20 1.845140244520431e-12 1.8451401544292138e-12 9.009121734237779e-20
1.0001793341362166 7.119692746164815e-20 1.8902034945579684e-12 1.8902033861687385e-12 1.0838923015935521e-19
1.0077091589558085 7.237614072859681e-20 1.935976407947926e-12 1.9359762777191938e-12 1.3022873258575082e-19
1.0114953028030835 7.296760395482672e-20 1.9591306040359967e-12 1.95913046136086e-12 1.426751369846692e-19
1.0152956718711033 7.356028125451764e-20 1.9824641795625413e-12 1.9824640233039872e-12 1.5625855435028566e-19
1.0229392996569957 7.474863071580993e-20 2.0296564736755445e-12 2.029656286433844e-12 1.8724170067170914e-19
1.0267826658714554 7.534295631866608e-20 2.053480667182013e-12 2.0534804623117588e-12 2.048702539580441e-19
1.0306404723013447 7.593840081911039e-20 2.0774858430381886e-12 2.0774856189549275e-12 2.240832614035177e-19
1.03451277320114 7.6534949297849e-20 2.1016727302184824e-12 2.1016724852026417e-12 2.4501584063358864e-19
1.0383996230291617 7.7132587429888e-20 2.1260420743547964e-12 2.126041806540832e-12 2.6781396302992624e-19
1.0403485208654093 7.743181080533108e-20 2.1382954055124363e-12 2.1382951255510504e-12 2.799613859600194e-19
1.0423010764483396 7.773130149871711e-20 2.150594638412734e-12 2.1505943457774664e-12 2.9263526766134787e-19
1.0462171883269815 7.833107841038256e-20 2.175331203376787e-12 2.1753308837268547e-12 3.1964993152205804e-19
1.0471985131304309 7.848118723345152e-20 2.181544188052744e-12 2.1815438612852233e-12 3.267675209202784e-19
1.048180758391296 7.863136151408517e-20 2.1877687353539087e-12 2.1877684013172996e-12 3.3403660941289024e-19
1.0501480137395462 7.893190570744048e-20 2.200252568944314e-12 2.2002522199027145e-12 3.4904159961007215e-19
1.0521189612883777 7.923270953499104e-20 2.212782807149333e-12 2.2127824424592075e-12 3.6469012512242557e-19
1.0531058218030118 7.938301098512703e-20 2.2190598429019983e-12 2.2190594701375918e-12 3.727644062259891e-19
1.0540936079674168 7.953273018186043e-20 2.225330415769784e-12 2.2253300347584627e-12 3.8101132237869013e-19
1.058054026499678 8.013222153284658e-20 2.250528205869904e-12 2.250527790092334e-12 4.1577756963967475e-19
1.0590464539527713 8.028224720833683e-20 2.2568565943121722e-12 2.256856169380393e-12 4.2493177909169677e-19
1.06003981227728 8.043233370709969e-20 2.263196585919267e-12 2.2631961516407795e-12 4.342784877911371e-19
1.0620293250338977 8.073268857265865e-20 2.275911432906053e-12 2.2759109793412053e-12 4.535648480151424e-19
1.0660195594769086 8.133412171817237e-20 2.301480966788349e-12 2.301480472166772e-12 4.946215772890013e-19
1.070024785945596 8.193651209702505e-20 2.3272376998843457e-12 2.3272371606689833e-12 5.392153618845723e-19
1.0740450607676866 8.253985156060492e-20 2.3531825477633563e-12 2.3531819601289875e-12 5.876343688868462e-19
1.07808044048254 8.314413269686371e-20 2.3793164499482083e-12 2.379315809759412e-12 6.401887969270987e-19
1.0861967418109137 8.435457724330137e-20 2.4321288647192676e-12 2.432128105654825e-12 7.590644426845061e-19
1.0902777775684922 8.495864527180754e-20 2.4587488620444092e-12 2.458748035913383e-12 8.261310260257572e-19
1.0943741465085532 8.556359731648641e-20 2.485560238701988e-12 2.4855593398749375e-12 8.98827050186686e-19
1.1026131145906286 8.677614078584327e-20 2.5397614007969357e-12 2.539760337872569e-12 1.0629243665128774e-18
1.1109141095355224 8.799219053295279e-20 2.594741184847998e-12 2.594739929513183e-12 1.255334816025938e-18
1.1192775983109025 8.921080044771802e-20 2.6504809116893008e-12 2.6504794310470715e-12 1.4806422294296783e-18
1.1277040513999907 9.04276493186315e-20 2.7068601291503582e-12 2.7068583850298306e-12 1.7441205276220707e-18
1.1361939428280308 9.164789549542038e-20 2.7640404823807665e-12 2.7640384305513746e-12 2.051829392262305e-18
1.1447477501889525 9.287157870784093e-20 2.822032817199499e-12 2.822030406477823e-12 2.410721675886046e-18
1.1533659546722406 9.409917393249612e-20 2.880861446461115e-12 2.8808586176928463e-12 2.8287682689325034e-18
1.1707974979042381 9.656983211609775e-20 3.0011845018686803e-12 3.001180621724875e-12 3.880143805010624e-18
1.1884924949847024 9.905697129066696e-20 3.1250064767304556e-12 3.1250011812047185e-12 5.295525736775333e-18
1.2064549276569216 1.0157729735360119e-19 3.252948503247014e-12 3.2529413118549126e-12 7.191392100262065e-18
1.2246888378427687 1.0411520556367006e-19 3.3846156135367962e-12 3.384605895553832e-12 9.717982963644141e-18
1.2431983285522175 1.0666890501439857e-19 3.5200407210091008e-12 3.520027652612557e-12 1.306839654314171e-17
1.2619875648066055 1.0924244528751622e-19 3.659450874422434e-12 3.659433384867318e-12 1.7489555115694823e-17
1.3004222497298317 1.1443487508472913e-19 3.950137602089639e-12 3.950106719461377e-12 3.0882628260150094e-17
1.3400274889804893 1.1971016388454948e-19 4.25808342423005e-12 4.258029895032839e-12 5.352919721100262e-17
1.3808389325824078 1.2508946723541824e-19 4.584935170930569e-12 4.584844050956781e-12 9.11199737863859e-17
1.4228933163050095 1.306183522669736e-19 4.933395954246991e-12 4.93324354931093e-12 1.5240493605978766e-16
1.466228494730424 1.3639064895466196e-19 5.308302750434043e-12 5.308052159644053e-12 2.505907899890541e-16
1.5108834753276823 1.4239692770253267e-19 5.7108535553250476e-12 5.7104483232978126e-12 4.0523202723460097e-16
1.5568984535646726 1.486332366642319e-19 6.142506935119174e-12 6.141861762753919e-12 6.451723652540031e-16
1.6043148490894465 1.5513429251115957e-19 6.6064301221646965e-12 6.605416915444551e-12 1.0132067201458666e-15
1.6531753430134553 1.619361084158163e-19 7.1061120385192306e-12 7.1045443833621445e-12 1.5676551570848598e-15
1.7035239163302658 1.6907964014800765e-19 7.64555440495166e-12 7.643164206928432e-12 2.39019802322366e-15
1.755405889504358 1.766858548586212e-19 8.232822768120819e-12 8.229229707997938e-12 3.593060122882402e-15
1.8088679632656115 1.8475009444577633e-19 8.870762853734976e-12 8.865435704074433e-12 5.3271496605421634e-15
1.8639582606462262 1.9326259166350829e-19 9.562102950912393e-12 9.554310097989271e-12 7.792852923118126e-15
1.9207263702978936 2.0223882247846599e-19 1.0310968497941223e-11 1.0299716465729345e-11 1.1252032211881426e-14
1.979223391128241 2.1170464700225153e-19 1.1122300871069227e-11 1.1106258661934348e-11 1.604220913487804e-14
2.039501978296691 2.2167925633286693e-19 1.2001032719765476e-11 1.1978441036173274e-11 2.2591683592199297e-14
2.1016163906111602 2.3224576329527427e-19 1.2955992266889293e-11 1.2924553818795275e-11 3.143844809401792e-14
2.1656225393682647 2.434356817253288e-19 1.3993824770470685e-11 1.3950578526330037e-11 4.3246244140651457e-14
2.231578038680979 2.552064747523427e-19 1.5117264102091215e-11 1.5058441680028567e-11 5.882242206264504e-14
2.299542257339062 2.6755028923553324e-19 1.633113062782058e-11 1.6251994550559964e-11 7.913607726061624e-14
2.369576372248914 2.8048177897789494e-19 1.7641877294267846e-11 1.7536540429899614e-11 1.0533686436823008e-13
2.4417434235010123 2.9402236078666e-19 1.905679315306603e-11 1.8918025653140815e-11 1.3876749992521517e-13
2.5161083711144245 3.0824159250781095e-19 2.0586855464532364e-11 2.0405874397786795e-11 1.809810667455656e-13
2.5927381535095444 3.232702778884457e-19 2.2248148169315265e-11 2.201439973756513e-11 2.337484317501322e-13
2.6717017477616296 3.3921264530883737e-19 2.4056333800344216e-11 2.375728489501391e-11 2.9904890533030895e-13
2.753070231689431 3.562321849147484e-19 2.6032739835733974e-11 2.5653673438500253e-11 3.790663972337244e-13
2.836916847834745 3.7482373665133577e-19 2.8225596281421947e-11 2.7749402469133237e-11 4.761938122887127e-13
2.9233170693905177 3.960946988309639e-19 3.073579037342728e-11 3.014290411636716e-11 5.928862570601126e-13
2.967498994190263 4.087764676541174e-19 3.219926067179453e-11 3.1541237459245996e-11 6.58023212548542e-13
3.0123486681368425 4.222767063984039e-19 3.3765392076247854e-11 3.3036011975049604e-11 7.29380101198247e-13
3.0578761833420214 4.4338614922424575e-19 3.5989138577088154e-11 3.518144974986705e-11 8.07688827221113e-13
3.1040917844459814 4.677756783145548e-19 3.854265473561904e-11 3.765003993773908e-11 8.926147978799359e-13
3.127460860933648 4.8955981945149e-19 4.064125236833768e-11 3.9703280974949084e-11 9.379713933886126e-13
3.1510058709225794 5.169253034441678e-19 4.323609244537996e-11 4.2250926667369474e-11 9.85165778010482e-13
3.162844764501044 5.412732622961741e-19 4.5442674577647945e-11 4.4433117566223274e-11 1.0095570114246772e-12
3.1747281389236908 5.687038485752277e-19 4.792500221698213e-11 4.6890580449745445e-11 1.0344217672366795e-12
3.1986289994194426 6.424709074068631e-19 5.4548997048612944e-11 5.3463273375787006e-11 1.0857236728259376e-12
3.2227097969389145 8.117611171584607e-19 6.944146546110415e-11 6.830146494467922e-11 1.1400005164249468e-12
3.2348180950136065 9.699941742662766e-19 8.328914862575141e-11 8.212020387291621e-11 1.1689447528351894e-12
3.240889293275058 1.0880589502202973e-18 9.360219966952288e-11 9.24179874001694e-11 1.1842122693535173e-12
3.2469718861334385 1.2248528581530459e-18 1.0556789971393445e-10 1.0436789012015809e-10 1.2000095937763351e-12
3.2714166318528037 1.9409628121543904e-18 1.68547573651357e-10 1.67282350600995e-10 1.2652230503620596e-12
3.2744851364798273 1.9857281676339357e-18 1.7259660658197796e-10 1.7132371791674988e-10 1.272888665228068e-12
3.2775565192852394 2.0316765853716473e-18 1.7675601350672157e-10 1.7547542269624912e-10 1.280590810472413e-12
3.283707930232385 1.987741053833769e-18 1.73258185722949e-10 1.7196386086509164e-10 1.2943248578573487e-12
3.2898708863219004 1.847793926529042e-18 1.6136220594914242e-10 1.6005541897061292e-10 1.306786978529476e-12
3.29141343181113 1.8147180845832145e-18 1.5854809833756254e-10 1.5723818297727986e-10 1.3099153602827063e-12
3.292184975758714 1.7984548899181894e-18 1.571640496290799e-10 1.5585256814871145e-10 1.3114814803684327e-12
3.295272960557952 1.6971319774928837e-18 1.4844871559554112e-10 1.4713114912779082e-10 1.3175664677503555e-12
3.3076538914384823 1.3433218858570577e-18 1.1794229729964277e-10 1.1660030869528009e-10 1.341988604362689e-12
3.310756385682612 1.2705227765287382e-18 1.1165524103689024e-10 1.1030710033977439e-10 1.3481406971158736e-12
3.313861789986515 1.2030460099132153e-18 1.058244601347086e-10 1.0447014870797303e-10 1.3543114267355468e-12
3.3200813396944477 1.1089288479302628e-18 9.772863620213395e-11 9.636103498416255e-11 1.3676012179713834e-12
3.345076488085796 9.455426284020013e-19 8.395693953285606e-11 8.253006690725836e-11 1.426872625597701e-12
3.3482140837626964 9.524076061684084e-19 8.464581814915129e-11 8.32109142208505e-11 1.4349039283007591e-12
3.3513546224236106 9.59332302727973e-19 8.534122772453593e-11 8.389825826835457e-11 1.4429694561814102e-12
3.3576445397418455 1.0070649186410907e-18 8.975561308484812e-11 8.829577388820496e-11 1.4598391966431538e-12
3.3702598118196083 1.1792062223744956e-18 1.0549274106979105e-10 1.0399751993376946e-10 1.4952211360215752e-12
3.382922481734668 1.220865710007085e-18 1.0962999020733256e-10 1.0810043995747422e-10 1.52955024985835e-12
3.389271646505754 1.242319566302155e-18 1.1176585295928127e-10 1.1021891441293297e-10 1.5469385463483117e-12
3.395632727569191 1.2659433731190963e-18 1.1410493383216307e-10 1.125400755148617e-10 1.5648583173013748e-12
3.421196662673239 1.3803923933328315e-18 1.2535741564977731e-10 1.237184437014319e-10 1.6389719483454243e-12
3.4276182099114902 1.3603324622837639e-18 1.237675905719416e-10 1.2211214629875005e-10 1.6554442731915167e-12
3.4340518103208963 1.2682110623770525e-18 1.156026563035482e-10 1.1393166484744893e-10 1.6709914560992857e-12
3.4469541582030403 1.1360874665812806e-18 1.0394813682579038e-10 1.0224737085990892e-10 1.700765965881473e-12
3.472904465399547 1.1004069971812835e-18 1.0144148845233792e-10 9.967203285152975e-11 1.7694556008081834e-12
3.4990501388274233 1.0460194530879363e-18 9.715370337234465e-11 9.531410398880858e-11 1.839599383536036e-12
3.5253949054701885 8.505546407857966e-19 7.959383384619927e-11 7.768632776249869e-11 1.9075060837005567e-12
3.5519380250092896 6.645075665707461e-19 6.265197169615445e-11 6.067640409837695e-11 1.975567597777511e-12
3.578680990867387 5.93098043109793e-19 5.634026827026352e-11 5.429012647125907e-11 2.0501417990044516e-12
3.605625307711299 5.66807578212647e-19 5.424824272372918e-11 5.211967448442965e-11 2.1285682392995386e-12
3.660119384959845 5.528308792154838e-19 5.371022573224168e-11 5.1417414729071074e-11 2.292811003170599e-12
3.715437065384467 5.446702502937061e-19 5.371715426236406e-11 5.1251962312575345e-11 2.4651919497887178e-12
3.8285932144167436 5.51743532905957e-19 5.6071982282796256e-11 5.323896965465995e-11 2.833012628136313e-12
3.94519561050918 5.645828857760946e-19 5.912425528662649e-11 5.589413879667309e-11 3.230116489953386e-12
4.06534921144712 5.793109627473333e-19 6.251425174540756e-11 5.885915135064812e-11 3.655100394759426e-12
4.189162171576248 5.947397949426519e-19 6.613381938954582e-11 6.202599904445516e-11 4.107820345090654e-12
4.316745939156006 6.103153100171518e-19 6.99326823985091e-11 6.534717908980224e-11 4.585503308706877e-12
4.448215356677963 6.257219081072337e-19 7.388165223754628e-11 6.880137708575981e-11 5.080275151786486e-12
4.58368876423945 6.408541117884823e-19 7.797290758816528e-11 7.238113662177259e-11 5.591770966392699e-12
4.723288106065518 6.55730400163208e-19 8.221275244395106e-11 7.609045140424909e-11 6.12230103970196e-12
4.867139040275056 6.703299969787055e-19 8.660278139506801e-11 7.994700510937198e-11 6.6557762856960374e-12
4.940699165968905 6.778189221689415e-19 8.889381246401522e-11 8.196873048141563e-11 6.925081982599597e-12
5.015371051989984 6.849842308902918e-19 9.119123043506853e-11 8.39961437609187e-11 7.1950866741498254e-12
5.091171501069577 6.928107325289799e-19 9.362714204426796e-11 8.615514674195548e-11 7.471995302312504e-12
5.129500256944802 6.965863746568642e-19 9.484609706484963e-11 8.723578160164505e-11 7.610315463204623e-12
5.168117569889187 7.003617233322402e-19 9.607805897994244e-11 8.832798743163835e-11 7.750071548304096e-12
5.20702561229733 7.048432399497038e-19 9.74207986967625e-11 8.951699762346602e-11 7.903801073296466e-12
5.246226572918644 7.092524573817378e-19 9.876824231723271e-11 9.071043534198341e-11 8.057806975249299e-12
5.265937586045735 7.114299871107697e-19 9.944370747714736e-11 9.130881994930896e-11 8.134887527838414e-12
5.285722656980489 7.135894990367269e-19 1.0012032608107438e-10 9.190832026436483e-11 8.212005816709557e-12
5.305582063971359 7.157310302452851e-19 1.0079809298601802e-10 9.250894170641666e-11 8.289151279601349e-12
5.3255160863122235 7.179937310836321e-19 1.0149666825643515e-10 9.312965019863507e-11 8.367018057800074e-12
5.365609099470188 7.235402765890854e-19 1.030507541648498e-10 9.452253578993329e-11 8.528218374916497e-12
5.406003951863644 7.290687922902097e-19 1.0461990000444397e-10 9.593025851020676e-11 8.689641494237187e-12
5.446702915881641 7.3458331091456e-19 1.0620480801639387e-10 9.735360543949248e-11 8.851202576901358e-12
5.487708281020852 7.4034918780556235e-19 1.0784426481199336e-10 9.883065894948892e-11 9.013605862504427e-12
5.529022354014368 7.484262368407802e-19 1.09841582850047e-10 1.006586834853253e-10 9.182899364721693e-12
5.570647458961463 7.566641740481966e-19 1.1188665227696088e-10 1.0253427767026905e-10 9.352374606691828e-12
5.612585937458331 7.650829948974739e-19 1.1398323693922274e-10 1.0446129153163991e-10 9.521945407582866e-12
5.654840148729818 7.740933083196035e-19 1.16193833156805e-10 1.06501347332881e-10 9.692485823923998e-12
5.67608639626678 7.804038190574263e-19 1.17581180559711e-10 1.0779927165336989e-10 9.781908906341101e-12
5.686739436050992 7.836148882153381e-19 1.1828657074454016e-10 1.0845992927474117e-10 9.826641469798975e-12
5.6974124697621304 7.868645838696847e-19 1.1900003615207516e-10 1.0912864993117976e-10 9.871386220895378e-12
5.718818669136295 7.934842716767532e-19 1.2045201844346708e-10 1.1049111165702792e-10 9.960906786439143e-12
5.740305295436557 8.007544338553001e-19 1.2201234550960357e-10 1.1196113290846035e-10 1.0051212601143201e-11
5.7835210386641895 8.198416902586911e-19 1.2586116631855028e-10 1.1562342856048806e-10 1.02377377580622e-11
5.827062130521658 8.412976872192044e-19 1.3012740728621907e-10 1.1970104912014032e-10 1.0426358166078705e-11
5.8489554468988025 8.567397443842924e-19 1.330137877264208e-10 1.2248497256420382e-10 1.052881516221698e-11
5.870931020387893 8.730306462575053e-19 1.360523037226362e-10 1.2542084218846783e-10 1.0631461534168353e-11
5.892989160043636 8.902388321715963e-19 1.3925526033809562e-10 1.285209742965413e-10 1.0734286041554314e-11
5.915130176081913 9.097407499743772e-19 1.4284050872192157e-10 1.3199943782004524e-10 1.0841070901876323e-11
5.95966208400165 9.649927960859865e-19 1.526564434202873e-10 1.415686448849638e-10 1.108779853532348e-11
6.004529249263818 1.0442733985176122e-18 1.6644188008150373e-10 1.5507450660186837e-10 1.1367373479635394e-11
6.027089341400364 1.0994996693976381e-18 1.7590256216459718e-10 1.6437195620698276e-10 1.1530605957614411e-11
6.049734195844842 1.1640962545379327e-18 1.86936720159836e-10 1.7523283582581226e-10 1.1703884334023771e-11
6.095279466722835 1.3506014669637032e-18 2.1851953758812634e-10 2.0638401075525673e-10 1.2135526832869646e-11
6.141167624020661 1.6347166582147294e-18 2.6647892821861484e-10 2.5377610438235524e-10 1.2702823836259592e-11
6.164241091010745 1.8156000177608988e-18 2.970771354043767e-10 2.840148657234936e-10 1.3062269680882987e-11
6.187401249150058 2.0184991422362644e-18 3.315173658131535e-10 3.1808666518798353e-10 1.3430700625169968e-11
6.1990139391386085 2.1168558656306756e-18 3.483239481742289e-10 3.3470589954987365e-10 1.3618048624355312e-11
6.204828454712694 2.168403788281194e-18 3.57140719662297e-10 3.4342811451089245e-10 1.3712605151404538e-11
6.210648424152782 2.2055128712402647e-18 3.6359338627012344e-10 3.498009651518274e-10 1.3792421118296007e-11
6.233982942956859 2.329200766362335e-18 3.854268512347442e-10 3.7135931040664496e-10 1.4067540828099408e-11
6.239830258556775 2.3436225988706276e-18 3.881770774613916e-10 3.7407374542339417e-10 1.41033320379975e-11
6.245683058788269 2.342711236247589e-18 3.883900858790137e-10 3.7425093017715296e-10 1.4139155701860772e-11
6.257405133728602 2.3343250976348977e-18 3.8772610877819324e-10 3.735256417905503e-10 1.4200466987642789e-11
6.269149208991335 2.3037004800368275e-18 3.833575777182949e-10 3.6914132772017226e-10 1.4216249998122806e-11
6.280915325867298 2.234348142585862e-18 3.725145280488496e-10 3.5833870169730774e-10 1.417582635154192e-11
6.304513850009849 2.066427328656845e-18 3.458128865140542e-10 3.317686158024125e-10 1.4044270711641511e-11
6.32820103803542 1.862885748682279e-18 3.129218729500743e-10 2.990630933846874e-10 1.385877956538695e-11
6.3519772230701035 1.6774980524703136e-18 2.828397142540314e-10 2.691491041481211e-10 1.3690610105910207e-11
6.375842739491607 1.5210627552140184e-18 2.574270393860017e-10 2.438867532822694e-10 1.3540286103732297e-11
6.399797922933955 1.3970035873547427e-18 2.3731938570405014e-10 2.238656789329426e-10 1.3453706771107588e-11
6.42384311029221 1.2933213693718935e-18 2.2053159172911634e-10 2.0715167917936786e-10 1.3379912549748485e-11
6.447978639727206 1.2178685640006894e-18 2.084459414617445e-10 1.950903128469731e-10 1.335562861477138e-11
6.472204850670314 1.1546159785808534e-18 1.9836235286096186e-10 1.8502123067452683e-10 1.3341122186434979e-11
6.496522083828205 1.1130460716176408e-18 1.9193911735260464e-10 1.7857256269296648e-10 1.3366554659638206e-11
6.520930681187647 1.0777028298734257e-18 1.8654260614038726e-10 1.7314473027388745e-10 1.3397875866499791e-11
