Dust emission spectrum from A.P. Jones, M. Kohler, N. Ysard, M. Bocchio, and L. Verstraete (2017), A&A, 602A, 46J 
inside the DustPedia framework.

lambda    nu*dP/dnu     j_nu    j_nu(carb.) j_nu(sil)
 (um)   (erg s-1 H-1) (Jy cm2 sr-1 H-1)
0.9927057738263894 6.773450951578035e-23 1.7848427981741648e-15 1.784842798173892e-15 2.728903424587734e-28
1.0001793341362166 6.885375720261112e-23 1.8279947901955234e-15 1.8279947901951952e-15 3.28826659695914e-28
1.0077091589558085 6.997141463909485e-23 1.8716528210588397e-15 1.871652821058444e-15 3.957269947247781e-28
1.0114953028030835 7.052950937422335e-23 1.8936694205859895e-15 1.8936694205855556e-15 4.339132629272918e-28
1.0152956718711033 7.108704181452324e-23 1.915809885782647e-15 1.9158098857821716e-15 4.7563278039722905e-28
1.0229392996569957 7.219965507454311e-23 1.9604439026625985e-15 1.9604439026620273e-15 5.709511725760937e-28
1.0267826658714554 7.275338677953328e-23 1.982901660931694e-15 1.982901660931069e-15 6.25272561434951e-28
1.0306404723013447 7.33063113768817e-23 2.0054784199839975e-15 2.0054784199833127e-15 6.845431245192487e-28
1.03451277320114 7.38583755097381e-23 2.0281732088560458e-15 2.0281732088552968e-15 7.491920817728069e-28
1.0383996230291617 7.440952611686426e-23 2.050985044434742e-15 2.0509850444339224e-15 8.19683847433137e-28
1.0403485208654093 7.468474234998158e-23 2.0624345442512967e-15 2.0624345442504396e-15 8.572761984124429e-28
1.0423010764483396 7.495971044280929e-23 2.0739129316899093e-15 2.0739129316890128e-15 8.965207363758233e-28
1.0462171883269815 7.550887604786102e-23 2.096955863907146e-15 2.0969558639061655e-15 9.802458636136623e-28
1.0471985131304309 7.564600215955796e-23 2.10273445366878e-15 2.1027344536677778e-15 1.0023212128617827e-27
1.048180758391296 7.578306053137487e-23 2.1085201541407346e-15 2.10852015413971e-15 1.0248731560767478e-27
1.0501480137395462 7.60569708177719e-23 2.120112822920868e-15 2.1201128229197962e-15 1.0714462495651936e-27
1.0521189612883777 7.633060044518398e-23 2.1317337412258604e-15 2.1317337412247402e-15 1.120045927216507e-27
1.0531058218030118 7.646709795588055e-23 2.1375488819508203e-15 2.1375488819496752e-15 1.145133445845056e-27
1.0540936079674168 7.660283472246462e-23 2.1433517704257775e-15 2.1433517704246072e-15 1.1707647794237098e-27
1.058054026499678 7.714501154238028e-23 2.1666318629032353e-15 2.1666318629019557e-15 1.2789007367143718e-27
1.0590464539527713 7.728035922052409e-23 2.172468937809476e-15 2.1724689378081687e-15 1.307395195721671e-27
1.06003981227728 7.741562670689197e-23 2.1783128001466035e-15 2.1783128001452667e-15 1.3364977537893558e-27
1.0620293250338977 7.768591795388436e-23 2.1900208202272754e-15 2.1900208202258784e-15 1.3965768440862935e-27
1.0660195594769086 7.822550357473839e-23 2.2135175716106553e-15 2.2135175716091313e-15 1.5245922126815334e-27
1.070024785945596 7.876371840313225e-23 2.2371210362699723e-15 2.237121036268309e-15 1.6638090618466537e-27
1.0740450607676866 7.930051282590773e-23 2.2608301236596335e-15 2.260830123657819e-15 1.8151573776643693e-27
1.07808044048254 7.983583762655681e-23 2.28464373370541e-15 2.28464373370343e-15 1.9796398893186764e-27
1.0861967418109137 8.090093768798594e-23 2.332552804648551e-15 2.332552804646198e-15 2.3524147039730722e-27
1.0902777775684922 8.14284657125482e-23 2.356583568019627e-15 2.356583568017064e-15 2.563126673840115e-27
1.0943741465085532 8.195429375142574e-23 2.3807125965728564e-15 2.380712596570064e-15 2.7918231615167314e-27
1.1026131145906286 8.3000662926697e-23 2.4292608317535674e-15 2.4292608317502577e-15 3.30909486401669e-27
1.1109141095355224 8.403967583692682e-23 2.4781881975501673e-15 2.4781881975462502e-15 3.917232190920697e-27
1.1192775983109025 8.507000599409668e-23 2.527456607418158e-15 2.5274566074135263e-15 4.63126773543005e-27
1.1277040513999907 8.608686860443359e-23 2.576923253281285e-15 2.5769232532758166e-15 5.4685582397095256e-27
1.1361939428280308 8.709517411095447e-23 2.626733388271953e-15 2.626733388265504e-15 6.4491139726541746e-27
1.1447477501889525 8.80945861778938e-23 2.676877217665263e-15 2.6768772176576676e-15 7.595976996834216e-27
1.1533659546722406 8.90853207870654e-23 2.7273615205717442e-15 2.7273615205628088e-15 8.935657658357784e-27
1.1707974979042381 9.104395571516596e-23 2.82945204411955e-15 2.8294520441072302e-15 1.231983739142694e-26
1.1884924949847024 9.296366073937911e-23 2.9327773515169468e-15 2.932777351500045e-15 1.6902386439819794e-26
1.2064549276569216 9.485944138193823e-23 3.0378134278179245e-15 3.037813427794848e-15 2.3077293374661435e-26
1.2246888378427687 9.67105970239219e-23 3.1439038602431488e-15 3.1439038602117924e-15 3.13566168016815e-26
1.2431983285522175 9.851279580505895e-23 3.250891651390382e-15 3.2508916513479783e-15 4.240362761393353e-26
1.2619875648066055 1.0026536161955421e-22 3.358732627114572e-15 3.3587326270574983e-15 5.707306822320511e-26
1.3004222497298317 1.035924616033911e-22 3.575872106904489e-15 3.575872106802528e-15 1.0196178351899571e-25
1.3400274889804893 1.0667885983044742e-22 3.794560712471107e-15 3.7945607122922355e-15 1.788734333622948e-25
1.3808389325824078 1.0951309271405074e-22 4.014010464342774e-15 4.014010464034487e-15 3.0828720120158806e-25
1.4228933163050095 1.1210892147836362e-22 4.2343031439097126e-15 4.234303143387463e-15 5.22250291114516e-25
1.466228494730424 1.1452875784976325e-22 4.457441363885469e-15 4.457441363015444e-15 8.700248228069115e-25
1.5108834753276823 1.167255636751752e-22 4.68129903549765e-15 4.681299034071693e-15 1.4259554801583825e-24
1.5568984535646726 1.1866127090170565e-22 4.90386737046132e-15 4.9038673681596075e-15 2.301711378031881e-24
1.6043148490894465 1.2033938619732046e-22 5.1246809005790856e-15 5.124680896913401e-15 3.665682643448941e-24
1.6531753430134553 1.217649810646577e-22 5.343314757149732e-15 5.343314751396233e-15 5.753500728870546e-24
1.7035239163302658 1.229549521277337e-22 5.559857916824955e-15 5.559857907922869e-15 8.902086234885815e-24
1.755405889504358 1.240070525835832e-22 5.778210636808451e-15 5.778210623223588e-15 1.3584863277510627e-23
1.8088679632656115 1.2489711932129883e-22 5.996926442378938e-15 5.9969264219247765e-15 2.045416316001804e-23
1.8639582606462262 1.2560877819156028e-22 6.214777822586795e-15 6.214777792188502e-15 3.039829182204189e-23
1.9207263702978936 1.261538682678216e-22 6.431844023129828e-15 6.4318439785201996e-15 4.4609627934520244e-23
1.979223391128241 1.2655997497621317e-22 6.649065761440109e-15 6.6490656967712315e-15 6.466887841343441e-23
2.039501978296691 1.268601190396377e-22 6.8678164326840135e-15 6.86781634004074e-15 9.264327337511586e-23
2.1016163906111602 1.2714682330040856e-22 7.092974425308506e-15 7.0929742940962295e-15 1.3121227339411485e-22
2.1656225393682647 1.274737403119125e-22 7.327788482438335e-15 7.327788298640996e-15 1.8379733824335368e-22
2.231578038680979 1.2784471929989291e-22 7.572936335528682e-15 7.572936080811824e-15 2.547168560581878e-22
2.299542257339062 1.2829191014110797e-22 7.830871530707347e-15 7.830871181342451e-15 3.49364897237926e-22
2.369576372248914 1.2888640032761793e-22 8.10675854868604e-15 8.106758074265352e-15 4.744206874699393e-22
2.4417434235010123 1.2971216196051563e-22 8.40717635660416e-15 8.407175718541367e-15 6.380627925291027e-22
2.5161083711144245 1.3091300396606433e-22 8.743424497486738e-15 8.743423647241915e-15 8.502448208480102e-22
2.5927381535095444 1.3272425966918762e-22 9.13436587511376e-15 9.134364752136975e-15 1.1229767866571624e-21
2.6717017477616296 1.3542698433361825e-22 9.604231403983661e-15 9.604229933408324e-15 1.4705753370142414e-21
2.753070231689431 1.3944434794588083e-22 1.0190315713633293e-14 1.0190313803622456e-14 1.9100108371384645e-21
2.836916847834745 1.457346332230964e-22 1.0974350126076953e-14 1.0974347664702855e-14 2.4613740974717407e-21
2.9233170693905177 1.564077393144526e-22 1.2136783204973491e-14 1.2136780057116491e-14 3.1478569972877848e-21
2.967498994190263 1.6547018475576759e-22 1.3034061483375842e-14 1.3034057938310401e-14 3.5450654419357936e-21
3.0123486681368425 1.7605458530784406e-22 1.4077385774938046e-14 1.4077381787119345e-14 3.9878187006676344e-21
3.0578761833420214 1.9972894387660753e-22 1.6211766316126562e-14 1.6211761834084657e-14 4.4820419024177355e-21
3.1040917844459814 2.302351680519102e-22 1.8970363363472652e-14 1.8970358333879773e-14 5.029592880728819e-21
3.127460860933648 2.6250058879191837e-22 2.1791724426817885e-14 2.179171909995025e-14 5.326867638608063e-21
3.1510058709225794 3.05487936378078e-22 2.555128288398348e-14 2.5551277244163326e-14 5.6398201622285954e-21
3.162844764501044 3.454994811199426e-22 2.900645862438483e-14 2.9006452821139266e-14 5.8032455649629614e-21
3.1747281389236908 3.920289281516895e-22 3.303650449677867e-14 3.3036498525921123e-14 5.970857534519245e-21
3.1986289994194426 5.218094592119275e-22 4.4304235915329924e-14 4.4304229595167564e-14 6.320162363886625e-21
3.2227097969389145 8.277214229268304e-22 7.080677724844685e-14 7.080677055198731e-14 6.696459545784459e-21
3.2348180950136065 1.1178170416374374e-21 9.59820503950578e-14 9.598204349463928e-14 6.90041856323161e-21
3.240889293275058 1.3346999490063874e-21 1.1481992873686063e-13 1.148199217275604e-13 7.009300212336618e-21
3.2469718861334385 1.5855997787413147e-21 1.3666003823594335e-13 1.3666003111306522e-13 7.122878093942633e-21
3.2714166318528037 2.9239390754472977e-21 2.5390637759000696e-13 2.539063699910532e-13 7.5989536947481e-21
3.2744851364798273 3.0076042682197922e-21 2.6141659220896157e-13 2.6141658455395784e-13 7.65500374473015e-21
3.2775565192852394 3.093672529568402e-21 2.6914973936254575e-13 2.691497316510966e-13 7.711449146743262e-21
3.283707930232385 3.010908923417319e-21 2.624409333611057e-13 2.6244092555090377e-13 7.810201959512957e-21
3.2898708863219004 2.7484293038795562e-21 2.400119455973873e-13 2.400119376992504e-13 7.898136910166099e-21
3.29141343181113 2.6865300975503667e-21 2.3471647839508e-13 2.3471647047483527e-13 7.920244808200128e-21
3.292184975758714 2.6561150261125452e-21 2.3211357489399487e-13 2.3211356696267737e-13 7.931317436608439e-21
3.295272960557952 2.4641309341173205e-21 2.1553837714456187e-13 2.1553836917070712e-13 7.9738547611913e-21
3.3076538914384823 1.7990393728250837e-21 1.579538298284505e-13 1.579538216836271e-13 8.144823402385231e-21
3.310756385682612 1.663676444987535e-21 1.462061112985314e-13 1.462061031105045e-13 8.188026940673852e-21
3.313861789986515 1.538783159295071e-21 1.353571648589975e-13 1.3535715662758136e-13 8.231416157126625e-21
3.3200813396944477 1.3636356574898569e-21 1.2017565719551438e-13 1.201756488691789e-13 8.32633545991031e-21
3.345076488085796 1.0512000876861139e-21 9.333851224449911e-14 9.33385034846416e-14 8.759857520146073e-21
3.3482140837626964 1.0629192157029824e-21 9.446760615614405e-14 9.446759733631938e-14 8.819824648296365e-21
3.3513546224236106 1.0747679142130926e-21 9.561026253057657e-14 9.56102536504155e-14 8.880161112778435e-21
3.3576445397418455 1.1613478389660845e-21 1.0350622423807588e-13 1.03506215230207e-13 9.007868883791012e-21
3.3702598118196083 1.4806831244002614e-21 1.324631082205731e-13 1.3246309894109913e-13 9.279473941972055e-21
3.382922481734668 1.5534242323535372e-21 1.3949272388014164e-13 1.3949271433883196e-13 9.541309667798193e-21
3.389271646505754 1.5911091950673016e-21 1.4314487283443494e-13 1.4314486315968269e-13 9.674752246255443e-21
3.395632727569191 1.6317164427652484e-21 1.470736374849408e-13 1.4707362767206318e-13 9.812877648810418e-21
3.421196662673239 1.8266945769975823e-21 1.6588740452343796e-13 1.6588739413329196e-13 1.0390146024830325e-20
3.4276182099114902 1.7874144321437106e-21 1.6262493453147864e-13 1.6262492401286794e-13 1.0518610733316922e-20
3.4340518103208963 1.6152662190297033e-21 1.47238161767198e-13 1.472381511279308e-13 1.063926724004188e-20
3.4469541582030403 1.370099209221548e-21 1.2535941488170564e-13 1.2535940401162356e-13 1.0870082104840266e-20
3.472904465399547 1.3014142652733416e-21 1.1997142920810119e-13 1.1997141778896446e-13 1.1419136718466984e-20
3.4990501388274233 1.1963506804752998e-21 1.1111638392295634e-13 1.1111637193557436e-13 1.1987381956967835e-20
3.5253949054701885 8.223729714973636e-22 7.695662866819943e-14 7.695661613060266e-14 1.2537596753715521e-20
3.5519380250092896 4.708794810644521e-22 4.4396075235373714e-14 4.439606214025242e-14 1.3095121293684685e-20
3.578680990867387 3.3153259593576043e-22 3.1493335060456216e-14 3.149332133743637e-14 1.3723019831809134e-20
3.605625307711299 2.751939072958253e-22 2.6338366763110887e-14 2.6338352365225328e-14 1.4397885557780025e-20
3.660119384959845 2.341539893270195e-22 2.2749206123771975e-14 2.2749190270450982e-14 1.5853320996908613e-20
3.715437065384467 2.0513260194501873e-22 2.0230845391278062e-14 2.0230827954262806e-14 1.7437015260928815e-20
3.8285932144167436 1.9061969033443724e-22 1.9372087322691795e-14 1.937206629094743e-14 2.1031744367586172e-20
3.94519561050918 1.8815764418398387e-22 1.9704246921285496e-14 1.9704221659565045e-14 2.526172044609202e-20
4.06534921144712 1.9074361295298305e-22 2.058340857632295e-14 2.058337834013312e-14 3.023618982947082e-20
4.189162171576248 1.9635557138942588e-22 2.1834328230300305e-14 2.1834292130472902e-14 3.609982739849873e-20
4.316745939156006 2.0427486490635456e-22 2.34067358544438e-14 2.3406692845359398e-14 4.3009084406515936e-20
4.448215356677963 2.143037427288669e-22 2.5303756170840857e-14 2.530370506073887e-14 5.1110101986009717e-20
4.58368876423945 2.265452821160706e-22 2.7563830865770347e-14 2.7563770206701927e-14 6.065906840588278e-20
4.723288106065518 2.413291966250665e-22 3.025685174073982e-14 3.0256779742854406e-14 7.199788542219377e-20
4.867139040275056 2.592453609962038e-22 3.3493010050619815e-14 3.3492924687764696e-14 8.536285511736497e-20
4.940699165968905 2.70030110060066e-22 3.54135967265518e-14 3.5413503759977424e-14 9.296657438456462e-20
5.015371051989984 2.813253198461266e-22 3.7452544032968154e-14 3.745244278059729e-14 1.0125237087230411e-19
5.091171501069577 2.949327147870675e-22 3.9857504920675096e-14 3.9857394534457506e-14 1.1038621760045711e-19
5.129500256944802 3.0197112910229445e-22 4.1115910479481886e-14 4.111579522035931e-14 1.1525912256852334e-19
5.168117569889187 3.093216017689213e-22 4.243381399703716e-14 4.243369363104065e-14 1.2036599651476843e-19
5.20702561229733 3.1815728913683266e-22 4.3974511582346716e-14 4.397438572845246e-14 1.2585389425570142e-19
5.246226572918644 3.2725058119816915e-22 4.557187552307557e-14 4.5571743930733876e-14 1.3159234170163758e-19
5.265937586045735 3.3189657775867477e-22 4.639251477905591e-14 4.639238021989624e-14 1.345591596645264e-19
5.285722656980489 3.366103164436031e-22 4.72281818749867e-14 4.722804428193905e-14 1.3759304764375178e-19
5.305582063971359 3.413929558003357e-22 4.807917702232452e-14 4.807903632677046e-14 1.4069555406379432e-19
5.3255160863122235 3.4649981399899955e-22 4.898173222110833e-14 4.898158833959435e-14 1.4388151398395988e-19
5.365609099470188 3.5894541518845135e-22 5.112306382384329e-14 5.1122913246648065e-14 1.505771952290802e-19
5.406003951863644 3.7188389166744683e-22 5.3364587774077766e-14 5.3364430187307824e-14 1.57586769952936e-19
5.446702915881641 3.8533842932711823e-22 5.5711575936940047e-14 5.571141101175317e-14 1.649251868641869e-19
5.487708281020852 3.9983165514155994e-22 5.824218032184629e-14 5.824200768809003e-14 1.7263375625541614e-19
5.529022354014368 4.1943751457826096e-22 6.155807779059341e-14 6.155789685277118e-14 1.8093782223529756e-19
5.570647458961463 4.40183956352236e-22 6.508925749554843e-14 6.508906784696329e-14 1.8964858513964545e-19
5.612585937458331 4.621501724435705e-22 6.885184085707887e-14 6.88516420708904e-14 1.987861884740344e-19
5.654840148729818 4.862042309595717e-22 7.298077981695233e-14 7.29805713999149e-14 2.0841703741391464e-19
5.67608639626678 5.022764670422291e-22 7.567653888920841e-14 7.567632527968952e-14 2.1360951887074505e-19
5.686739436050992 5.105542732496977e-22 7.706810458797964e-14 7.706788833237933e-14 2.1625560032496382e-19
5.6974124697621304 5.1899822192924985e-22 7.848975343217617e-14 7.848953449669453e-14 2.1893548162571934e-19
5.718818669136295 5.364001693779988e-22 8.142629337625782e-14 8.142606897786417e-14 2.243983936269188e-19
5.740305295436557 5.555019264882255e-22 8.464279449519671e-14 8.464256443163697e-14 2.3006355974604364e-19
5.7835210386641895 6.045099163304491e-22 9.280367664209912e-14 9.28034342993665e-14 2.4234273264297597e-19
5.827062130521658 6.60733718588421e-22 1.0219874250538751e-13 1.0219848705497213e-13 2.5545041536980474e-19
5.8489554468988025 6.997695293446491e-22 1.0864325630248312e-13 1.086429934029086e-13 2.6289957450470435e-19
5.870931020387893 7.415942731099395e-22 1.1556937859700446e-13 1.1556910801184492e-13 2.7058515950703855e-19
5.892989160043636 7.864302863811101e-22 1.2301704925701922e-13 1.230167707420761e-13 2.7851494312564313e-19
5.915130176081913 8.3728210736205735e-22 1.3146360890476462e-13 1.3146332197015758e-13 2.8693460709586016e-19
5.95966208400165 9.785846461183579e-22 1.5480659779849558e-13 1.5480629096667618e-13 3.0683181939428334e-19
6.004529249263818 1.1812405216749032e-21 1.8827243280841961e-13 1.8827210172390235e-13 3.310845172322254e-19
6.027089341400364 1.3216581847188759e-21 2.1144441191621893e-13 2.1144406586990714e-13 3.4604631178445255e-19
6.049734195844842 1.4873477608819145e-21 2.3884615303285563e-13 2.388457904719725e-13 3.625608831135686e-19
6.095279466722835 1.964882540767968e-21 3.179066769332467e-13 3.1790627093909893e-13 4.05994147755303e-19
6.141167624020661 2.6983677737161523e-21 4.398671468025608e-13 4.398666795813347e-13 4.672212261950457e-19
6.164241091010745 3.1666196353014488e-21 5.181374096541199e-13 5.181369027178142e-13 5.069363057489092e-19
6.187401249150058 3.6996219851180775e-21 6.076242042153987e-13 6.076236539180312e-13 5.502973673226944e-19
6.1990139391386085 3.959982523481075e-21 6.516063609597349e-13 6.516057883605542e-13 5.725991808031478e-19
6.204828454712694 4.097089921824496e-21 6.747994313187368e-13 6.747988471708354e-13 5.841479016217824e-19
6.210648424152782 4.1973511409301205e-21 6.919611010192534e-13 6.919605071744802e-13 5.938447732144871e-19
6.233982942956859 4.538335351223222e-21 7.509856297192997e-13 7.509850013000693e-13 6.284192303509152e-19
6.239830258556775 4.582184267832306e-21 7.589527846052737e-13 7.589521512265278e-13 6.333787457328959e-19
6.245683058788269 4.5864731769983925e-21 7.603757063757634e-13 7.603750679980049e-13 6.383777586314007e-19
6.257405133728602 4.5782339913346826e-21 7.604342909797601e-13 7.604336437525016e-13 6.472272582786317e-19
6.269149208991335 4.5126645640505826e-21 7.509501219107968e-13 7.509494712489317e-13 6.506618650735753e-19
6.280915325867298 4.346582947449144e-21 7.24670101509024e-13 7.246694541497842e-13 6.473592398171968e-19
6.304513850009849 3.936421169177391e-21 6.587529830691259e-13 6.587523485706931e-13 6.34498432611119e-19
6.32820103803542 3.4275397343916584e-21 5.757476828921542e-13 5.757470689197914e-13 6.139723628688725e-19
6.3519772230701035 2.9609714392995507e-21 4.992436888809166e-13 4.992430941038661e-13 5.947770507424802e-19
6.375842739491607 2.5685155416299706e-21 4.346995870040234e-13 4.3469900890690836e-13 5.780971151346345e-19
6.399797922933955 2.2546090542782392e-21 3.830072024204703e-13 3.830066346548671e-13 5.677656032035064e-19
6.42384311029221 1.9937941645900825e-21 3.3997319700270165e-13 3.399726376668344e-13 5.593358672221804e-19
6.447978639727206 1.8044209232088848e-21 3.088381039214781e-13 3.08837547230829e-13 5.566906490980719e-19
6.472204850670314 1.6469403826970843e-21 2.829433988390362e-13 2.8294284337469454e-13 5.554643417007651e-19
6.496522083828205 1.5454572774671461e-21 2.6650622405242597e-13 2.6650566480196146e-13 5.592504644642989e-19
