Dust emission spectrum from A.P. Jones, M. Kohler, N. Ysard, M. Bocchio, and L. Verstraete (2017), A&A, 602A, 46J 
inside the DustPedia framework.

lambda    nu*dP/dnu     j_nu    j_nu(carb.) j_nu(sil)
 (um)   (erg s-1 H-1) (Jy cm2 sr-1 H-1)
0.9927057738263894 5.184702229590166e-21 1.3661984860177706e-13 1.3661974539111776e-13 1.0321065925706849e-19
1.0001793341362166 5.2716946918145635e-21 1.3995794599532719e-13 1.399578218220256e-13 1.2417330158387136e-19
1.0077091589558085 5.359071852640125e-21 1.4334885185595074e-13 1.433487026627914e-13 1.4919315934323983e-19
1.0114953028030835 5.402901647936574e-21 1.4506423940714963e-13 1.4506407595509093e-13 1.6345205872641184e-19
1.0152956718711033 5.44682405272582e-21 1.4679298927021776e-13 1.467928102566703e-13 1.7901354743336624e-19
1.0229392996569957 5.534899476750776e-21 1.5028963670038883e-13 1.5028942219180589e-13 2.145085829321055e-19
1.0267826658714554 5.578953189411076e-21 1.520549906366072e-13 1.5205475593233085e-13 2.347042763648675e-19
1.0306404723013447 5.623093232884218e-21 1.5383385032333966e-13 1.5383359360818118e-13 2.5671515848251335e-19
1.03451277320114 5.667318723378832e-21 1.5562627693171627e-13 1.5562599623569296e-13 2.8069602327731283e-19
1.0383996230291617 5.711628833970713e-21 1.5743233332030585e-13 1.5743202650620676e-13 3.068140990649569e-19
1.0403485208654093 5.7338153793640784e-21 1.5834049280565998e-13 1.583401720751819e-13 3.2073047810693044e-19
1.0423010764483396 5.7560227963323774e-21 1.5925208411154913e-13 1.592517488615682e-13 3.352499809433618e-19
1.0462171883269815 5.800499902486094e-21 1.6108559577024188e-13 1.610852295716141e-13 3.6619862775846533e-19
1.0471985131304309 5.8116320931656595e-21 1.6154613179121706e-13 1.6154575743850824e-13 3.743527088751593e-19
1.048180758391296 5.822769430180655e-21 1.6200753321868693e-13 1.620071505383359e-13 3.82680350987811e-19
1.0501480137395462 5.845059506580997e-21 1.6293293668411865e-13 1.6293253681369098e-13 3.9987042762437693e-19
1.0521189612883777 5.8673700609587e-21 1.638618150290373e-13 1.6386139723128358e-13 4.177977537519964e-19
1.0531058218030118 5.878518383209466e-21 1.6432715159148266e-13 1.6432672454363884e-13 4.270478438307958e-19
1.0540936079674168 5.8896239268790045e-21 1.6479201998925694e-13 1.6479158349354816e-13 4.364957087622164e-19
1.058054026499678 5.9340949845131494e-21 1.6666015097913835e-13 1.666596746543829e-13 4.763247554279296e-19
1.0590464539527713 5.9452249356835895e-21 1.6712935384017675e-13 1.6712886702813944e-13 4.868120373227879e-19
1.06003981227728 5.956359748917067e-21 1.6759942708296862e-13 1.6759892956311764e-13 4.9751985097222385e-19
1.0620293250338977 5.978643938485849e-21 1.6854218945809507e-13 1.6854166984332725e-13 5.196147677921852e-19
1.0660195594769086 6.023270424040686e-21 1.7043821148992082e-13 1.7043764483957928e-13 5.666503415173136e-19
1.070024785945596 6.067974148317112e-21 1.7234829550915085e-13 1.7234767777110018e-13 6.177380506486629e-19
1.0740450607676866 6.112754892282779e-21 1.74272522415589e-13 1.742718492075627e-13 6.732080263099486e-19
1.07808044048254 6.157612512695474e-21 1.762109756713586e-13 1.7621024225571908e-13 7.334156394926953e-19
1.0861967418109137 6.247490323360805e-21 1.8012895143406982e-13 1.8012808183163953e-13 8.696024302827944e-19
1.0902777775684922 6.292356314336552e-21 1.821041740714634e-13 1.8210322763594675e-13 9.464355166253143e-19
1.0943741465085532 6.337296771463825e-21 1.8409385965554666e-13 1.8409282993772137e-13 1.0297178253824852e-18
1.1026131145906286 6.427402289778242e-21 1.8811701114087506e-13 1.881157934292285e-13 1.217711646533519e-18
1.1109141095355224 6.517810189602944e-21 1.9219922167582813e-13 1.9219778353415603e-13 1.4381416721010673e-18
1.1192775983109025 6.608455509304468e-21 1.963392895843872e-13 1.9633759332513873e-13 1.6962592484740357e-18
1.1277040513999907 6.6990239901863824e-21 2.005285007394427e-13 2.0052650263313677e-13 1.9981063059182884e-18
1.1361939428280308 6.789903724708843e-21 2.0477904773602796e-13 2.0477669711106686e-13 2.350624961072742e-18
1.1447477501889525 6.881104534663467e-21 2.0909198578920155e-13 2.0908922400863303e-13 2.7617805685534418e-18
1.1533659546722406 6.972669202521192e-21 2.1346939664826482e-13 2.1346615594349318e-13 3.2407047716144726e-18
1.1707974979042381 7.15720100218569e-21 2.2243054848324672e-13 2.224261032974457e-13 4.445185801024797e-18
1.1884924949847024 7.343362160819341e-21 2.316652125997308e-13 2.316591459184435e-13 6.066681287347453e-18
1.2064549276569216 7.532484405197802e-21 2.4122303418177107e-13 2.4121479555050883e-13 8.238631262172847e-18
1.2246888378427687 7.723525215076204e-21 2.5107921453899297e-13 2.510680813846421e-13 1.113315435082787e-17
1.2431983285522175 7.916488314416352e-21 2.6124165454193747e-13 2.6122668307343655e-13 1.4971468500914504e-17
1.2619875648066055 8.11183565913328e-21 2.7173379374526523e-13 2.7171375729147043e-13 2.003645379486505e-17
1.3004222497298317 8.509443722580726e-21 2.93734524519242e-13 2.9369914463964503e-13 3.5379879597006454e-17
1.3400274889804893 8.919668173323995e-21 3.172720675171113e-13 3.172107431849885e-13 6.132433212277645e-17
1.3808389325824078 9.346852933999983e-21 3.425925115977956e-13 3.4248812237048347e-13 1.0438922731212675e-16
1.4228933163050095 9.798157741677033e-21 3.7007197627990184e-13 3.6989737753000407e-13 1.7459874989793207e-16
1.466228494730424 1.0285613948040992e-20 4.003144880441051e-13 4.0002740522514153e-13 2.870828189636855e-16
1.5108834753276823 1.0815236289157349e-20 4.337469326770888e-13 4.3328268914795515e-13 4.642435291335318e-16
1.5568984535646726 1.1395476157047577e-20 4.709363322402468e-13 4.70197207305357e-13 7.391249348895788e-16
1.6043148490894465 1.2040198955744636e-20 5.127346879308803e-13 5.115739340124097e-13 1.1607539184705502e-15
1.6531753430134553 1.2766302491579194e-20 5.602133873060793e-13 5.584174439608409e-13 1.7959433452384217e-15
1.7035239163302658 1.3594657457665647e-20 6.147321647850651e-13 6.119938966052232e-13 2.7382681798419235e-15
1.755405889504358 1.4556311799234352e-20 6.782633238891384e-13 6.741470280395259e-13 4.116295849612601e-15
1.8088679632656115 1.567768627592947e-20 7.527630092218618e-13 7.466600988090064e-13 6.1029104128555025e-15
1.8639582606462262 1.6990137796309205e-20 8.406254172631605e-13 8.316977380574088e-13 8.927679205751613e-15
1.9207263702978936 1.853275084487692e-20 9.448760025393569e-13 9.31985404578441e-13 1.2890597960915535e-14
1.979223391128241 2.035185509249865e-20 1.0692228953328788e-12 1.0508445558055286e-12 1.8378339527350318e-14
2.039501978296691 2.2499851487975898e-20 1.2180727162473271e-12 1.192191141704753e-12 2.5881574542574037e-14
2.1016163906111602 2.504109369665118e-20 1.3969349179290907e-12 1.3609182778001042e-12 3.601664012898643e-14
2.1656225393682647 2.8043186621722346e-20 1.6120538978044108e-12 1.562509963336459e-12 4.9543934467951937e-14
2.231578038680979 3.157415289386156e-20 1.8703083789684747e-12 1.802920001507541e-12 6.738837746093337e-14
2.299542257339062 3.5710777000398446e-20 2.179767271718664e-12 2.089107083677842e-12 9.0660188040822e-14
2.369576372248914 4.053700233658152e-20 2.5497157915408885e-12 2.4290393534126236e-12 1.2067643812826446e-13
2.4417434235010123 4.614096467838836e-20 2.9905848569013576e-12 2.831609480907635e-12 1.5897537599372314e-13
2.5161083711144245 5.2618312565354475e-20 3.514274588180664e-12 3.3069383376239635e-12 2.0733625055670125e-13
2.5927381535095444 6.00698755334587e-20 4.134136611971163e-12 3.8663488025385e-12 2.677878094326627e-13
2.6717017477616296 6.859270377290354e-20 4.864467763950156e-12 4.521870165874103e-12 3.4259759807605257e-13
2.753070231689431 7.828286496255524e-20 5.72075613452445e-12 5.286488578653697e-12 4.342675558707522e-13
2.836916847834745 8.925788414000633e-20 6.721444658701755e-12 6.175905606724299e-12 5.455390519774565e-13
2.9233170693905177 1.0166146498920467e-19 7.88863240580045e-12 7.209407690442457e-12 6.792247153579928e-13
2.967498994190263 1.083722564533158e-19 8.536466287201977e-12 7.782619113448172e-12 7.538471737538031e-13
3.0123486681368425 1.154948542308305e-19 9.235008649077181e-12 8.399413312324523e-12 8.355953367526567e-13
3.0578761833420214 1.2360130332296256e-19 1.0032574182530554e-11 9.10726649115751e-12 9.25307691373044e-13
3.1040917844459814 1.322880517784711e-19 1.0899952566402294e-11 9.877351646251649e-12 1.0226009201506424e-12
3.127460860933648 1.3748894741646109e-19 1.141376965141884e-11 1.0339207127660194e-11 1.0745625237586463e-12
3.1510058709225794 1.4319602777402785e-19 1.1977043207980179e-11 1.0848413665329513e-11 1.128629542650665e-12
3.162844764501044 1.4689378788330418e-19 1.2332489086827407e-11 1.1175916362199242e-11 1.1565727246281637e-12
3.1747281389236908 1.5084203007010872e-19 1.2711545110227583e-11 1.1526486725006443e-11 1.1850583852211403e-12
3.1986289994194426 1.6022614588720076e-19 1.3604002077523758e-11 1.236017099887914e-11 1.243831078644623e-12
3.2227097969389145 1.7692660058739989e-19 1.5135046707887822e-11 1.382903477548741e-11 1.3060119324004114e-12
3.2348180950136065 1.9087900988683983e-19 1.638994402829992e-11 1.505077288449446e-11 1.3391711438054612e-12
3.240889293275058 2.0081320877231102e-19 1.7275312206179397e-11 1.5918650229287656e-11 1.356661976891739e-12
3.2469718861334385 2.1215933857752126e-19 1.8285637845593272e-11 1.691087807497342e-11 1.3747597706198547e-12
3.2714166318528037 2.701051773612933e-19 2.3455149160938273e-11 2.2005679290430794e-11 1.4494698705074783e-12
3.2744851364798273 2.7397923282039296e-19 2.381387675790421e-11 2.235562497516077e-11 1.4582517827434396e-12
3.2775565192852394 2.7794247255646423e-19 2.4181015712348306e-11 2.2713940167291374e-11 1.4670755450569366e-12
3.283707930232385 2.7565884303624436e-19 2.4027350509681104e-11 2.2544540910554496e-11 1.4828095991266053e-12
3.2898708863219004 2.6614930191411722e-19 2.324200650954531e-11 2.1744920006096015e-11 1.497086503449292e-12
3.29141343181113 2.6391394507599517e-19 2.3057605736140028e-11 2.155693528352584e-11 1.5006704526141884e-12
3.292184975758714 2.628166887737623e-19 2.296712325081948e-11 2.1464658613474614e-11 1.5024646373448631e-12
3.295272960557952 2.5573360721662967e-19 2.2369106250655436e-11 2.0859670505828783e-11 1.5094357448266552e-12
3.3076538914384823 2.3121681548065946e-19 2.030060157524925e-11 1.8763187245000153e-11 1.5374143302490932e-12
3.310756385682612 2.2624880839573067e-19 1.9883047909423373e-11 1.8338585594169772e-11 1.5444623152535994e-12
3.313861789986515 2.2167575573881877e-19 1.9499434753710117e-11 1.794790310261079e-11 1.5515316510993264e-12
3.3200813396944477 2.156410748146797e-19 1.9004202289565002e-11 1.7437445534895072e-11 1.5667567546699322e-12
3.345076488085796 2.0781850956930654e-19 1.8452691097815355e-11 1.6818031597054656e-11 1.6346595007606985e-12
3.3482140837626964 2.0892406410444944e-19 1.8568256093956268e-11 1.6924395740203145e-11 1.6438603537531238e-12
3.3513546224236106 2.1003585116766968e-19 1.8684576088854532e-11 1.7031475672924702e-11 1.6531004159298274e-12
3.3576445397418455 2.1484439493206865e-19 1.914820984032662e-11 1.7475783045134583e-11 1.6724267951920322e-12
3.3702598118196083 2.302773521280618e-19 2.06007979107897e-11 1.888783671727598e-11 1.7129611935137189e-12
3.382922481734668 2.3582878514130803e-19 2.1176700429647336e-11 1.94244109800025e-11 1.7522894496448369e-12
3.389271646505754 2.3866094594101172e-19 2.1471242114107088e-11 1.9699032214977524e-11 1.772209899129568e-12
3.395632727569191 2.4170048244178447e-19 2.178550647828e-11 1.9992767259774347e-11 1.7927392185056516e-12
3.421196662673239 2.5556528228051274e-19 2.3208620585875938e-11 2.133097501416914e-11 1.8776455717068018e-12
3.4276182099114902 2.551306268424795e-19 2.3212636499455896e-11 2.1316119837347447e-11 1.896516662108446e-12
3.4340518103208963 2.4909867702390344e-19 2.2706369310238176e-11 2.079204142252043e-11 1.914327887717743e-12
3.4469541582030403 2.4100611246984543e-19 2.205123909187583e-11 2.0102800811665584e-11 1.948438280210248e-12
3.472904465399547 2.4280810445343956e-19 2.238336868734933e-11 2.0356237913974387e-11 2.0271307733749513e-12
3.4990501388274233 2.432197473934916e-19 2.259011447904439e-11 2.048262530590872e-11 2.107489173135664e-12
3.5253949054701885 2.32701131208906e-19 2.1775879273497186e-11 1.9590594556037617e-11 2.1852847174595706e-12
3.5519380250092896 2.228762665321051e-19 2.1013511726547665e-11 1.8750254106233182e-11 2.263257620314483e-12
3.578680990867387 2.222064042012426e-19 2.1108092615559512e-11 1.8759401001796444e-11 2.348691613763068e-12
3.605625307711299 2.2516033506407605e-19 2.154973394468219e-11 1.911119512000531e-11 2.4385388246768894e-12
3.660119384959845 2.3426109576645424e-19 2.275961203859276e-11 2.0132912764569083e-11 2.6266992740236778e-12
3.715437065384467 2.44034590468302e-19 2.4067486216605095e-11 2.124330319590047e-11 2.8241830207046267e-12
3.8285932144167436 2.660299568570982e-19 2.703579858746943e-11 2.379023137615738e-11 3.2455672113120498e-12
3.94519561050918 2.89191614670791e-19 3.028472751001609e-11 2.6584228590811424e-11 3.700498919204667e-12
4.06534921144712 3.1305887395863595e-19 3.3782618517992246e-11 2.959524784499593e-11 4.187370672996323e-12
4.189162171576248 3.3737299472760564e-19 3.751517031473753e-11 3.2809152808998507e-11 4.7060175057390356e-12
4.316745939156006 3.6188974248909636e-19 4.146695979829998e-11 3.62136972331075e-11 5.2532625651924855e-12
4.448215356677963 3.8633166426189367e-19 4.5615825972419305e-11 3.9795740917615e-11 5.820085054804293e-12
4.58368876423945 4.10510254666175e-19 4.994690298818667e-11 4.354083606089615e-11 6.406066927290514e-12
4.723288106065518 4.342650144409489e-19 5.444634276284351e-11 4.7432487859795e-11 7.013854903048494e-12
4.867139040275056 4.572833701745913e-19 5.907838217195007e-11 5.145336523268091e-11 7.625016939269171e-12
4.940699165968905 4.685115401607393e-19 6.144380988215508e-11 5.351026987771756e-11 7.933540004437512e-12
5.015371051989984 4.794621549680617e-19 6.383029256273455e-11 5.558742870809722e-11 8.242863854637339e-12
5.091171501069577 4.902825878484749e-19 6.625728404460063e-11 5.769718702440198e-11 8.560097020198631e-12
5.129500256944802 4.955692211949571e-19 6.747591995172494e-11 5.875736003785657e-11 8.718559913868372e-12
5.168117569889187 5.007928450031147e-19 6.87005056044694e-11 5.982183776772131e-11 8.878667836748088e-12
5.20702561229733 5.061304984678542e-19 6.995546613889266e-11 6.090068207139662e-11 9.054784067496044e-12
5.246226572918644 5.113807760449994e-19 7.121326105973889e-11 6.198204413742052e-11 9.23121692231836e-12
5.265937586045735 5.139722084359769e-19 7.184305254640983e-11 6.252353029441163e-11 9.319522251998183e-12
5.285722656980489 5.165406780448471e-19 7.247334943942001e-11 6.306547862615227e-11 9.407870813267748e-12
5.305582063971359 5.190858222504755e-19 7.310408347252417e-11 6.360783296677706e-11 9.49625050574711e-12
5.3255160863122235 5.216298490327163e-19 7.37383760440675e-11 6.4152919489726e-11 9.585456554341514e-12
5.365609099470188 5.268185975136752e-19 7.503252484821193e-11 6.526239334449183e-11 9.770131503720114e-12
5.406003951863644 5.319146396130431e-19 7.632867706819233e-11 6.637361536754483e-11 9.95506170064751e-12
5.446702915881641 5.369154862660446e-19 7.762632950225903e-11 6.748617955056896e-11 1.0140149951690076e-11
5.487708281020852 5.418573613765635e-19 7.893060427854376e-11 6.860440122792555e-11 1.0326203050618224e-11
5.529022354014368 5.470374548846093e-19 8.028507949751317e-11 6.97649297505644e-11 1.0520149746948746e-11
5.570647458961463 5.521302041211432e-19 8.164255990818839e-11 7.092825525948944e-11 1.0714304648698964e-11
5.612585937458331 5.571345072656899e-19 8.30027526061956e-11 7.209418358115471e-11 1.0908569025040897e-11
5.654840148729818 5.621050349062476e-19 8.437372851636959e-11 7.326978430027256e-11 1.110394421609703e-11
5.67608639626678 5.647995144483992e-19 8.509670515016731e-11 7.389031570620635e-11 1.1206389443960968e-11
5.686739436050992 5.661410987088552e-19 8.545892903634332e-11 7.420129289485739e-11 1.1257636141485958e-11
5.6974124697621304 5.674789656821099e-19 8.582165065761451e-11 7.451275385615254e-11 1.1308896801461963e-11
5.718818669136295 5.701437212103236e-19 8.654861157806212e-11 7.51371578697283e-11 1.1411453708333848e-11
5.740305295436557 5.7286123094133825e-19 8.728786190062097e-11 7.577295168514439e-11 1.1514910215476564e-11
5.7835210386641895 5.787917883372783e-19 8.885545880539842e-11 7.712686089669473e-11 1.172859790870369e-11
5.827062130521658 5.848534568408063e-19 9.046199120389009e-11 7.851730523205102e-11 1.1944685971839076e-11
5.8489554468988025 5.884646760253346e-19 9.136253572265807e-11 7.930047255880128e-11 1.2062063163856807e-11
5.870931020387893 5.921130997409697e-19 9.227436817876478e-11 8.009471086941681e-11 1.2179657309347935e-11
5.892989160043636 5.958034555216471e-19 9.319832196784179e-11 8.090086643677655e-11 1.2297455531065258e-11
5.915130176081913 5.997353722387721e-19 9.41658441391462e-11 8.174605331105825e-11 1.241979082808794e-11
5.95966208400165 6.095755537569143e-19 9.643143079400865e-11 8.372898287173641e-11 1.270244792227221e-11
6.004529249263818 6.22100902194227e-19 9.91537694138251e-11 8.613103373025905e-11 1.3022735683566046e-11
6.027089341400364 6.301920345728166e-19 1.008207611356622e-10 8.761102241049269e-11 1.3209738725169526e-11
6.049734195844842 6.3922698988128295e-19 1.0265044360398112e-10 8.924219301503366e-11 1.3408250588947459e-11
6.095279466722835 6.638797933744544e-19 1.0741192647185633e-10 9.350917588407795e-11 1.390275058777837e-11
6.141167624020661 6.991578842359692e-19 1.1397133730212619e-10 9.941867766168502e-11 1.455265964044116e-11
6.164241091010745 7.213184986123996e-19 1.1802557346646687e-10 1.0306112404577463e-10 1.4964449420692235e-11
6.187401249150058 7.451283646406807e-19 1.223795380783112e-10 1.0699300533170109e-10 1.5386532746610115e-11
6.1990139391386085 7.566336393186603e-19 1.245023909506426e-10 1.0890122784296636e-10 1.5601163107676225e-11
6.204828454712694 7.625729751743771e-19 1.255973922479971e-10 1.0988790291516766e-10 1.5709489332829434e-11
6.210648424152782 7.669068004926542e-19 1.2642965914223108e-10 1.1062873072349064e-10 1.580092841874045e-11
6.233982942956859 7.811735255868868e-19 1.2926547877842325e-10 1.1314936662188802e-10 1.61161121565352e-11
6.239830258556775 7.827480251923678e-19 1.296475127668889e-10 1.1349039734190751e-10 1.6157115424981395e-11
6.245683058788269 7.826994502749016e-19 1.297610657285457e-10 1.1356290985507725e-10 1.6198155873468435e-11
6.257405133728602 7.818379919903204e-19 1.298615187046992e-10 1.135931231517994e-10 1.6268395552899826e-11
6.269149208991335 7.784183935602284e-19 1.2953619291768565e-10 1.13249715969453e-10 1.628647694823268e-11
6.280915325867298 7.70657266947233e-19 1.2848536117205953e-10 1.1224519452283702e-10 1.6240166649222506e-11
6.304513850009849 7.517925574537578e-19 1.2581112858290098e-10 1.0972167522986977e-10 1.6089453353031173e-11
6.32820103803542 7.29453428436106e-19 1.2253136469455598e-10 1.0665441444734061e-10 1.5876950247215387e-11
6.3519772230701035 7.09356536634556e-19 1.1960323878200016e-10 1.0391894750079919e-10 1.5684291281201e-11
6.375842739491607 6.9203343665522e-19 1.1712082104673413e-10 1.0160874454767508e-10 1.551207649905903e-11
6.399797922933955 6.791993255675837e-19 1.153806390859136e-10 9.996774994675741e-11 1.5412889139156196e-11
6.42384311029221 6.682676881522637e-19 1.1395012907033948e-10 9.862178036099253e-11 1.532834870934695e-11
6.447978639727206 6.608510731051332e-19 1.131088593393775e-10 9.780833088834682e-11 1.5300528451030665e-11
6.472204850670314 6.546033530234504e-19 1.1246047491565497e-10 9.717656537683725e-11 1.5283909538817705e-11
6.496522083828205 6.510073107792476e-19 1.1226288992643452e-10 9.694984433636427e-11 1.5313045590070246e-11
