Dust emission spectrum from A.P. Jones, M. Kohler, N. Ysard, M. Bocchio, and L. Verstraete (2017), A&A, 602A, 46J 
inside the DustPedia framework.

lambda    nu*dP/dnu     j_nu    j_nu(carb.) j_nu(sil)
 (um)   (erg s-1 H-1) (Jy cm2 sr-1 H-1)
0.9927057738263894 5.859756328870696e-23 1.5440790754089285e-15 1.5440790581926376e-15 1.721629089509239e-23
1.0001793341362166 5.958273215836975e-23 1.5818588323453867e-15 1.5818588116198575e-15 2.0725528865737108e-23
1.0077091589558085 6.057034556997954e-23 1.6201853105771007e-15 1.6201852856599193e-15 2.4917181776611136e-23
1.0114953028030835 6.106500055147571e-23 1.6395537873209474e-15 1.6395537600135444e-15 2.7307402458441924e-23
1.0152956718711033 6.156018517313381e-23 1.6590592084703292e-15 1.6590591785533152e-15 2.991701411238488e-23
1.0229392996569957 6.25515560589601e-23 1.6984681789855776e-15 1.6984681431125133e-15 3.587306431841441e-23
1.0267826658714554 6.304659807124325e-23 1.7183420534139311e-15 1.7183420141500182e-15 3.926391277695675e-23
1.0306404723013447 6.354204044976196e-23 1.738352244032505e-15 1.7383522010714458e-15 4.2961059728414295e-23
1.03451277320114 6.403785809569943e-23 1.758498846553948e-15 1.7584987995631625e-15 4.6990785252822465e-23
1.0383996230291617 6.453402629825347e-23 1.7787819611564276e-15 1.778781909774932e-15 5.138149604770285e-23
1.0403485208654093 6.478223424496479e-23 1.78897474312071e-15 1.788974689398991e-15 5.372171888121435e-23
1.0423010764483396 6.503052074572675e-23 1.7992016929146133e-15 1.799201636750727e-15 5.616388633181749e-23
1.0462171883269815 6.552731753652595e-23 1.8197581522366736e-15 1.8197580908655636e-15 6.137111000321997e-23
1.0471985131304309 6.565156121433384e-23 1.824918644231118e-15 1.8249185814876875e-15 6.274343033347103e-23
1.048180758391296 6.577582195624803e-23 1.8300876908039744e-15 1.8300876266588622e-15 6.414511257616815e-23
1.0501480137395462 6.602439319006533e-23 1.8404514553072155e-15 1.8404513882682506e-15 6.703896476772925e-23
1.0521189612883777 6.627302837045975e-23 1.8508494612456762e-15 1.8508493911880894e-15 7.005758668030205e-23
1.0531058218030118 6.639719742839798e-23 1.856056512169825e-15 1.856056440554446e-15 7.161537906182434e-23
1.0540936079674168 6.652081912707543e-23 1.8612563877401475e-15 1.8612563145335013e-15 7.320664589870894e-23
1.058054026499678 6.701542507911353e-23 1.882140560736663e-15 1.882140480819903e-15 7.991675958394907e-23
1.0590464539527713 6.713910464044833e-23 1.8873827815357412e-15 1.887382699851677e-15 8.16840645303641e-23
1.06003981227728 6.726279475109565e-23 1.8926334774074945e-15 1.8926333939187615e-15 8.348873316741055e-23
1.0620293250338977 6.751020527503606e-23 1.903160302719364e-15 1.9031602155061847e-15 8.721317881512984e-23
1.0660195594769086 6.800513822098595e-23 1.9243157478448636e-15 1.9243156527004275e-15 9.514443628965659e-23
1.070024785945596 6.850020290354829e-23 1.945607038509182e-15 1.9456069347463392e-15 1.0376284263566565e-22
1.0740450607676866 6.899537879991851e-23 1.9670343258259697e-15 1.9670342127012088e-15 1.1312476040568194e-22
1.07808044048254 6.949064588794833e-23 1.9885977701100978e-15 1.9885976468192012e-15 1.2329089635402998e-22
1.0861967418109137 7.048058744479389e-23 2.0321110807352894e-15 2.0321109344330102e-15 1.4630227883059324e-22
1.0902777775684922 7.097343101865596e-23 2.0540092440764854e-15 2.0540090847828717e-15 1.5929361378012048e-22
1.0943741465085532 7.14662594976445e-23 2.0760428334851808e-15 2.0760426601031866e-15 1.7338199415764691e-22
1.1026131145906286 7.245180290940738e-23 2.120517123498071e-15 2.1205169182914982e-15 2.052065723617467e-22
1.1109141095355224 7.34370868473583e-23 2.1655357433878105e-15 2.1655355008302e-15 2.4255761090197067e-22
1.1192775983109025 7.44211814068583e-23 2.211076683028353e-15 2.2110763966916226e-15 2.8633672997763178e-22
1.1277040513999907 7.54002589801293e-23 2.257030413803662e-15 2.2570300762210947e-15 3.3758256667458934e-22
1.1361939428280308 7.637862155552936e-23 2.3035291844587167e-15 2.3035287869688075e-15 3.9748990878362856e-22
1.1447477501889525 7.735617852703705e-23 2.3505756815352925e-15 2.3505752141039287e-15 4.674313641534252e-22
1.1533659546722406 7.83332460695149e-23 2.3981850121203395e-15 2.398184463137867e-15 5.489824725044096e-22
1.1707974979042381 8.028889341434916e-23 2.4952076368698976e-15 2.495206882468814e-15 7.544010839456256e-22
1.1884924949847024 8.224163274598424e-23 2.5945234508931834e-15 2.5945224193847462e-15 1.0315084371764858e-21
1.2064549276569216 8.42051137457099e-23 2.6966153447785203e-15 2.6966139413158605e-15 1.4034626594392854e-21
1.2246888378427687 8.616440898103769e-23 2.801064478425741e-15 2.801062578213141e-15 1.900212600902646e-21
1.2431983285522175 8.811715155894484e-23 2.9078386214328126e-15 2.9078360610794093e-15 2.5603534031096667e-21
1.2619875648066055 9.006527849017308e-23 3.0170458127197206e-15 3.0170423793507112e-15 3.433369008217336e-21
1.3004222497298317 9.393080116266463e-23 3.242364614741127e-15 3.242358527506842e-15 6.087234284437637e-21
1.3400274889804893 9.776633784243041e-23 3.477542834341219e-15 3.477532239239006e-15 1.059510221261192e-20
1.3808389325824078 1.0157989770493697e-22 3.723233106192528e-15 3.723214993683342e-15 1.8112509184993303e-20
1.4228933163050095 1.0540095433663356e-22 3.980946265769088e-15 3.9809158390799625e-15 3.0426689125297486e-20
1.466228494730424 1.0930087291562461e-22 4.2539728989464576e-15 4.253922647327642e-15 5.025161881588511e-20
1.5108834753276823 1.1326124677326853e-22 4.542362003531932e-15 4.542280372425688e-15 8.163110624463224e-20
1.5568984535646726 1.1726977375939885e-22 4.846361518885694e-15 4.846230953680973e-15 1.3056520472027954e-19
1.6043148490894465 1.2134859938264854e-22 5.167658480064019e-15 5.16745247794016e-15 2.0600212385888728e-19
1.6531753430134553 1.2552147092912345e-22 5.508157781411567e-15 5.50783753905881e-15 3.2024235275716145e-19
1.7035239163302658 1.2981890576557277e-22 5.87023668818516e-15 5.869746061853229e-15 4.906263319335195e-19
1.755405889504358 1.343407677632895e-22 6.259718597243862e-15 6.258977449822207e-15 7.411474216547106e-19
1.8088679632656115 1.3908015010069348e-22 6.677923672549017e-15 6.676819357236659e-15 1.104315312358502e-18
1.8639582606462262 1.440294399722372e-22 7.12618164292596e-15 7.124558009192469e-15 1.6236337334912754e-18
1.9207263702978936 1.4920316204055874e-22 7.606991994611866e-15 7.604635577356463e-15 2.35641725540402e-18
1.979223391128241 1.5462563650776497e-22 8.123547952169692e-15 8.1201707889629e-15 3.3771632067914176e-18
2.039501978296691 1.6031823257067796e-22 8.679135731882284e-15 8.674354483258757e-15 4.781248623526624e-18
2.1016163906111602 1.663552218031193e-22 9.280242346111821e-15 9.273552777520301e-15 6.6895685915206225e-18
2.1656225393682647 1.727686486742813e-22 9.931552261540756e-15 9.92229951766193e-15 9.2527438788274e-18
2.231578038680979 1.7953180539899177e-22 1.0634642869369014e-14 1.0621986986626599e-14 1.2655882742413858e-17
2.299542257339062 1.8664377676834897e-22 1.1392639148262498e-14 1.137551554114083e-14 1.7123607121669464e-17
2.369576372248914 1.941262510977547e-22 1.2210245934488048e-14 1.2187320482750028e-14 2.2925451738020963e-17
2.4417434235010123 2.0200648012566015e-22 1.30928671446417e-14 1.3062487021285787e-14 3.0380123355914375e-17
2.5161083711144245 2.103555835487821e-22 1.4049239622217435e-14 1.4009378579955106e-14 3.986104226233202e-17
2.5927381535095444 2.1930656612272753e-22 1.5093144378976536e-14 1.504134438063497e-14 5.179999834156807e-17
2.6717017477616296 2.2898926156940664e-22 1.6239495163845133e-14 1.6172807947501797e-14 6.66872163433353e-17
2.753070231689431 2.3960995225230837e-22 1.7510218933558062e-14 1.7425146043107012e-14 8.507289045105085e-17
2.836916847834745 2.5172858999087177e-22 1.8956082176255685e-14 1.884851157203274e-14 1.0757060422294366e-16
2.9233170693905177 2.666152614953252e-22 2.0688564658558907e-14 2.0553735119491372e-14 1.3482953906754045e-16
2.967498994190263 2.7637121694288145e-22 2.1769719053530954e-14 2.1619534679454994e-14 1.5018437407595677e-16
3.0123486681368425 2.8702195302814523e-22 2.295037503049529e-14 2.2783308380257525e-14 1.6706665023777474e-16
3.0578761833420214 3.0602392550268504e-22 2.483960647415366e-14 2.4653951140005695e-14 1.8565533414796509e-16
3.1040917844459814 3.289523972429641e-22 2.710422807161e-14 2.6898319687916822e-14 2.059083836931762e-16
3.127460860933648 3.511653901207503e-22 2.9152313314670116e-14 2.893555127087425e-14 2.167620437958612e-16
3.1510058709225794 3.7986128481058956e-22 3.177193593941634e-14 3.15438534148371e-14 2.2808252457924535e-16
3.162844764501044 4.060812300305248e-22 3.409260806655325e-14 3.385866445010172e-14 2.339436164515244e-16
3.1747281389236908 4.36042010550925e-22 3.674551240457474e-14 3.6505586621380636e-14 2.399257831941081e-16
3.1986289994194426 5.180496987375169e-22 4.398501342500752e-14 4.373272274736686e-14 2.5229067764064934e-16
3.2227097969389145 7.091887728271877e-22 6.066699504660886e-14 6.040159471485706e-14 2.6540033175180297e-16
3.2348180950136065 8.892371282548107e-22 7.63548950124104e-14 7.608249675278205e-14 2.7239825962838076e-16
3.240889293275058 1.0237887823743632e-21 8.807324456806369e-14 8.779715505109446e-14 2.7608951696920454e-16
3.2469718861334385 1.1796477180538851e-21 1.0167174870707915e-13 1.0139183977964473e-13 2.7990892743439704e-16
3.2714166318528037 2.0026109081810626e-21 1.7390091527153381e-13 1.7360521651435597e-13 2.9569875717787805e-16
3.2744851364798273 2.054116749529809e-21 1.78540842735029e-13 1.7824328140615466e-13 2.975613288743493e-16
3.2775565192852394 2.1070392342498594e-21 1.833125695446909e-13 1.8301313617020923e-13 2.9943337448169354e-16
3.283707930232385 2.056463259643273e-21 1.7924824397247265e-13 1.789454591523954e-13 3.0278482007721383e-16
3.2898708863219004 1.8953922483762126e-21 1.6551882217266482e-13 1.6521298400952058e-13 3.0583816314421324e-16
3.29141343181113 1.8573527545358965e-21 1.6227299968817637e-13 1.619663947278277e-13 3.066049603486888e-16
3.292184975758714 1.8386532709838517e-21 1.6067692081213177e-13 1.603699319332481e-13 3.069888788837214e-16
3.295272960557952 1.7214829939504146e-21 1.505787073489854e-13 1.5027022446963077e-13 3.0848287935463557e-16
3.3076538914384823 1.3135338088648078e-21 1.153269343925142e-13 1.1501244919370162e-13 3.144851988125761e-16
3.310756385682612 1.2299378686609702e-21 1.0808858504760019e-13 1.0777258656652118e-13 3.159984810789953e-16
3.313861789986515 1.1525857058293199e-21 1.0138578165199898e-13 1.0106826479650501e-13 3.1751685549398327e-16
3.3200813396944477 1.0444066973139485e-21 9.204237256463352e-14 9.172159139108713e-14 3.207811735464044e-16
3.345076488085796 8.541115507158443e-22 7.583856048770007e-14 7.550323628644535e-14 3.3532420125472096e-16
3.3482140837626964 8.616695891370954e-22 7.658142046994062e-14 7.6244126357974e-14 3.3729411196661934e-16
3.3513546224236106 8.69301880227317e-22 7.733221273888782e-14 7.69929396555757e-14 3.392730833121254e-16
3.3576445397418455 9.234823742996631e-22 8.230623979054315e-14 8.196282974777348e-14 3.4341004276967657e-16
3.3702598118196083 1.1209563651941824e-21 1.0028166179944815e-13 9.992957396770598e-14 3.520878317421948e-16
3.382922481734668 1.1675025986646854e-21 1.0483814674252914e-13 1.0447761681506967e-13 3.6052992745947964e-16
3.389271646505754 1.19154348691237e-21 1.0719775955009543e-13 1.0683294917324502e-13 3.64810376850387e-16
3.395632727569191 1.2177997675285122e-21 1.0976554310821594e-13 1.0939632142645728e-13 3.692216817586353e-16
3.421196662673239 1.3447270873075752e-21 1.2211854631575415e-13 1.2173105567250917e-13 3.8749064324497455e-16
3.4276182099114902 1.3211392993757055e-21 1.2020166571568976e-13 1.1981008991816018e-13 3.915757975295526e-16
3.4340518103208963 1.2148720518833713e-21 1.1074058603733003e-13 1.1034514244722356e-13 3.954435901064871e-16
3.4469541582030403 1.062814286890388e-21 9.724389024952139e-14 9.684101489407691e-14 4.028753554444873e-16
3.472904465399547 1.0208461909724822e-21 9.410714159252857e-14 9.368715848636656e-14 4.199831061619971e-16
3.4990501388274233 9.568484832703297e-22 8.887155343191162e-14 8.843404554690893e-14 4.375078850027015e-16
3.5253949054701885 7.283531345408947e-22 6.815837054095405e-14 6.770380833811182e-14 4.5456220284219675e-16
3.5519380250092896 5.11610702973649e-22 4.8236349583751806e-14 4.776462275568672e-14 4.717268280650852e-16
3.578680990867387 4.267088897149314e-22 4.0534433723287684e-14 4.004389043804391e-14 4.905432852437792e-16
3.605625307711299 3.93626700744978e-22 3.7673379159625754e-14 3.7163004489248534e-14 5.103746703772125e-16
3.660119384959845 3.7197625316744824e-22 3.613931362337972e-14 3.558721219925113e-14 5.521014241285917e-16
3.715437065384467 3.5726067995495765e-22 3.523421197810792e-14 3.463803171892487e-14 5.961802591830419e-16
3.8285932144167436 3.548591181909029e-22 3.60632304710321e-14 3.537199841410365e-14 6.912320569284514e-16
3.94519561050918 3.5941221264813685e-22 3.763836975775274e-14 3.6843013195363736e-14 7.953565623889891e-16
4.06534921144712 3.6652808367159355e-22 3.9552555307677494e-14 3.86440096304333e-14 9.085456772441974e-16
4.189162171576248 3.749143315989516e-22 4.1689688336574444e-14 4.0658570144209705e-14 1.0311181923647636e-15
4.316745939156006 3.8405150142465863e-22 4.400635414675479e-14 4.284361146370173e-14 1.1627426830530717e-15
4.448215356677963 3.937338810653992e-22 4.6489837255351394e-14 4.51880988963734e-14 1.3017383589780013e-15
4.58368876423945 4.039455804252684e-22 4.914817714947104e-14 4.769979693450328e-14 1.4483802149677642e-15
4.723288106065518 4.148078969013961e-22 5.2006890226932445e-14 5.040320891455944e-14 1.6036813123729863e-15
4.867139040275056 4.265427841921331e-22 5.51068752129982e-14 5.3343106947626905e-14 1.763768265371296e-15
4.940699165968905 4.331206321212095e-22 5.6802403985532655e-14 5.495629387405622e-14 1.846110111476425e-15
5.015371051989984 4.3966681015384e-22 5.853238015024004e-14 5.660262732119078e-14 1.929752829049261e-15
5.091171501069577 4.473509360032407e-22 6.045545725875377e-14 5.843899999620199e-14 2.016457262551761e-15
5.129500256944802 4.51181757785101e-22 6.143219326369217e-14 5.937196627309086e-14 2.060226990601301e-15
5.168117569889187 4.551076511927968e-22 6.243325169953892e-14 6.032857541476653e-14 2.1046762847723758e-15
5.20702561229733 4.599146920960195e-22 6.356769008604954e-14 6.141461124656629e-14 2.153078839483267e-15
5.246226572918644 4.64753720650359e-22 6.472012556499898e-14 6.251823344727667e-14 2.2018921177223112e-15
5.265937586045735 4.671858921555257e-22 6.530325968636822e-14 6.307681211076397e-14 2.2264475756042566e-15
5.285722656980489 4.696268721375037e-22 6.589109794680698e-14 6.363999852757389e-14 2.251099419233103e-15
5.305582063971359 4.720769494733012e-22 6.648371278978652e-14 6.420786729288564e-14 2.275845496900864e-15
5.3255160863122235 4.747045738006374e-22 6.710494891666901e-14 6.480407792754042e-14 2.300870989128592e-15
5.365609099470188 4.813022719067108e-22 6.854982881541819e-14 6.619718202328225e-14 2.3526467921359725e-15
5.406003951863644 4.88031530072903e-22 7.003153943108164e-14 6.762668808175467e-14 2.4048513493269807e-15
5.446702915881641 4.949006749141267e-22 7.155189940403094e-14 6.909443172103489e-14 2.4574676829960713e-15
5.487708281020852 5.022436531545262e-22 7.316020389174085e-14 7.064950978571931e-14 2.5106941060215305e-15
5.529022354014368 5.126612468507738e-22 7.523991015823695e-14 7.267371493098193e-14 2.5661952272549907e-15
5.570647458961463 5.235068294223497e-22 7.741006987924579e-14 7.478791863412683e-14 2.6221512451189575e-15
5.612585937458331 5.348141330076826e-22 7.967742904706526e-14 7.69988840315225e-14 2.6785450155427566e-15
5.654840148729818 5.471172277402769e-22 8.212401165857943e-14 7.938838489887177e-14 2.7356267597076277e-15
5.67608639626678 5.556860291515595e-22 8.372360274593993e-14 8.095811667120647e-14 2.765486074733446e-15
5.686739436050992 5.600749304581252e-22 8.45432416869459e-14 8.176277844455363e-14 2.7804632423922692e-15
5.6974124697621304 5.645357762939335e-22 8.537654275623587e-14 8.258107102624065e-14 2.795471729995217e-15
5.718818669136295 5.736803968801966e-22 8.708548387436599e-14 8.425990227939483e-14 2.8255815949711665e-15
5.740305295436557 5.837595950796363e-22 8.894846459541887e-14 8.609243216045618e-14 2.8560324349627136e-15
5.7835210386641895 6.101751725103369e-22 9.367340034457279e-14 9.07543963722731e-14 2.9190039722996964e-15
5.827062130521658 6.402319508434553e-22 9.902763919443604e-14 9.604457877683667e-14 2.9830604175993743e-15
5.8489554468988025 6.616787498890228e-22 1.027294430516624e-13 9.971181240507693e-14 3.01763064658551e-15
5.870931020387893 6.844736486036697e-22 1.0666775230534109e-13 1.0361536404076398e-13 3.052388264577094e-15
5.892989160043636 7.08722989817461e-22 1.1086171585424678e-13 1.0777438442361e-13 3.087331430636789e-15
5.915130176081913 7.362541350914857e-22 1.156009722638545e-13 1.1247742400790223e-13 3.1235482559522592e-15
5.95966208400165 8.138685995854139e-22 1.2874944385915236e-13 1.255434645044604e-13 3.2059793546919595e-15
6.004529249263818 9.255258221689956e-22 1.4751525618143862e-13 1.4421656185938408e-13 3.2986943220545286e-15
6.027089341400364 1.003285357301667e-21 1.6050979353933917e-13 1.5715757514568072e-13 3.3522183936584136e-15
6.049734195844842 1.0946353596573375e-21 1.7578232307477733e-13 1.7237341572688592e-13 3.408907347891384e-15
6.095279466722835 1.3586313911660888e-21 2.1981873306991242e-13 2.1627064075717438e-13 3.5480923127381074e-15
6.141167624020661 1.7629021466946396e-21 2.8737473998614815e-13 2.8364619555023055e-13 3.728544435917692e-15
6.164241091010745 2.020993250182784e-21 3.3068455582872174e-13 3.268428468256344e-13 3.841709003087358e-15
6.187401249150058 2.3125630435069855e-21 3.7981428498945e-13 3.7585632907853475e-13 3.957955910915343e-15
6.1990139391386085 2.454553532728916e-21 4.038913519841433e-13 3.9987423712954553e-13 4.017114854597837e-15
6.204828454712694 2.529140983899439e-21 4.165549036571425e-13 4.1250790356648865e-13 4.047000090653859e-15
6.210648424152782 2.5833263672976325e-21 4.258784403277777e-13 4.2180595627415215e-13 4.0724840536254836e-15
6.233982942956859 2.7659421473891607e-21 4.57697072730497e-13 4.53535645922044e-13 4.161426808452911e-15
6.239830258556775 2.788450122825402e-21 4.618544043084533e-13 4.576805649195414e-13 4.173839388911907e-15
6.245683058788269 2.7890725904450114e-21 4.623908086345381e-13 4.582045351566317e-13 4.186273477906561e-15
6.257405133728602 2.7810032047567667e-21 4.619183301299849e-13 4.577102511802193e-13 4.2080789497655e-15
6.269149208991335 2.7412773964633196e-21 4.561745208063213e-13 4.5195822829460506e-13 4.2162925117161646e-15
6.280915325867298 2.646165918103614e-21 4.4117352588594587e-13 4.3696583236034075e-13 4.20769352560507e-15
6.304513850009849 2.413477835964612e-21 4.038911629837492e-13 3.9971588666882014e-13 4.1752763149290106e-15
6.32820103803542 2.1279085470880387e-21 3.574395952581989e-13 3.533129295263617e-13 4.1266657318372646e-15
6.3519772230701035 1.8667671493817954e-21 3.1475201198142894e-13 3.1066881080553475e-13 4.0832011758941505e-15
6.375842739491607 1.646590802331399e-21 2.786716023854994e-13 2.746265949755835e-13 4.045007409915879e-15
6.399797922933955 1.4710959186748986e-21 2.4990600088059036e-13 2.458799558432337e-13 4.026045037356653e-15
6.42384311029221 1.3246801668395206e-21 2.2587875886330312e-13 2.2186784838275852e-13 4.010910480544602e-15
6.447978639727206 1.2181170267693311e-21 2.084884674430028e-13 2.0447767678992822e-13 4.010790653074551e-15
6.472204850670314 1.1290017319053169e-21 1.9396184019564653e-13 1.8994818378666254e-13 4.0136564089839445e-15
6.496522083828205 1.0708344985081822e-21 1.8465994689300328e-13 1.8063124268356277e-13 4.02870420944052e-15
