Dust emission spectrum from A.P. Jones, M. Kohler, N. Ysard, M. Bocchio, and L. Verstraete (2017), A&A, 602A, 46J 
inside the DustPedia framework.

lambda    nu*dP/dnu     j_nu    j_nu(carb.) j_nu(sil)
 (um)   (erg s-1 H-1) (Jy cm2 sr-1 H-1)
0.9927057738263894 1.6484056391442886e-22 4.343642486716349e-15 4.3436424244591215e-15 6.22572268876357e-23
1.0001793341362166 1.6761573097321775e-22 4.4500212540650865e-15 4.450021179124601e-15 7.494048556299489e-23
1.0077091589558085 1.703995749197588e-22 4.557987668975895e-15 4.557987578887503e-15 9.008839050060173e-23
1.0114953028030835 1.7179458443727078e-22 4.612567903244681e-15 4.612567804519212e-15 9.872547024761281e-23
1.0152956718711033 1.7319156552321793e-22 4.667547064755846e-15 4.667546956601098e-15 1.0815474864398267e-22
1.0229392996569957 1.7598982951951257e-22 4.778668095518488e-15 4.778667965844828e-15 1.2967366024966746e-22
1.0267826658714554 1.7738790691021006e-22 4.834727162700325e-15 4.834727020776816e-15 1.419235101371071e-22
1.0306404723013447 1.7878763539057625e-22 4.891185189940464e-15 4.891185034661411e-15 1.552790548934347e-22
1.03451277320114 1.8018895535940933e-22 4.948042916859544e-15 4.94804274702447e-15 1.6983507302845653e-22
1.0383996230291617 1.8159180838994081e-22 5.005301103714693e-15 5.0053009180206866e-15 1.8569400394494004e-22
1.0403485208654093 1.8229379187403302e-22 5.034080613168973e-15 5.0340804190226635e-15 1.9414631041561204e-22
1.0423010764483396 1.8299613726200266e-22 5.062960532732091e-15 5.062960329765564e-15 2.0296652677650381e-22
1.0462171883269815 1.8440188599396078e-22 5.1210220094585395e-15 5.121021787686363e-15 2.2177217964285836e-22
1.0471985131304309 1.8475353859020524e-22 5.135600295325895e-15 5.1356000685978455e-15 2.267280494493179e-22
1.048180758391296 1.8510527565960528e-22 5.150203774159624e-15 5.150203542369755e-15 2.3178986992860606e-22
1.0501480137395462 1.8580899987440114e-22 5.1794863641317986e-15 5.1794861218917776e-15 2.4224002188859244e-22
1.0521189612883777 1.8651305200304927e-22 5.208869887240611e-15 5.2088696341002385e-15 2.531403717689711e-22
1.0531058218030118 1.8686472165986906e-22 5.223586189848164e-15 5.22358593108269e-15 2.587654747214908e-22
1.0540936079674168 1.8721490702504592e-22 5.2382839861741245e-15 5.238283721662763e-15 2.645113591795096e-22
1.058054026499678 1.886163637672865e-22 5.297325328399855e-15 5.297325039660069e-15 2.887397857036099e-22
1.0590464539527713 1.8896690284947907e-22 5.312148272280899e-15 5.312147977160114e-15 2.951207834484044e-22
1.06003981227728 1.8931751034000042e-22 5.326996287544055e-15 5.3269959859074795e-15 3.016365747921578e-22
1.0620293250338977 1.9001892748964623e-22 5.356767589289645e-15 5.356767274206229e-15 3.150834126751925e-22
1.0660195594769086 1.914225493823937e-22 5.4166116841371045e-15 5.416611340419953e-15 3.437171513943626e-22
1.070024785945596 1.9282718207755675e-22 5.476858560466434e-15 5.476858185636921e-15 3.7482951203917706e-22
1.0740450607676866 1.9423277967862763e-22 5.537509199513295e-15 5.537508790889707e-15 4.086235884476989e-22
1.07808044048254 1.9563929778992518e-22 5.598564617722494e-15 5.598564172404385e-15 4.453181084928919e-22
1.0861967418109137 1.984527240967328e-22 5.721830567245967e-15 5.721830038877548e-15 5.283684165131053e-22
1.0902777775684922 1.9985454513036987e-22 5.783897964022295e-15 5.783897388771851e-15 5.752504422535554e-22
1.0943741465085532 2.0125703731018867e-22 5.846370482144067e-15 5.846369856056339e-15 6.260877265979766e-22
1.1026131145906286 2.040638926965275e-22 5.972535690957574e-15 5.972534950044991e-15 7.409125846299766e-22
1.1109141095355224 2.0687302242982306e-22 6.1003362694058914e-15 6.100335393748474e-15 8.75657415510128e-22
1.1192775983109025 2.0968192779646212e-22 6.229715957726878e-15 6.229714924158656e-15 1.0335682204931614e-21
1.1277040513999907 2.1248001494705147e-22 6.360374122684869e-15 6.360372904301297e-15 1.2183835693525874e-21
1.1361939428280308 2.1527940654854077e-22 6.492685854993886e-15 6.49268442059058e-15 1.4344033057552932e-21
1.1447477501889525 2.1807995418983687e-22 6.626664433401343e-15 6.626662746835089e-15 1.6865662557808502e-21
1.1533659546722406 2.2088261640415687e-22 6.762357066478397e-15 6.762355085938073e-15 1.980540322431051e-21
1.1707974979042381 2.2650278539507367e-22 7.039223681579405e-15 7.039220960728773e-15 2.7208506302872636e-21
1.1884924949847024 2.3213016498915507e-22 7.323142022049348e-15 7.323138302847752e-15 3.71920159465616e-21
1.2064549276569216 2.3780347009317937e-22 7.615505258165141e-15 7.615500199338175e-15 5.058826965342405e-21
1.2246888378427687 2.434823029304778e-22 7.915212765098266e-15 7.915205917775e-15 6.847323265366346e-21
1.2431983285522175 2.491607393219057e-22 8.222226977688137e-15 8.222217754395923e-15 9.223292213892973e-21
1.2619875648066055 2.5484551855391686e-22 8.536925855698902e-15 8.536913491333793e-15 1.2364365107091323e-20
1.3004222497298317 2.6619093641240644e-22 9.188552235317781e-15 9.188530327666632e-15 2.1907651147947143e-20
1.3400274889804893 2.775419921298624e-22 9.872152187141765e-15 9.872114080757229e-15 3.8106384538062226e-20
1.3808389325824078 2.889299426794426e-22 1.0590220626911763e-14 1.059015552695015e-14 6.509996161187037e-20
1.4228933163050095 3.0044575891562915e-22 1.1347700118552219e-14 1.1347590833862702e-14 1.0928468951734332e-19
1.466228494730424 3.1229738890872593e-22 1.2154565589380136e-14 1.2154385225171916e-14 1.8036420822007912e-19
1.5108834753276823 3.244427451461987e-22 1.3011832730606252e-14 1.3011539948228023e-14 2.927823782323516e-19
1.5568984535646726 3.368555011469871e-22 1.3921093951567994e-14 1.3920626001360212e-14 4.67950207781414e-19
1.6043148490894465 3.496045277758649e-22 1.4887990564545842e-14 1.488725279208042e-14 7.377724654264919e-19
1.6531753430134553 3.627625646180435e-22 1.5918817938597646e-14 1.5917671892792606e-14 1.1460458050385476e-18
1.7035239163302658 3.764187261831652e-22 1.7021149604746804e-14 1.7019395158208063e-14 1.754446538737412e-18
1.755405889504358 3.9085531106022576e-22 1.8212224778901476e-14 1.820957656246845e-14 2.648216433026476e-18
1.8088679632656115 4.060537689593494e-22 1.9496643295957066e-14 1.9492700585208584e-14 3.94271074848469e-18
1.8639582606462262 4.219890783877259e-22 2.0878862158330352e-14 2.0873070058090474e-14 5.7921002398655206e-18
1.9207263702978936 4.386964028132882e-22 2.236655027028547e-14 2.2358151041931555e-14 8.39922835391036e-18
1.979223391128241 4.562357962706382e-22 2.396920363406059e-14 2.3957176248032892e-14 1.2027386027695138e-17
2.039501978296691 4.746546102480844e-22 2.5696339848873035e-14 2.56793266852216e-14 1.7013163651442185e-17
2.1016163906111602 4.941483493812476e-22 2.756641112604453e-14 2.754262856159279e-14 2.378256445173661e-17
2.1656225393682647 5.147896751313287e-22 2.9592525041433975e-14 2.955965956858177e-14 3.2865472852211166e-17
2.231578038680979 5.364791998332372e-22 3.177857363151861e-14 3.173366165197661e-14 4.491197954201127e-17
2.299542257339062 5.591906848645519e-22 3.413270883196116e-14 3.4071999323541493e-14 6.070950841967303e-17
2.369576372248914 5.8295579582174275e-22 3.666703290084299e-14 3.658583178832235e-14 8.120111252063838e-17
2.4417434235010123 6.0781964117419485e-22 3.939527981897961e-14 3.928778024891584e-14 1.0749957006376271e-16
2.5161083711144245 6.339462761478718e-22 4.234003676516836e-14 4.219913091423445e-14 1.4090585093390079e-16
2.5927381535095444 6.616643656211456e-22 4.5537149102755125e-14 4.5354228392541055e-14 1.829207102140722e-16
2.6717017477616296 6.912741649944374e-22 4.902388602146597e-14 4.878864253595501e-14 2.3524348551096993e-16
2.753070231689431 7.232677133607881e-22 5.285496653822445e-14 5.2555190653109796e-14 2.9977588511465937e-16
2.836916847834745 7.590701539044108e-22 5.716075482517437e-14 5.6782122484149965e-14 3.7863234102439295e-16
2.9233170693905177 8.019450560355223e-22 6.222859130925426e-14 6.175455251969979e-14 4.740387895544569e-16
2.967498994190263 8.293197157999305e-22 6.532538886728537e-14 6.479769001545065e-14 5.276988518347561e-16
3.0123486681368425 8.589467798703094e-22 6.86816827816889e-14 6.809502382271167e-14 5.866589589772282e-16
3.0578761833420214 9.103376092112943e-22 7.389104604905158e-14 7.323950612864197e-14 6.515399204096235e-16
3.1040917844459814 9.716725972520856e-22 8.006154053773955e-14 7.933936721845347e-14 7.221733192860541e-16
3.127460860933648 1.0303055135545476e-21 8.553174653870722e-14 8.477174306463642e-14 7.600034740708014e-16
3.1510058709225794 1.1056258010147539e-21 9.247552600766482e-14 9.16760817052619e-14 7.994443024028859e-16
3.162844764501044 1.1742798867115373e-21 9.858683676436765e-14 9.776697858731717e-14 8.198581770504925e-16
3.1747281389236908 1.2524440185957213e-21 1.0554418177092061e-13 1.0470349244859229e-13 8.40689322328371e-16
3.1986289994194426 1.4655812166451552e-21 1.2443518381860527e-13 1.2355145091311434e-13 8.837329054909338e-16
3.2227097969389145 1.9614190493085346e-21 1.6778804784846894e-13 1.6685869574541325e-13 9.293521030556537e-16
3.2348180950136065 2.4278724401987274e-21 2.0847076599097868e-13 2.0751706670528504e-13 9.536992856935334e-16
3.240889293275058 2.7764449563647264e-21 2.388485983452213e-13 2.378820564948525e-13 9.665418503687952e-16
3.2469718861334385 3.180325040789542e-21 2.7410658572495556e-13 2.731267555177749e-13 9.798302071807308e-16
3.2714166318528037 5.307814769471957e-21 4.60915219592664e-13 4.598804678890479e-13 1.0347517036158788e-15
3.2744851364798273 5.440917613673365e-21 4.729166519962736e-13 4.718754256500218e-13 1.0412263462518211e-15
3.2775565192852394 5.577642965929068e-21 4.852553514274444e-13 4.842076178694277e-13 1.0477335580166496e-15
3.283707930232385 5.446804878487541e-21 4.747618053234509e-13 4.737024300636131e-13 1.0593752598377044e-15
3.2898708863219004 5.030286076223275e-21 4.392795355374745e-13 4.382095613393178e-13 1.0699741981567896e-15
3.29141343181113 4.931887722359136e-21 4.308886466924707e-13 4.2981601093439696e-13 1.0726357580736157e-15
3.292184975758714 4.8835123782399404e-21 4.267622090942974e-13 4.2568824078020236e-13 1.0739683140949603e-15
3.295272960557952 4.580966562201749e-21 4.0069871486928763e-13 3.996195623458469e-13 1.0791525234407278e-15
3.3076538914384823 3.526453063817933e-21 3.096189975351213e-13 3.085190205595626e-13 1.0999769755586588e-15
3.310756385682612 3.3100395937097694e-21 2.908907069632174e-13 2.897854805712302e-13 1.105226391987271e-15
3.313861789986515 3.1096636213453732e-21 2.7353772941165896e-13 2.7242723624810506e-13 1.1104931635538768e-15
3.3200813396944477 2.829574538228406e-21 2.4936718092370806e-13 2.482453615028683e-13 1.1218194208397727e-15
3.345076488085796 2.3381980731301775e-21 2.0761407084670296e-13 2.064417826271809e-13 1.172288219522049e-15
3.3482140837626964 2.357875161360558e-21 2.0955762095376973e-13 2.0837849619582333e-13 1.1791247579463612e-15
3.3513546224236106 2.3777400866874757e-21 2.1152134420026228e-13 2.1033535186510225e-13 1.1859923351600158e-15
3.3576445397418455 2.518190331940269e-21 2.2443609436085243e-13 2.2323574435599826e-13 1.2003500048541762e-15
3.3702598118196083 3.028912078149773e-21 2.709689208898526e-13 2.6973845468035626e-13 1.2304662094963809e-15
3.382922481734668 3.1499320215159404e-21 2.8285421880720346e-13 2.815944678938506e-13 1.259750913352835e-15
3.389271646505754 3.2123936876676625e-21 2.8900448023360136e-13 2.8772988358380216e-13 1.2745966497991815e-15
3.395632727569191 3.280815116072875e-21 2.9571401034526155e-13 2.944241141918062e-13 1.2898961534553329e-15
3.421196662673239 3.612094046301751e-21 3.280246811814746e-13 3.266714387837933e-13 1.3532423976812367e-15
3.4276182099114902 3.551283159911645e-21 3.231076022423768e-13 3.217402096413239e-13 1.3673926010528852e-15
3.4340518103208963 3.276325970463445e-21 2.9865059242738857e-13 2.9726980967875446e-13 1.380782748634127e-15
3.4469541582030403 2.8824279308298273e-21 2.637323461071229e-13 2.6232584943568494e-13 1.4064966714379186e-15
3.472904465399547 2.773532522068087e-21 2.556792786943749e-13 2.5421356817812656e-13 1.4657105162484065e-15
3.4990501388274233 2.6079714024201705e-21 2.4222692922804213e-13 2.4070059487478495e-13 1.5263343532572137e-15
3.5253949054701885 2.0182335622238388e-21 1.888637591419859e-13 1.872784815889966e-13 1.5852775529892873e-15
3.5519380250092896 1.4578817705436628e-21 1.374539162824066e-13 1.3580935740986452e-13 1.644558872542087e-15
3.578680990867387 1.23878817689055e-21 1.1767642639671329e-13 1.1596688819352625e-13 1.7095382031870094e-15
3.605625307711299 1.1539208387565368e-21 1.1043990968192216e-13 1.0866191395567337e-13 1.7779957262487945e-15
3.660119384959845 1.0993390928875782e-21 1.0680617356081991e-13 1.0488425734888848e-13 1.921916211931452e-15
3.715437065384467 1.0624073425292503e-21 1.0477807274647007e-13 1.0270429802746049e-13 2.0737747190095722e-15
3.8285932144167436 1.058343183727829e-21 1.0755613198500312e-13 1.0515550189335168e-13 2.400630091651419e-15
3.94519561050918 1.0718594986636647e-21 1.1224728242208665e-13 1.0948952608570172e-13 2.7577563363849088e-15
4.06534921144712 1.0915834260347843e-21 1.1779428577120792e-13 1.1464939385176318e-13 3.14489191944475e-15
4.189162171576248 1.1141675521679772e-21 1.2389309794188968e-13 1.2033020678548458e-13 3.5628911564050405e-15
4.316745939156006 1.1382454593322569e-21 1.304253013033391e-13 1.2641495429654043e-13 4.010347006798648e-15
4.448215356677963 1.1632562545995813e-21 1.373506232592199e-13 1.3286940042534365e-13 4.481222833876268e-15
4.58368876423945 1.1891395732565127e-21 1.4468296036393907e-13 1.3970676975223907e-13 4.9761906116999866e-15
4.723288106065518 1.2161895510843945e-21 1.5248079159260452e-13 1.469823707945666e-13 5.498420798037958e-15
4.867139040275056 1.244916099832197e-21 1.6083600217042553e-13 1.5480164733438453e-13 6.034354836041047e-15
4.940699165968905 1.2608853083449088e-21 1.6536112886902852e-13 1.590520371950252e-13 6.3090916740032875e-15
5.015371051989984 1.2766075586790329e-21 1.6995342200409753e-13 1.6336590820839844e-13 6.587513795699186e-15
5.091171501069577 1.2950973757574255e-21 1.7502076724270008e-13 1.6814520293270994e-13 6.875564309990096e-15
5.129500256944802 1.3042412851889347e-21 1.7758342688219985e-13 1.705627250789055e-13 7.0207018032944026e-15
5.168117569889187 1.3135839776668581e-21 1.8020202229343337e-13 1.7303406880959575e-13 7.167953483837643e-15
5.20702561229733 1.3251619089728157e-21 1.8315892705996638e-13 1.7583037818595003e-13 7.328548874016334e-15
5.246226572918644 1.3367634248947696e-21 1.8615342463277326e-13 1.7866311287260185e-13 7.490311760171377e-15
5.265937586045735 1.3425745043626186e-21 1.876651092826717e-13 1.800934976384512e-13 7.571611644220511e-15
5.285722656980489 1.3483932958974792e-21 1.8918660750057088e-13 1.815334275119914e-13 7.653179988579447e-15
5.305582063971359 1.3542204504737245e-21 1.9071806743328898e-13 1.8298305861791294e-13 7.735008815376087e-15
5.3255160863122235 1.360488817045802e-21 1.9232073505973755e-13 1.8450300439159362e-13 7.817730668143914e-15
5.365609099470188 1.3764192763817929e-21 1.960375241954019e-13 1.8804864567173112e-13 7.988878523670752e-15
5.406003951863644 1.3926057527345885e-21 1.998361144207523e-13 1.9167488599972297e-13 8.161228421029332e-15
5.446702915881641 1.4090675771312601e-21 2.03720598178355e-13 1.9538588121710322e-13 8.33471696125177e-15
5.487708281020852 1.4266565485546897e-21 2.078164319652145e-13 1.9930641873531198e-13 8.510013229902478e-15
5.529022354014368 1.4519959198609533e-21 2.1309986512841448e-13 2.0440709502946266e-13 8.692770098951849e-15
5.570647458961463 1.4782938200808163e-21 2.1859280812207056e-13 2.0971602117321037e-13 8.876786948860243e-15
5.612585937458331 1.5056297746608222e-21 2.2431103095019223e-13 2.152490315393219e-13 9.061999410870359e-15
5.654840148729818 1.5353537856140176e-21 2.3046141813261597e-13 2.2121216884113412e-13 9.249249291481868e-15
5.67608639626678 1.556289418419678e-21 2.3448161405897277e-13 2.2513438545184078e-13 9.347228607131992e-15
5.686739436050992 1.5670011350137622e-21 2.3653862809539213e-13 2.2714227825538783e-13 9.396349840004358e-15
5.6974124697621304 1.5778808625173364e-21 2.3862794632313426e-13 2.2918238887558526e-13 9.445557447549104e-15
5.718818669136295 1.6001612067920632e-21 2.429067015855822e-13 2.333624738562309e-13 9.544227729351298e-15
5.740305295436557 1.6247496505987289e-21 2.4756592952101283e-13 2.379219620933625e-13 9.643967427650396e-15
5.7835210386641895 1.6895334578679488e-21 2.593752599655858e-13 2.495250936220282e-13 9.850166343557596e-15
5.827062130521658 1.763140552080097e-21 2.7271311000715494e-13 2.626534246319506e-13 1.0059685375204486e-14
5.8489554468988025 1.8159845768327558e-21 2.81942081712201e-13 2.717692104605391e-13 1.0172871251662e-14
5.870931020387893 1.872061637813319e-21 2.9174038692354074e-13 2.8145379108796305e-13 1.0286595835577605e-14
5.892989160043636 1.931626612288504e-21 3.0215393560632804e-13 2.9175308389147836e-13 1.0400851714849808e-14
5.915130176081913 1.999272945414868e-21 3.139104899995713e-13 3.033911858330975e-13 1.0519304166473925e-14
5.95966208400165 2.1905612566700494e-21 3.4653449424064665e-13 3.357449252480936e-13 1.0789568992553154e-14
6.004529249263818 2.465912405634771e-21 3.9303030939290244e-13 3.8193640294432493e-13 1.109390644857763e-14
6.027089341400364 2.6578451252371597e-21 4.2521319503627786e-13 4.1394326310691683e-13 1.1269931929361083e-14
6.049734195844842 2.883114182358514e-21 4.629856912565521e-13 4.515292597363127e-13 1.1456431520239362e-14
6.095279466722835 3.534350015636741e-21 5.718374738832438e-13 5.599219971927846e-13 1.1915476690459503e-14
6.141167624020661 4.530718098639356e-21 7.385627943038341e-13 7.260507551356254e-13 1.2512039168208658e-14
6.164241091010745 5.166547198759615e-21 8.453750973366332e-13 8.324882587207395e-13 1.2886838615894096e-14
6.187401249150058 5.88362299212403e-21 9.663235197740576e-13 9.530518379496883e-13 1.327168182436932e-14
6.1990139391386085 6.23247077955344e-21 1.0255392745730406e-12 1.0120717761465395e-12 1.3467498426501204e-14
6.204828454712694 6.4156173393300155e-21 1.056665832272151e-12 1.0430994309273724e-12 1.3566401344778252e-14
6.210648424152782 6.5483865142583786e-21 1.0795448343885167e-12 1.0658942531391517e-12 1.3650581249365256e-14
6.233982942956859 6.994694480095469e-21 1.1574541395255816e-12 1.14351042731306e-12 1.39437122125222e-14
6.239830258556775 7.049024296076341e-21 1.1675385155971117e-12 1.1535543972227675e-12 1.3984118374343796e-14
6.245683058788269 7.049381463309068e-21 1.1686928502182593e-12 1.1546682619509187e-12 1.4024588267340785e-14
6.257405133728602 7.027119184472428e-21 1.167188572010216e-12 1.1530933054425467e-12 1.4095266567669069e-14
6.269149208991335 6.926826415552981e-21 1.1526895179962976e-12 1.1385690408864723e-12 1.4120477109824893e-14
6.280915325867298 6.6901124281730145e-21 1.11538753799145e-12 1.101298069909812e-12 1.4089468081637933e-14
6.304513850009849 6.11250969705766e-21 1.022917473492084e-12 1.0089408861313308e-12 1.3976587360752868e-14
6.32820103803542 5.405728779512825e-21 9.080378523169299e-13 8.942282618759499e-13 1.3809590440980162e-14
6.3519772230701035 4.759983730557261e-21 8.025716847909601e-13 7.889118696576829e-13 1.3659815133277148e-14
6.375842739491607 4.2154399860450315e-21 7.134276554975236e-13 6.998999561880998e-13 1.352769930942391e-14
6.399797922933955 3.781810341770654e-21 6.424442394293819e-13 6.289844667210608e-13 1.3459772708320812e-14
6.42384311029221 3.419859608200085e-21 5.831397367637641e-13 5.697351028408546e-13 1.3404633922909436e-14
6.447978639727206 3.1563471463356672e-21 5.40228865368477e-13 5.26829308210797e-13 1.3399557157679937e-14
6.472204850670314 2.935819721396472e-21 5.043721187953726e-13 4.909677051393089e-13 1.3404413656063757e-14
6.496522083828205 2.79153502110759e-21 4.813859746448463e-13 4.679361355543666e-13 1.3449839090479658e-14
6.520930681187647 2.6692267924953134e-21 4.620239535886742e-13 4.485225442818844e-13 1.3501409306789804e-14
