Dust emission spectrum from A.P. Jones, M. Kohler, N. Ysard, M. Bocchio, and L. Verstraete (2017), A&A, 602A, 46J 
inside the DustPedia framework.

lambda    nu*dP/dnu     j_nu    j_nu(carb.) j_nu(sil)
 (um)   (erg s-1 H-1) (Jy cm2 sr-1 H-1)
0.9927057738263894 2.0756234109806943e-21 5.4693855809902885e-14 5.4693854402907955e-14 1.4069949285152619e-21
1.0001793341362166 2.1105207491690406e-21 5.6032104722010045e-14 5.603210302882317e-14 1.6931868743178222e-21
1.0077091589558085 2.145556649154818e-21 5.739111001035085e-14 5.739110797547337e-14 2.0348774922897605e-21
1.0114953028030835 2.1631249522196088e-21 5.807843569690095e-14 5.807843346724665e-14 2.2296543088795876e-21
1.0152956718711033 2.180725993875344e-21 5.877099835087002e-14 5.877099590861089e-14 2.4422591340446968e-21
1.0229392996569957 2.216006728261853e-21 6.017143536482104e-14 6.017143243749863e-14 2.927322416939064e-21
1.0267826658714554 2.2336463425169228e-21 6.08782798790171e-14 6.087827667563982e-14 3.2033772815568527e-21
1.0306404723013447 2.251315471028939e-21 6.159039390909133e-14 6.159039040479651e-14 3.5042948052100275e-21
1.03451277320114 2.2690135694356853e-21 6.230779515931166e-14 6.230779132711119e-14 3.832200478789264e-21
1.0383996230291617 2.2867401099484806e-21 6.303050174849089e-14 6.303049755909986e-14 4.189391040974182e-21
1.0403485208654093 2.2956138856950946e-21 6.339385032532925e-14 6.339384594559338e-14 4.3797358653441096e-21
1.0423010764483396 2.3044945817687865e-21 6.375853222893667e-14 6.375852765058931e-14 4.5783473666883065e-21
1.0462171883269815 2.322276491501731e-21 6.449190560566177e-14 6.449190060391352e-14 5.001748251146563e-21
1.0471985131304309 2.3267261999794288e-21 6.467608604921378e-14 6.46760809358994e-14 5.113314383384843e-21
1.048180758391296 2.331177586259392e-21 6.486060194776756e-14 6.486059672050731e-14 5.227260251236999e-21
1.0501480137395462 2.3400853635663488e-21 6.523064135585038e-14 6.523063589336523e-14 5.4624851460076995e-21
1.0521189612883777 2.348999766825133e-21 6.560202634156999e-14 6.560202063374982e-14 5.707820177940822e-21
1.0531058218030118 2.353453531009465e-21 6.578805915761344e-14 6.578805332319763e-14 5.834415803665282e-21
1.0540936079674168 2.357889586125047e-21 6.59738877444903e-14 6.597388178076657e-14 5.963723699957103e-21
1.058054026499678 2.375649248875427e-21 6.672054686086867e-14 6.672054035196435e-14 6.508904326776269e-21
1.0590464539527713 2.3800929927823475e-21 6.690804944582111e-14 6.690804279335074e-14 6.6524703719516285e-21
1.06003981227728 2.3845382553025718e-21 6.709588780610385e-14 6.709588100704188e-14 6.79906200738565e-21
1.0620293250338977 2.3934333114491635e-21 6.747257317614143e-14 6.747256607457599e-14 7.101565444579578e-21
1.0660195594769086 2.4112413793862123e-21 6.822998790371092e-14 6.822998015808902e-14 7.745621916252538e-21
1.070024785945596 2.4290730782358846e-21 6.899281283477915e-14 6.899280438948725e-14 8.445291912598928e-21
1.0740450607676866 2.446928053940244e-21 6.976107035929027e-14 6.976106115417148e-14 9.205118783893341e-21
1.07808044048254 2.464805973212624e-21 7.053478348709284e-14 7.053477345709844e-14 1.0029994380564534e-20
1.0861967418109137 2.500602045120048e-21 7.209788267411958e-14 7.209787077776583e-14 1.1896353754333788e-20
1.0902777775684922 2.5184574086462765e-21 7.28855111543447e-14 7.28854982047456e-14 1.2949599098932439e-20
1.0943741465085532 2.5363335238376856e-21 7.367864321575406e-14 7.367862912428565e-14 1.4091468380131566e-20
1.1026131145906286 2.572147157321871e-21 7.528152333321317e-14 7.52815066634453e-14 1.6669767867587627e-20
1.1109141095355224 2.6080414748467657e-21 7.690674121861219e-14 7.690672152452217e-14 1.969409003689776e-20
1.1192775983109025 2.643987269369165e-21 7.85536925242525e-14 7.855366928738241e-14 2.323687009773861e-20
1.1277040513999907 2.679854603639383e-21 8.021873434917308e-14 8.021870696768333e-14 2.738148975372425e-20
1.1361939428280308 2.7157963526279612e-21 8.190663866297746e-14 8.190660643917828e-14 3.222379915020407e-20
1.1447477501889525 2.751812665804457e-21 8.361767677186881e-14 8.361763889803707e-14 3.78738317456262e-20
1.1533659546722406 2.7879169330345602e-21 8.535252832375558e-14 8.535248386596036e-14 4.445779522339433e-20
1.1707974979042381 2.860498647587158e-21 8.889819957887071e-14 8.889813855215285e-14 6.102671786427673e-20
1.1884924949847024 2.9334432634913165e-21 9.254299902459663e-14 9.254291567394589e-14 8.33506507400712e-20
1.2064549276569216 3.0072435045912224e-21 9.630506532484062e-14 9.630495204664283e-14 1.1327819777985466e-19
1.2246888378427687 3.0814211022314127e-21 1.0017197697521953e-13 1.0017182377891897e-13 1.5319630054110764e-19
1.2431983285522175 3.1559154268558114e-21 1.0414422847120953e-13 1.0414402229510722e-13 2.0617610233301292e-19
1.2619875648066055 3.2308347809759585e-21 1.0822790659106545e-13 1.082276304420988e-13 2.7614896663142717e-19
1.3004222497298317 3.3814855884697322e-21 1.1672432345514032e-13 1.1672383503932011e-13 4.884158201999747e-19
1.3400274889804893 3.53381845901996e-21 1.2569771284502572e-13 1.2569686484912116e-13 8.479959045650741e-19
1.3808389325824078 3.688379045428343e-21 1.3519106910321462e-13 1.351896231315046e-13 1.445971710015877e-18
1.4228933163050095 3.84644492466019e-21 1.4527848116447631e-13 1.4527605844449735e-13 2.4227199789648176e-18
1.466228494730424 4.010737938038458e-21 1.5609729399291046e-13 1.5609330336310075e-13 3.990629809710485e-18
1.5108834753276823 4.1808817291443426e-21 1.6767498900787617e-13 1.6766852404630689e-13 6.4649615692846874e-18
1.5568984535646726 4.356667160723739e-21 1.8004625916345561e-13 1.8003594734047304e-13 1.0311822982565252e-17
1.6043148490894465 4.539041370771162e-21 1.9329613815370476e-13 1.9327991398078351e-13 1.6224172921212526e-17
1.6531753430134553 4.728982370665326e-21 2.0751813096459415e-13 2.0749298135370003e-13 2.5149610894160406e-17
1.7035239163302658 4.9276195643589866e-21 2.2282034332005745e-13 2.2278192461203362e-13 3.841870802381716e-17
1.755405889504358 5.138461849888632e-21 2.394308573526375e-13 2.3937299269276834e-13 5.786465986919019e-17
1.8088679632656115 5.361242092518615e-21 2.5741966382676315e-13 2.573337039335991e-13 8.595989316414582e-17
1.8639582606462262 5.595536111215119e-21 2.768517792317784e-13 2.767257818458689e-13 1.2599738590948854e-16
1.9207263702978936 5.841642149987169e-21 2.978309873771978e-13 2.976486933680678e-13 1.8229400913004515e-16
1.979223391128241 6.1001332456078256e-21 3.2048194629634503e-13 3.2022151424005185e-13 2.604320562931108e-16
2.039501978296691 6.3713586721313325e-21 3.4492575064757195e-13 3.4455823104794916e-13 3.6751959962287077e-16
2.1016163906111602 6.657520215016961e-21 3.713944194226514e-13 3.708819029836851e-13 5.125164389662085e-16
2.1656225393682647 6.959235782986832e-21 4.0004951366738895e-13 3.993429952934796e-13 7.065183739094563e-16
2.231578038680979 7.274886713297225e-21 4.3093100935010243e-13 4.2996793390287405e-13 9.630754472282211e-16
2.299542257339062 7.603810593174982e-21 4.641326474404512e-13 4.628341272709409e-13 1.2985201695103529e-15
2.369576372248914 7.945996862560368e-21 4.997911170585352e-13 4.980588042834057e-13 1.7323127751294923e-15
2.4417434235010123 8.301596974081241e-21 5.380604929227641e-13 5.357732043128091e-13 2.2872886099548207e-15
2.5161083711144245 8.672191891284001e-21 5.791988017387015e-13 5.762088114500546e-13 2.9899902886469776e-15
2.5927381535095444 9.061262020086989e-21 6.236153269044154e-13 6.19744483211455e-13 3.870843692960285e-15
2.6717017477616296 9.471627642969075e-21 6.717103249626274e-13 6.667462664777633e-13 4.964058484864184e-15
2.753070231689431 9.908104208826614e-21 7.240645569278131e-13 7.177569317597837e-13 6.307625168029435e-15
2.836916847834745 1.038601597310767e-20 7.821049340373786e-13 7.741614856818004e-13 7.943448355578491e-15
2.9233170693905177 1.0940654335589312e-20 8.489627838980666e-13 8.390477416117812e-13 9.915042286285464e-15
2.967498994190263 1.1281822296798707e-20 8.886674398655939e-13 8.776480252128306e-13 1.1019414652763403e-14
3.0123486681368425 1.1646858695443983e-20 9.31286865577886e-13 9.190560063240658e-13 1.2230859253820075e-14
3.0578761833420214 1.225206371710117e-20 9.944857766566333e-13 9.809238438106494e-13 1.3561932845983963e-14
3.1040917844459814 1.2962097632068464e-20 1.068019730060119e-12 1.0530117487771182e-12 1.5007981283000828e-14
3.127460860933648 1.3624015165625826e-20 1.1310099738917079e-12 1.1152287119914224e-12 1.5781261900285464e-14
3.1510058709225794 1.446601103665433e-20 1.209950037905675e-12 1.1933634464334994e-12 1.658659147217574e-14
3.162844764501044 1.5228619877297e-20 1.278520971856252e-12 1.26151789152254e-12 1.7003080333712325e-14
3.1747281389236908 1.609186160890125e-20 1.3560704841615788e-12 1.3386426369006508e-12 1.742784726092794e-14
3.1986289994194426 1.843050575260954e-20 1.5648422244695742e-12 1.5465373955401244e-12 1.8304828929449825e-14
3.2227097969389145 2.3848171110803007e-20 2.040073015936359e-12 2.0208396241216468e-12 1.9233391814712015e-14
3.2348180950136065 2.8931887217492706e-20 2.484254357820224e-12 2.4645256122324984e-12 1.972874558772526e-14
3.240889293275058 3.272970889075678e-20 2.8156312174976355e-12 2.795641184898727e-12 1.999003259890891e-14
3.2469718861334385 3.713118742647513e-20 3.2002713178203167e-12 3.180010930862359e-12 2.0260386957958598e-14
3.2714166318528037 6.022818135052195e-20 5.230040353424824e-12 5.208663311067014e-12 2.137704235780839e-14
3.2744851364798273 6.167155629193194e-20 5.360402049037728e-12 5.3388935742818115e-12 2.1508474755917624e-14
3.2775565192852394 6.315353053057829e-20 5.49436183683639e-12 5.472721287719637e-12 2.1640549116753057e-14
3.283707930232385 6.172989944372799e-20 5.38058534427936e-12 5.358708932178602e-12 2.187641210075708e-14
3.2898708863219004 5.720500416399253e-20 4.995538480078792e-12 4.973447721632842e-12 2.2090758445952574e-14
3.29141343181113 5.613562053209563e-20 4.904450977798514e-12 4.882306403597565e-12 2.214457420095054e-14
3.292184975758714 5.560981879180805e-20 4.8596516762549606e-12 4.8374801597669656e-12 2.2171516487995367e-14
3.295272960557952 5.233104283884514e-20 4.57741424840625e-12 4.555137988588919e-12 2.2276259817332365e-14
3.3076538914384823 4.088647730912978e-20 3.5897911834078576e-12 3.567094375419148e-12 2.2696807988710155e-14
3.310756385682612 3.853298100600055e-20 3.3863299120459236e-12 3.3635271326354787e-12 2.2802779410445117e-14
3.313861789986515 3.635203975950071e-20 3.197662392498299e-12 3.1747533074867655e-12 2.2909085011533867e-14
3.3200813396944477 3.3306112403822425e-20 2.9352297476034607e-12 2.9120918693719813e-12 2.313787823148016e-14
3.345076488085796 2.7986403937578997e-20 2.484978204631976e-12 2.4608203592581267e-12 2.415784537384875e-14
3.3482140837626964 2.820251340890182e-20 2.506515913877305e-12 2.482219882437836e-12 2.429603143946851e-14
3.3513546224236106 2.842058340444149e-20 2.528266246727611e-12 2.5038314230908125e-12 2.4434823636798448e-14
3.3576445397418455 2.9951031820905397e-20 2.6694140306631377e-12 2.6446889717108422e-12 2.4725058952295456e-14
3.3702598118196083 3.549520210266984e-20 3.175429448715772e-12 3.1500956377150354e-12 2.5333811000736234e-14
3.382922481734668 3.681914275000563e-20 3.3062459089804992e-12 3.2803208695502247e-12 2.5925039430274093e-14
3.389271646505754 3.7501616659548716e-20 3.373850245136547e-12 3.3476256249734747e-12 2.622462016307332e-14
3.395632727569191 3.825234661363722e-20 3.4478489101134663e-12 3.421315553933286e-12 2.65333561801808e-14
3.421196662673239 4.189375354252171e-20 3.804492622043137e-12 3.776681751866702e-12 2.781087017643402e-14
3.4276182099114902 4.1236572196702414e-20 3.751841057783371e-12 3.7237456010304845e-12 2.8095456752886212e-14
3.4340518103208963 3.825194996840814e-20 3.4868226246584263e-12 3.4584582475898978e-12 2.8364377068527964e-14
3.4469541582030403 3.3969697219070567e-20 3.1081116888687972e-12 3.0792316587946523e-12 2.888003007414542e-14
3.472904465399547 3.278426486996458e-20 3.022231442315175e-12 2.9921628150201136e-12 3.006862729506116e-14
3.4990501388274233 3.09902255501306e-20 2.878354863909336e-12 2.847071071838379e-12 3.128379207095684e-14
3.5253949054701885 2.4620697171752926e-20 2.3039738846826294e-12 2.2715113977425472e-12 3.24624869400816e-14
3.5519380250092896 1.8558227416140077e-20 1.7497310750080358e-12 1.7160853745838134e-12 3.364570042422231e-14
3.578680990867387 1.6199738165485343e-20 1.538864619019682e-12 1.50392228699468e-12 3.494233202500212e-14
3.605625307711299 1.5298990351507753e-20 1.4642417884279182e-12 1.4279347736400824e-12 3.630701478783534e-14
3.660119384959845 1.4745498901252428e-20 1.432597389720135e-12 1.393427485550283e-12 3.9169904169851835e-14
3.715437065384467 1.43797277543395e-20 1.4181755908535964e-12 1.375993803740102e-12 4.218178711349439e-14
3.8285932144167436 1.4402457283406872e-20 1.4636770192312676e-12 1.4150436923152364e-12 4.86333269160311e-14
3.94519561050918 1.4609793978815724e-20 1.5299670086547523e-12 1.474331373653328e-12 5.563563500142443e-14
4.06534921144712 1.487798669297853e-20 1.6055042376184777e-12 1.5423318705938012e-12 6.317236702467588e-14
4.189162171576248 1.5170338948224072e-20 1.6869099135644428e-12 1.6156608383569105e-12 7.124907520753217e-14
4.316745939156006 1.5471197595953488e-20 1.7727596375912427e-12 1.692933945857198e-12 7.982569173404437e-14
4.448215356677963 1.5773305137784507e-20 1.8624213564003625e-12 1.7736497102723897e-12 8.877164612797286e-14
4.58368876423945 1.6075246561924868e-20 1.9558799601548674e-12 1.857791717234326e-12 9.808824292054132e-14
4.723288106065518 1.6379443616361657e-20 2.0535865698256993e-12 1.945762021972114e-12 1.0782454785358467e-13
4.867139040275056 1.6689253164578476e-20 2.1561555502115638e-12 2.038452087373794e-12 1.1770346283777002e-13
4.940699165968905 1.6856333008768477e-20 2.2106548759625556e-12 2.0879304194296085e-12 1.2272445653294712e-13
5.015371051989984 1.7017262164547818e-20 2.265490219248268e-12 2.1377078304314962e-12 1.2778238881677157e-13
5.091171501069577 1.7203993025278602e-20 2.3249649912705092e-12 2.19197546114953e-12 1.329895301209794e-13
5.129500256944802 1.729476481910528e-20 2.3548277750259353e-12 2.219227221125734e-12 1.3560055390020108e-13
5.168117569889187 1.73866818014122e-20 2.3851655279412308e-12 2.2469221324590142e-12 1.3824339548221654e-13
5.20702561229733 1.7501735906354447e-20 2.419024534729913e-12 2.277885958816515e-12 1.411385759133979e-13
5.246226572918644 1.7615840733271525e-20 2.453125975183037e-12 2.3090800722669994e-12 1.4404590291603692e-13
5.265937586045735 1.7672547940041004e-20 2.470269344229469e-12 2.324765657496221e-12 1.455036867332482e-13
5.285722656980489 1.7729031219576983e-20 2.4874754872398113e-12 2.3405115042700846e-12 1.4696398296972613e-13
5.305582063971359 1.778529552699433e-20 2.5047452137144424e-12 2.3563185995034354e-12 1.4842661421100757e-13
5.3255160863122235 1.784588197691324e-20 2.5227205814465217e-12 2.3728167029848603e-12 1.4990387846166103e-13
5.365609099470188 1.8001570536085438e-20 2.5638868766788524e-12 2.4109259227030424e-12 1.5296095397581042e-13
5.406003951863644 1.8158369343851164e-20 2.605689346584009e-12 2.4496595496585853e-12 1.560297969254243e-13
5.446702915881641 1.8316448220773178e-20 2.648160988584851e-12 2.489052003618121e-12 1.5910898496673114e-13
5.487708281020852 1.8484604085725935e-20 2.6925923210297678e-12 2.5303811295556744e-12 1.622111914740931e-13
5.529022354014368 1.873108318894709e-20 2.7490375466454356e-12 2.583592800077844e-12 1.654447465675911e-13
5.570647458961463 1.898512121011975e-20 2.80729777902412e-12 2.6386077904548476e-12 1.6868998856927302e-13
5.612585937458331 1.9247447921808788e-20 2.867514284827198e-12 2.6955688163220734e-12 1.7194546850512526e-13
5.654840148729818 1.9531797672720718e-20 2.9317840829332887e-12 2.75655707070019e-12 1.7522701223309874e-13
5.67608639626678 1.9735062806792507e-20 2.973424689342728e-12 2.7964788520503388e-12 1.7694583729239035e-13
5.686739436050992 1.9838845399660617e-20 2.99467126664914e-12 2.8168647826933344e-12 1.7780648395580597e-13
5.6974124697621304 1.994411171215664e-20 3.01621151011255e-12 2.837543587357576e-12 1.7866792275497406e-13
5.718818669136295 2.0159252411370023e-20 3.060202615144022e-12 2.879809530711244e-12 1.8039308443277737e-13
5.740305295436557 2.0396946045406407e-20 3.1079181369635525e-12 2.9257832429485885e-12 1.821348940149639e-13
5.7835210386641895 2.1027428866600852e-20 3.228107027584377e-12 3.042373328905943e-12 1.857336986784338e-13
5.827062130521658 2.1741679176368505e-20 3.3628861510615957e-12 3.1735057116700525e-12 1.8938043939154277e-13
5.8489554468988025 2.225873062789027e-20 3.45579633745781e-12 3.264440218694155e-12 1.9135611876365445e-13
5.870931020387893 2.2806044781626985e-20 3.5540733245082035e-12 3.360735384587305e-12 1.9333793992089796e-13
5.892989160043636 2.3386025228893445e-20 3.65814982882605e-12 3.46282410878704e-12 1.9532572003901007e-13
5.915130176081913 2.404489242209937e-20 3.775344421840272e-12 3.5779561402284258e-12 1.9738828161184653e-13
5.95966208400165 2.591599322799391e-20 4.099764651027795e-12 3.897638523167452e-12 2.0212612786034328e-13
6.004529249263818 2.8610822957491363e-20 4.560146002458567e-12 4.352667061691548e-12 2.074789407670186e-13
6.027089341400364 3.049125234173324e-20 4.8781182566944684e-12 4.667527463993451e-12 2.105907927010183e-13
6.049734195844842 3.2695174058618396e-20 5.250363601589886e-12 5.036472454278541e-12 2.138911473113438e-13
6.095279466722835 3.9067687049274306e-20 6.320926725955112e-12 6.098858520952544e-12 2.2206820500256562e-13
6.141167624020661 4.8800353402645195e-20 7.955058025547043e-12 7.722296921530458e-12 2.327611040165836e-13
6.164241091010745 5.500362977643097e-20 8.999956273946725e-12 8.760445423343325e-12 2.3951085060339977e-13
6.187401249150058 6.198004283788383e-20 1.0179573577543087e-11 9.93313918380817e-12 2.4643439373491456e-13
6.1990139391386085 6.536669859183416e-20 1.0755945599460535e-11 1.0505989694918944e-11 2.4995590454159086e-13
6.204828454712694 6.714311589222372e-20 1.1058614110393805e-11 1.0806880317122033e-11 2.5173379327177136e-13
6.210648424152782 6.842520606248606e-20 1.12803478514726e-11 1.1027107909554352e-11 2.5323994191824893e-13
6.233982942956859 7.27133631399542e-20 1.2032317266274387e-11 1.1773862663684387e-11 2.5845460258999696e-13
6.239830258556775 7.322239332638988e-20 1.212791456263626e-11 1.1868763854007263e-11 2.591507086289958e-13
6.245683058788269 7.320404572589716e-20 1.2136248448491092e-11 1.1876400802877251e-11 2.59847645613842e-13
6.257405133728602 7.2942505890048e-20 1.211558492942279e-11 1.1854533488226696e-11 2.6105144119609663e-13
6.269149208991335 7.191840530915378e-20 1.1967903766829534e-11 1.170648776925171e-11 2.6141599757782526e-13
6.280915325867298 6.956359125419996e-20 1.1597766646808748e-11 1.1337022838911825e-11 2.607438078969196e-13
6.304513850009849 6.384586699160459e-20 1.0684490690853415e-11 1.0426027782686515e-11 2.5846290816689833e-13
6.32820103803542 5.688826591489852e-20 9.555917603408555e-12 9.300731875587286e-12 2.551857278212687e-13
6.3519772230701035 5.0542833460860595e-20 8.521929758789926e-12 8.269702693689306e-12 2.522270651006195e-13
6.375842739491607 4.5191532180941917e-20 7.648285578473864e-12 7.398689665938326e-12 2.495959125355403e-13
6.399797922933955 4.093729468088116e-20 6.954322604459714e-12 6.7061789583100404e-12 2.4814364614967254e-13
6.42384311029221 3.7384539542970695e-20 6.374650730062071e-12 6.1277237170958266e-12 2.4692701296624414e-13
6.447978639727206 3.4796540327998604e-20 5.955648928530127e-12 5.709021368522569e-12 2.4662756000755713e-13
6.472204850670314 3.2628661877937674e-20 5.6055851130413366e-12 5.359075673001234e-12 2.4650944004010137e-13
6.496522083828205 3.120429737212315e-20 5.3810219073043016e-12 5.133889351430746e-12 2.471325558735566e-13
