Dust emission spectrum from A.P. Jones, M. Kohler, N. Ysard, M. Bocchio, and L. Verstraete (2017), A&A, 602A, 46J 
inside the DustPedia framework.

lambda    nu*dP/dnu     j_nu    j_nu(carb.) j_nu(sil)
 (um)   (erg s-1 H-1) (Jy cm2 sr-1 H-1)
0.9927057738263894 2.893341483166489e-24 7.624119146659133e-17 7.624119146644048e-17 1.5085271244539256e-28
1.0001793341362166 2.9411158264269094e-24 7.808352988275426e-17 7.808352988257253e-17 1.8172159236851534e-28
1.0077091589558085 2.988821350661224e-24 7.994744627444531e-17 7.994744627422667e-17 2.186259147922363e-28
1.0114953028030835 3.012642430371807e-24 8.088740296327587e-17 8.088740296303619e-17 2.396840834227112e-28
1.0152956718711033 3.0364392736748957e-24 8.183264107772411e-17 8.183264107746145e-17 2.6268572511283127e-28
1.0229392996569957 3.083927593600413e-24 8.373817078329206e-17 8.373817078297681e-17 3.152209743599924e-28
1.0267826658714554 3.1075614498589798e-24 8.469693347810088e-17 8.469693347775574e-17 3.4515069856348184e-28
1.0306404723013447 3.1311606207514945e-24 8.566076967284362e-17 8.566076967246581e-17 3.7779980929984e-28
1.03451277320114 3.1547228290855025e-24 8.662963785974628e-17 8.662963785933288e-17 4.134033241131764e-28
1.0383996230291617 3.1782458103430735e-24 8.7603496013579e-17 8.760349601312676e-17 4.5221544765509885e-28
1.0403485208654093 3.189991886729072e-24 8.809228305616604e-17 8.809228305569315e-17 4.729097821767473e-28
1.0423010764483396 3.201727313114976e-24 8.858230160160536e-17 8.858230160111085e-17 4.945110392297375e-28
1.0462171883269815 3.2251650995253014e-24 8.956601159354476e-17 8.956601159300416e-17 5.405871843772243e-28
1.0471985131304309 3.2310174545175528e-24 8.981270031546316e-17 8.981270031491042e-17 5.5273399812274285e-28
1.048180758391296 3.236866903561486e-24 9.005969216042544e-17 9.005969215986031e-17 5.65142292890877e-28
1.0501480137395462 3.2485569456464197e-24 9.055458247154243e-17 9.055458247095165e-17 5.907648772313886e-28
1.0521189612883777 3.2602349500350754e-24 9.105067701261714e-17 9.105067701199963e-17 6.174990927153843e-28
1.0531058218030118 3.2660603805065996e-24 9.129892334561736e-17 9.129892334498607e-17 6.312982235473128e-28
1.0540936079674168 3.2718533045902273e-24 9.154664573934278e-17 9.154664573869738e-17 6.453956324330763e-28
1.058054026499678 3.2949919793291434e-24 9.2540456831784e-17 9.254045683107912e-17 7.048617199464079e-28
1.0590464539527713 3.300768223419169e-24 9.278963644338612e-17 9.278963644266562e-17 7.205289368687674e-28
1.06003981227728 3.306541030209308e-24 9.303910536803354e-17 9.3039105367297e-17 7.365294918212463e-28
1.0620293250338977 3.318076197465676e-24 9.353890829820647e-17 9.35389082974369e-17 7.695577441421218e-28
1.0660195594769086 3.341103809257317e-24 9.454195438065094e-17 9.454195437981104e-17 8.399200830832352e-28
1.070024785945596 3.3640726812548004e-24 9.554954889581443e-17 9.554954889489799e-17 9.164194131312913e-28
1.0740450607676866 3.386980696652911e-24 9.656164524505953e-17 9.656164524405997e-17 9.995632259394008e-28
1.07808044048254 3.409825755631639e-24 9.757819642440592e-17 9.757819642331605e-17 1.0898985159021037e-27
1.0861967418109137 3.455278294839601e-24 9.962330855240822e-17 9.962330855111365e-17 1.2945465938890889e-27
1.0902777775684922 3.477789800272271e-24 1.0064910623859308e-16 1.0064910623718288e-16 1.4101781185117883e-27
1.0943741465085532 3.500228521213092e-24 1.0167909147762767e-16 1.0167909147609202e-16 1.5356445395211012e-27
1.1026131145906286 3.5448796350251426e-24 1.0375142736212538e-16 1.0375142736030606e-16 1.8193081557429595e-27
1.1109141095355224 3.589215880289885e-24 1.0583991840060972e-16 1.058399183984571e-16 2.1526134919555313e-27
1.1192775983109025 3.6331806245291145e-24 1.0794293791453312e-16 1.0794293791198936e-16 2.5437353559150614e-27
1.1277040513999907 3.6765695388727026e-24 1.1005438681432978e-16 1.100543868113277e-16 3.0021052188100695e-27
1.1361939428280308 3.71959236699986e-24 1.121804687905338e-16 1.1218046878699523e-16 3.5385883967080885e-27
1.1447477501889525 3.7622347667322e-24 1.1432076557163973e-16 1.1432076556747406e-16 4.16568665409166e-27
1.1533659546722406 3.804505986993937e-24 1.1647556681660012e-16 1.1647556681170232e-16 4.897772268017051e-27
1.1707974979042381 3.888071577880827e-24 1.2083297553695241e-16 1.2083297553020706e-16 6.745343674276678e-27
1.1884924949847024 3.969972485920337e-24 1.252429745155317e-16 1.252429745062877e-16 9.244002291939841e-27
1.2064549276569216 4.050849735454667e-24 1.297258927647444e-16 1.2972589275213786e-16 1.2606550743600013e-26
1.2246888378427687 4.129819455432131e-24 1.3425369843212462e-16 1.342536984150155e-16 1.7109099217446342e-26
1.2431983285522175 4.2066968894566866e-24 1.3881969023522882e-16 1.3881969021212012e-16 2.3108674627965107e-26
1.2619875648066055 4.2814533659426556e-24 1.4342198421649737e-16 1.4342198418543276e-16 3.1064572753516063e-26
1.3004222497298317 4.423360385002922e-24 1.526884367327407e-16 1.5268843667738512e-16 5.535554067492481e-26
1.3400274889804893 4.554985773359209e-24 1.6202057360684853e-16 1.6202057350999525e-16 9.685327281452198e-26
1.3808389325824078 4.67584210166082e-24 1.7138479665338647e-16 1.7138479648692063e-16 1.664657998526982e-25
1.4228933163050095 4.786519096251935e-24 1.8078465647852093e-16 1.8078465619732702e-16 2.811939062258553e-25
1.466228494730424 4.8896835588556456e-24 1.903057202466544e-16 1.9030571977959415e-16 4.670602277245428e-25
1.5108834753276823 4.9833290963599626e-24 1.998572802550422e-16 1.9985727949188e-16 7.631621874359297e-25
1.5568984535646726 5.065832648516237e-24 2.0935366055412222e-16 2.0935365932614964e-16 1.2279725469651474e-24
1.6043148490894465 5.137346218550103e-24 2.1877509000001962e-16 2.1877508805070348e-16 1.9493160772364857e-24
1.6531753430134553 5.19808860326019e-24 2.281035425778399e-16 2.2810353952852116e-16 3.0493187247113155e-24
1.7035239163302658 5.2487833619769545e-24 2.3734293921297274e-16 2.3734293451126166e-16 4.7017110642086025e-24
1.755405889504358 5.2936056889856016e-24 2.4665991217354117e-16 2.4665990502429585e-16 7.149245369215174e-24
1.8088679632656115 5.331525965471956e-24 2.559928460665171e-16 2.559928353421637e-16 1.072435337650461e-23
1.8639582606462262 5.361847213241659e-24 2.652894935267512e-16 2.652894776499612e-16 1.5876789998833355e-23
1.9207263702978936 5.385076660700475e-24 2.745533974486692e-16 2.745533742426425e-16 2.3206026649331286e-23
1.979223391128241 5.4023936088825616e-24 2.838248852482407e-16 2.83824851747458e-16 3.350078276485072e-23
2.039501978296691 5.415209072019054e-24 2.9316275384868365e-16 2.9316270606466657e-16 4.7784017028493944e-23
2.1016163906111602 5.427473462242567e-24 3.0277540140165994e-16 3.0277533403176787e-16 6.736989205579601e-23
2.1656225393682647 5.4414776395977376e-24 3.1280165685358644e-16 3.1280156293382335e-16 9.391976316427515e-23
2.231578038680979 5.457386096172276e-24 3.2327058709218555e-16 3.2327045758485983e-16 1.2950732583511234e-22
2.299542257339062 5.4765705406233695e-24 3.3428702001012794e-16 3.342868433192539e-16 1.7669087393971376e-22
2.369576372248914 5.502063245419594e-24 3.460714096819941e-16 3.460711710874307e-16 2.38594563290994e-22
2.4417434235010123 5.537444586320342e-24 3.589044581362324e-16 3.589041391526157e-16 3.189836167852165e-22
2.5161083711144245 5.588845893028641e-24 3.732681293177861e-16 3.732677069584069e-16 4.223593791890703e-22
2.5927381535095444 5.6663005766594884e-24 3.899668587685606e-16 3.8996630472614933e-16 5.54042411146654e-22
2.6717017477616296 5.781787071915246e-24 4.10033652011629e-16 4.1003293178826705e-16 7.202233618685749e-22
2.753070231689431 5.953339554605652e-24 4.35058218605157e-16 4.350572905665645e-16 9.280385924862196e-22
2.836916847834745 6.221817498871227e-24 4.685255806602874e-16 4.685243949872881e-16 1.1856729994320018e-21
2.9233170693905177 6.677211689185882e-24 5.181321016502635e-16 5.181305994817397e-16 1.5021685237171824e-21
2.967498994190263 7.063848887074815e-24 5.564183108836469e-16 5.564166279290939e-16 1.682954552981171e-21
3.0123486681368425 7.515374474351761e-24 6.009319526303655e-16 6.009300696299216e-16 1.8830004441641282e-21
3.0578761833420214 8.525480958730727e-24 6.920033839507869e-16 6.920012793428857e-16 2.104607901200246e-21
3.1040917844459814 9.827083269070866e-24 8.097083603463434e-16 8.097060124003555e-16 2.3479459879949067e-21
3.127460860933648 1.1203907495368704e-23 9.301025409743803e-16 9.301000618695197e-16 2.4791048606270873e-21
3.1510058709225794 1.3038318899075333e-23 1.0905365968676223e-15 1.0905339804062408e-15 2.6164613815024697e-21
3.162844764501044 1.4745828839366854e-23 1.2379881808356977e-15 1.2379854930430933e-15 2.6877926041906753e-21
3.1747281389236908 1.673152511563296e-23 1.4099752978093882e-15 1.4099725370605673e-15 2.760748820622871e-21
3.1986289994194426 2.2270199565280684e-23 1.8908514554561763e-15 1.890848543442755e-15 2.9120134216848487e-21
3.2227097969389145 3.532607467978272e-23 3.02194123726877e-15 3.021938164280393e-15 3.0729883769434127e-21
3.2348180950136065 4.770709905414095e-23 4.096399513563485e-15 4.096396354484742e-15 3.1590787436918935e-21
3.240889293275058 5.696350419901757e-23 4.90038641089493e-15 4.900383206396737e-15 3.2044981935321773e-21
3.2469718861334385 6.767173022983892e-23 5.8325066417728186e-15 5.832503390271122e-15 3.251501697893307e-21
3.2714166318528037 1.2479107772646692e-22 1.0836494770751361e-14 1.0836491324436532e-14 3.4463148281941766e-21
3.2744851364798273 1.283617487349334e-22 1.1157016659020466e-14 1.1157013189595054e-14 3.4694254092426356e-21
3.2775565192852394 1.3203497711743962e-22 1.1487052795098631e-14 1.1487049302432194e-14 3.492666435258801e-21
3.283707930232385 1.285023378264685e-22 1.1200695316943087e-14 1.120069178241371e-14 3.5345293752302236e-21
3.2898708863219004 1.1729947873831823e-22 1.0243405595262451e-14 1.0243402022357106e-14 3.572905348291034e-21
3.29141343181113 1.146575668221399e-22 1.0017390212892154e-14 1.0017386630342534e-14 3.5825496200494874e-21
3.292184975758714 1.1335942514614349e-22 9.906295909597657e-15 9.906292322218344e-15 3.5873793155578596e-21
3.295272960557952 1.0516545425088672e-22 9.19885831838982e-15 9.198854712171907e-15 3.606217914464436e-21
3.3076538914384823 7.677908056034921e-23 6.741125296313026e-15 6.7411216142788966e-15 3.6820341307682156e-21
3.310756385682612 7.100173822287643e-23 6.23972772607287e-15 6.239724024896763e-15 3.701176106732224e-21
3.313861789986515 6.567124318765424e-23 5.776690001415654e-15 5.776686281022065e-15 3.720393591485924e-21
3.3200813396944477 5.819581328601121e-23 5.128730734826698e-15 5.128726973222466e-15 3.761604232854584e-21
3.345076488085796 4.4860332486242094e-23 3.983253751696506e-15 3.983249806719257e-15 3.9449772495076194e-21
3.3482140837626964 4.536037260715238e-23 4.031431317867738e-15 4.0314273480564824e-15 3.969811254038395e-21
3.3513546224236106 4.586594082942422e-23 4.080187532509166e-15 4.0801835377350385e-15 3.99477412834069e-21
3.3576445397418455 4.9560834273187984e-23 4.4171562158962454e-15 4.417152168974953e-15 4.046921291257652e-21
3.3702598118196083 6.318920074446416e-23 5.6529569349794344e-15 5.652952778627474e-15 4.156351960410036e-21
3.382922481734668 6.629308146645563e-23 5.9529150605264e-15 5.95291079725298e-15 4.263273418623044e-21
3.389271646505754 6.790110328974586e-23 6.108754085427417e-15 6.1087497678436635e-15 4.317583751806098e-21
3.395632727569191 6.963382114197575e-23 6.2763964981380925e-15 6.276392124575699e-15 4.373562394492241e-21
3.421196662673239 7.795365273281334e-23 7.0791960997784944e-15 7.079191493823469e-15 4.605955027034024e-21
3.4276182099114902 7.62768780281536e-23 6.939925107752917e-15 6.939920449324008e-15 4.658428907461669e-21
3.4340518103208963 6.892955522353323e-23 6.283212564576616e-15 6.283207856221202e-15 4.708355415657731e-21
3.4469541582030403 5.846561177971206e-23 5.3494045059480874e-15 5.349399701156763e-15 4.8047913238249e-21
3.472904465399547 5.553286982102206e-23 5.119321293943341e-15 5.119316267776743e-15 5.026166598776566e-21
3.4990501388274233 5.104747197414024e-23 4.741260724590721e-15 4.741255470411377e-15 5.254179342351614e-21
3.5253949054701885 3.5085389945748193e-23 3.2832466767696742e-15 3.283241198789141e-15 5.477980533426939e-21
3.5519380250092896 2.0083000202887797e-23 1.893491697586611e-15 1.893485992764845e-15 5.704821766279485e-21
3.578680990867387 1.4134373532877392e-23 1.342669067830677e-15 1.342663113958581e-15 5.953872095778012e-21
3.605625307711299 1.1728139781565541e-23 1.1224814170171505e-15 1.1224751995894454e-15 6.217427705705773e-21
3.660119384959845 9.9724067164282e-24 9.68868122188063e-16 9.68861345584884e-16 6.77660317898706e-21
3.715437065384467 8.728846339648844e-24 8.608672588718527e-16 8.608598846947343e-16 7.374177118603369e-21
3.8285932144167436 8.096497068991322e-24 8.228218603924694e-16 8.228131730085518e-16 8.687383917716935e-21
3.94519561050918 7.973577930374488e-24 8.350091173153894e-16 8.3499895305728285e-16 1.0164258106397478e-20
4.06534921144712 8.059767330314617e-24 8.697407028294989e-16 8.697288870255539e-16 1.1815803945028165e-20
4.189162171576248 8.266969759656929e-24 9.192697203601563e-16 9.192560617046754e-16 1.3658655480855515e-20
4.316745939156006 8.56231829380597e-24 9.811090693740742e-16 9.810933669801518e-16 1.5702393922107343e-20
4.448215356677963 8.934727858461217e-24 1.0549613940684026e-15 1.054943455440763e-15 1.7938627639779057e-20
4.58368876423945 9.385440990890425e-24 1.141929355831949e-15 1.1419089680873352e-15 2.0387744614190786e-20
4.723288106065518 9.924812452198225e-24 1.2443317390533219e-15 1.244308655609369e-15 2.3083443953082305e-20
4.867139040275056 1.0573655743139097e-23 1.3660555263781076e-15 1.3660295360616304e-15 2.5990316477023056e-20
4.940699165968905 1.0965364486677384e-23 1.438072946029857e-15 1.4380454088176697e-15 2.753721218711243e-20
5.015371051989984 1.1370893995254084e-23 1.5137951617166903e-15 1.513766015298239e-15 2.9146418451100703e-20
5.091171501069577 1.1866227020348273e-23 1.6036139029027034e-15 1.6035830540610169e-15 3.0848841686446965e-20
5.129500256944802 1.2120399359979718e-23 1.6502943726507034e-15 1.6502626478765584e-15 3.172477414551943e-20
5.168117569889187 1.2385395723327637e-23 1.6990716956005025e-15 1.6990390722246815e-15 3.2623375821008635e-20
5.20702561229733 1.2711022894079961e-23 1.756870084591387e-15 1.7568364928830306e-15 3.359170835701716e-20
5.246226572918644 1.3044935310462789e-23 1.816596218098052e-15 1.8165616376748287e-15 3.4580423222987533e-20
5.265937586045735 1.321508116480029e-23 1.8472044887736022e-15 1.847169406276263e-15 3.508249733902245e-20
5.285722656980489 1.3387398992964256e-23 1.8783218564207647e-15 1.8782862666655014e-15 3.558975526315952e-20
5.305582063971359 1.356192388690335e-23 1.9099578015401937e-15 1.909921699313511e-15 3.610222668237487e-20
5.3255160863122235 1.3749494498344544e-23 1.9436491175012848e-15 1.9436124947704442e-15 3.6622730840486745e-20
5.365609099470188 1.42172317639652e-23 2.0248996535753767e-15 2.0248619521003737e-15 3.770147500312081e-20
5.406003951863644 1.4702780487508198e-23 2.109819321107503e-15 2.1097805178927593e-15 3.8803214743588933e-20
5.446702915881641 1.5207003584048156e-23 2.1986027617993308e-15 2.198562833550471e-15 3.9928248859597547e-20
5.487708281020852 1.5751966122228986e-23 2.294537812394218e-15 2.294496732100496e-15 4.1080293721830264e-20
5.529022354014368 1.6510503367201395e-23 2.4231376911098896e-15 2.4230954045748035e-15 4.228653508699158e-20
5.570647458961463 1.7313838213990696e-23 2.5601679876876825e-15 2.5601244686797694e-15 4.351900791348672e-20
5.612585937458331 1.8165202063463805e-23 2.7062796384934898e-15 2.7062348603966942e-15 4.4778096795385686e-20
5.654840148729818 1.9101280488986515e-23 2.867162103540984e-15 2.8671160349020833e-15 4.60686389005531e-20
5.67608639626678 1.9739407741456427e-23 2.9740793280499766e-15 2.9740325844213806e-15 4.674362859568576e-20
5.686739436050992 2.0068350957468644e-23 3.0293151022987562e-15 3.0292680183530635e-15 4.708394569385883e-20
5.6974124697621304 2.0404091002210323e-23 3.0857756425791596e-15 3.0857282164246284e-15 4.742615453069602e-20
5.718818669136295 2.1096617175125627e-23 3.2024958928337677e-15 3.2024477765554036e-15 4.811627836429707e-20
5.740305295436557 2.1860167880770623e-23 3.3308717923983427e-15 3.3308229743466096e-15 4.881805173359282e-20
5.7835210386641895 2.3842100500372716e-23 3.6602122240381994e-15 3.6601619476154994e-15 5.0276422701134306e-20
5.827062130521658 2.612581369983417e-23 4.0410005300732496e-15 4.0409487518887694e-15 5.1778184479520843e-20
5.8489554468988025 2.772868649661431e-23 4.3050385414811965e-15 4.3049859571577205e-15 5.258432347677029e-20
5.870931020387893 2.944892093015541e-23 4.589293115732886e-15 4.5892397151537605e-15 5.340057912543705e-20
5.892989160043636 3.1295968374468505e-23 4.8954595845796296e-15 4.895405357521671e-15 5.422705795831229e-20
5.915130176081913 3.33969098261836e-23 5.243726401666151e-15 5.24367131844506e-15 5.508322109048812e-20
5.95966208400165 3.9272924123622197e-23 6.212756140505692e-15 6.212699143102787e-15 5.699740290556575e-20
6.004529249263818 4.7744446576964487e-23 7.60976528081775e-15 7.609706143606099e-15 5.913721165299606e-20
6.027089341400364 5.363416685158878e-23 8.580618649868816e-15 8.580558293871927e-15 6.035599689007334e-20
6.049734195844842 6.059483882333132e-23 9.730639012100992e-15 9.730577366742363e-15 6.164535862934051e-20
6.095279466722835 8.070360436022093e-23 1.3057378314667946e-14 1.3057313564320785e-14 6.475034716120685e-20
6.141167624020661 1.1165358278009072e-22 1.8200907736207022e-14 1.8200839032528457e-14 6.870367856613705e-20
6.164241091010745 1.314186439443207e-22 2.150334539534467e-14 2.150327425043019e-14 7.114491448290719e-20
6.187401249150058 1.5393509920623547e-22 2.5282229517571107e-14 2.5282155848027828e-14 7.366954327257804e-20
6.1990139391386085 1.6492932925176164e-22 2.713875614652924e-14 2.7138681188979887e-14 7.495754935558683e-20
6.204828454712694 1.7072078970866047e-22 2.8118077466649416e-14 2.8118001856640788e-14 7.561000863263871e-20
6.210648424152782 1.749482732452038e-22 2.8841380125595704e-14 2.884130394932648e-14 7.617626923198621e-20
6.233982942956859 1.8931057023206248e-22 3.1326357969541856e-14 3.132627977175757e-14 7.819778428754053e-20
6.239830258556775 1.911462526793812e-22 3.165978761620347e-14 3.165970910358575e-14 7.851261772063193e-20
6.245683058788269 1.9130487880412047e-22 3.171578176524108e-14 3.171570293668834e-14 7.88285527419882e-20
6.257405133728602 1.9090902865481603e-22 3.170955703040367e-14 3.170947762847416e-14 7.940192951312476e-20
6.269149208991335 1.8808256688495256e-22 3.1298720418247236e-14 3.129864070860518e-14 7.970964205684746e-20
6.280915325867298 1.809964665532355e-22 3.0176055392404886e-14 3.0175975705259234e-14 7.968714565139572e-20
6.304513850009849 1.6352255818526653e-22 2.736520518868917e-14 2.7365125846930416e-14 7.934175875720211e-20
6.32820103803542 1.4186387779190752e-22 2.3829862015963816e-14 2.3829783340945124e-14 7.867501869138138e-20
6.3519772230701035 1.2200120279197509e-22 2.057038771849247e-14 2.0570309609879563e-14 7.810861289969449e-20
6.375842739491607 1.0529130078873584e-22 1.781966440387367e-14 1.781958675810368e-14 7.764576999133928e-20
6.399797922933955 9.189796036053621e-23 1.5611389761363282e-14 1.561131219342577e-14 7.75679375139199e-20
6.42384311029221 8.076273475269967e-23 1.3771313819750098e-14 1.3771236251326186e-14 7.756842391058291e-20
6.447978639727206 7.264742613471652e-23 1.2434068489031921e-14 1.2433990613965976e-14 7.787506594739546e-20
6.472204850670314 6.588692105978364e-23 1.131933467631977e-14 1.1319256430429116e-14 7.824589065540215e-20
6.496522083828205 6.149220377262315e-23 1.0604016866103579e-14 1.0603937996615607e-14 7.88694879745158e-20
