Dust emission spectrum from A.P. Jones, M. Kohler, N. Ysard, M. Bocchio, and L. Verstraete (2017), A&A, 602A, 46J 
inside the DustPedia framework.

lambda    nu*dP/dnu     j_nu    j_nu(carb.) j_nu(sil)
 (um)   (erg s-1 H-1) (Jy cm2 sr-1 H-1)
0.9927057738263894 1.7256477709661653e-24 4.547179891332496e-17 4.547179851907231e-17 3.942526429353576e-25
1.0001793341362166 1.754387215406371e-24 4.6577134205057737e-17 4.6577133730355985e-17 4.747017369246744e-25
1.0077091589558085 1.7831344725578158e-24 4.769674420767542e-17 4.769674363685711e-17 5.708183185801725e-25
1.0114953028030835 1.7975081582063636e-24 4.8261873117371545e-17 4.826187249173434e-17 6.256371899594941e-25
1.0152956718711033 1.8118803637089346e-24 4.883053541186824e-17 4.883053472637301e-17 6.854952166014079e-25
1.0229392996569957 1.8406017778668298e-24 4.9978030074014164e-17 4.99780292518755e-17 8.221386629791776e-25
1.0267826658714554 1.8549168951951317e-24 5.0555966604257145e-17 5.0555965704311115e-17 8.999460152189235e-25
1.0306404723013447 1.869225325356693e-24 5.1137357502789627e-17 5.1137356517996744e-17 9.847928901506767e-25
1.03451277320114 1.8835259719193236e-24 5.172218977288013e-17 5.1722188695595665e-17 1.0772844478541275e-24
1.0383996230291617 1.8978177475475978e-24 5.2310450293282743e-17 5.231044911520782e-17 1.1780749346190954e-24
1.0403485208654093 1.904959971527912e-24 5.260586201508269e-17 5.260586078328162e-17 1.2318010617009075e-24
1.0423010764483396 1.912099574293002e-24 5.2902125827053976e-17 5.2902124539182563e-17 1.2878714076020525e-24
1.0462171883269815 1.9263703838800063e-24 5.349720303045972e-17 5.3497201623022005e-17 1.4074377209317211e-24
1.0471985131304309 1.929936240601089e-24 5.364650226903179e-17 5.3646500830080695e-17 1.4389511010607616e-24
1.048180758391296 1.9335013261174332e-24 5.3796013061370125e-17 5.379601159023029e-17 1.4711398459873365e-24
1.0501480137395462 1.9406291179880076e-24 5.409566846197094e-17 5.4095666924372164e-17 1.5375987899763821e-24
1.0521189612883777 1.9477536288026868e-24 5.4396167538280794e-17 5.439616593135282e-17 1.6069279562227004e-24
1.0531058218030118 1.9513093849107094e-24 5.454658677464909e-17 5.454658513194122e-17 1.6427078686863119e-24
1.0540936079674168 1.9548471427400236e-24 5.4696736739363264e-17 5.4696735060105416e-17 1.6792578598433778e-24
1.058054026499678 1.9689884547916187e-24 5.5299403533001266e-17 5.5299401699604373e-17 1.83339689170699e-24
1.0590464539527713 1.9725212733230273e-24 5.545058587570075e-17 5.5450584001703285e-17 1.873997457685512e-24
1.06003981227728 1.9760530563487702e-24 5.560197403956606e-17 5.56019721241082e-17 1.9154578520889588e-24
1.0620293250338977 1.9831134528104864e-24 5.590536695602771e-17 5.5905364955e-17 2.001027705682586e-24
1.0660195594769086 1.9972211283721546e-24 5.651461301006536e-17 5.651461082679587e-17 2.1832694908946965e-24
1.070024785945596 2.011310484576211e-24 5.71271276514144e-17 5.71271252700856e-17 2.381328781295846e-24
1.0740450607676866 2.0253805362995233e-24 5.774289680058512e-17 5.774289420407932e-17 2.5965058101524402e-24
1.07808044048254 2.0394303104450627e-24 5.836190635190736e-17 5.836190352170606e-17 2.830201290223894e-24
1.0861967418109137 2.0674414531126424e-24 5.960890562855261e-17 5.960890226925547e-17 3.359297135700021e-24
1.0902777775684922 2.081346946744965e-24 6.023529942663726e-17 6.023529576856737e-17 3.658069898327589e-24
1.0943741465085532 2.0952274492105116e-24 6.086483273408603e-17 6.086482875196504e-17 3.982120968654002e-24
1.1026131145906286 2.1229098807990417e-24 6.213326063819876e-17 6.213325592390262e-17 4.714296158975614e-24
1.1109141095355224 2.150481685544625e-24 6.341407530540234e-17 6.341406973152289e-17 5.573879482374351e-24
1.1192775983109025 2.177911764006087e-24 6.470644281714171e-17 6.470643623543299e-17 6.5817087081537794e-24
1.1277040513999907 2.2050820298387976e-24 6.600689803452376e-17 6.600689027272583e-17 7.761797917565548e-24
1.1361939428280308 2.2321183288935625e-24 6.731922636275056e-17 6.731921722096843e-17 9.141782155487586e-24
1.1447477501889525 2.2590145891060325e-24 6.864331794169704e-17 6.86433071882747e-17 1.0753422350257667e-23
1.1533659546722406 2.285777936242031e-24 6.997946163071531e-17 6.997944899752539e-17 1.2633189916348072e-23
1.1707974979042381 2.3389901317270956e-24 7.26908267265485e-17 7.269080935602719e-17 1.7370521309572765e-23
1.1884924949847024 2.3915969017762455e-24 7.544906441616016e-17 7.544904065076067e-17 2.376539947621648e-23
1.2064549276569216 2.4439893792510124e-24 7.826720931066716e-17 7.826717695573661e-17 3.2354930539485393e-23
1.2246888378427687 2.4956772142859634e-24 8.113039800564686e-17 8.113035417133078e-17 4.383431608146445e-23
1.2431983285522175 2.546567548021232e-24 8.403593780797726e-17 8.403587870772308e-17 5.910025419268816e-23
1.2619875648066055 2.596675111688579e-24 8.698455058425571e-17 8.698447128082036e-17 7.930343534653177e-23
1.3004222497298317 2.6939057532791725e-24 9.298999456795592e-17 9.298985377880592e-17 1.4078914999875484e-22
1.3400274889804893 2.7872524274967066e-24 9.91424034145901e-17 9.914215802905095e-17 2.4538553913345044e-22
1.3808389325824078 2.876659423341875e-24 1.0543890909733244e-16 1.0543848901609007e-16 4.200812423644555e-22
1.4228933163050095 2.9627164056183604e-24 1.1190045560507714e-16 1.118997489037376e-16 7.067013395180307e-22
1.466228494730424 3.047260256765807e-24 1.1859889315179755e-16 1.185977242629833e-16 1.1688888142696253e-21
1.5108834753276823 3.1294074851408107e-24 1.255054315491341e-16 1.255035298755319e-16 1.901673602216628e-21
1.5568984535646726 3.2084944775146867e-24 1.3259618118891603e-16 1.3259313484677472e-16 3.0463421412875006e-21
1.6043148490894465 3.284914354269013e-24 1.3988884589919346e-16 1.398840319193702e-16 4.813979823289165e-21
1.6531753430134553 3.359120367814068e-24 1.4740557815101406e-16 1.4739808254466167e-16 7.495606352363769e-21
1.7035239163302658 3.431844777687872e-24 1.551834149528206e-16 1.5517191253639789e-16 1.1502416422738058e-20
1.755405889504358 3.505900751916732e-24 1.6336032987047917e-16 1.6334292510525764e-16 1.7404765221507815e-20
1.8088679632656115 3.5809974593474716e-24 1.7194134236841846e-16 1.7191536485899154e-16 2.597750942692437e-20
1.8639582606462262 3.6569767119912805e-24 1.8093717727864058e-16 1.808989169040297e-16 3.826037461091603e-20
1.9207263702978936 3.734402256071506e-24 1.9039521467295878e-16 1.9033958755741993e-16 5.562711553889173e-20
1.979223391128241 3.814224406317278e-24 2.0038743616423778e-16 2.0030756747224106e-16 7.986869199668e-20
2.039501978296691 3.897469781792315e-24 2.109970195197374e-16 2.108837341826696e-16 1.132853370677917e-19
2.1016163906111602 3.9867428591776055e-24 2.2240323750453613e-16 2.2224443523006845e-16 1.588022744677392e-19
2.1656225393682647 4.083582848157146e-24 2.34743495315892e-16 2.3452341836443594e-16 2.200769514560822e-19
2.231578038680979 4.188087367528842e-24 2.4808313691494344e-16 2.477815157134933e-16 3.016212014500824e-19
2.299542257339062 4.301127228775898e-24 2.6253857105038874e-16 2.621296391950486e-16 4.089318553401549e-19
2.369576372248914 4.424462689104328e-24 2.782919736843104e-16 2.777433409811069e-16 5.486327032034898e-19
2.4417434235010123 4.5601389032587004e-24 2.9556127498651534e-16 2.948326831602507e-16 7.285918262645336e-19
2.5161083711144245 4.711665907746127e-24 3.1468298697384977e-16 3.137249145133772e-16 9.580724604726513e-19
2.5927381535095444 4.884701586855599e-24 3.36175553710368e-16 3.349277116951563e-16 1.2478420152117244e-18
2.6717017477616296 5.085534095674418e-24 3.606566778994668e-16 3.5904648110958057e-16 1.610196789886315e-18
2.753070231689431 5.323494676671668e-24 3.890304071426723e-16 3.8697138155987147e-16 2.059025582800784e-18
2.836916847834745 5.620250551833664e-24 4.2322539253713136e-16 4.2061547177088534e-16 2.60992076624604e-18
2.9233170693905177 6.023313035168494e-24 4.67391478221921e-16 4.641119202956901e-16 3.27955792623097e-18
2.967498994190263 6.3112498137028e-24 4.97136195443085e-16 4.934781696538249e-16 3.658025789259878e-18
3.0123486681368425 6.63480621055053e-24 5.305214084856511e-16 5.264466625392219e-16 4.074745946429169e-18
3.0578761833420214 7.258466519173613e-24 5.891612939933697e-16 5.846270846475029e-16 4.534209345866843e-18
3.1040917844459814 8.033890568247394e-24 6.619571831340143e-16 6.569214713079951e-16 5.035711826019259e-18
3.127460860933648 8.808295853947211e-24 7.31228668105028e-16 7.259238428324029e-16 5.304825272625036e-18
3.1510058709225794 9.822510668162639e-24 8.215635343536252e-16 8.159777591173476e-16 5.585775236277642e-18
3.162844764501044 1.0752323916022978e-23 9.027129006825636e-16 8.969815648958535e-16 5.7313357867098105e-18
3.1747281389236908 1.1824944537454035e-23 9.964949148716922e-16 9.906149408290633e-16 5.879974042629026e-18
3.1986289994194426 1.4788395272989053e-23 1.2556088078072936e-15 1.249421387497955e-15 6.187420309338714e-18
3.2227097969389145 2.1719032028476674e-23 1.8579374899520692e-15 1.8514238318575916e-15 6.513658094477555e-18
3.2348180950136065 2.8266401126543995e-23 2.4271119837649106e-15 2.420424109473243e-15 6.687874291667629e-18
3.240889293275058 3.315834391726413e-23 2.8525053053661e-15 2.845725534260477e-15 6.779771105622419e-18
3.2469718861334385 3.881986358514751e-23 3.345815326785484e-15 3.338940466754666e-15 6.874860030817999e-18
3.2714166318528037 6.88968580479201e-23 5.982803062202727e-15 5.9755348706017236e-15 7.268191601005444e-18
3.2744851364798273 7.077984496504563e-23 6.152081263933317e-15 6.144766612609462e-15 7.314651323854025e-18
3.2775565192852394 7.271599285189027e-23 6.326296767520325e-15 6.3189354142844765e-15 7.361353235849191e-18
3.283707930232385 7.086873244309992e-23 6.177156719631461e-15 6.169711632787506e-15 7.445086843953981e-18
3.2898708863219004 6.498561572066376e-23 5.674995548528101e-15 5.667474060591101e-15 7.521487937000686e-18
3.29141343181113 6.359750178857451e-23 5.556379832911645e-15 5.548839155004537e-15 7.54067790710914e-18
3.292184975758714 6.291532294281111e-23 5.49806780967598e-15 5.490517523307557e-15 7.550286368423172e-18
3.295272960557952 5.861962176580227e-23 5.127478401936048e-15 5.119890702997595e-15 7.587698938453614e-18
3.3076538914384823 4.370993082171524e-23 3.837687534311583e-15 3.829949466117504e-15 7.738068194078795e-18
3.310756385682612 4.066773879388892e-23 3.573935281871155e-15 3.566159290690839e-15 7.77599118031604e-18
3.313861789986515 3.7857849259345565e-23 3.330119070026612e-15 3.3223050232264457e-15 7.814046800165123e-18
3.3200813396944477 3.392328368569078e-23 2.989620349663e-15 2.981724540668864e-15 7.895808994135641e-18
3.345076488085796 2.6955916417133904e-23 2.39347880963422e-15 2.3852188690304812e-15 8.259940603738817e-18
3.3482140837626964 2.722729899015731e-23 2.4198431260805203e-15 2.4115338671808056e-15 8.309258899714456e-18
3.3513546224236106 2.750153487216769e-23 2.446508622326091e-15 2.4381498116918037e-15 8.358810634288739e-18
3.3576445397418455 2.946630583303565e-23 2.6262123686708657e-15 2.617749992069133e-15 8.46237660173217e-18
3.3702598118196083 3.666938793907573e-23 3.2804730620019685e-15 3.2717934284287603e-15 8.679633573207994e-18
3.382922481734668 3.834301969217709e-23 3.44308537697282e-15 3.4341941694581113e-15 8.89120751470907e-18
3.389271646505754 3.920894139089046e-23 3.527450502311016e-15 3.518451975572578e-15 8.99852673843724e-18
3.395632727569191 4.014667965819943e-23 3.618593314085724e-15 3.609484185488759e-15 9.109128596965551e-18
3.421196662673239 4.465748072270926e-23 4.0554746605871756e-15 4.045907238714488e-15 9.567421872687697e-18
3.4276182099114902 4.378973550345901e-23 3.984136382327378e-15 3.974466243269695e-15 9.670139057680739e-18
3.4340518103208963 3.992164773035753e-23 3.639022445517624e-15 3.6292549395764174e-15 9.767505941206765e-18
3.4469541582030403 3.440588952979893e-23 3.1480218008378968e-15 3.138066974609403e-15 9.954826228493443e-18
3.472904465399547 3.2893069802881184e-23 3.03226167147065e-15 3.0218759654927585e-15 1.0385705977890499e-17
3.4990501388274233 3.0567315925164236e-23 2.8390752538256047e-15 2.828247615808187e-15 1.0827638017417614e-17
3.5253949054701885 2.220678134007598e-23 2.0780826762733725e-15 2.066824103323323e-15 1.1258572950049619e-17
3.5519380250092896 1.431994652524629e-23 1.3501319315596671e-15 1.338438928744006e-15 1.1693002815661837e-17
3.578680990867387 1.1223739315140903e-23 1.066178672070721e-15 1.05400930550083e-15 1.2169366569890914e-17
3.605625307711299 1.0005913400349138e-23 9.576498968599057e-16 9.449780250643568e-16 1.2671871795549068e-17
3.660119384959845 9.189550356881075e-24 8.92809795187831e-16 8.790786301444515e-16 1.3731165043379626e-17
3.715437065384467 8.638661156782946e-24 8.519729023734491e-16 8.371198164547826e-16 1.485308591866663e-17
3.8285932144167436 8.526210391470726e-24 8.664922912497961e-16 8.492095952997539e-16 1.728269595004228e-17
3.94519561050918 8.686295538347185e-24 9.096463386387489e-16 8.896864082848292e-16 1.9959930353919908e-17
4.06534921144712 8.959636740079324e-24 9.668468624527164e-16 9.43958142817222e-16 2.2888719635494028e-17
4.189162171576248 9.299325371976599e-24 1.0340655019632964e-15 1.00798392324362e-15 2.6081578719676374e-17
4.316745939156006 9.687099072475986e-24 1.1099915268049181e-15 1.0804565966049517e-15 2.953493019996639e-17
4.448215356677963 1.0116001518503885e-23 1.1944394091704233e-15 1.1612287651307077e-15 3.3210644039715394e-17
4.58368876423945 1.0585932568139389e-23 1.2879935178484355e-15 1.2508725444887452e-15 3.7120973359690313e-17
4.723288106065518 1.1101743299682713e-23 1.3918904375425318e-15 1.350592580247334e-15 4.129785729519769e-17
4.867139040275056 1.1672684748688773e-23 1.5080437547782177e-15 1.4623965555054925e-15 4.564719927272527e-17
4.940699165968905 1.1992918375563341e-23 1.572833395624581e-15 1.5249319416356879e-15 4.79014539888931e-17
5.015371051989984 1.2318697618383283e-23 1.639975261500346e-15 1.5897716749544384e-15 5.020358654590802e-17
5.091171501069577 1.2692092482834757e-23 1.7152221955217012e-15 1.6626214903202765e-15 5.260070520142476e-17
5.129500256944802 1.2881245723495103e-23 1.753890007981592e-15 1.7000739968600832e-15 5.381601112150887e-17
5.168117569889187 1.3075686527450517e-23 1.7937681908291085e-15 1.7387152988119426e-15 5.505289201716574e-17
5.20702561229733 1.330354597506326e-23 1.8387664106450756e-15 1.782370832239721e-15 5.639557840535504e-17
5.246226572918644 1.353487653153434e-23 1.8848238748941008e-15 1.8270704819956633e-15 5.77533928984375e-17
5.265937586045735 1.3651875337444544e-23 1.908259592886602e-15 1.849821719625569e-15 5.843787326103276e-17
5.285722656980489 1.3769780855048854e-23 1.9319720247193144e-15 1.8728460103647693e-15 5.912601435454507e-17
5.305582063971359 1.3888606806553466e-23 1.955965329396784e-15 1.896147555076813e-15 5.981777431997101e-17
5.3255160863122235 1.4014412019767592e-23 1.981098254761315e-15 1.920580287935962e-15 6.051796682535346e-17
5.365609099470188 1.4316513519252032e-23 2.0390399303341908e-15 1.9770731783840983e-15 6.196675195009192e-17
5.406003951863644 1.4626585676441214e-23 2.09888551952529e-15 2.0354538125592092e-15 6.34317069660807e-17
5.446702915881641 1.4945011798702998e-23 2.1607244342481467e-15 2.095811921337197e-15 6.491251291094927e-17
5.487708281020852 1.5283989374217018e-23 2.226369157427431e-15 2.1599546603397737e-15 6.641449708765775e-17
5.529022354014368 1.5738926955089036e-23 2.3098985097124963e-15 2.241916982630921e-15 6.798152708157465e-17
5.570647458961463 1.6214853398575943e-23 2.3976629608643323e-15 2.3280968834971907e-15 6.956607736714168e-17
5.612585937458331 1.671328036774611e-23 2.4899701194427302e-15 2.418802282678649e-15 7.116783676408062e-17
5.654840148729818 1.7254170547669872e-23 2.589905108761475e-15 2.517111539038074e-15 7.279356972340009e-17
5.67608639626678 1.7616395654574233e-23 2.6542112528019037e-15 2.5805676873152705e-15 7.364356548663191e-17
5.686739436050992 1.7802247848003597e-23 2.687247117369787e-15 2.6131767177606308e-15 7.407039960915624e-17
5.6974124697621304 1.799136012848819e-23 2.7208906711573017e-15 2.6463922193077568e-15 7.449845184954524e-17
5.718818669136295 1.8379677540880758e-23 2.790060669332366e-15 2.7147024770243445e-15 7.535819230802128e-17
5.740305295436557 1.880509152353408e-23 2.8653644954075587e-15 2.789135845907734e-15 7.622864949982453e-17
5.7835210386641895 1.9897875785470534e-23 3.054699319853736e-15 2.9766692031865978e-15 7.803011666713776e-17
5.827062130521658 2.114243201731298e-23 3.2701978193139176e-15 3.1903304699441236e-15 7.986734936979406e-17
5.8489554468988025 2.2011437342147032e-23 3.417402628246084e-15 3.33654572022539e-15 8.085690802069293e-17
5.870931020387893 2.2938118983372597e-23 3.574655648263788e-15 3.492802308777013e-15 8.185333948677477e-17
5.892989160043636 2.3927060287116902e-23 3.742781025716394e-15 3.659924403783353e-15 8.285662193304108e-17
5.915130176081913 2.5047371852302043e-23 3.9327460462013284e-15 3.8488500760904245e-15 8.389597011090389e-17
5.95966208400165 2.8170587108449995e-23 4.456428746908676e-15 4.370179395584636e-15 8.624935132403918e-17
6.004529249263818 3.264527844148575e-23 5.203179097828404e-15 5.114289083461598e-15 8.88900143668043e-17
6.027089341400364 3.574848214022346e-23 5.7191918988076385e-15 5.628783607303342e-15 9.040829150429592e-17
6.049734195844842 3.940071506901981e-23 6.327174766040606e-15 6.2351595589704476e-15 9.201520707015944e-17
6.095279466722835 4.993115303117758e-23 8.078572945832674e-15 7.982633899680535e-15 9.593904615213675e-17
6.141167624020661 6.607425395484794e-23 1.0770916347033159e-14 1.0669916662479173e-14 1.009996845539849e-16
6.164241091010745 7.638046978098672e-23 1.249773680403451e-14 1.2393576476034724e-14 1.0416032799978643e-16
6.187401249150058 8.807061012686614e-23 1.4464676285405338e-14 1.4357265884001445e-14 1.0741040140388779e-16
6.1990139391386085 9.377481120078941e-23 1.5430437663274855e-14 1.5321372573472467e-14 1.0906508980238767e-16
6.204828454712694 9.67752085926594e-23 1.5939082853958434e-14 1.5829181514931688e-14 1.0990133902674353e-16
6.210648424152782 9.896456055097465e-23 1.6314962456432492e-14 1.6204344964202556e-14 1.1061749222993377e-16
6.233982942956859 1.063846430301844e-22 1.760410634197673e-14 1.7490976304195415e-14 1.1313003778131112e-16
6.239830258556775 1.0732385319379337e-22 1.7776181068888e-14 1.766269061922452e-14 1.1349044966348014e-16
6.245683058788269 1.0739236644425417e-22 1.7804213246888724e-14 1.7690361630339808e-14 1.1385161654891473e-16
6.257405133728602 1.0715874638750926e-22 1.779882493679834e-14 1.768433422657487e-14 1.1449071022346599e-16
6.269149208991335 1.0566341778550234e-22 1.7583393434479303e-14 1.7468634507161014e-14 1.1475892731829315e-16
6.280915325867298 1.0195804045347903e-22 1.6998627293756098e-14 1.6884059341784537e-14 1.1456795197155966e-16
6.304513850009849 9.283877178952315e-23 1.5536401018187428e-14 1.5422631196885778e-14 1.1376982130165484e-16
6.32820103803542 8.157342508715905e-23 1.370245544005176e-14 1.3589926584013372e-14 1.1252885603838948e-16
6.3519772230701035 7.125472329744912e-23 1.2014121594372006e-14 1.1902693289950379e-14 1.1142830442162587e-16
6.375842739491607 6.256299141415292e-23 1.0588258505225939e-14 1.0477787333314368e-14 1.104711719115711e-16
6.399797922933955 5.56239182182979e-23 9.449248535584993e-15 9.339206742954064e-15 1.1004179263093004e-16
6.42384311029221 4.9845883186930024e-23 8.499505398024832e-15 8.389788059020206e-15 1.0971733900462348e-16
6.447978639727206 4.564782954105652e-23 7.812916012146425e-15 7.703110004819189e-15 1.0980600732723517e-16
6.472204850670314 4.2147060867828974e-23 7.240840517548128e-15 7.130863159161382e-15 1.0997735838674726e-16
6.496522083828205 3.988012605815809e-23 6.877124308420365e-15 6.766639419556355e-15 1.1048488886400994e-16
