Dust emission spectrum from A.P. Jones, M. Kohler, N. Ysard, M. Bocchio, and L. Verstraete (2017), A&A, 602A, 46J 
inside the DustPedia framework.

lambda    nu*dP/dnu     j_nu    j_nu(carb.) j_nu(sil)
 (um)   (erg s-1 H-1) (Jy cm2 sr-1 H-1)
0.9927057738263894 1.167549847764438e-24 3.076560164366742e-17 3.076560155219672e-17 9.147070430006903e-26
1.0001793341362166 1.186881479502426e-24 3.1510454175007784e-17 3.1510454064861706e-17 1.1014607455041445e-25
1.0077091589558085 1.206197930660635e-24 3.226437211996771e-17 3.226437198750646e-17 1.3246124750879467e-25
1.0114953028030835 1.2158482603092025e-24 3.264469994259852e-17 3.26446997974089e-17 1.4518961732089967e-25
1.0152956718711033 1.2254921592184394e-24 3.3027256918435247e-17 3.3027256759346315e-17 1.5908892465824624e-25
1.0229392996569957 1.2447477317481754e-24 3.379875012615152e-17 3.37987499353302e-17 1.9082132297218374e-25
1.0267826658714554 1.2543362284102152e-24 3.4187073630242456e-17 3.4187073421350345e-17 2.0889210584807693e-25
1.0306404723013447 1.263914350093544e-24 3.4577554186147145e-17 3.4577553957547994e-17 2.2859915425919997e-25
1.03451277320114 1.2734812473239049e-24 3.497017812776535e-17 3.497017787768207e-17 2.500832735931393e-25
1.0383996230291617 1.2830360761410139e-24 3.536493162854657e-17 3.536493135504986e-17 2.7349670440858213e-25
1.0403485208654093 1.2878087027098592e-24 3.556310260012456e-17 3.5563102314146726e-17 2.8597782622090556e-25
1.0423010764483396 1.2925779982816356e-24 3.576180070625253e-17 3.576180040724854e-17 2.990039914384109e-25
1.0462171883269815 1.3021061813592594e-24 3.6160771227747443e-17 3.616077090096453e-17 3.267829137054901e-25
1.0471985131304309 1.3044859834286272e-24 3.626084053850818e-17 3.6260840204403406e-17 3.3410476070892593e-25
1.048180758391296 1.3068648622790264e-24 3.6361040073234585e-17 3.636103973165092e-17 3.4158365624802904e-25
1.0501480137395462 1.3116197990403546e-24 3.656182891381435e-17 3.656182855678887e-17 3.5702547966701063e-25
1.0521189612883777 1.3163708893256864e-24 3.676313594255383e-17 3.676313556941904e-17 3.731347829692953e-25
1.0531058218030118 1.3187413716382201e-24 3.686388289711193e-17 3.6863882515663117e-17 3.814488148794062e-25
1.0540936079674168 1.3210990970096777e-24 3.6964429563769094e-17 3.696442917382716e-17 3.899419344469809e-25
1.058054026499678 1.3305192619920922e-24 3.7367878617205254e-17 3.736787819144439e-17 4.257608593064618e-25
1.0590464539527713 1.3328715564683818e-24 3.74690553165585e-17 3.7469054881362425e-17 4.351960707306484e-25
1.06003981227728 1.3352227272730571e-24 3.7570357324338823e-17 3.7570356879507536e-17 4.448312754780038e-25
1.0620293250338977 1.3399216481557907e-24 3.777333632945379e-17 3.777333586473593e-17 4.647178663715206e-25
1.0660195594769086 1.3493054605644078e-24 3.818078772194741e-17 3.8180787214873854e-17 5.070735582670632e-25
1.070024785945596 1.3586699113246901e-24 3.859021769915128e-17 3.859021714604238e-17 5.531089030368205e-25
1.0740450607676866 1.3680142197396385e-24 3.900161105353737e-17 3.9001610450410647e-17 6.031267181824e-25
1.07808044048254 1.3773376124581592e-24 3.941495247057529e-17 3.941495181312203e-17 6.574532543223862e-25
1.0861967418109137 1.3959023852272767e-24 4.0246950365830135e-17 4.024694958536512e-17 7.804650035366817e-25
1.0902777775684922 1.4051053953777042e-24 4.066450542948831e-17 4.066450457955241e-17 8.499359065048371e-25
1.0943741465085532 1.4142838282041665e-24 4.108391605627575e-17 4.108391513098533e-17 9.252904253455225e-25
1.1026131145906286 1.432564050039859e-24 4.1928240245665887e-17 4.192823915009576e-17 1.095570123172181e-24
1.1109141095355224 1.4507373107723575e-24 4.2779794727884996e-17 4.2779793432372394e-17 1.2955125986082746e-24
1.1192775983109025 1.4687814653538498e-24 4.3637958832629226e-17 4.3637957302653715e-17 1.5299755190940434e-24
1.1277040513999907 1.4866150586213554e-24 4.450031666086406e-17 4.4500314856305875e-17 1.8045581869543637e-24
1.1361939428280308 1.5043229311530454e-24 4.5369394003035094e-17 4.53693918773296e-17 2.125705496762614e-24
1.1447477501889525 1.5218999519934082e-24 4.624505870122715e-17 4.6245056200401e-17 2.5008261439241654e-24
1.1533659546722406 1.5393502827054923e-24 4.712745815629112e-17 4.71274552178617e-17 2.9384294265721437e-24
1.1707974979042381 1.5739267775135335e-24 4.891428874051362e-17 4.8914284698958594e-17 4.041555032800044e-24
1.1884924949847024 1.6079327544988763e-24 5.072636692284434e-17 5.0726361391670226e-17 5.5311741308896506e-24
1.2064549276569216 1.641629256849477e-24 5.257213543854631e-17 5.2572127905818784e-17 7.532727533011383e-24
1.2246888378427687 1.6746693141316916e-24 5.4440769505611096e-17 5.444075929695845e-17 1.020865265903876e-23
1.2431983285522175 1.706982996038739e-24 5.632990847065887e-17 5.632989470209399e-17 1.3768564872336935e-23
1.2619875648066055 1.7385671441764246e-24 5.823927722648274e-17 5.823925874490484e-17 1.8481577915391963e-23
1.3004222497298317 1.7990732343415744e-24 6.210158246447044e-17 6.210154963082325e-17 3.2833647187242854e-23
1.3400274889804893 1.856020818194007e-24 6.6018550342974e-17 6.601849307507749e-17 5.726789650954272e-23
1.3808389325824078 1.9092761402561293e-24 6.998117043702846e-17 6.998107232620477e-17 9.811082368200502e-23
1.4228933163050095 1.9591413589018954e-24 7.399588102328543e-17 7.399571584623543e-17 1.651770499868618e-22
1.466228494730424 2.0067595430915037e-24 7.810276792211337e-17 7.810249450492403e-17 2.73417189323659e-22
1.5108834753276823 2.0514064060675934e-24 8.227201075560371e-17 8.227156557521547e-17 4.451803882436592e-22
1.5568984535646726 2.0925109266818037e-24 8.647637074601044e-17 8.647565701585053e-17 7.137301598654495e-22
1.6043148490894465 2.130218810331137e-24 9.071586615422969e-17 9.07147373435327e-17 1.128810697015254e-21
1.6531753430134553 2.164709128155703e-24 9.49921901048802e-17 9.499043099389601e-17 1.7591109841866676e-21
1.7035239163302658 2.196360065799881e-24 9.931645443080316e-17 9.931375262745837e-17 2.701803344781698e-21
1.755405889504358 2.2269498895448084e-24 1.0376656223430582e-16 1.0376247038368852e-16 4.091850617318253e-21
1.8088679632656115 2.2561578446320657e-24 1.083292609963937e-16 1.0832314812706734e-16 6.112869326359829e-21
1.8639582606462262 2.2837813589452606e-24 1.1299523763828621e-16 1.1298622603386446e-16 9.01160442170597e-21
1.9207263702978936 2.3101059481434194e-24 1.1777872006127652e-16 1.177656054805841e-16 1.3114580692461974e-20
1.979223391128241 2.3356857257655762e-24 1.2270963226400099e-16 1.2269078408416339e-16 1.8848179837589006e-20
2.039501978296691 2.36115308599091e-24 1.2782556162495977e-16 1.2779880064775346e-16 2.676097720633688e-20
2.1016163906111602 2.3881833825543437e-24 1.3322647955885095e-16 1.3318892771185325e-16 3.7551846997730305e-20
2.1656225393682647 2.4177631687024116e-24 1.389843669569135e-16 1.3893227065928168e-16 5.2096297631834085e-20
2.231578038680979 2.449975144984552e-24 1.4512531998348414e-16 1.450538433996016e-16 7.14765838825273e-20
2.299542257339062 2.485403627057419e-24 1.517077459056737e-16 1.5161073178511322e-16 9.701412056042689e-20
2.369576372248914 2.5252770882633412e-24 1.5883608798944096e-16 1.5870578305565002e-16 1.3030493379096519e-19
2.4417434235010123 2.5710342605271578e-24 1.666392581884714e-16 1.6646600854615536e-16 1.7324964231603778e-19
2.5161083711144245 2.625129712086378e-24 1.7532729933908006e-16 1.750992075196571e-16 2.2809181942302936e-19
2.5927381535095444 2.691547174944882e-24 1.8523800190978193e-16 1.849405550092265e-16 2.974469005554044e-19
2.6717017477616296 2.7749142052958348e-24 1.9679178625294717e-16 1.96407474900861e-16 3.843113520861341e-19
2.753070231689431 2.8821524861473234e-24 2.1062197357811164e-16 2.1012989192839935e-16 4.920816497122756e-19
2.836916847834745 3.0290641493124516e-24 2.280995930323171e-16 2.2747500809302053e-16 6.245849392965002e-19
2.9233170693905177 3.2503795394382153e-24 2.522199475355371e-16 2.5143400947459324e-16 7.859380609438586e-19
2.967498994190263 3.423134830923828e-24 2.6963981407285746e-16 2.687625139982932e-16 8.773000745642264e-19
3.0123486681368425 3.621356460185179e-24 2.895649200470979e-16 2.88586941263508e-16 9.779787835899594e-19
3.0578761833420214 4.03650695765108e-24 3.2763857987095966e-16 3.2654950982383295e-16 1.0890700471266946e-18
3.1040917844459814 4.56359245337644e-24 3.76019909624899e-16 3.7480946166206457e-16 1.210447962834436e-18
3.127460860933648 5.108142747047487e-24 4.240571024575713e-16 4.227814728506554e-16 1.2756296069159307e-18
3.1510058709225794 5.828738737877569e-24 4.8752089563373685e-16 4.861771818232109e-16 1.343713810525879e-18
3.162844764501044 6.495410271636447e-24 5.453231034729669e-16 5.439441013922139e-16 1.3790020807530554e-18
3.1747281389236908 7.268269798778613e-24 6.125012993894171e-16 6.110862532548834e-16 1.4150461345337342e-18
3.1986289994194426 9.416024553438859e-24 7.99467632936614e-16 7.979780029317966e-16 1.4896300048173674e-18
3.2227097969389145 1.4463129805742962e-23 1.2372370487276154e-15 1.2356682386611058e-15 1.5688100665096878e-18
3.2348180950136065 1.9242292799763842e-23 1.6522513510063624e-15 1.6506402477064854e-15 1.6111032998771268e-18
3.240889293275058 2.2814463315747732e-23 1.9626546431158507e-15 1.961021230380605e-15 1.6334127352457577e-18
3.2469718861334385 2.694758910455194e-23 2.322565004592733e-15 2.320908507201881e-15 1.6564973908516225e-18
3.2714166318528037 4.896021341836825e-23 4.25156274269833e-15 4.249810725774424e-15 1.75201692390554e-18
3.2744851364798273 5.0337173045504995e-23 4.3752339288897e-15 4.373470620921848e-15 1.7633079678531366e-18
3.2775565192852394 5.1753425074534606e-23 4.5025518172323575e-15 4.5007771585566546e-15 1.7746586757014307e-18
3.283707930232385 5.0395995253755675e-23 4.392684192202762e-15 4.390889165592033e-15 1.7950266107287277e-18
3.2898708863219004 4.608350364966565e-23 4.024331772073574e-15 4.022518145619152e-15 1.8136264544224587e-18
3.29141343181113 4.506630311809213e-23 3.937348020708519e-15 3.93552972203297e-15 1.8182986755489556e-18
3.292184975758714 4.456645580447489e-23 3.894590134626788e-15 3.892769496495819e-15 1.820638130969305e-18
3.295272960557952 4.141418706003714e-23 3.622513132760632e-15 3.6206833825558775e-15 1.829750204756231e-18
3.3076538914384823 3.048577962719524e-23 2.676620489889536e-15 2.6747541080828467e-15 1.8663818066900846e-18
3.310756385682612 2.825938849639907e-23 2.483472860471928e-15 2.481597238497527e-15 1.8756219744012964e-18
3.313861789986515 2.6204346114485456e-23 2.30503302275905e-15 2.3031481276092335e-15 1.8848951498161205e-18
3.3200813396944477 2.3324093441616958e-23 2.055525786848056e-15 2.0536209753551427e-15 1.904811492913165e-18
3.345076488085796 1.8200746195476467e-23 1.6160867864508473e-15 1.614093293409684e-15 1.9934930411631443e-18
3.3482140837626964 1.8395801733440858e-23 1.6349383164851997e-15 1.6329328128880483e-15 2.005503597150892e-18
3.3513546224236106 1.8592973025623676e-23 1.6540120045408718e-15 1.6519944326303398e-15 2.017571910531314e-18
3.3576445397418455 2.0022513911922194e-23 1.7845254843049105e-15 1.7824826915462502e-15 2.0427927586596937e-18
3.3702598118196083 2.5282746532113986e-23 2.2618149250220107e-15 2.2597192226809762e-15 2.095702341034658e-18
3.382922481734668 2.649042365812676e-23 2.3787586647934232e-15 2.376611407230829e-15 2.147257562594284e-18
3.389271646505754 2.711577015685599e-23 2.4394827727375026e-15 2.4373093581935904e-15 2.1734145439126447e-18
3.395632727569191 2.779092296083361e-23 2.504915696005886e-15 2.5027153240618557e-15 2.200371944030145e-18
3.421196662673239 3.1035034535850626e-23 2.8183810218068737e-15 2.8160689140576317e-15 2.312107749242073e-18
3.4276182099114902 3.039333255596987e-23 2.7652869016952516e-15 2.762949718376246e-15 2.3371833190055525e-18
3.4340518103208963 2.7562003496878557e-23 2.512390020723175e-15 2.510029052384339e-15 2.3609683388366854e-18
3.4469541582030403 2.352777016532603e-23 2.1527108997255053e-15 2.1503041404641424e-15 2.4067592613628153e-18
3.472904465399547 2.2407130349371612e-23 2.0656108698037932e-15 2.063098823573242e-15 2.5120462305514968e-18
3.4990501388274233 2.0689313045150238e-23 1.9216118559098415e-15 1.9189917461847106e-15 2.6201097251313482e-18
3.5253949054701885 1.4550113610243017e-23 1.3615813371696835e-15 1.3588557342336533e-15 2.7256029360300124e-18
3.5519380250092896 8.771498535207868e-24 8.270058997171646e-16 8.241738505621052e-16 2.8320491550591763e-18
3.578680990867387 6.4891663985406955e-24 6.164265419376593e-16 6.134777523657619e-16 2.9487895718975296e-18
3.605625307711299 5.575992670296941e-24 5.336693005373334e-16 5.305973013453627e-16 3.0719991919706067e-18
3.660119384959845 4.930723048580598e-24 4.790438774661945e-16 4.757118733635957e-16 3.3320041025988915e-18
3.715437065384467 4.4817219764095456e-24 4.420020198239211e-16 4.383942314308608e-16 3.607788393060264e-18
3.8285932144167436 4.302644746569627e-24 4.372644274200132e-16 4.33057963821844e-16 4.206463598169214e-18
3.94519561050918 4.3216480510814476e-24 4.525716756005682e-16 4.477033069285973e-16 4.868368671970776e-18
4.06534921144712 4.4227085802475056e-24 4.772606343766956e-16 4.716655530097029e-16 5.595081366992773e-18
4.189162171576248 4.5717889919264944e-24 5.083733593248705e-16 5.019830185890949e-16 6.390340735775556e-18
4.316745939156006 4.756027789022801e-24 5.449671266461723e-16 5.377131165015937e-16 7.254010144578376e-18
4.448215356677963 4.970933622119813e-24 5.869393166627669e-16 5.7876186774444425e-16 8.177448918322803e-18
4.58368876423945 5.216863472212844e-24 6.347373075031238e-16 6.255728031502998e-16 9.164504352823972e-18
4.723288106065518 5.497743349119862e-24 6.892842132209713e-16 6.79060198141016e-16 1.0224015079955209e-17
4.867139040275056 5.821271648705135e-24 7.520748262890778e-16 7.407412006269905e-16 1.1333625662087153e-17
4.940699165968905 6.00928805547361e-24 7.880991633225238e-16 7.761879306288362e-16 1.1911232693687775e-17
5.015371051989984 6.2024548320859955e-24 8.257262902544792e-16 8.1322339036509095e-16 1.25028998893885e-17
5.091171501069577 6.4307640963751586e-24 8.690599542340522e-16 8.559393903653133e-16 1.3120563868738881e-17
5.129500256944802 6.5472792619894464e-24 8.914671704556701e-16 8.780326971707399e-16 1.3434473284930306e-17
5.168117569889187 6.667946020757621e-24 9.147320444774114e-16 9.009776837993272e-16 1.3754360678084272e-17
5.20702561229733 6.812573890246037e-24 9.416085051987429e-16 9.275074339633047e-16 1.4101071235437913e-17
5.246226572918644 6.960237177470574e-24 9.692605009330584e-16 9.54808261594466e-16 1.4452239338592547e-17
5.265937586045735 7.03523615520035e-24 9.83385545908209e-16 9.687560695431011e-16 1.4629476365107957e-17
5.285722656980489 7.111029391334362e-24 9.977144876621247e-16 9.829066825398326e-16 1.480780512229203e-17
5.305582063971359 7.187629261925717e-24 1.0122508205971205e-15 9.972636028789241e-16 1.4987217718196532e-17
5.3255160863122235 7.269335282760525e-24 1.0276041136537491e-15 1.012435200720715e-15 1.5168912933033953e-17
5.365609099470188 7.469174775196402e-24 1.0638026914017857e-15 1.0482577789738067e-15 1.5544912427978804e-17
5.406003951863644 7.675591475960012e-24 1.101431882946723e-15 1.0855061552209064e-15 1.5925727725816546e-17
5.446702915881641 7.88889957451699e-24 1.1405637077829526e-15 1.124252406164541e-15 1.6311301618412122e-17
5.487708281020852 8.117819289387723e-24 1.1824964051565345e-15 1.1657934151448516e-15 1.6702990011683138e-17
5.529022354014368 8.430606593138313e-24 1.2373045291480846e-15 1.220192723263099e-15 1.7111805884985727e-17
5.570647458961463 8.760068255469657e-24 1.2953364840552711e-15 1.27781059337873e-15 1.7525890676541434e-17
5.612585937458331 9.10739844431862e-24 1.356834175771726e-15 1.3388889839755615e-15 1.7945191796164594e-17
5.654840148729818 9.487004598264673e-24 1.4240291417084344e-15 1.4056577047371603e-15 1.8371436971274567e-17
5.67608639626678 9.743411599210328e-24 1.4680115736722576e-15 1.4494173180679912e-15 1.8594255604266053e-17
5.686739436050992 9.87531140264137e-24 1.4906770384534898e-15 1.4719708196374304e-15 1.8706218816058808e-17
5.6974124697621304 1.0009753655058948e-23 1.5138069132142479e-15 1.4949883628396856e-15 1.8818550374562118e-17
5.718818669136295 1.0286509281503363e-23 1.561506446846486e-15 1.5424621311208312e-15 1.9044315725654106e-17
5.740305295436557 1.0590719364520002e-23 1.6137263256572485e-15 1.5944532796912336e-15 1.92730459660143e-17
5.7835210386641895 1.1376206174808236e-23 1.746462267599326e-15 1.7267156142752776e-15 1.9746653324048273e-17
5.827062130521658 1.2276526713836398e-23 1.89886720957465e-15 1.8786368238790502e-15 2.0230385695599488e-17
5.8489554468988025 1.2906608299288365e-23 2.00382539486758e-15 1.9833347176838142e-15 2.04906771837654e-17
5.870931020387893 1.358090475467089e-23 2.116435873621881e-15 2.0956828687987534e-15 2.0753004823127573e-17
5.892989160043636 1.4302952415586008e-23 2.237333724678395e-15 2.2163163566574338e-15 2.1017368020960993e-17
5.915130176081913 1.5122684193667007e-23 2.3744477792439188e-15 2.3531565991925717e-15 2.1291180051347597e-17
5.95966208400165 1.7411303056287196e-23 2.7543704063555965e-15 2.7324609118822076e-15 2.190949447338841e-17
6.004529249263818 2.0701109310963384e-23 3.29945353236091e-15 3.27685107402625e-15 2.2602458334659058e-17
6.027089341400364 2.2985490940426173e-23 3.677315111197054e-15 3.65431508206851e-15 2.3000029128544343e-17
6.049734195844842 2.5680249908842782e-23 4.123870059825511e-15 4.100449393861794e-15 2.3420665963715355e-17
6.095279466722835 3.3458038286680814e-23 5.413317868999325e-15 5.388873121477511e-15 2.4444747521815987e-17
6.141167624020661 4.5408197421211655e-23 7.402094864781334e-15 7.376333123906745e-15 2.5761740874588752e-17
6.164241091010745 5.303945678818822e-23 8.67856892041198e-15 8.651986515379677e-15 2.658240503230418e-17
6.187401249150058 6.171703434738322e-23 1.0136377184672362e-14 1.0108950373321837e-14 2.7426811350527356e-17
6.1990139391386085 6.595343459683773e-23 1.0852491710661134e-14 1.0824634878431263e-14 2.785683222986936e-17
6.204828454712694 6.818364750184511e-23 1.1229991881406704e-14 1.1201917669670172e-14 2.807421173653049e-17
6.210648424152782 6.981184936669541e-23 1.1508945172803465e-14 1.1480684344352293e-14 2.8260828451173765e-17
6.233982942956859 7.533913325618177e-23 1.2466819230458629e-14 1.2437901731600297e-14 2.8917498858332355e-17
6.239830258556775 7.604354865390739e-23 1.2595185969998568e-14 1.2566172834265552e-14 2.9013135733017576e-17
6.245683058788269 7.610186268248289e-23 1.2616667613779565e-14 1.2587558620747199e-14 2.910899303236541e-17
6.257405133728602 7.594365265454456e-23 1.2614068605946456e-14 1.2584789167188496e-14 2.927943875796327e-17
6.269149208991335 7.484910768502598e-23 1.2455600398211775e-14 1.2426245515089265e-14 2.935488312251154e-17
6.280915325867298 7.211378657162547e-23 1.2022939782094512e-14 1.1993627146521256e-14 2.93126355732523e-17
6.304513850009849 6.53722138808844e-23 1.0939922089908077e-14 1.091080068438835e-14 2.9121405519724816e-17
6.32820103803542 5.702565638752481e-23 9.578996036452626e-15 9.550179431085659e-15 2.881660536696623e-17
6.3519772230701035 4.937455966987783e-23 8.324949366040473e-15 8.296401572228235e-15 2.8547793812239486e-17
6.375842739491607 4.29341465082653e-23 7.266242097047776e-15 7.23792641649358e-15 2.831568055419709e-17
6.399797922933955 3.778108051845807e-23 6.418153039143866e-15 6.389933796947552e-15 2.821924219631403e-17
6.42384311029221 3.3493898813722567e-23 5.7112354234056026e-15 5.683085645002297e-15 2.8149778403305513e-17
6.447978639727206 3.037419992222921e-23 5.1987372743556e-15 5.170550580903197e-15 2.818669345240513e-17
6.472204850670314 2.777431045515589e-23 4.771610364986589e-15 4.743365363968562e-15 2.824500101802809e-17
6.496522083828205 2.608801200363485e-23 4.498744593909285e-15 4.470354558671325e-15 2.839003523796133e-17
