Dust emission spectrum from A.P. Jones, M. Kohler, N. Ysard, M. Bocchio, and L. Verstraete (2017), A&A, 602A, 46J 
inside the DustPedia framework.

lambda    nu*dP/dnu     j_nu    j_nu(carb.) j_nu(sil)
 (um)   (erg s-1 H-1) (Jy cm2 sr-1 H-1)
0.9927057738263894 6.21577455980902e-23 1.6378919014043595e-15 1.6378919012856454e-15 1.1871397076131681e-25
1.0001793341362166 6.31834867215214e-23 1.6774550764667511e-15 1.6774550763237722e-15 1.4297876640080587e-25
1.0077091589558085 6.420776994453243e-23 1.717482122812998e-15 1.7174821226410178e-15 1.71980131129835e-25
1.0114953028030835 6.471923924507816e-23 1.7376676141573221e-15 1.7376676139687972e-15 1.8852543898891038e-25
1.0152956718711033 6.523019375797637e-23 1.757966668230627e-15 1.7579666680240317e-15 2.0659522699398761e-25
1.0229392996569957 6.624985781055806e-23 1.7988885080251137e-15 1.7988885077772564e-15 2.4785740491197717e-25
1.0267826658714554 6.675732990871957e-23 1.819478462995813e-15 1.8194784627244526e-15 2.713598681489147e-25
1.0306404723013447 6.726406378635453e-23 1.8401775485664783e-15 1.8401775482694844e-15 2.969940069507147e-25
1.03451277320114 6.777001078471739e-23 1.8609848820642774e-15 1.8609848817393338e-15 3.249436427423074e-25
1.0383996230291617 6.827512251947788e-23 1.8818995698813077e-15 1.8818995695259003e-15 3.5540756384463685e-25
1.0403485208654093 6.852735012024174e-23 1.8923968894702187e-15 1.8923968890985693e-15 3.7164887440252765e-25
1.0423010764483396 6.877935089005959e-23 1.9029207076908586e-15 1.902920707302258e-15 3.886006664374821e-25
1.0462171883269815 6.92826480887745e-23 1.9240473806640164e-15 1.9240473802392618e-15 4.247551760739466e-25
1.0471985131304309 6.940832131899753e-23 1.9293454305876865e-15 1.9293454301534012e-15 4.342854921701671e-25
1.048180758391296 6.953393264106772e-23 1.934650004134581e-15 1.9346500036905595e-15 4.440205873805573e-25
1.0501480137395462 6.978496660975202e-23 1.9452786636865184e-15 1.9452786632223964e-15 4.641219549339909e-25
1.0521189612883777 7.003574410518399e-23 1.9559332421090713e-15 1.955933241623978e-15 4.850937779000835e-25
1.0531058218030118 7.016084220621846e-23 1.9612648292362306e-15 1.9612648287403124e-15 4.959179632328321e-25
1.0540936079674168 7.028524286141666e-23 1.9665851827497005e-15 1.966585182242724e-15 5.069757041646389e-25
1.058054026499678 7.078214166371388e-23 1.9879294900213225e-15 1.9879294894677067e-15 5.53615119853569e-25
1.0590464539527713 7.090618679645458e-23 1.993281214884722e-15 1.99328121431882e-15 5.659017533148027e-25
1.06003981227728 7.103015866145511e-23 1.9986391687366817e-15 1.9986391681582325e-15 5.784492979125665e-25
1.0620293250338977 7.127787971782794e-23 2.0093737026620725e-15 2.0093737020577242e-15 6.043483043479532e-25
1.0660195594769086 7.177241111983275e-23 2.0309168482223485e-15 2.030916847562833e-15 6.5951600850561155e-25
1.070024785945596 7.226569031805879e-23 2.052557945317516e-15 2.05255794459803e-15 7.194856863986671e-25
1.0740450607676866 7.275767212065371e-23 2.074296003846073e-15 2.0742960030614194e-15 7.846534478446593e-25
1.07808044048254 7.324831170293717e-23 2.096130025207495e-15 2.096130024352048e-15 8.554461425674332e-25
1.0861967418109137 7.422451931246081e-23 2.1400569096454584e-15 2.1400569086296777e-15 1.0157810529108957e-24
1.0902777775684922 7.470802697332156e-23 2.1620904584644084e-15 2.1620904573580562e-15 1.1063517709599472e-24
1.0943741465085532 7.518998248753678e-23 2.184214276644378e-15 2.1842142754397687e-15 1.2046090455359232e-24
1.1026131145906286 7.614906694876366e-23 2.228728532886348e-15 2.22872853145965e-15 1.4266978127773092e-24
1.1109141095355224 7.710143661682294e-23 2.2735912333685663e-15 2.2735912316810047e-15 1.687561116334835e-24
1.1192775983109025 7.804587767919245e-23 2.3187675481733563e-15 2.31876754617979e-15 1.9935659636775435e-24
1.1277040513999907 7.897800479698715e-23 2.3641266125532582e-15 2.364126610201203e-15 2.3520546708871788e-24
1.1361939428280308 7.990232440111208e-23 2.4098017536259778e-15 2.4098017508544956e-15 2.7714819567026496e-24
1.1447477501889525 8.081853094737608e-23 2.4557841025705856e-15 2.4557840993090145e-15 3.2615712634461848e-24
1.1533659546722406 8.172682498082396e-23 2.5020799799776246e-15 2.5020799761441294e-15 3.8334955060228e-24
1.1707974979042381 8.352261619894853e-23 2.5957048469386875e-15 2.595704841662668e-15 5.2760191760770495e-24
1.1884924949847024 8.528292501218706e-23 2.6904688235982095e-15 2.6904688163728352e-15 7.225373875579889e-24
1.2064549276569216 8.702153148879118e-23 2.786809336158129e-15 2.786809326311513e-15 9.846615889642335e-24
1.2246888378427687 8.871948494451647e-23 2.884125832941095e-15 2.8841258195874078e-15 1.3353685858788107e-23
1.2431983285522175 9.037283664145009e-23 2.9822755282625907e-15 2.9822755102396607e-15 1.802293106777922e-23
1.2619875648066055 9.19810011210962e-23 3.081219521376931e-15 3.0812194971674463e-15 2.4209484614431206e-23
1.3004222497298317 9.503517948694444e-23 3.280486265526698e-15 3.2804862224540395e-15 4.307265882054286e-23
1.3400274889804893 9.787032630091522e-23 3.4812416976375097e-15 3.4812416223971454e-15 7.524036288419605e-23
1.3808389325824078 1.0047621536276773e-22 3.682779564419717e-15 3.6827794353174325e-15 1.291022853946113e-22
1.4228933163050095 1.0286576043655633e-22 3.885193141397185e-15 3.885192923694456e-15 2.1770272861726177e-22
1.466228494730424 1.0509648743727821e-22 4.0903388729362866e-15 4.090338511978231e-15 3.609580566601056e-22
1.5108834753276823 1.071256278280084e-22 4.296291938446987e-15 4.2962913497344426e-15 5.887125446108085e-22
1.5568984535646726 1.089186503403924e-22 4.50123794714269e-15 4.501237001655162e-15 9.454875265819754e-22
1.6043148490894465 1.1047914598896436e-22 4.704780265652881e-15 4.704778767652478e-15 1.4980004029028827e-21
1.6531753430134553 1.1181216303496302e-22 4.906563246261276e-15 4.906560907574877e-15 2.3386864006080217e-21
1.7035239163302658 1.1293357575832673e-22 5.106704727134418e-15 5.106701128478645e-15 3.598655772011367e-21
1.755405889504358 1.1393339448057853e-22 5.308820249813162e-15 5.308814789285287e-15 5.460527877027617e-21
1.8088679632656115 1.1478987432118106e-22 5.511627781127331e-15 5.511619607601461e-15 8.173525869215837e-21
1.8639582606462262 1.1548836479599925e-22 5.714047526251748e-15 5.7140354526239e-15 1.2073627848934599e-20
1.9207263702978936 1.1604007233315025e-22 5.9162010323380575e-15 5.916183425384869e-15 1.760695318975904e-20
1.979223391128241 1.1647061967520797e-22 6.119002549120998e-15 6.11897719100175e-15 2.5358119247890323e-20
2.039501978296691 1.168105462962026e-22 6.323763491922923e-15 6.323727409789331e-15 3.608213359205671e-20
2.1016163906111602 1.1714495846433821e-22 6.535013403191395e-15 6.53496265855996e-15 5.0744631433922297e-20
2.1656225393682647 1.1752325793219785e-22 6.7557880845652955e-15 6.755717524102023e-15 7.056046327081505e-20
2.231578038680979 1.179490290382747e-22 6.9867609130495104e-15 6.9866638748730335e-15 9.703817647612589e-20
2.299542257339062 1.1845180051685724e-22 7.230236352457762e-15 7.230104323868656e-15 1.320285891069774e-19
2.369576372248914 1.190966474916194e-22 7.490997985189657e-15 7.490820206562413e-15 1.777786272467914e-19
2.4417434235010123 1.199603556132069e-22 7.77512185594575e-15 7.774884876978714e-15 2.369789670367155e-19
2.5161083711144245 1.21174413846672e-22 8.09300303559018e-15 8.092690211060095e-15 3.1282453008437486e-19
2.5927381535095444 1.229539294318084e-22 8.461950965199385e-15 8.461541901450284e-15 4.090637490996315e-19
2.6717017477616296 1.2555528614879814e-22 8.904148815688425e-15 8.903618793665204e-15 5.300220232215075e-19
2.753070231689431 1.2936437614098744e-22 9.453691414480977e-15 9.453010773872585e-15 6.806406083955456e-19
2.836916847834745 1.3525608876306974e-22 1.018527745904689e-14 1.0184410925969749e-14 8.6653307714503805e-19
2.9233170693905177 1.4515733002938194e-22 1.1263784342777757e-14 1.1262690528583314e-14 1.0938141944448878e-18
2.967498994190263 1.5351401861968768e-22 1.209227608105012e-14 1.209105305004569e-14 1.2230310044344767e-18
3.0123486681368425 1.6326142657547364e-22 1.3054440360362856e-14 1.3053074668725053e-14 1.3656916378060633e-18
3.0578761833420214 1.849744565089914e-22 1.5014161719239446e-14 1.5012638332399362e-14 1.5233868400851964e-18
3.1040917844459814 2.129279163538079e-22 1.7544322084400757e-14 1.754262600764127e-14 1.6960767594857712e-18
3.127460860933648 2.4245457773425835e-22 2.012758664017182e-14 2.0125797670351065e-14 1.788969820755317e-18
3.1510058709225794 2.817786058553068e-22 2.3568213377672643e-14 2.3566327263119045e-14 1.886114553597714e-18
3.162844764501044 3.1836918605696725e-22 2.6728730800711633e-14 2.672679429120284e-14 1.9365095087989873e-18
3.1747281389236908 3.6091313650309017e-22 3.0414358739407345e-14 3.041237072435772e-14 1.988015049620377e-18
3.1986289994194426 4.795548001654998e-22 4.0716603782823016e-14 4.071450909415182e-14 2.0946886712075415e-18
3.2227097969389145 7.591692959400644e-22 6.49425395339081e-14 6.494033147536979e-14 2.2080585383138895e-18
3.2348180950136065 1.024308045386588e-21 8.795284270164765e-14 8.795057405515954e-14 2.268646488117608e-18
3.240889293275058 1.222530732777183e-21 1.051703731019071e-13 1.0516807249427889e-13 2.3006076281934432e-18
3.2469718861334385 1.4518465712494098e-21 1.2513208604075958e-13 1.251297523602114e-13 2.3336805482075053e-18
3.2714166318528037 2.6749306579684653e-21 2.322832097879218e-13 2.3228073915787994e-13 2.470630041776051e-18
3.2744851364798273 2.751391282484377e-21 2.391469318289808e-13 2.3914444498354977e-13 2.486845431071294e-18
3.2775565192852394 2.8300470905566814e-21 2.462143066297089e-13 2.4621180348057407e-13 2.503149134803572e-18
3.283707930232385 2.7544154250394637e-21 2.400840986552126e-13 2.4008156619678125e-13 2.532458431372678e-18
3.2898708863219004 2.514545493265807e-21 2.1958758600047167e-13 2.195850267275043e-13 2.5592729674430483e-18
3.29141343181113 2.4579774405796637e-21 2.1474831395094568e-13 2.147457479408654e-13 2.5660100802004185e-18
3.292184975758714 2.4301817923593166e-21 2.123696368272101e-13 2.123670674435415e-13 2.569383668603307e-18
3.295272960557952 2.254744338588626e-21 1.9722325988710735e-13 1.9722067735420775e-13 2.5825328995720834e-18
3.3076538914384823 1.6469470702430431e-21 1.4460028012679164e-13 1.445976447057263e-13 2.6354210653767312e-18
3.310756385682612 1.5232368909592917e-21 1.338640954403197e-13 1.3386144667281879e-13 2.6487675009166928e-18
3.313861789986515 1.4090918543479871e-21 1.2394902899627924e-13 1.239463668323989e-13 2.6621638803229007e-18
3.3200813396944477 1.2490217152464847e-21 1.1007486102080859e-13 1.1007217010704016e-13 2.6909137684255774e-18
3.345076488085796 9.635212242064911e-22 8.55533010669671e-14 8.555048218854943e-14 2.8188784176783295e-18
3.3482140837626964 9.742360658039051e-22 8.658583607090616e-14 8.658299986299728e-14 2.83620790888055e-18
3.3513546224236106 9.850692235133816e-22 8.763075806916224e-14 8.762790444544416e-14 2.853623718085543e-18
3.3576445397418455 1.064205751936544e-21 9.484834388072678e-14 9.484545386883354e-14 2.8900118932211583e-18
3.3702598118196083 1.3560529895384132e-21 1.213135956951052e-13 1.2131062933814153e-13 2.966356963700507e-18
3.382922481734668 1.4225531198333082e-21 1.2774090001744004e-13 1.2773785917356864e-13 3.040843871374355e-18
3.389271646505754 1.4570036243589953e-21 1.3108000329251905e-13 1.3107692463732283e-13 3.0786551962689195e-18
3.395632727569191 1.494130472034928e-21 1.3467242079565358e-13 1.3466930317062448e-13 3.1176250291151704e-18
3.421196662673239 1.6724087330272692e-21 1.518762619201623e-13 1.5187298265508895e-13 3.279265073402393e-18
3.4276182099114902 1.6365191525341167e-21 1.4889597804197084e-13 1.4889266239749598e-13 3.31564447484447e-18
3.4340518103208963 1.479192263959226e-21 1.3483446089552088e-13 1.3483111069364717e-13 3.3502018737258033e-18
3.4469541582030403 1.255121685732456e-21 1.148393627773551e-13 1.1483594594228376e-13 3.416835071385829e-18
3.472904465399547 1.1923521434544727e-21 1.099174909839573e-13 1.0991392107078982e-13 3.569913167510418e-18
3.4990501388274233 1.0963401486276761e-21 1.0182746150707691e-13 1.0182373422767341e-13 3.727279403504292e-18
3.5253949054701885 7.54586441186324e-22 7.061325039258079e-14 7.060936910016006e-14 3.881292420744733e-18
3.5519380250092896 4.333481306743075e-22 4.085749535960723e-14 4.0853458340776154e-14 4.037018831086019e-18
3.578680990867387 3.0600125371262758e-22 2.906803171160513e-14 2.9063823834805405e-14 4.2078767997222895e-18
3.605625307711299 2.545208986560151e-22 2.4359786317770695e-14 2.435539790200482e-14 4.38841576588454e-18
3.660119384959845 2.1702355475961783e-22 2.1084900561079422e-14 2.108013023486981e-14 4.770326209617276e-18
3.715437065384467 1.9048855724750697e-22 1.8786602002517597e-14 1.8781425215799832e-14 5.176786717765537e-18
3.8285932144167436 1.7714674868422047e-22 1.8002874091447876e-14 1.7996810072813707e-14 6.064018634162262e-18
3.94519561050918 1.747166842412775e-22 1.829668256364917e-14 1.8289630048878324e-14 7.052514770843135e-18
4.06534921144712 1.7676665863371864e-22 1.907513599538502e-14 1.9066989195323914e-14 8.146800061104095e-18
4.189162171576248 1.8141002580331663e-22 2.0172414867725872e-14 2.016306005079344e-14 9.354816932432532e-18
4.316745939156006 1.8794239091807775e-22 2.1535287281128515e-14 2.1524608145489165e-14 1.0679135639347565e-17
4.448215356677963 1.9612589006375007e-22 2.3157419640780676e-14 2.314530980086273e-14 1.2109839917950419e-17
4.58368876423945 2.0598674741076216e-22 2.506246792335048e-14 2.504881207006361e-14 1.3655853286878491e-17
4.723288106065518 2.1774655231584384e-22 2.7300157803589252e-14 2.7284823713132913e-14 1.5334090456341555e-17
4.867139040275056 2.3185051736169505e-22 2.99537537659174e-14 2.993663888987911e-14 1.711487603829759e-17
4.940699165968905 2.4034407935732443e-22 3.1520367488208436e-14 3.1502316416557443e-14 1.8051071650996604e-17
5.015371051989984 2.491324622859713e-22 3.3166742755009046e-14 3.3147726040451224e-14 1.901671455780597e-17
5.091171501069577 2.598458164543045e-22 3.511582604670215e-14 3.509579528057717e-14 2.0030766124979508e-17
5.129500256944802 2.6534108418107766e-22 3.6128421601596617e-14 3.6107872616833555e-14 2.0548984763051372e-17
5.168117569889187 2.710679694095619e-22 3.718604755924164e-14 3.716496892915434e-14 2.1078630087308572e-17
5.20702561229733 2.7809551495186035e-22 3.8437322861365535e-14 3.841567190844076e-14 2.165095292475786e-17
5.246226572918644 2.852997718971443e-22 3.972993919233185e-14 3.9707706471131946e-14 2.2232721199890005e-17
5.265937586045735 2.8896992645677815e-22 4.0392226019264465e-14 4.0369698872436547e-14 2.2527146827924484e-17
5.285722656980489 2.926864009454048e-22 4.106542759066274e-14 4.104260365784641e-14 2.2823932816318165e-17
5.305582063971359 2.9644994222088085e-22 4.1749746174117146e-14 4.172662309563511e-14 2.3123078482039722e-17
5.3255160863122235 3.004932323865928e-22 4.247817299855134e-14 4.245474658892501e-14 2.3426409626343976e-17
5.365609099470188 3.1056630147503934e-22 4.423263309689494e-14 4.420857866751085e-14 2.4054429384085978e-17
5.406003951863644 3.2101960067199946e-22 4.6065664690256584e-14 4.6040971823720524e-14 2.4692866536048778e-17
5.446702915881641 3.3187153322531927e-22 4.7981422867366024e-14 4.795608113283751e-14 2.5341734528519902e-17
5.487708281020852 3.4359572043478935e-22 5.005047411839501e-14 5.002447089522356e-14 2.600322317145345e-17
5.529022354014368 3.599018381454348e-22 5.2820419203109825e-14 5.2793724771430714e-14 2.6694431679134566e-17
5.570647458961463 3.771649594188852e-22 5.5770744952524865e-14 5.574334769421316e-14 2.7397258311702206e-17
5.612585937458331 3.9545407074610943e-22 5.891535342577351e-14 5.888724168768944e-14 2.8111738084065216e-17
5.654840148729818 4.15556279557167e-22 6.23763007575211e-14 6.234746007418913e-14 2.884068333193878e-17
5.67608639626678 4.292558613175515e-22 6.467473595510334e-14 6.464551426397694e-14 2.92216911263957e-17
5.686739436050992 4.363167951080523e-22 6.586196641710191e-14 6.583255299037294e-14 2.941342672895427e-17
5.6974124697621304 4.435229854268832e-22 6.707539312611424e-14 6.704578714129212e-14 2.9605984822106927e-17
5.718818669136295 4.5838513821241525e-22 6.958350290359086e-14 6.95535093310793e-14 2.999357251154714e-17
5.740305295436557 4.747692528225009e-22 7.234141662359261e-14 7.231102976410147e-14 3.0386859491150133e-17
5.7835210386641895 5.172897076457329e-22 7.9413729141208e-14 7.938252688871138e-14 3.1202252496602797e-17
5.827062130521658 5.662685776352673e-22 8.758738191578178e-14 8.75553439342744e-14 3.2037981507426944e-17
5.8489554468988025 6.006451939519063e-22 9.325363139844845e-14 9.32211445284918e-14 3.24868699566532e-17
5.870931020387893 6.375314027432016e-22 9.935231530595393e-14 9.931937512596194e-14 3.294017999198366e-17
5.892989160043636 6.771291705898967e-22 1.0591966506673272e-13 1.0588626713325645e-13 3.33979334762725e-17
5.915130176081913 7.2216553933596005e-22 1.133888891127442e-13 1.1335501718334995e-13 3.387192939422688e-17
5.95966208400165 8.481233775540083e-22 1.341683574469501e-13 1.3413342103367723e-13 3.4936413272838887e-17
6.004529249263818 1.0296924584685563e-21 1.6411789186293413e-13 1.6408176513040052e-13 3.61267325336106e-17
6.027089341400364 1.1559220475720252e-21 1.8492925053980318e-13 1.8489244390923578e-13 3.680663056739424e-17
6.049734195844842 1.3050852162434167e-21 2.0957747171042439e-13 2.0953994616465434e-13 3.752554577006324e-17
6.095279466722835 1.7359943733571455e-21 2.8087388989322583e-13 2.8083462508829236e-13 3.926480493348968e-17
6.141167624020661 2.3991540614134984e-21 3.910916302859544e-13 3.91050142381467e-13 4.1487904487344213e-17
6.164241091010745 2.8226696265756834e-21 4.618586685685287e-13 4.618158022407224e-13 4.2866327806244e-17
6.187401249150058 3.3050734653698235e-21 5.428237377621362e-13 5.427794509427881e-13 4.428681934817655e-17
6.1990139391386085 3.5406207486267e-21 5.826013089378733e-13 5.825562982349758e-13 4.501070289748579e-17
6.204828454712694 3.664694629758133e-21 6.035830063052125e-13 6.035376294427267e-13 4.537686248586649e-17
6.210648424152782 3.7552657100682455e-21 6.190803933508532e-13 6.19034700403976e-13 4.5692946877446186e-17
6.233982942956859 4.062955517442717e-21 6.723216711973086e-13 6.722748584978867e-13 4.6812699421943526e-17
6.239830258556775 4.102276201842416e-21 6.794650246750377e-13 6.794180433949121e-13 4.698128012566305e-17
6.245683058788269 4.1056669029434494e-21 6.806644781278993e-13 6.806173277958454e-13 4.715033205397188e-17
6.257405133728602 4.097170305312413e-21 6.805307028956114e-13 6.804832488565901e-13 4.745403902119769e-17
6.269149208991335 4.036599817672803e-21 6.717284394091105e-13 6.716808363005058e-13 4.7603108604604875e-17
6.280915325867298 3.884769059765111e-21 6.476756622190373e-13 6.476281018860471e-13 4.7560332990335624e-17
6.304513850009849 3.5103700617773235e-21 5.874540986567268e-13 5.874067980799922e-13 4.730057673472392e-17
6.32820103803542 3.0463360165005835e-21 5.117142436635891e-13 5.116673882171129e-13 4.6855446476343754e-17
6.3519772230701035 2.6207873250317692e-21 4.4188590087539963e-13 4.418394318173639e-13 4.64690580357013e-17
6.375842739491607 2.2627616553634465e-21 3.8295332114316427e-13 3.8290717877067275e-13 4.614237249154992e-17
6.399797922933955 1.9758300217960107e-21 3.3564893553074346e-13 3.356028969903899e-13 4.603854035355366e-17
6.42384311029221 1.7372552819748867e-21 2.9622929122388213e-13 2.9618331210046687e-13 4.597912341521344e-17
6.447978639727206 1.5633985437388478e-21 2.6758559253638806e-13 2.675394973560974e-13 4.609518029061241e-17
6.472204850670314 1.4185562737440586e-21 2.4370714189440396e-13 2.436608948698211e-13 4.624702458287071e-17
6.496522083828205 1.324411115059208e-21 2.2838794091155065e-13 2.28341398309124e-13 4.654260242660841e-17
