Dust emission spectrum from A.P. Jones, M. Kohler, N. Ysard, M. Bocchio, and L. Verstraete (2017), A&A, 602A, 46J 
inside the DustPedia framework.

lambda    nu*dP/dnu     j_nu    j_nu(carb.) j_nu(sil)
 (um)   (erg s-1 H-1) (Jy cm2 sr-1 H-1)
0.9927057738263894 1.4520309831114923e-21 3.826184114212141e-14 3.826184114212115e-14 2.5369793781469437e-28
1.0001793341362166 1.4760243973725153e-21 3.9186894342726204e-14 3.9186894342725895e-14 3.0570024835507182e-28
1.0077091589558085 1.4999837211374381e-21 4.012279554000366e-14 4.012279554000331e-14 3.6789547623675885e-28
1.0114953028030835 1.5119476484973716e-21 4.0594767394380376e-14 4.059476739437998e-14 4.033961004381453e-28
1.0152956718711033 1.5238995218511463e-21 4.106939456728687e-14 4.106939456728642e-14 4.421814801382208e-28
1.0229392996569957 1.5477507128192332e-21 4.2026218056795314e-14 4.202621805679478e-14 5.3079612041353055e-28
1.0267826658714554 1.559621109334795e-21 4.250764706659798e-14 4.25076470665974e-14 5.81297080647417e-28
1.0306404723013447 1.571474203766863e-21 4.2991627105792046e-14 4.2991627105791415e-14 6.363991391963515e-28
1.03451277320114 1.5833088522990764e-21 4.347813735971225e-14 4.3478137359711557e-14 6.965013289232592e-28
1.0383996230291617 1.5951239174521312e-21 4.3967156753240044e-14 4.396715675323928e-14 7.620354017666184e-28
1.0403485208654093 1.6010237525857594e-21 4.42126007213912e-14 4.421260072139041e-14 7.969838790015609e-28
1.0423010764483396 1.6069182683019128e-21 4.4458663955788835e-14 4.445866395578801e-14 8.334683447473728e-28
1.0462171883269815 1.6186907806928221e-21 4.4952637386295756e-14 4.4952637386294853e-14 9.113050755460146e-28
1.0471985131304309 1.621630365455751e-21 4.5076513539565346e-14 4.507651353956441e-14 9.318278633087711e-28
1.048180758391296 1.624568498069752e-21 4.5200542125691205e-14 4.520054212569023e-14 9.527937261377756e-28
1.0501480137395462 1.630440337446272e-21 4.544905521821743e-14 4.5449055218216443e-14 9.960913293772695e-28
1.0521189612883777 1.6363061602986349e-21 4.569817389802041e-14 4.569817389801936e-14 1.0412729869159927e-27
1.0531058218030118 1.6392322696663704e-21 4.582283359706856e-14 4.582283359706749e-14 1.0645960978901827e-27
1.0540936079674168 1.6421420708888577e-21 4.5947230643386336e-14 4.5947230643385276e-14 1.0884247772555112e-27
1.058054026499678 1.6537647639057535e-21 4.644628809545831e-14 4.6446288095457123e-14 1.1889555220267498e-27
1.0590464539527713 1.6566662241886614e-21 4.6571417998949226e-14 4.657141799894801e-14 1.2154459629275282e-27
1.06003981227728 1.6595659653900822e-21 4.6696693405118945e-14 4.669669340511771e-14 1.2425017352219227e-27
1.0620293250338977 1.6653602230126703e-21 4.694767929164599e-14 4.694767929164468e-14 1.2983554571850534e-27
1.0660195594769086 1.6769273681602488e-21 4.7451381277348764e-14 4.745138127734736e-14 1.4173674923072086e-27
1.070024785945596 1.688465127454401e-21 4.79573708836769e-14 4.795737088367536e-14 1.5467932067682688e-27
1.0740450607676866 1.6999724373326053e-21 4.846562473246717e-14 4.846562473246549e-14 1.687497180638221e-27
1.07808044048254 1.7114482427353613e-21 4.897611924128956e-14 4.897611924128772e-14 1.840411621058857e-27
1.0861967418109137 1.7342808873884404e-21 5.000315031610597e-14 5.000315031610378e-14 2.1869691463086298e-27
1.0902777775684922 1.7455895524261747e-21 5.0518299955151256e-14 5.051829995514886e-14 2.3828617225958125e-27
1.0943741465085532 1.7568617746609586e-21 5.10355561120301e-14 5.103555611202751e-14 2.5954739637849157e-27
1.1026131145906286 1.779292883152463e-21 5.20762889939506e-14 5.2076288993947515e-14 3.07636589653611e-27
1.1109141095355224 1.8015662944912193e-21 5.312514932560683e-14 5.312514932560319e-14 3.641732865383662e-27
1.1192775983109025 1.8236535726251363e-21 5.418132064188382e-14 5.4181320641879507e-14 4.305550219769454e-27
1.1277040513999907 1.845452145481605e-21 5.5241741552491144e-14 5.524174155248608e-14 5.08395400047349e-27
1.1361939428280308 1.8670672786768757e-21 5.630952586193595e-14 5.630952586192996e-14 5.9955471522099424e-27
1.1447477501889525 1.8884917621441515e-21 5.738446359943011e-14 5.738446359942307e-14 7.061751187020583e-27
1.1533659546722406 1.9097302259001887e-21 5.846670008903645e-14 5.846670008902816e-14 8.307211975762493e-27
1.1707974979042381 1.9517176518612545e-21 6.065522369084784e-14 6.065522369083638e-14 1.145338201512046e-26
1.1884924949847024 1.9928705328083413e-21 6.28702174230327e-14 6.2870217423017e-14 1.5713639937907124e-26
1.2064549276569216 2.0335105434578045e-21 6.512188501778022e-14 6.512188501775875e-14 2.145426506026244e-26
1.2246888378427687 2.0731939226663103e-21 6.739615488973774e-14 6.739615488970857e-14 2.9151302855776224e-26
1.2431983285522175 2.1118278078936747e-21 6.968966146733846e-14 6.968966146729903e-14 3.9421376310311797e-26
1.2619875648066055 2.1493977053269737e-21 7.200145778079921e-14 7.200145778074616e-14 5.305911371770859e-26
1.3004222497298317 2.2207210152079834e-21 7.665629537698811e-14 7.665629537689332e-14 9.479080124862025e-26
1.3400274889804893 2.2868843732414274e-21 8.134434142301649e-14 8.13443414228502e-14 1.6629324718848942e-25
1.3808389325824078 2.347642032760689e-21 8.604870388089493e-14 8.604870388060832e-14 2.866053319982272e-25
1.4228933163050095 2.4032889935260917e-21 9.077113584555442e-14 9.07711358450689e-14 4.855203767384801e-25
1.466228494730424 2.4551631802979134e-21 9.555456743278686e-14 9.555456743197803e-14 8.088358913875961e-25
1.5108834753276823 2.5022562304989528e-21 1.0035342138933685e-13 1.003534213880112e-13 1.3256678908906304e-24
1.5568984535646726 2.543752074090796e-21 1.051246350210619e-13 1.0512463501892206e-13 2.1398317902713043e-24
1.6043148490894465 2.579725881553283e-21 1.0985822989198544e-13 1.098582298885776e-13 3.4078748223441036e-24
1.6531753430134553 2.610286368041092e-21 1.145450978498861e-13 1.1454509784453721e-13 5.348856456326641e-24
1.7035239163302658 2.6357957436306264e-21 1.191871460137209e-13 1.1918714600544492e-13 8.27600163380754e-24
1.755405889504358 2.6583495457132557e-21 1.238679841297088e-13 1.2386798411707934e-13 1.2629438506127e-23
1.8088679632656115 2.6774297772293916e-21 1.285566033542744e-13 1.2855660333525876e-13 1.9015619851793834e-23
1.8639582606462262 2.6926854073272475e-21 1.3322668840182113e-13 1.332266883735608e-13 2.826037696627684e-23
1.9207263702978936 2.70437020262193e-21 1.3787993632614607e-13 1.3787993628467382e-13 4.147222841122832e-23
1.979223391128241 2.7130754642723734e-21 1.4253651030736343e-13 1.4253651024724274e-13 6.012070982964917e-23
2.039501978296691 2.7195089721787504e-21 1.4722584646263135e-13 1.472258463765037e-13 8.612766284032432e-23
2.1016163906111602 2.7256539905755784e-21 1.5205251335076435e-13 1.5205251322878023e-13 1.219841012918726e-22
2.1656225393682647 2.732660400995296e-21 1.5708613682968374e-13 1.570861366588129e-13 1.708708533546331e-22
2.231578038680979 2.7406102487564566e-21 1.623412139976239e-13 1.623412137608213e-13 2.3680259450136883e-22
2.299542257339062 2.7501919321261302e-21 1.678702864551608e-13 1.678702861303668e-13 3.247940296292992e-22
2.369576372248914 2.762928019485323e-21 1.737839701041544e-13 1.7378396966309977e-13 4.410546338258064e-22
2.4417434235010123 2.780616427205158e-21 1.802231365991751e-13 1.802231360059874e-13 5.931877735298518e-22
2.5161083711144245 2.806336449044197e-21 1.8742974428364291e-13 1.8742974349319588e-13 7.904470189132907e-22
2.5927381535095444 2.8451273230138125e-21 1.9580771438821165e-13 1.9580771334421397e-13 1.0439977187237197e-21
2.6717017477616296 2.903005323072956e-21 2.0587577156045294e-13 2.0587577019330325e-13 1.3671496288221526e-21
2.753070231689431 2.9890286634793743e-21 2.1843227213322092e-13 2.184322703575413e-13 1.775679586971649e-21
2.836916847834745 3.123720155353986e-21 2.352275359849414e-13 2.3522753369667594e-13 2.288265414938319e-21
2.9233170693905177 3.3522804490830705e-21 2.6012716014643453e-13 2.6012715721996666e-13 2.9264679048439217e-21
2.967498994190263 3.5463878713910866e-21 2.793484374712928e-13 2.793484341755521e-13 3.2957406404850004e-21
3.0123486681368425 3.7730827474325625e-21 3.0169700666129017e-13 3.0169700295393523e-13 3.707355018952694e-21
3.0578761833420214 4.280340685742142e-21 3.4743028027790907e-13 3.474302761110896e-13 4.1668194542802954e-21
3.1040917844459814 4.933996895323264e-21 4.065396035301815e-13 4.0653959885432034e-13 4.6758611183946155e-21
3.127460860933648 5.6254937194170235e-21 4.670054625877651e-13 4.670054576355365e-13 4.9522285132932445e-21
3.1510058709225794 6.546818221865924e-21 5.475817027677497e-13 5.475816975245787e-13 5.243171055125514e-21
3.162844764501044 7.404440947228055e-21 6.216409045717501e-13 6.216408991766474e-13 5.395102733200596e-21
3.1747281389236908 8.401783000087115e-21 7.080231124064827e-13 7.080231068555564e-13 5.5509265364409464e-21
3.1986289994194426 1.118365332102288e-20 9.49548166256268e-13 9.495481603806032e-13 5.875664722778945e-21
3.2227097969389145 1.7741234125595018e-20 1.5176599010831647e-12 1.5176598948576681e-12 6.2254968868372394e-21
3.2348180950136065 2.3959881132258793e-20 2.0573299857079553e-12 2.0573299792928445e-12 6.415111446512874e-21
3.240889293275058 2.860913284425361e-20 2.461151359783904e-12 2.4611513532675676e-12 6.516335438519761e-21
3.2469718861334385 3.3987603412158016e-20 2.929331376131182e-12 2.9293313695092575e-12 6.621925376533641e-21
3.2714166318528037 6.267730728408274e-20 5.442715336728651e-12 5.442715329664134e-12 7.064518533477202e-21
3.2744851364798273 6.447079788610237e-20 5.603708060420253e-12 5.603708053303627e-12 7.116626577927347e-21
3.2775565192852394 6.631580267269661e-20 5.769479747575094e-12 5.7694797404059925e-12 7.169102169261295e-21
3.283707930232385 6.454150695563632e-20 5.625654497295402e-12 5.625654490034492e-12 7.260909686989252e-21
3.2898708863219004 5.891463168657473e-20 5.1448350355196e-12 5.1448350281769395e-12 7.342660163908052e-21
3.29141343181113 5.758767359911242e-20 5.03131379710723e-12 5.031313789744017e-12 7.363213211297402e-21
3.292184975758714 5.693565332685133e-20 4.975514201266622e-12 4.975514193893115e-12 7.373507100659942e-21
3.295272960557952 5.282003566081215e-20 4.620186618097662e-12 4.620186610684608e-12 7.413052771018196e-21
3.3076538914384823 3.856225587900463e-20 3.385726902323712e-12 3.385726894751715e-12 7.571997170849545e-21
3.310756385682612 3.566042974948331e-20 3.1338862653341724e-12 3.1338862577220105e-12 7.612162200038064e-21
3.313861789986515 3.298304194099775e-20 2.9013126499279345e-12 2.901312642275434e-12 7.652499848627174e-21
3.3200813396944477 2.9228302290865375e-20 2.5758569873273e-12 2.5758569795865563e-12 7.740743467503749e-21
3.345076488085796 2.2530182312573847e-20 2.000507536373896e-12 2.00050752823012e-12 8.14377587857416e-21
3.3482140837626964 2.2781347999226133e-20 2.0247064675311396e-12 2.024706459331614e-12 8.19952551269944e-21
3.3513546224236106 2.303529060268215e-20 2.049196066299664e-12 2.049196058044046e-12 8.255618507695932e-21
3.3576445397418455 2.4891186113376055e-20 2.2184504977393097e-12 2.218450489364965e-12 8.374344578603685e-21
3.3702598118196083 3.17365325501389e-20 2.8391758347604275e-12 2.8391758261335804e-12 8.62684762631041e-21
3.382922481734668 3.329562231096434e-20 2.9898445979590017e-12 2.9898445890887328e-12 8.870268419768279e-21
3.389271646505754 3.4103339381586735e-20 3.0681226619398186e-12 3.068122652945491e-12 8.994325968548678e-21
3.395632727569191 3.4973695581681016e-20 3.152329957999231e-12 3.1523299488764926e-12 9.12273699794711e-21
3.421196662673239 3.915282844143242e-20 3.5555813060856647e-12 3.5555812964262603e-12 9.659406032264488e-21
3.4276182099114902 3.8310629749707836e-20 3.485629042076031e-12 3.4856290322971937e-12 9.778835805159215e-21
3.4340518103208963 3.4620146339449e-20 3.1557687810705865e-12 3.1557687711795796e-12 9.891006527890713e-21
3.4469541582030403 2.9364208585374664e-20 2.6867251524204672e-12 2.6867251423148796e-12 1.0105588160530111e-20
3.472904465399547 2.789114621200512e-20 2.571157211499881e-12 2.571157200883853e-12 1.0616027709140322e-20
3.4990501388274233 2.5638179295791403e-20 2.3812597929772024e-12 2.3812597818328945e-12 1.114430820408845e-20
3.5253949054701885 1.7620464284384024e-20 1.648900892773272e-12 1.6489008811174458e-12 1.165582634002654e-20
3.5519380250092896 1.0084699252753764e-20 9.508188076899677e-13 9.508187955158277e-13 1.217414012422589e-20
3.578680990867387 7.096615409658554e-21 6.741300542733946e-13 6.741300415155162e-13 1.2757878496363768e-20
3.605625307711299 5.8878833682843656e-21 5.635198581834548e-13 5.635198447981741e-13 1.3385280849404163e-20
3.660119384959845 5.0058336519853795e-21 4.86341240213877e-13 4.863412254755217e-13 1.473835537084909e-20
3.715437065384467 4.381025939440204e-21 4.320710486563679e-13 4.3207103244569966e-13 1.6210668261407255e-20
3.8285932144167436 4.063090093664504e-21 4.129192317768285e-13 4.1291921222424883e-13 1.9552579716185856e-20
3.94519561050918 4.001035848082243e-21 4.189965208877659e-13 4.189964974027046e-13 2.348506116075932e-20
4.06534921144712 4.044010307746439e-21 4.3639477706508796e-13 4.363947489554125e-13 2.8109675622798e-20
4.189162171576248 4.1477629342964696e-21 4.612225499285206e-13 4.612225163675975e-13 3.356092298447364e-20
4.316745939156006 4.295785672894133e-21 4.922305080403907e-13 4.922304680561395e-13 3.9984251267080434e-20
4.448215356677963 4.482511719748305e-21 5.292692612137439e-13 5.292692136982206e-13 4.751552348287402e-20
4.58368876423945 4.7085669240196074e-21 5.728927175245299e-13 5.728926611316198e-13 5.639291015459014e-20
4.723288106065518 4.97915460262291e-21 6.242657113711849e-13 6.242656444369179e-13 6.693426705413247e-20
4.867139040275056 5.304732764739335e-21 6.853409724383398e-13 6.853408930790626e-13 7.93592771152088e-20
4.940699165968905 5.501323786150081e-21 7.214812525224299e-13 7.214811660942039e-13 8.642822605795798e-20
5.015371051989984 5.704857094771645e-21 7.594816266825534e-13 7.59481532551272e-13 9.413128166319368e-20
5.091171501069577 5.9535052181963044e-21 8.045627074664864e-13 8.045626048437421e-13 1.0262274405196612e-19
5.129500256944802 6.081097648914159e-21 8.279926206622333e-13 8.279925135092962e-13 1.0715293713401758e-19
5.168117569889187 6.214127793443161e-21 8.524756804336449e-13 8.524755685330009e-13 1.1190064413298436e-19
5.20702561229733 6.3776172021199155e-21 8.81490417155834e-13 8.814903001532565e-13 1.1700257748565686e-19
5.246226572918644 6.545269343688417e-21 9.114733996910619e-13 9.114732773536227e-13 1.2233743935791945e-19
5.265937586045735 6.63069799106167e-21 9.268391877467761e-13 9.268390626511753e-13 1.2509560072147233e-19
5.285722656980489 6.71721791116086e-21 9.424606843723259e-13 9.424605564562106e-13 1.2791611506051142e-19
5.305582063971359 6.80484673989109e-21 9.583426531165995e-13 9.583425223161773e-13 1.308004218986713e-19
5.3255160863122235 6.899029411255888e-21 9.752571215194427e-13 9.752569877571297e-13 1.337623129440768e-19
5.365609099470188 7.133912506728007e-21 1.0160527171065642e-12 1.0160525771194782e-12 1.399870862682122e-19
5.406003951863644 7.377745088947192e-21 1.0586915276393975e-12 1.058691381135721e-12 1.46503676911829e-19
5.446702915881641 7.630960789678198e-21 1.1032713561643466e-12 1.1032712028383643e-12 1.5332598223943539e-19
5.487708281020852 7.904644226848285e-21 1.151443885245006e-12 1.1514437247525988e-12 1.6049240718667141e-19
5.529022354014368 8.285621388194237e-21 1.2160260068075005e-12 1.2160258385950527e-12 1.6821244738886855e-19
5.570647458961463 8.689107981881914e-21 1.2848437083580778e-12 1.2848435320474964e-12 1.7631058148080564e-19
5.612585937458331 9.116727795384723e-21 1.3582240767891959e-12 1.35822389198366e-12 1.8480553627332774e-19
5.654840148729818 9.586910520713551e-21 1.439025333975748e-12 1.4390251402167014e-12 1.937590466593598e-19
5.67608639626678 9.907449726070987e-21 1.492726722601662e-12 1.4927265240153211e-12 1.985863403842666e-19
5.686739436050992 1.0072683559185808e-20 1.5204703411449008e-12 1.5204701400985782e-12 2.0104632266937238e-19
5.6974124697621304 1.0241332622578232e-20 1.548829337747996e-12 1.548829134210268e-12 2.0353772765448107e-19
5.718818669136295 1.0589205876034233e-20 1.6074562118117826e-12 1.6074560031953503e-12 2.086164325169547e-19
5.740305295436557 1.0972761868833397e-20 1.6719388063689863e-12 1.6719385924858197e-12 2.138831669453333e-19
5.7835210386641895 1.1968374370771039e-20 1.837371257330152e-12 1.8373710320314073e-12 2.2529874440385926e-19
5.827062130521658 1.311561355498692e-20 2.028652655066373e-12 2.028652417581811e-12 2.3748456251439985e-19
5.8489554468988025 1.3920837261462593e-20 2.161290292188975e-12 2.1612900477791525e-12 2.4440982155416616e-19
5.870931020387893 1.478503173148071e-20 2.3040859290601726e-12 2.3040856775052947e-12 2.5155487860684034e-19
5.892989160043636 1.571294621597751e-20 2.4578914521700806e-12 2.4578911932431203e-12 2.589269597630676e-19
5.915130176081913 1.6768420878411668e-20 2.632848719597395e-12 2.632848452842928e-12 2.667544679375624e-19
5.95966208400165 1.972044517070842e-20 3.1196637266470113e-12 3.1196634413947056e-12 2.8525230733667466e-19
6.004529249263818 2.3976475563512356e-20 3.821498925649328e-12 3.821498617850017e-12 3.0779931054862723e-19
6.027089341400364 2.693544289510955e-20 4.309244968562555e-12 4.3092446468537145e-12 3.2170884061739686e-19
6.049734195844842 3.0432487064096186e-20 4.887009382507551e-12 4.887009045445612e-12 3.370619405195064e-19
6.095279466722835 4.053517888234779e-20 6.5583584514651415e-12 6.558358074024603e-12 3.774405393841129e-19
6.141167624020661 5.608466702029743e-20 9.142490768637896e-12 9.142490334276384e-12 4.343615113709757e-19
6.164241091010745 6.601476547159589e-20 1.0801650820029984e-11 1.0801650348746562e-11 4.712834254708998e-19
6.187401249150058 7.732731103283986e-20 1.270020180965768e-11 1.2700201298062782e-11 5.115948993164326e-19
6.1990139391386085 8.285095078273075e-20 1.3632940605538837e-11 1.3632940073210612e-11 5.323282240597723e-19
6.204828454712694 8.576066505239725e-20 1.4124964086974059e-11 1.4124963543909331e-11 5.430647222065615e-19
6.210648424152782 8.788461110944652e-20 1.448835949723892e-11 1.4488358945159308e-11 5.520796118657464e-19
6.233982942956859 9.510045913493538e-20 1.5736844605543373e-11 1.573684402132093e-11 5.842224440288136e-19
6.239830258556775 9.602274999079527e-20 1.5904365523354625e-11 1.590436493452147e-11 5.888331562058445e-19
6.245683058788269 9.610246718263719e-20 1.5932499449669626e-11 1.593249885618904e-11 5.934805880351748e-19
6.257405133728602 9.590363001371642e-20 1.5929375612932576e-11 1.5929375011224878e-11 6.017077015012133e-19
6.269149208991335 9.448362056716792e-20 1.572296929594985e-11 1.5722968691049098e-11 6.049007520622208e-19
6.280915325867298 9.092351213121553e-20 1.5158930949276648e-11 1.5158930347446245e-11 6.018304007651807e-19
6.304513850009849 8.214446763928836e-20 1.3746728506521737e-11 1.3746727916647642e-11 5.898740953957184e-19
6.32820103803542 7.126288817748982e-20 1.197052286008717e-11 1.1970522289295546e-11 5.707916261587017e-19
6.3519772230701035 6.128362157979926e-20 1.0332913347086797e-11 1.0332912794140475e-11 5.529463222234373e-19
6.375842739491607 5.2888384833389137e-20 8.95091295799378e-12 8.950912420554293e-12 5.374394881285971e-19
6.399797922933955 4.615935541244137e-20 7.841432885450293e-12 7.841432357615699e-12 5.278345924484536e-19
6.42384311029221 4.056486929418487e-20 6.916946866867842e-12 6.916946346870121e-12 5.199977206283826e-19
6.447978639727206 3.648759405655087e-20 6.245083516900264e-12 6.245082999361722e-12 5.175385409552956e-19
6.472204850670314 3.3091009583339374e-20 5.685016179633774e-12 5.685015663235292e-12 5.16398479877939e-19
6.496522083828205 3.0883006327441743e-20 5.3256169055690015e-12 5.325616385650678e-12 5.199183242548684e-19
