Dust emission spectrum from A.P. Jones, M. Kohler, N. Ysard, M. Bocchio, and L. Verstraete (2017), A&A, 602A, 46J 
inside the DustPedia framework.

lambda    nu*dP/dnu     j_nu    j_nu(carb.) j_nu(sil)
 (um)   (erg s-1 H-1) (Jy cm2 sr-1 H-1)
0.9927057738263894 1.0730337999416886e-22 2.8275050099494543e-15 2.827505009914467e-15 3.498747731433696e-26
1.0001793341362166 1.090745241838804e-22 2.8958138241383826e-15 2.8958138240962396e-15 4.214287066194289e-26
1.0077091589558085 1.1084311018212733e-22 2.96492247494738e-15 2.964922474896683e-15 5.069613980153493e-26
1.0114953028030835 1.1172622619531789e-22 2.999773284980073e-15 2.999773284924497e-15 5.5576272803782e-26
1.0152956718711033 1.1260844215876301e-22 3.034819865950115e-15 3.0348198658892094e-15 6.090642500453162e-26
1.0229392996569957 1.143689631819682e-22 3.1054710204978317e-15 3.105471020424752e-15 7.307906295784903e-26
1.0267826658714554 1.1524513154249484e-22 3.1410188977510377e-15 3.141018897671025e-15 8.001317490071287e-26
1.0306404723013447 1.1612001274291668e-22 3.176754842934675e-15 3.176754842847098e-15 8.757675703750922e-26
1.03451277320114 1.1699352243023256e-22 3.2126773187884576e-15 3.2126773186926335e-15 9.582414962311741e-26
1.0383996230291617 1.1786557672269595e-22 3.2487847689321153e-15 3.248784768827302e-15 1.0481412324366143e-25
1.0403485208654093 1.1830103201563987e-22 3.2669073678567025e-15 3.2669073677470962e-15 1.0960723793533042e-25
1.0423010764483396 1.1873609222591383e-22 3.2850756182352694e-15 3.2850756181206585e-15 1.1461021710446234e-25
1.0462171883269815 1.1960498604859055e-22 3.321548273187799e-15 3.3215482730625174e-15 1.2528110124979234e-25
1.0471985131304309 1.1982194645200256e-22 3.3306946555991498e-15 3.3306946554710553e-15 1.2809407517825355e-25
1.048180758391296 1.200387990675558e-22 3.339852274876178e-15 3.3398522747452117e-15 1.3096754689298937e-25
1.0501480137395462 1.2047217581791492e-22 3.3582011222705316e-15 3.358201122133631e-15 1.3690096425965029e-25
1.0521189612883777 1.2090510608654587e-22 3.3765946111779045e-15 3.3765946110348122e-15 1.4309155724275233e-25
1.0531058218030118 1.2112106791616073e-22 3.3857987320802772e-15 3.3857987319339905e-15 1.4628679934189466e-25
1.0540936079674168 1.2133582431029845e-22 3.3949834205715415e-15 3.3949834204219893e-15 1.4955104665423232e-25
1.058054026499678 1.2219362522649943e-22 3.431830478292796e-15 3.431830478129476e-15 1.633196910339092e-25
1.0590464539527713 1.224077630240642e-22 3.4410691875497644e-15 3.4410691873828173e-15 1.6694706289379522e-25
1.06003981227728 1.2262177335051398e-22 3.4503186220711794e-15 3.4503186219005275e-15 1.7065153641225387e-25
1.0620293250338977 1.2304940661159812e-22 3.4688495610746317e-15 3.4688495608963346e-15 1.7829805574721335e-25
1.0660195594769086 1.2390308884891115e-22 3.5060389746403534e-15 3.5060389744457663e-15 1.9458695417272092e-25
1.070024785945596 1.247545929271834e-22 3.543397009016785e-15 3.5433970088044893e-15 2.122951115218868e-25
1.0740450607676866 1.2560384045359845e-22 3.580921938906558e-15 3.580921938675018e-15 2.3153974438381216e-25
1.07808044048254 1.264507536664311e-22 3.618612024059724e-15 3.6186120238072765e-15 2.524471794275495e-25
1.0861967418109137 1.281357713226807e-22 3.694437435660395e-15 3.69443743536059e-15 2.9980535821564214e-25
1.0902777775684922 1.2897031704935545e-22 3.7324703009104705e-15 3.73247030058391e-15 3.2656057295750665e-25
1.0943741465085532 1.2980216447247104e-22 3.77065842284386e-15 3.770658422488271e-15 3.5558890180645553e-25
1.1026131145906286 1.3145746913626465e-22 3.847493135039342e-15 3.847493134618133e-15 4.2120951388990565e-25
1.1109141095355224 1.3310110194747357e-22 3.924926847257251e-15 3.92492684675895e-15 4.98300173336751e-25
1.1192775983109025 1.347309637902384e-22 4.002899267211583e-15 4.002899266622836e-15 5.887469857244394e-25
1.1277040513999907 1.3633947879157265e-22 4.081184261128529e-15 4.081184260433804e-15 6.947254764749021e-25
1.1361939428280308 1.3793442559715754e-22 4.160011904294438e-15 4.160011903475696e-15 8.187413336973559e-25
1.1447477501889525 1.3951527334962554e-22 4.239366718765183e-15 4.239366717801506e-15 9.636769305970943e-25
1.1533659546722406 1.4108236588389255e-22 4.319259475561323e-15 4.319259474428478e-15 1.132845094654209e-24
1.1707974979042381 1.4418035686091635e-22 4.4808181085441356e-15 4.480818106984485e-15 1.5596492208993567e-24
1.1884924949847024 1.472166660783756e-22 4.6443276932790115e-15 4.644327691142379e-15 2.1366319357657545e-24
1.2064549276569216 1.5021507005438834e-22 4.810542316336242e-15 4.810542313423453e-15 2.9127878970481866e-24
1.2246888378427687 1.5314280451587876e-22 4.978422935046508e-15 4.978422931094853e-15 3.951654308081385e-24
1.2431983285522175 1.55993026963876e-22 5.1477214192101646e-15 5.147721413874821e-15 5.335344587287875e-24
1.2619875648066055 1.5876468529780955e-22 5.318368376974301e-15 5.318368369804865e-15 7.169436772228054e-24
1.3004222497298317 1.6402625933447693e-22 5.661965325234031e-15 5.661965312468607e-15 1.2765424832327974e-23
1.3400274889804893 1.6890704439135641e-22 6.008013543880471e-15 6.008013521563755e-15 2.2316717674587485e-23
1.3808389325824078 1.7338906206867568e-22 6.355272162421057e-15 6.355272124097079e-15 3.832397790993675e-23
1.4228933163050095 1.7749427773401513e-22 6.703878409713999e-15 6.7038783450341655e-15 6.467983358807904e-23
1.466228494730424 1.8132167215267577e-22 7.057011154197967e-15 7.057011046862998e-15 1.0733496690055664e-22
1.5108834753276823 1.8479696920298405e-22 7.411314595148984e-15 7.411314419931122e-15 1.7521786211993714e-22
1.5568984535646726 1.8786011298752424e-22 7.763620524963169e-15 7.763620243298794e-15 2.816643739619201e-22
1.6043148490894465 1.9051686557410633e-22 8.113205269677163e-15 8.113204822995974e-15 4.46681187783688e-22
1.6531753430134553 1.9277547311259256e-22 8.459411082666463e-15 8.459410384629738e-15 6.980367242267374e-22
1.7035239163302658 1.946628937510358e-22 8.802394797481513e-15 8.802393722307708e-15 1.0751738032144845e-21
1.755405889504358 1.9633406367255778e-22 9.14834722255779e-15 9.14834558944191e-15 1.6331158782281584e-21
1.8088679632656115 1.9775094745449906e-22 9.494997900989549e-15 9.494995453909357e-15 2.4470801888475253e-21
1.8639582606462262 1.9888783293468073e-22 9.840424459982935e-15 9.840420841339761e-15 3.6186431748535664e-21
1.9207263702978936 1.997636541496118e-22 1.0184774217569391e-14 1.0184768934639854e-14 5.282929535412805e-21
1.979223391128241 2.0042225950495264e-22 1.052955947372232e-14 1.0529551856365996e-14 7.617356322602849e-21
2.039501978296691 2.0091607098043062e-22 1.0876977763504784e-14 1.0876966911980374e-14 1.0851524407418991e-20
2.1016163906111602 2.0139166674135678e-22 1.1234774920736118e-14 1.1234759641017293e-14 1.5279718828705378e-20
2.1656225393682647 2.0193407903378066e-22 1.1608117993045573e-14 1.1608096720003024e-14 2.1273042550819146e-20
2.231578038680979 2.0254946154453646e-22 1.1998103523339461e-14 1.1998074229872743e-14 2.929346672007498e-20
2.299542257339062 2.0328873068252748e-22 1.2408638485969069e-14 1.2408598576678264e-14 3.990929080613784e-20
2.369576372248914 2.0426433315355805e-22 1.2847915876113016e-14 1.2847862063712913e-14 5.3812400103465965e-20
2.4417434235010123 2.0560901904606095e-22 1.3326362443598784e-14 1.3326290609715351e-14 7.183388342999618e-20
2.5161083711144245 2.0755008990404004e-22 1.3861866167191228e-14 1.3861771203380736e-14 9.496381049452143e-20
2.5927381535095444 2.1045946437362672e-22 1.4484268017472853e-14 1.4484143649542608e-14 1.243679302416947e-19
2.6717017477616296 2.1478102971200486e-22 1.523187362319428e-14 1.5231712226398248e-14 1.6139679603061748e-19
2.753070231689431 2.211830254960603e-22 1.6163615761437803e-14 1.6163408161466252e-14 2.0759997155236897e-19
2.836916847834745 2.311795905245392e-22 1.7408667468463615e-14 1.740840272255456e-14 2.6474590905777143e-19
2.9233170693905177 2.4810549524566833e-22 1.9252260923644796e-14 1.9251926149533192e-14 3.3477411160727153e-19
2.967498994190263 2.6245931516784233e-22 2.0673880650049476e-14 2.0673505972536393e-14 3.7467751307310126e-19
3.0123486681368425 2.792182885508755e-22 2.2326391309124916e-14 2.2325972529394902e-14 4.187797300115618e-19
3.0578761833420214 3.1667792049585973e-22 2.5704378869231447e-14 2.5703911289480792e-14 4.67579750656965e-19
3.1040917844459814 3.6493952186925764e-22 3.0069408570939454e-14 3.006888748188262e-14 5.210890568348932e-19
3.127460860933648 4.1597539504635325e-22 3.453257464642271e-14 3.4532024746238556e-14 5.499001841575995e-19
3.1510058709225794 4.839679381785679e-22 4.047950908239598e-14 4.0478929032097234e-14 5.800502987396713e-19
3.162844764501044 5.472518488704897e-22 4.5944607673286915e-14 4.594401197438344e-14 5.956989034890039e-19
3.1747281389236908 6.208436266209839e-22 5.2318851466808835e-14 5.2318239768916406e-14 6.116978924381083e-19
3.1986289994194426 8.261043421973845e-22 7.014039516007832e-14 7.013975030946823e-14 6.448506100964447e-19
3.2227097969389145 1.309930746257527e-21 1.1205699404659197e-13 1.120563139401941e-13 6.801063978459003e-19
3.2348180950136065 1.7687408447548776e-21 1.5187402461531244e-13 1.5187332566125703e-13 6.989540553545604e-19
3.240889293275058 2.1117591038571812e-21 1.8166781979335932e-13 1.8166711089648713e-13 7.088968721801985e-19
3.2469718861334385 2.50857880065876e-21 2.1620996635610238e-13 2.1620924717025275e-13 7.191858496049045e-19
3.2714166318528037 4.625237945072496e-21 4.016422305056241e-13 4.0164146869670873e-13 7.618089152360388e-19
3.2744851364798273 4.7575558569608195e-21 4.1351984119461114e-13 4.1351907433425376e-13 7.668603574734883e-19
3.2775565192852394 4.89367391665632e-21 4.2574999344778416e-13 4.25749221508003e-13 7.719397812114814e-19
3.283707930232385 4.762768345294651e-21 4.1513888387669835e-13 4.151381027964777e-13 7.810802206857824e-19
3.2898708863219004 4.3476301857500745e-21 3.796652794186386e-13 3.7966448996756765e-13 7.894510708980068e-19
3.29141343181113 4.249730112392403e-21 3.712899725261953e-13 3.712891809717141e-13 7.915544812102155e-19
3.292184975758714 4.2016254630308546e-21 3.671732199102451e-13 3.6717242730245055e-13 7.926077945517003e-19
3.295272960557952 3.897988665025285e-21 3.4095840418009445e-13 3.4095760746524093e-13 7.967148535284613e-19
3.3076538914384823 2.8460918456528113e-21 2.4988397355553234e-13 2.49883160316771e-13 8.132387613189536e-19
3.310756385682612 2.632002079904844e-21 2.31303863315452e-13 2.313030459058496e-13 8.174096024004264e-19
3.313861789986515 2.4344701380206917e-21 2.1414516647513234e-13 2.141443448786776e-13 8.215964548203543e-19
3.3200813396944477 2.1574551975597946e-21 1.9013406903269914e-13 1.9013323845451402e-13 8.305781851884312e-19
3.345076488085796 1.6633018934317496e-21 1.4768846194458772e-13 1.4768759139652623e-13 8.705480614091745e-19
3.3482140837626964 1.6818340563186263e-21 1.4947404742064108e-13 1.4947317145980015e-13 8.75960840918056e-19
3.3513546224236106 1.7005710516607614e-21 1.5128107431475407e-13 1.512801929136395e-13 8.81401114609693e-19
3.3576445397418455 1.837497021047308e-21 1.6376865941098407e-13 1.6376776664435838e-13 8.927666257027548e-19
3.3702598118196083 2.3425259436462875e-21 2.095642629197939e-13 2.0956334630571817e-13 9.166140757144711e-19
3.382922481734668 2.457555951618745e-21 2.206809747391229e-13 2.2068003484133463e-13 9.398977883378862e-19
3.389271646505754 2.5171489584299606e-21 2.2645646739823303e-13 2.2645551567753785e-13 9.517206951951295e-19
3.395632727569191 2.5813645391983615e-21 2.326695144477138e-13 2.326685505415195e-13 9.639061943957819e-19
3.421196662673239 2.889704827133281e-21 2.6242243210679023e-13 2.624214176366449e-13 1.0144701453449102e-18
3.4276182099114902 2.82757371761247e-21 2.5726210018241943e-13 2.572610743139532e-13 1.0258684662062102e-18
3.4340518103208963 2.5553078934525335e-21 2.329268281281647e-13 2.329257914235485e-13 1.036704616138294e-18
3.4469541582030403 2.167549007321082e-21 1.9832335750312418e-13 1.983222998864112e-13 1.057616713022161e-18
3.472904465399547 2.058881551416281e-21 1.8979887410541327e-13 1.897977684676242e-13 1.1056377891039995e-18
3.4990501388274233 1.8926797720715675e-21 1.7579104156413767e-13 1.7578988651503066e-13 1.1550491070054311e-18
3.5253949054701885 1.301196257672794e-21 1.217643097436076e-13 1.2176310626749343e-13 1.2034761141823355e-18
3.5519380250092896 7.452669459456629e-22 7.026623315130614e-14 7.026498065213636e-14 1.2524991697751093e-18
3.578680990867387 5.248448996770787e-22 4.985668523376368e-14 4.985537893324407e-14 1.3063005196057458e-18
3.605625307711299 4.356950212056168e-22 4.16996705273678e-14 4.169830733779926e-14 1.3631895685304662e-18
3.660119384959845 3.7066942411823277e-22 3.601234878500741e-14 3.601086508501136e-14 1.4836999960569793e-18
3.715437065384467 3.246222331762416e-22 3.2015302042140545e-14 3.2013689835490397e-14 1.6122066501430547e-18
3.8285932144167436 3.012624864807927e-22 3.061637118871571e-14 3.061447758279532e-14 1.8936059203918235e-18
3.94519561050918 2.9678213602964473e-22 3.107962217275908e-14 3.1077413661392435e-14 2.208511366651202e-18
4.06534921144712 3.0005212673223947e-22 3.237904233389289e-14 3.2376483552329683e-14 2.5587815632019056e-18
4.189162171576248 3.07807908943502e-22 3.422759470585992e-14 3.422464729536187e-14 2.947410498059438e-18
4.316745939156006 3.188313699810558e-22 3.653313716632821e-14 3.652976139534676e-14 3.375770981451675e-18
4.448215356677963 3.3271159396097484e-22 3.9284675767196906e-14 3.9280834451535846e-14 3.841315661051843e-18
4.58368876423945 3.494945031484207e-22 4.2523098619921056e-14 4.2518751067337415e-14 4.3475525836268094e-18
4.723288106065518 3.6956376696643413e-22 4.633436924428595e-14 4.632946858468438e-14 4.900659601569624e-18
4.867139040275056 3.9369052709868746e-22 5.0862552488039444e-14 5.085706048736319e-14 5.492000676254296e-18
4.940699165968905 4.0824788346911317e-22 5.354042149754162e-14 5.3534616847119926e-14 5.8046504217071166e-18
5.015371051989984 4.2331725963421027e-22 5.635578168021753e-14 5.63496532618433e-14 6.128418374212515e-18
5.091171501069577 4.417152849537289e-22 5.969384968463541e-14 5.968738009873387e-14 6.469585901557659e-18
5.129500256944802 4.511552341424417e-22 6.142858184653314e-14 6.142193735817291e-14 6.644488360232797e-18
5.168117569889187 4.609962889143147e-22 6.324107551896134e-14 6.32342519628401e-14 6.823556121224204e-18
5.20702561229733 4.730849269130692e-22 6.538803072660453e-14 6.538101394937549e-14 7.016777229051306e-18
5.246226572918644 4.854804125542279e-22 6.760645878399566e-14 6.759924518931116e-14 7.213594684502849e-18
5.265937586045735 4.917962831215639e-22 6.874330096163693e-14 6.873598760324132e-14 7.313358395620303e-18
5.285722656980489 4.981925910620772e-22 6.989901720196605e-14 6.989160317320019e-14 7.414028765854616e-18
5.305582063971359 5.046706351437063e-22 7.107395859460598e-14 7.106644298633847e-14 7.515608267516701e-18
5.3255160863122235 5.116322571305854e-22 7.232510149204275e-14 7.231748280550845e-14 7.61868653431647e-18
5.365609099470188 5.289880786354284e-22 7.534151478695733e-14 7.53336826006274e-14 7.832186329918823e-18
5.406003951863644 5.470035902608732e-22 7.849391102778777e-14 7.848586133303546e-14 8.049694752305397e-18
5.446702915881641 5.657107417628194e-22 8.178949865731444e-14 8.178122741699688e-14 8.271240317586273e-18
5.487708281020852 5.859275812117122e-22 8.535017025701383e-14 8.534167269789004e-14 8.497559123804696e-18
5.529022354014368 6.140617978131117e-22 9.012180027821085e-14 9.011306603775484e-14 8.734240456004348e-18
5.570647458961463 6.438553205411327e-22 9.520579781205328e-14 9.519682237383387e-14 8.97543821942442e-18
5.612585937458331 6.754278169993022e-22 1.0062627115466112e-13 1.0061704996264089e-13 9.22119202021579e-18
5.654840148729818 7.101392717683286e-22 1.0659413170883056e-13 1.0658465925691171e-13 9.472451918821601e-18
5.67608639626678 7.338001277421303e-22 1.1055953752122453e-13 1.1054993372238198e-13 9.603798842559759e-18
5.686739436050992 7.459965150890832e-22 1.1260808196004627e-13 1.1259841200612387e-13 9.669953922396797e-18
5.6974124697621304 7.584446690234047e-22 1.1470200194965347e-13 1.146922655184485e-13 9.736431204957222e-18
5.718818669136295 7.841205573159466e-22 1.190305935518257e-13 1.1902072319606496e-13 9.870355760734347e-18
5.740305295436557 8.124287706008219e-22 1.2379118449989437e-13 1.2378117812286952e-13 1.0006377024893046e-17
5.7835210386641895 8.859042648096444e-22 1.3600301782693793e-13 1.3599272918670052e-13 1.0288640237388991e-17
5.827062130521658 9.705613508421217e-22 1.501212164445051e-13 1.5011063790006269e-13 1.0578544442395836e-17
5.8489554468988025 1.0299791107443686e-21 1.5991019874729526e-13 1.5989946459353428e-13 1.0734153760969015e-17
5.870931020387893 1.0937445698303422e-21 1.7044816129587564e-13 1.70437269813304e-13 1.0891482571610623e-17
5.892989160043636 1.1622078020211506e-21 1.8179789983169964e-13 1.8178684928792245e-13 1.1050543777262697e-17
5.915130176081913 1.2400801183378886e-21 1.9470786041442427e-13 1.9469664516138737e-13 1.121525303690296e-17
5.95966208400165 1.4578753825372573e-21 2.30627701834468e-13 2.3061611765022174e-13 1.1584184246357888e-17
6.004529249263818 1.7718628074164837e-21 2.824089719526807e-13 2.823969755510664e-13 1.1996401614382499e-17
6.027089341400364 1.990156734286257e-21 3.1839360976058156e-13 3.1838137837970245e-13 1.2231380879128146e-17
6.049734195844842 2.2481364761791776e-21 3.61017620055346e-13 3.61005140238033e-13 1.2479817312917711e-17
6.095279466722835 2.993412680552758e-21 4.843169289867218e-13 4.843038499489458e-13 1.307903777598998e-17
6.141167624020661 4.140463725792314e-21 6.749465299889649e-13 6.749326872273836e-13 1.3842761581408026e-17
6.164241091010745 4.872991323816331e-21 7.973420848029438e-13 7.973277696800078e-13 1.4315122935820004e-17
6.187401249150058 5.707464935695371e-21 9.373914020376616e-13 9.373765995765011e-13 1.480246116038958e-17
6.1990139391386085 6.114918977964289e-21 1.0061963857588664e-12 1.0061813348375928e-12 1.5050921273464196e-17
6.204828454712694 6.329552362083069e-21 1.0424907473189662e-12 1.0424755706607085e-12 1.5176658257881347e-17
6.210648424152782 6.486226025428845e-21 1.0692972666139395e-12 1.0692819810921682e-12 1.528552177159355e-17
6.233982942956859 7.01849988358389e-21 1.1613933627309927e-12 1.1613776900964718e-12 1.567263452095261e-17
6.239830258556775 7.086529838628865e-21 1.1737506044819255e-12 1.1737348725331958e-12 1.5731948729699225e-17
6.245683058788269 7.092407351780105e-21 1.1758259651577908e-12 1.1758101737113125e-12 1.5791446478571034e-17
6.257405133728602 7.077734434687011e-21 1.1755956503689325e-12 1.1755797514641392e-12 1.5898904793474184e-17
6.269149208991335 6.972982162708386e-21 1.1603702714538783e-12 1.1603543171826465e-12 1.5954271232186282e-17
6.280915325867298 6.710365565884653e-21 1.1187641774203567e-12 1.1187482324653961e-12 1.5944954960450497e-17
6.304513850009849 6.062768643907201e-21 1.0145933979585933e-12 1.0145775304117638e-12 1.586754682907063e-17
6.32820103803542 5.260088933365279e-21 8.835737146397332e-13 8.835579870922407e-13 1.5727547492621867e-17
6.3519772230701035 4.523971529626759e-21 7.627781223642584e-13 7.627625150084611e-13 1.560735579743681e-17
6.375842739491607 3.9046874050375345e-21 6.608354027215603e-13 6.60819895408817e-13 1.550731274321493e-17
6.399797922933955 3.408331170504072e-21 5.789985558960467e-13 5.789830731924296e-13 1.5482703617069207e-17
6.42384311029221 2.9956526941450982e-21 5.108058001301523e-13 5.107903269309681e-13 1.547319918420655e-17
6.447978639727206 2.694900839120806e-21 4.612493984665029e-13 4.61233875182709e-13 1.5523283793920624e-17
6.472204850670314 2.4443539605768424e-21 4.1993858723572116e-13 4.199230015834896e-13 1.558565223159783e-17
6.496522083828205 2.2814891244690407e-21 3.934311615364889e-13 3.9341546454988165e-13 1.5696986607129268e-17
