Dust emission spectrum from A.P. Jones, M. Kohler, N. Ysard, M. Bocchio, and L. Verstraete (2017), A&A, 602A, 46J 
inside the DustPedia framework.

lambda    nu*dP/dnu     j_nu    j_nu(carb.) j_nu(sil)
 (um)   (erg s-1 H-1) (Jy cm2 sr-1 H-1)
0.9927057738263894 3.2272169953410126e-23 8.503900084989507e-16 8.503900071557723e-16 1.3431786478947011e-24
1.0001793341362166 3.2806513550102117e-23 8.709784083037851e-16 8.709784066863725e-16 1.6174124449747244e-24
1.0077091589558085 3.3340437412060027e-23 8.918173808472976e-16 8.918173789022037e-16 1.9450940133099418e-24
1.0114953028030835 3.360718103818593e-23 9.023299837013902e-16 9.023299815693895e-16 2.132000571917406e-24
1.0152956718711033 3.387374687351618e-23 9.12904201276287e-16 9.129041989401858e-16 2.3361014693457868e-24
1.0229392996569957 3.440598767911013e-23 9.342289612181057e-16 9.342289584160379e-16 2.8020679248127575e-24
1.0267826658714554 3.4671022010760276e-23 9.449625670302974e-16 9.449625639628737e-16 3.0674238100152575e-24
1.0306404723013447 3.493576951788829e-23 9.55755794251505e-16 9.557557908946982e-16 3.3568070266570875e-24
1.03451277320114 3.5200206716984846e-23 9.66608265032452e-16 9.666082613601667e-16 3.672285196186687e-24
1.0383996230291617 3.5464310276758874e-23 9.775195970820814e-16 9.775195930659876e-16 4.016093856958516e-24
1.0403485208654093 3.559622969373828e-23 9.82997215434428e-16 9.82997211235058e-16 4.199369764237968e-24
1.0423010764483396 3.5728057023187367e-23 9.884894037987941e-16 9.88489399408145e-16 4.390649224891348e-24
1.0462171883269815 3.5991423944470885e-23 9.995172944024272e-16 9.995172896038654e-16 4.7985618515205834e-24
1.0471985131304309 3.605720364625797e-23 1.0022832964789856e-15 1.0022832915729078e-15 4.906077680040987e-24
1.048180758391296 3.6122957825052e-23 1.0050528979331011e-15 1.0050528929172016e-15 5.015899648449629e-24
1.0501480137395462 3.6254388195893764e-23 1.010602874066935e-15 1.0106028688242838e-15 5.242651236946152e-24
1.0521189612883777 3.638571222829533e-23 1.0161671728403834e-15 1.0161671673611792e-15 5.479204266614602e-24
1.0531058218030118 3.64512342960934e-23 1.018951904782596e-15 1.0189518991813063e-15 5.6012895858982735e-24
1.0540936079674168 3.6516403745252433e-23 1.0217311004290616e-15 1.021731094703057e-15 5.726004673034366e-24
1.058054026499678 3.677678472566345e-23 1.0328827750318191e-15 1.0328827687798405e-15 6.2519787040637e-24
1.0590464539527713 3.6841804034808144e-23 1.0356793845910092e-15 1.0356793782004815e-15 6.390527703115521e-24
1.06003981227728 3.690679227938942e-23 1.038479457628529e-15 1.0384794510965158e-15 6.532013454031857e-24
1.0620293250338977 3.7036674200463265e-23 1.0440899682634607e-15 1.0440899614394276e-15 6.824033117288884e-24
1.0660195594769086 3.729605019174985e-23 1.0553522659299458e-15 1.055352258483951e-15 7.445994666685812e-24
1.070024785945596 3.755489091600666e-23 1.0666692505934498e-15 1.0666692424714606e-15 8.121989157122487e-24
1.0740450607676866 3.7813174788320406e-23 1.0780405017092426e-15 1.0780404928527794e-15 8.856463236358761e-24
1.07808044048254 3.807088042650166e-23 1.0894655957630012e-15 1.0894655861087934e-15 9.654207649891765e-24
1.0861967418109137 3.858402445583059e-23 1.1124626862321414e-15 1.1124626747715982e-15 1.1460542872181016e-23
1.0902777775684922 3.8838402252869605e-23 1.1240042380307892e-15 1.1240042255501182e-15 1.2480670947402586e-23
1.0943741465085532 3.909210057718552e-23 1.1355970750340278e-15 1.1355970614468323e-15 1.3587195506316598e-23
1.1026131145906286 3.959737828936862e-23 1.1589348413210346e-15 1.1589348252334093e-15 1.6087625081456053e-23
1.1109141095355224 4.0099698865671796e-23 1.18247243893531e-15 1.1824724199116795e-15 1.9023630285176453e-23
1.1192775983109025 4.059845011957709e-23 1.2061927092468073e-15 1.2061926867802653e-15 2.2466542318371317e-23
1.1277040513999907 4.109138046818815e-23 1.230028871470056e-15 1.2300288449714734e-15 2.6498582733650664e-23
1.1361939428280308 4.158083489122545e-23 1.2540507374365283e-15 1.2540507062221384e-15 3.121438997121385e-23
1.1447477501889525 4.206667145980511e-23 1.2782546503637382e-15 1.2782546136409831e-15 3.6722755163187746e-23
1.1533659546722406 4.2549005087515886e-23 1.3026446802799347e-15 1.3026446371313035e-15 4.3148630966802294e-23
1.1707974979042381 4.3504708224601944e-23 1.3520335825480798e-15 1.3520335232008774e-15 5.934720264687295e-23
1.1884924949847024 4.444463556695709e-23 1.4021201354432256e-15 1.4021200542220847e-15 8.12211412085181e-23
1.2064549276569216 4.5376001131414083e-23 1.453137647972037e-15 1.4531375373595861e-15 1.106124508406325e-22
1.2246888378427687 4.62892125786934e-23 1.504786844380379e-15 1.5047866944739763e-15 1.499064031518994e-22
1.2431983285522175 4.718233484293722e-23 1.5570023891874293e-15 1.5570021870063863e-15 2.0218104244619932e-22
1.2619875648066055 4.805527807787934e-23 1.6097765746626404e-15 1.6097763032745385e-15 2.7138810207387916e-22
1.3004222497298317 4.9727523764433455e-23 1.7165270756424115e-15 1.7165265935049423e-15 4.821374687324807e-22
1.3400274889804893 5.1301307978146485e-23 1.82478447990213e-15 1.8247836389660473e-15 8.409360831979864e-22
1.3808389325824078 5.277288869562746e-23 1.9342977374491294e-15 1.9342962967653115e-15 1.4406838179000608e-21
1.4228933163050095 5.415055583434252e-23 2.0452419467621635e-15 2.0452395212611426e-15 2.425501020925462e-21
1.466228494730424 5.546582042630715e-23 2.1587210661481574e-15 2.1587170512219205e-15 4.0149262376090015e-21
1.5108834753276823 5.669854931430636e-23 2.273905182910908e-15 2.2738986457709948e-15 6.5371399130016895e-21
1.5568984535646726 5.783280923675104e-23 2.3900336141953525e-15 2.390023133603579e-15 1.048059177444226e-20
1.6043148490894465 5.887243128534837e-23 2.507096252626534e-15 2.5070796768885722e-15 1.65757379627488e-20
1.6531753430134553 5.982211327542722e-23 2.625125696022065e-15 2.625099864797398e-15 2.5831224667139492e-20
1.7035239163302658 6.069198731319667e-23 2.744410211315137e-15 2.744370537360604e-15 3.967395453320593e-20
1.755405889504358 6.15308010375547e-23 2.867078296267895e-15 2.867018210512334e-15 6.008575556089253e-20
1.8088679632656115 6.232918721938058e-23 2.9927315617770947e-15 2.992641798878476e-15 8.976289861726573e-20
1.8639582606462262 6.308093272133783e-23 3.1210715313764666e-15 3.1209392027283468e-15 1.3232864811886885e-19
1.9207263702978936 6.379318660180783e-23 3.252439513706944e-15 3.252246935931392e-15 1.9257777555117977e-19
1.979223391128241 6.448037409381657e-23 3.3875974434462857e-15 3.3873206720701034e-15 2.7677137618267868e-19
2.039501978296691 6.515892437739444e-23 3.5275036391481103e-15 3.527110674280776e-15 3.9296486733535927e-19
2.1016163906111602 6.587391228176092e-23 3.6748222486502704e-15 3.674270827958122e-15 5.514206921474639e-19
2.1656225393682647 6.665117938078022e-23 3.8314224044288984e-15 3.8306574093941614e-15 7.649950347369747e-19
2.231578038680979 6.749139708945941e-23 3.997881618836564e-15 3.99683203884229e-15 1.0495799942735627e-18
2.299542257339062 6.84088929515326e-23 4.175643278458842e-15 4.174218698903254e-15 1.4245795555872781e-18
2.369576372248914 6.943558601424811e-23 4.367392751083082e-15 4.365479320918499e-15 1.9134301645824883e-18
2.4417434235010123 7.060900809175284e-23 4.5764589412437296e-15 4.573914900262576e-15 2.5440409811529206e-18
2.5161083711144245 7.199454509282986e-23 4.8083754109961265e-15 4.805026053800806e-15 3.349357195320467e-18
2.5927381535095444 7.369966807170134e-23 5.0721679270940795e-15 5.0678001425802765e-15 4.367784513802811e-18
2.6717017477616296 7.584948935508043e-23 5.379105583903576e-15 5.373462260107006e-15 5.6433237965704446e-18
2.753070231689431 7.86324313656896e-23 5.74630175228015e-15 5.739075902539822e-15 7.225849740328604e-18
2.836916847834745 8.248221016679635e-23 6.2112116627582166e-15 6.202040101648251e-15 9.171561109965502e-18
2.9233170693905177 8.835583065568249e-23 6.85615408971185e-15 6.844613179098933e-15 1.1540910612915866e-17
2.967498994190263 9.299777116131686e-23 7.325420400796833e-15 7.312537907577086e-15 1.2882493219746742e-17
3.0123486681368425 9.833392761699576e-23 7.862814998023271e-15 7.848454113516436e-15 1.4360884506834116e-17
3.0578761833420214 1.096549500037364e-22 8.900564887407497e-15 8.88457271106475e-15 1.5992176342750082e-17
3.1040917844459814 1.2405980540508037e-22 1.0221981321313424e-14 1.0204206801367307e-14 1.7774519946115978e-17
3.127460860933648 1.3902516925080385e-22 1.1541300500117221e-14 1.1522568836643732e-14 1.873166347348761e-17
3.1510058709225794 1.5885373537597955e-22 1.3286667807221393e-14 1.3266936378312102e-14 1.9731428909290955e-17
3.162844764501044 1.7723491365435758e-22 1.487978266435318e-14 1.4859533053677903e-14 2.024961067527793e-17
3.1747281389236908 1.9855051474686681e-22 1.6731966705106317e-14 1.6711187814550747e-14 2.0778890555565675e-17
3.1986289994194426 2.578198844145648e-22 2.1890199154336973e-14 2.1868325055618216e-14 2.1874098718757312e-17
3.2227097969389145 3.9722340047527427e-22 3.3980162958534e-14 3.395712616003045e-14 2.303679850354546e-17
3.2348180950136065 5.292683726461072e-22 4.544595557553318e-14 4.5422297732636864e-14 2.3657842896329563e-17
3.240889293275058 6.279768723210156e-22 5.402282346828094e-14 5.3998838028068483e-14 2.3985440212465132e-17
3.2469718861334385 7.421899170750007e-22 6.396803519127433e-14 6.394371077021832e-14 2.4324421056015673e-17
3.2714166318528037 1.3505154797058105e-21 1.1727484208229477e-13 1.1724911502857907e-13 2.572705371569225e-17
3.2744851364798273 1.3885617594808027e-21 1.2069177021417373e-13 1.206658773599511e-13 2.5892854222629425e-17
3.2775565192852394 1.4276940636436043e-21 1.2420948935171834e-13 1.2418342982086913e-13 2.6059530849173204e-17
3.283707930232385 1.3901487622135749e-21 1.2117003467910936e-13 1.211436760604196e-13 2.6358618689807134e-17
3.2898708863219004 1.270925677988289e-21 1.1098606184014676e-13 1.1095943009671066e-13 2.663174343608264e-17
3.29141343181113 1.242803839058994e-21 1.0858115481594527e-13 1.0855445446444825e-13 2.6700351497028205e-17
3.292184975758714 1.2289848565008268e-21 1.0739898902288839e-13 1.0737225431824415e-13 2.673470464421735e-17
3.295272960557952 1.1418424893387018e-21 9.987735379610832e-14 9.985048528749875e-14 2.6868508609566618e-17
3.3076538914384823 8.39728079971601e-22 7.372727259310617e-14 7.369986617691266e-14 2.7406416193554613e-17
3.310756385682612 7.781777196639816e-22 6.838729888495953e-14 6.835975678383747e-14 2.754210112205315e-17
3.313861789986515 7.213635685703788e-22 6.345385760459321e-14 6.342617933384929e-14 2.7678270743908407e-17
3.3200813396944477 6.417267472427084e-22 5.6554647252179134e-14 5.6526676524883187e-14 2.797072729594651e-17
3.345076488085796 5.000029160133645e-22 4.439642732653015e-14 4.436715437724976e-14 2.927294928038492e-17
3.3482140837626964 5.053791536477035e-22 4.491588649542063e-14 4.4886437180138946e-14 2.94493152816695e-17
3.3513546224236106 5.108138128051077e-22 4.5441478202574917e-14 4.5411851673168e-14 2.96265294069211e-17
3.3576445397418455 5.502950944049539e-22 4.904557060983665e-14 4.9015573731202106e-14 2.999687863454598e-17
3.3702598118196083 6.956240711297554e-22 6.223109124190147e-14 6.220031742575608e-14 3.07738161454013e-17
3.382922481734668 7.289413504564814e-22 6.545669393220985e-14 6.542516306632577e-14 3.153086588407176e-17
3.389271646505754 7.461941268158794e-22 6.713169889533776e-14 6.70997839338127e-14 3.191496152506461e-17
3.395632727569191 7.648224301740113e-22 6.893674286025871e-14 6.890443204954327e-14 3.2310810715443633e-17
3.421196662673239 8.543521822877678e-22 7.758618646670485e-14 7.755223489954271e-14 3.395156716215953e-17
3.4276182099114902 8.365864254364571e-22 7.61154269652831e-14 7.608110718219708e-14 3.4319783086020914e-17
3.4340518103208963 7.583034954026654e-22 6.912248359394197e-14 6.908781454568936e-14 3.4669048252626875e-17
3.4469541582030403 6.467458591122154e-22 5.917504508417188e-14 5.913970363058603e-14 3.534145358584406e-17
3.472904465399547 6.15649342012852e-22 5.675389722026425e-14 5.671700970654913e-14 3.688751371512719e-17
3.4990501388274233 5.680450305429809e-22 5.275970560259526e-14 5.272123125755915e-14 3.847434503611914e-17
3.5253949054701885 3.982395063202745e-22 3.726675227797742e-14 3.7226728844307274e-14 4.002343367013801e-17
3.5519380250092896 2.3839985720119137e-22 2.2477127209876746e-14 2.243554069336339e-14 4.1586516513362464e-17
3.578680990867387 1.7518354140987416e-22 1.664124141738238e-14 1.6597940655456308e-14 4.3300761926070905e-17
3.605625307711299 1.4980368905015444e-22 1.4337470416554678e-14 1.429236041382125e-14 4.511000273342796e-17
3.660119384959845 1.3167692768476442e-22 1.2793058013895895e-14 1.2744130034172172e-14 4.8927979723722306e-17
3.715437065384467 1.189622126928253e-22 1.1732440916622071e-14 1.1679463251556935e-14 5.2977665065133066e-17
3.8285932144167436 1.1336326952405445e-22 1.1520757129302111e-14 1.1458988368129439e-14 6.176876117267354e-17
3.94519561050918 1.1318598358162057e-22 1.1853063840127829e-14 1.178157549967711e-14 7.148834045072175e-17
4.06534921144712 1.1522291125251162e-22 1.2433864615159865e-14 1.2351705044148755e-14 8.215957101111463e-17
4.189162171576248 1.1853269426342508e-22 1.3180587310337104e-14 1.3086749952302695e-14 9.383735803441241e-17
4.316745939156006 1.227599133273764e-22 1.4066384849088346e-14 1.3959865153931678e-14 1.0651969515666971e-16
4.448215356677963 1.277815842756183e-22 1.5087716203467233e-14 1.4967636502918423e-14 1.2007970054880755e-16
4.58368876423945 1.3360729251963589e-22 1.6256038435432516e-14 1.612146456656987e-14 1.3457386886264431e-16
4.723288106065518 1.4034495521858036e-22 1.7595867230298852e-14 1.7445735241524617e-14 1.501319887742343e-16
4.867139040275056 1.4820985013557438e-22 1.9147860471317512e-14 1.8981434683858744e-14 1.664257874587659e-16
4.940699165968905 1.5284772408745585e-22 2.004549663072894e-14 1.9870589117479867e-14 1.749075132490768e-16
5.015371051989984 1.5761540095348234e-22 2.0983172604986222e-14 2.079957690298856e-14 1.8359570199766112e-16
5.091171501069577 1.633390728858578e-22 2.2073807261384407e-14 2.188114162737971e-14 1.9266563400469472e-16
5.129500256944802 1.6626152949146045e-22 2.2637906421964248e-14 2.244063126375803e-14 1.972751582062166e-16
5.168117569889187 1.6929526682927993e-22 2.322451397551966e-14 2.3022541511006436e-14 2.0197246451322377e-16
5.20702561229733 1.729846698218763e-22 2.3909294636273292e-14 2.370223098741639e-14 2.0706364885689486e-16
5.246226572918644 1.7675480514106428e-22 2.4614312214517545e-14 2.4402091925602084e-14 2.1222028891546098e-16
5.265937586045735 1.7867095598961137e-22 2.4974632225232226e-14 2.4759809343591002e-14 2.148228816412247e-16
5.285722656980489 1.8060827512377441e-22 2.534028236506045e-14 2.5122840859447877e-14 2.1744150561256185e-16
5.305582063971359 1.82567106797114e-22 2.5711357241025535e-14 2.5491281196083407e-14 2.200760449421349e-16
5.3255160863122235 1.8466588864504395e-22 2.6104646359234897e-14 2.588190225641716e-14 2.227441028177326e-16
5.365609099470188 1.8986485928716e-22 2.704164173303752e-14 2.6813376359807653e-14 2.2826537322986757e-16
5.406003951863644 1.952423789488545e-22 2.8016887265321516e-14 2.7783029905228074e-14 2.3385736009343574e-16
5.446702915881641 2.008071462951855e-22 2.90323563082971e-14 2.879283708494718e-14 2.395192233499061e-16
5.487708281020852 2.0679946437308699e-22 3.012380720634596e-14 2.9878536332885834e-14 2.452708734601307e-16
5.529022354014368 2.1510022208116993e-22 3.1568840991632305e-14 3.1317566963871106e-14 2.512740277611963e-16
5.570647458961463 2.238584040999753e-22 3.310156378199815e-14 3.284420922982544e-14 2.573545521727169e-16
5.612585937458331 2.3310702590893354e-22 3.472864191673231e-14 3.4465130242285037e-14 2.635116744472826e-16
5.654840148729818 2.4324319297893196e-22 3.651156608352093e-14 3.6241795318555473e-14 2.6977076496546313e-16
5.67608639626678 2.501460351820837e-22 3.768877779783914e-14 3.741573510846382e-14 2.7304268937533157e-16
5.686739436050992 2.536992633931554e-22 3.8295872524241323e-14 3.80211857391243e-14 2.7468678511702822e-16
5.6974124697621304 2.5732252578297043e-22 3.891570480949246e-14 3.8639368519738717e-14 2.763362897537413e-16
5.718818669136295 2.6478589109281e-22 4.01948673413326e-14 3.9915215856825076e-14 2.7965148450753287e-16
5.740305295436557 2.730056917704069e-22 4.159835198164947e-14 4.131534176521425e-14 2.830102164352087e-16
5.7835210386641895 2.9432523413406273e-22 4.5184476082699215e-14 4.489451129763282e-14 2.899647850663871e-16
5.827062130521658 3.188114724927528e-22 4.931204609121224e-14 4.9014978059289534e-14 2.9706803192268755e-16
5.8489554468988025 3.360130991511188e-22 5.216797205539231e-14 5.1867081838303254e-14 3.0089021708905815e-16
5.870931020387893 3.5443544478031485e-22 5.5234898098978955e-14 5.4930155797371234e-14 3.047423016077036e-16
5.892989160043636 3.7417625081958992e-22 5.853037335285656e-14 5.822174907608164e-14 3.08624276774902e-16
5.915130176081913 3.9661109503110885e-22 6.227282946333619e-14 6.196018446237898e-14 3.1264500095720947e-16
5.95966208400165 4.593785951076108e-22 7.267111505595877e-14 7.234939057173172e-14 3.2172448422702336e-16
6.004529249263818 5.497610220196774e-22 8.762385236507661e-14 8.72919522265858e-14 3.3190013849079727e-16
6.027089341400364 6.125879215113208e-22 9.80043813964588e-14 9.766664322921923e-14 3.3773816723955873e-16
6.049734195844842 6.867406852709379e-22 1.1028044356677733e-13 1.0993652866328277e-13 3.4391490349454875e-16
6.095279466722835 9.009222530621824e-22 1.4576403103173272e-13 1.454050782590858e-13 3.589527726469618e-16
6.141167624020661 1.2302237385225424e-21 2.0054160558234333e-13 2.0016331375065662e-13 3.782918316866799e-16
6.164241091010745 1.440550945127025e-21 2.357098171381283e-13 2.353194744691581e-13 3.9034266897027374e-16
6.187401249150058 1.6797876462148076e-21 2.7588754631902047e-13 2.7548480417695695e-13 4.0274214206347363e-16
6.1990139391386085 1.796581056149276e-21 2.956234370290957e-13 2.952143803531309e-13 4.0905667596480114e-16
6.204828454712694 1.858072291470591e-21 3.060284615562233e-13 3.05616212825337e-13 4.122487308863339e-16
6.210648424152782 1.902951952258039e-21 3.1371421733837074e-13 3.132992282810776e-13 4.1498905729321075e-16
6.233982942956859 2.0552908297462055e-21 3.401013275974055e-13 3.3967669582798557e-13 4.2463176941999454e-16
6.239830258556775 2.074691013271373e-21 3.436336100168966e-13 3.4320757389174304e-13 4.260361251534671e-16
6.245683058788269 2.0762631550091657e-21 3.4421656950477773e-13 3.4378912578712005e-13 4.27443717657691e-16
6.257405133728602 2.0718254577411246e-21 3.441255134563121e-13 3.4369556687108605e-13 4.2994658522605405e-16
6.269149208991335 2.0415547494496245e-21 3.3973404542407227e-13 3.393029909949705e-13 4.3105442910175856e-16
6.280915325867298 1.9660149139819186e-21 3.2777753111087996e-13 3.273470970553341e-13 4.304340555458194e-16
6.304513850009849 1.77987493998689e-21 2.9785886108608813e-13 2.9743123510036856e-13 4.276259857195365e-16
6.32820103803542 1.5494271568022983e-21 2.6026805360943067e-13 2.598449033852152e-13 4.231502242154233e-16
6.3519772230701035 1.3381577421500502e-21 2.2562419840617844e-13 2.252049954779129e-13 4.1920292826554317e-16
6.375842739491607 1.1603194536034788e-21 1.9637427887786188e-13 1.9595848435859989e-13 4.157945192620106e-16
6.399797922933955 1.0179495423675823e-21 1.729266569242167e-13 1.7251227852986741e-13 4.1437839434925585e-16
6.42384311029221 8.994913747296465e-22 1.5337739661108158e-13 1.5296403824040306e-13 4.1335837067845585e-16
6.447978639727206 8.132212945738181e-22 1.3918799070347153e-13 1.3877409026300015e-13 4.1390044047135834e-16
6.472204850670314 7.413031318944022e-22 1.2735544644593396e-13 1.2694068980261875e-13 4.1475664331526065e-16
6.496522083828205 6.945748049014472e-22 1.1977588204806924e-13 1.1935899568607608e-13 4.1688636199315955e-16
