Dust emission spectrum from A.P. Jones, M. Kohler, N. Ysard, M. Bocchio, and L. Verstraete (2017), A&A, 602A, 46J 
inside the DustPedia framework.

lambda    nu*dP/dnu     j_nu    j_nu(carb.) j_nu(sil)
 (um)   (erg s-1 H-1) (Jy cm2 sr-1 H-1)
0.9927057738263894 2.7221219529256135e-20 7.172945959399256e-13 7.172945419423693e-13 5.399755643807176e-20
1.0001793341362166 2.7677674663369125e-20 7.348131335881076e-13 7.348130686233557e-13 6.496475178669686e-20
1.0077091589558085 2.8136104111080734e-20 7.526076027579183e-13 7.526075247033246e-13 7.805459338986923e-20
1.0114953028030835 2.8366041313335676e-20 7.616089420547471e-13 7.6160885654021e-13 8.551453725351516e-20
1.0152956718711033 2.8596451014708663e-20 7.706800304789912e-13 7.706799368230239e-13 9.365596732248973e-20
1.0229392996569957 2.905843639643546e-20 7.890264073351093e-13 7.890262951089167e-13 1.1222619249507305e-19
1.0267826658714554 2.92894886826604e-20 7.982882767050194e-13 7.982881539128824e-13 1.2279213697979333e-19
1.0306404723013447 2.9520976619328284e-20 8.076205231843904e-13 8.07620388876642e-13 1.343077484287913e-19
1.03451277320114 2.975289444993575e-20 8.170234315717536e-13 8.170232847177421e-13 1.4685401166857642e-19
1.0383996230291617 2.998523665154013e-20 8.26497293230403e-13 8.264971327119862e-13 1.6051841689133988e-19
1.0403485208654093 3.0101565230801366e-20 8.312609244484301e-13 8.312607566492685e-13 1.6779916161423635e-19
1.0423010764483396 3.021799794040695e-20 8.360424063564507e-13 8.360422309610033e-13 1.7539544749697816e-19
1.0462171883269815 3.0451173277620334e-20 8.456590762506438e-13 8.456588846635424e-13 1.9158710168376277e-19
1.0471985131304309 3.0509531240241506e-20 8.480744609453752e-13 8.480742650922368e-13 1.9585313833606848e-19
1.048180758391296 3.0567914708010174e-20 8.504943424026839e-13 8.504941421927052e-13 2.0020997830018467e-19
1.0501480137395462 3.068475787465365e-20 8.5534761559389e-13 8.553474063904405e-13 2.0920344990514569e-19
1.0521189612883777 3.0801702219015204e-20 8.602189361083296e-13 8.602187175256953e-13 2.1858263429683487e-19
1.0531058218030118 3.0860135430811956e-20 8.626592318835356e-13 8.626590084614568e-13 2.2342207883369367e-19
1.0540936079674168 3.091834235788737e-20 8.650970172514272e-13 8.650967888864321e-13 2.283649948418454e-19
1.058054026499678 3.1151409638255707e-20 8.748930792435951e-13 8.748928300409156e-13 2.4920267973493124e-19
1.0590464539527713 3.1209736044101177e-20 8.773533507985521e-13 8.773530961091562e-13 2.5468939593339216e-19
1.06003981227728 3.126808616507767e-20 8.798181352630185e-13 8.798178749715289e-13 2.602914895158355e-19
1.0620293250338977 3.138485732269653e-20 8.847612641633351e-13 8.847609923122689e-13 2.7185106608058503e-19
1.0660195594769086 3.1618681753486044e-20 8.947019124733147e-13 8.947016160142666e-13 2.9645904809621933e-19
1.070024785945596 3.185287955299432e-20 9.047153735055692e-13 9.047150503185507e-13 3.231870186078785e-19
1.0740450607676866 3.2087447628925785e-20 9.148020057586045e-13 9.148016535509091e-13 3.5220769498906934e-19
1.07808044048254 3.232238317949901e-20 9.24962177197769e-13 9.249617934907693e-13 3.837069995593413e-19
1.0861967418109137 3.2792990557071056e-20 9.454943821753598e-13 9.454939272184139e-13 4.549569457833269e-19
1.0902777775684922 3.3027847994784e-20 9.558436744506147e-13 9.55843179296281e-13 4.95154333785258e-19
1.0943741465085532 3.326305085830922e-20 9.662674224124179e-13 9.662668836866046e-13 5.38725813705829e-19
1.1026131145906286 3.373448835894448e-20 9.873399604290567e-13 9.873393233489929e-13 6.370800635544607e-19
1.1109141095355224 3.420729730354378e-20 1.0087154621137082e-12 1.0087147097094833e-12 7.524042251469478e-19
1.1192775983109025 3.468111089362843e-20 1.0303867015924006e-12 1.0303858141467129e-12 8.87445687900739e-19
1.1277040513999907 3.5154250385490786e-20 1.052306893474091e-12 1.0523058481086338e-12 1.0453654574026052e-18
1.1361939428280308 3.562872228642163e-20 1.0745389209738286e-12 1.0745376911783319e-12 1.2297954970341186e-18
1.1447477501889525 3.6104543392879747e-20 1.0970870499061284e-12 1.0970856050030222e-12 1.4449031058758703e-18
1.1533659546722406 3.658189984711413e-20 1.1199607871526539e-12 1.1199590916868943e-12 1.69546575968021e-18
1.1707974979042381 3.754267628565642e-20 1.16674634053136e-12 1.1667440149075062e-12 2.3256238541283527e-18
1.1884924949847024 3.8509939974147066e-20 1.2148949263205398e-12 1.2148917523657607e-12 3.173954779122321e-18
1.2064549276569216 3.949020392203216e-20 1.2646487265152623e-12 1.2646444162438258e-12 4.310271436631421e-18
1.2246888378427687 4.0477423998014495e-20 1.315855071482794e-12 1.3158492468602727e-12 5.8246225217423035e-18
1.2431983285522175 4.1470930781370424e-20 1.368527829819466e-12 1.3685199970750464e-12 7.832744419599069e-18
1.2619875648066055 4.247233039370353e-20 1.4227565685565839e-12 1.42274608592279e-12 1.0482633793785657e-17
1.3004222497298317 4.449345748622058e-20 1.5358541645033046e-12 1.535835654525178e-12 1.8509978126902642e-17
1.3400274889804893 4.65480691465875e-20 1.6557120567820068e-12 1.6556799732345452e-12 3.2083547461692e-17
1.3808389325824078 4.864493541156288e-20 1.7829948450925208e-12 1.7829402309350892e-12 5.4614157431876165e-17
1.4228933163050095 5.080251445681551e-20 1.9187879416405606e-12 1.9186965953986176e-12 9.13462419433648e-17
1.466228494730424 5.3058281685018884e-20 2.065020034441759e-12 2.0648698389984685e-12 1.5019544329023068e-16
1.5108834753276823 5.54098907168341e-20 2.222223305698303e-12 2.2219804236515664e-12 2.4288204673666677e-16
1.5568984535646726 5.78575238500202e-20 2.3910549852346415e-12 2.390668291256774e-12 3.866939778679187e-16
1.6043148490894465 6.041689707353633e-20 2.5728676893641844e-12 2.572260408336483e-12 6.072810277009633e-16
1.6531753430134553 6.310480753936092e-20 2.7691775289080228e-12 2.7682379306839424e-12 9.395982240802277e-16
1.7035239163302658 6.594068277742567e-20 2.981749175909915e-12 2.9803165739708532e-12 1.4326019390624513e-15
1.755405889504358 6.897589050800261e-20 3.2139883652830172e-12 3.211834809448232e-12 2.1535558347868464e-15
1.8088679632656115 7.22138806562982e-20 3.4673444252985364e-12 3.464151516234427e-12 3.192909064109981e-15
1.8639582606462262 7.565716155538637e-20 3.743308839746948e-12 3.738638073517534e-12 4.670766229414983e-15
1.9207263702978936 7.931920627960567e-20 4.044019972069408e-12 4.037275893541807e-12 6.744078527599936e-15
1.979223391128241 8.321879764806973e-20 4.372055685488169e-12 4.362440540763684e-12 9.615144724484252e-15
2.039501978296691 8.737341630045972e-20 4.7301278667454756e-12 4.716587193794362e-12 1.3540672951113724e-14
2.1016163906111602 9.18268113578161e-20 5.122622867106465e-12 5.103779749815345e-12 1.8843117291119066e-14
2.1656225393682647 9.660406291670819e-20 5.553254637901681e-12 5.5273343364826774e-12 2.5920301419004313e-14
2.231578038680979 1.0170262382606647e-19 6.024398188746064e-12 5.989142065576136e-12 3.525612316992951e-14
2.299542257339062 1.0713464754005745e-19 6.539443215484391e-12 6.492011790710452e-12 4.743142477394083e-14
2.369576372248914 1.1292211660927145e-19 7.102629383945743e-12 7.039494114531889e-12 6.313526941385333e-14
2.4417434235010123 1.190903682893023e-19 7.718734415095737e-12 7.63556198020116e-12 8.317243489457549e-14
2.5161083711144245 1.2568423062122476e-19 8.39420491218926e-12 8.28573112690698e-12 1.0847378528227856e-13
2.5927381535095444 1.3277246792978913e-19 9.137683670154655e-12 8.99758295325823e-12 1.4010071689642372e-13
2.6717017477616296 1.404131574758381e-19 9.957841586724181e-12 9.778602026868419e-12 1.7923955985575695e-13
2.753070231689431 1.4868635900987837e-19 1.086570350782039e-11 1.0638504233771102e-11 2.2719927404928825e-13
2.836916847834745 1.5780033950324413e-19 1.1882941874711222e-11 1.1597527790929876e-11 2.854140837813456e-13
2.9233170693905177 1.6819772854457005e-19 1.3051651893070983e-11 1.2696296398147479e-11 3.553554949235014e-13
2.967498994190263 1.7426218070068198e-19 1.37266056772241e-11 1.3332209346423956e-11 3.9439633080014533e-13
3.0123486681368425 1.807138419218039e-19 1.444994155168453e-11 1.4012776372424224e-11 4.3716517926030997e-13
3.0578761833420214 1.9020621446773466e-19 1.5438817434147146e-11 1.495471671579934e-11 4.841007183478089e-13
3.1040917844459814 2.0104004290087154e-19 1.6564813693352795e-11 1.60298112885922e-11 5.350024047605987e-13
3.127460860933648 2.1021381233140486e-19 1.7451090262765228e-11 1.688890268504253e-11 5.621875777227e-13
3.1510058709225794 2.21575591816573e-19 1.8532779702582023e-11 1.7942305444732723e-11 5.904742578492986e-13
3.162844764501044 2.314132970921164e-19 1.9428336637370124e-11 1.8823243118712393e-11 6.050935186577306e-13
3.1747281389236908 2.4245374438660693e-19 2.0431717257328748e-11 1.9811720664932152e-11 6.199965923965963e-13
3.1986289994194426 2.71901551816144e-19 2.3085803227101392e-11 2.243505804872544e-11 6.50745178375952e-13
3.2227097969389145 3.3853180913754163e-19 2.895943700038145e-11 2.827616016118465e-11 6.832768391967865e-13
3.2348180950136065 4.004843994691591e-19 3.438784021039379e-11 3.368721519803179e-11 7.006250123619871e-13
3.240889293275058 4.46616384152933e-19 3.8420966030102644e-11 3.771119019694827e-11 7.097758331543706e-13
3.2469718861334385 5.00034257508667e-19 4.30970675365896e-11 4.2377823334128484e-11 7.19244202461115e-13
3.2714166318528037 7.793893439456229e-19 6.767990712091427e-11 6.692157623046749e-11 7.583308904467808e-13
3.2744851364798273 7.969018284424325e-19 6.926554883492645e-11 6.850262344033632e-11 7.629253945901408e-13
3.2775565192852394 8.148745402071852e-19 7.089414539312472e-11 7.012660359934724e-11 7.675417937774812e-13
3.283707930232385 7.979851697525388e-19 6.955506728529165e-11 6.877929377902688e-11 7.757735062647591e-13
3.2898708863219004 7.437483436103938e-19 6.494927365706313e-11 6.416603078714473e-11 7.832428699184209e-13
3.29141343181113 7.309321200405555e-19 6.386000042143681e-11 6.307488250780978e-11 7.851179136270431e-13
3.292184975758714 7.2463082388230525e-19 6.332430988723897e-11 6.253825329545647e-11 7.860565917824997e-13
3.295272960557952 6.853239610014682e-19 5.994552169584777e-11 5.915581797330964e-11 7.897037225381163e-13
3.3076538914384823 5.481106834486198e-19 4.8123561345211645e-11 4.731921983955809e-11 8.043415056535467e-13
3.310756385682612 5.198930516203417e-19 4.5688896778908435e-11 4.4880867921863125e-11 8.080288570453016e-13
3.313861789986515 4.9374465101924065e-19 4.3431639943912413e-11 4.261991256518284e-11 8.117273787295643e-13
3.3200813396944477 4.573402240125629e-19 4.03048729921191e-11 3.948518017265651e-11 8.196928194625956e-13
3.345076488085796 3.946641353774245e-19 3.5043150836751026e-11 3.418793278771691e-11 8.552180490341245e-13
3.3482140837626964 3.974502806160128e-19 3.532364080091499e-11 3.4463609067109227e-11 8.600317338057667e-13
3.3513546224236106 4.0025999745356613e-19 3.5606723024516944e-11 3.474185709255307e-11 8.648659319638766e-13
3.3576445397418455 4.190664891566523e-19 3.734969708638549e-11 3.64747200160715e-11 8.749770703139886e-13
3.3702598118196083 4.865145040619401e-19 4.352398047930629e-11 4.262779669956118e-11 8.961837797451043e-13
3.382922481734668 5.031944626351471e-19 4.518531690987948e-11 4.4268557447880846e-11 9.167594619986366e-13
3.389271646505754 5.117790770159208e-19 4.60424407865167e-11 4.511525938163865e-11 9.271814048780473e-13
3.395632727569191 5.212164368634642e-19 4.697948447252252e-11 4.604156257737317e-11 9.379218951493499e-13
3.421196662673239 5.667679495542008e-19 5.146983261599818e-11 5.048748957644445e-11 9.823430395537343e-13
3.4276182099114902 5.591761588236723e-19 5.087571443137593e-11 4.988349845063236e-11 9.922159807435848e-13
3.4340518103208963 5.23519074510814e-19 4.772091762517048e-11 4.6719383201283585e-11 1.0015344238868819e-12
3.4469541582030403 4.724882982014511e-19 4.323107129931129e-11 4.2211691065146705e-11 1.01938023416459e-12
3.472904465399547 4.594909692337119e-19 4.23583710107909e-11 4.129782058769914e-11 1.0605504230917828e-12
3.4990501388274233 4.392202428638708e-19 4.079453117659979e-11 3.969193899873591e-11 1.1025921778638807e-12
3.5253949054701885 3.640105458573858e-19 3.4063649195388503e-11 3.292035609258626e-11 1.1432931028022406e-12
3.5519380250092896 2.924612993286411e-19 2.757421881938466e-11 2.6390132001545087e-11 1.184086817839577e-12
3.578680990867387 2.656084336994443e-19 2.523098935044203e-11 2.4002205338376807e-11 1.228784012065219e-12
3.605625307711299 2.5635121550170616e-19 2.4534963002633446e-11 2.325917289762159e-11 1.2757901050118653e-12
3.660119384959845 2.5290991005252666e-19 2.4571435622624473e-11 2.3197204091541393e-11 1.374231531083081e-12
3.715437065384467 2.517771855622129e-19 2.4831086165062654e-11 2.335353546293885e-11 1.477550702123799e-12
3.8285932144167436 2.5874711943715587e-19 2.6295666431087456e-11 2.4597656749453e-11 1.6980096816344558e-12
3.94519561050918 2.6810393322816894e-19 2.8076383097835114e-11 2.6140363110392858e-11 1.9360199874422578e-12
4.06534921144712 2.7830618940363914e-19 3.003240799065002e-11 2.7841667364925756e-11 2.1907406257242693e-12
4.189162171576248 2.8885849913467943e-19 3.212046002865877e-11 2.965837473927242e-11 2.4620852893863553e-12
4.316745939156006 2.995055267096762e-19 3.431869483234387e-11 3.157030291342914e-11 2.748391918914733e-12
4.448215356677963 3.100746430102828e-19 3.6611834499873395e-11 3.3566893468749743e-11 3.0449410311236544e-12
4.58368876423945 3.204893284527877e-19 3.899403051453042e-11 3.5642516601700326e-11 3.3515139128300927e-12
4.723288106065518 3.3072495211899163e-19 4.1464920047673264e-11 3.779542477749491e-11 3.669495270178357e-12
4.867139040275056 3.4071230429574307e-19 4.401807071222486e-11 4.00288288501617e-11 3.989241862063159e-12
4.940699165968905 3.4572152113918167e-19 4.534028640950308e-11 4.11896320369125e-11 4.150654372590578e-12
5.015371051989984 3.505550900984244e-19 4.666903055534953e-11 4.235654471904159e-11 4.312485836307945e-12
5.091171501069577 3.5561048948079813e-19 4.805756066958394e-11 4.357910538898869e-11 4.478455280595256e-12
5.129500256944802 3.580624069900651e-19 4.875321000268255e-11 4.4191850406720416e-11 4.561359595962135e-12
5.168117569889187 3.6050183063936917e-19 4.9454895938274494e-11 4.480977138369171e-11 4.6451245545827936e-12
5.20702561229733 3.632279125627723e-19 5.020400472784299e-11 4.5466740018571456e-11 4.737264709271526e-12
5.246226572918644 3.659097672675943e-19 5.0955430867511784e-11 4.612586035277042e-11 4.829570514741371e-12
5.265937586045735 3.6723393699930006e-19 5.1331972039791904e-11 4.6456202110595746e-11 4.8757699291961494e-12
5.285722656980489 3.685468513551584e-19 5.1709044182462937e-11 4.6787052220991096e-11 4.921991961471839e-12
5.305582063971359 3.6984845294073825e-19 5.208663195373738e-11 4.711840167282271e-11 4.968230280914666e-12
5.3255160863122235 3.711951762932077e-19 5.247270559000501e-11 4.7457804658226706e-11 5.014900931778312e-12
5.365609099470188 3.7429052349520755e-19 5.3308602120629205e-11 4.8197083300024795e-11 5.1115188206044125e-12
5.406003951863644 3.773609034064434e-19 5.4150527902795954e-11 4.894225765343826e-11 5.208270249357694e-12
5.446702915881641 3.8040733585733623e-19 5.499864681441877e-11 4.9693542445856394e-11 5.305104368562389e-12
5.487708281020852 3.835362357307023e-19 5.586847943162722e-11 5.046603615657817e-11 5.4024432750490416e-12
5.529022354014368 3.8757679117951916e-19 5.688208954138692e-11 5.13781776025732e-11 5.503911938813694e-12
5.570647458961463 3.916603842862864e-19 5.791415892317552e-11 5.230866939208163e-11 5.605489531093883e-12
5.612585937458331 3.957942807934171e-19 5.896603843993537e-11 5.3258914041852585e-11 5.707124398082783e-12
5.654840148729818 4.001428747916286e-19 6.006270036534997e-11 5.4253359946348524e-11 5.809340419001461e-12
5.67608639626678 4.030338513914228e-19 6.072394175283178e-11 5.4861004234332916e-11 5.86293751849886e-12
5.686739436050992 4.044991136589418e-19 6.105909132595992e-11 5.516934265770397e-11 5.889748668255958e-12
5.6974124697621304 4.059780993534358e-19 6.139736047392193e-11 5.54807933510603e-11 5.916567122861625e-12
5.718818669136295 4.089789279559689e-19 6.208357132151206e-11 5.611334867114201e-11 5.970222650370024e-12
5.740305295436557 4.1223353144515204e-19 6.281274001464839e-11 5.6788391185611006e-11 6.02434882903738e-12
5.7835210386641895 4.205415863537451e-19 6.456106730463331e-11 5.842492175461568e-11 6.1361455500176355e-12
5.827062130521658 4.297617904035496e-19 6.647324530362839e-11 6.022404721166659e-11 6.249198091961795e-12
5.8489554468988025 4.362499549245639e-19 6.773032216650422e-11 6.141971489843462e-11 6.310607268069588e-12
5.870931020387893 4.430630688406654e-19 6.90465466116222e-11 6.267441666213918e-11 6.372129949483015e-12
5.892989160043636 4.502276712781131e-19 7.042668698500805e-11 6.399292758589969e-11 6.433759399108377e-12
5.915130176081913 4.58298061977198e-19 7.195844345868586e-11 6.546068091152188e-11 6.497762547164003e-12
5.95966208400165 4.809073340810444e-19 7.607684071146431e-11 6.943119816328396e-11 6.645642548180344e-12
6.004529249263818 5.130358062216656e-19 8.177039102775145e-11 7.495718093769727e-11 6.813210090054156e-12
6.027089341400364 5.35291658446549e-19 8.563820149001917e-11 7.872715550427595e-11 6.911045985743194e-12
6.049734195844842 5.612393716317202e-19 9.012678027990537e-11 8.311187723477384e-11 7.014903045131544e-12
6.095279466722835 6.358746997219227e-19 1.0288086363448135e-10 9.560724902033462e-11 7.273614614146736e-12
6.141167624020661 7.491238702924153e-19 1.2211640779174188e-10 1.145027749953321e-10 7.613632796409771e-12
6.164241091010745 8.211656856039509e-19 1.3436304647784989e-10 1.2653397428729441e-10 7.829072190555452e-12
6.187401249150058 9.017699259807754e-19 1.4810627568534126e-10 1.4005637874299303e-10 8.049896942348207e-12
6.1990139391386085 9.408361631710676e-19 1.5481250861791806e-10 1.466503217714223e-10 8.162186846495795e-12
6.204828454712694 9.612926632687996e-19 1.5832694787811572e-10 1.5010808712314445e-10 8.218860754971292e-12
6.210648424152782 9.76030619507644e-19 1.6090510405887852e-10 1.5263840437682677e-10 8.266699682051739e-12
6.233982942956859 1.0251185131811803e-18 1.696325221869694e-10 1.6120092527635203e-10 8.431596910617404e-12
6.239830258556775 1.0308246095933576e-18 1.7073674085582503e-10 1.6228369193319642e-10 8.453048922628611e-12
6.245683058788269 1.0304740434797278e-18 1.7083876836833007e-10 1.6236424798190717e-10 8.474520386422891e-12
6.257405133728602 1.0271666720755608e-18 1.706100565144135e-10 1.620987882660779e-10 8.511268248335485e-12
6.269149208991335 1.0150349093540985e-18 1.689114220887238e-10 1.6039069405036282e-10 8.520728038360978e-12
6.280915325867298 9.87557992348206e-19 1.6464743896835424e-10 1.5615093946416276e-10 8.496499504191492e-12
6.304513850009849 9.21014580299814e-19 1.5413012890321646e-10 1.457124792947202e-10 8.417649608496265e-12
6.32820103803542 8.404590478917279e-19 1.4117775048209407e-10 1.3287127784438885e-10 8.306472637705216e-12
6.3519772230701035 7.671373616172454e-19 1.2934555234439123e-10 1.2113987465815259e-10 8.205677686238572e-12
6.375842739491607 7.051947862783177e-19 1.1934826843914718e-10 1.1123268975513491e-10 8.11557868401231e-12
6.399797922933955 6.562495870102997e-19 1.1148199637247854e-10 1.034183103427991e-10 8.063686029679453e-12
6.42384311029221 6.1530332914745e-19 1.0491887460191875e-10 9.689941827353932e-11 8.019456328379408e-12
6.447978639727206 5.856113288888319e-19 1.0023109914250712e-10 9.22261977639688e-11 8.004901378538303e-12
6.472204850670314 5.607143707561353e-19 9.633040242769516e-11 8.83341957000448e-11 7.996206727650334e-12
6.496522083828205 5.444522092959624e-19 9.388800621798658e-11 8.587655614644896e-11 8.011450071537641e-12
6.520930681187647 5.306375103373612e-19 9.184953528033682e-11 8.381931236184307e-11 8.030222918493747e-12
6.57002334288761 5.158064652854498e-19 8.995454828674525e-11 8.185399493364902e-11 8.100553353096228e-12
6.619489833774732 5.126208924850616e-19 9.007209308973578e-11 8.187509785680605e-11 8.19699523292975e-12
