Dust emission spectrum from A.P. Jones, M. Kohler, N. Ysard, M. Bocchio, and L. Verstraete (2017), A&A, 602A, 46J 
inside the DustPedia framework.

lambda    nu*dP/dnu     j_nu    j_nu(carb.) j_nu(sil)
 (um)   (erg s-1 H-1) (Jy cm2 sr-1 H-1)
0.9927057738263894 7.101286011347928e-22 1.8712291984894968e-14 1.8712290878909155e-14 1.1059858111944482e-21
1.0001793341362166 7.220683259304297e-22 1.9170154129453563e-14 1.9170152798503026e-14 1.33095053915532e-21
1.0077091589558085 7.3405551718713805e-22 1.9635119379013962e-14 1.9635117779473278e-14 1.5995406865938842e-21
1.0114953028030835 7.400663652647015e-22 1.987027922837325e-14 1.9870277475725834e-14 1.752647418631146e-21
1.0152956718711033 7.460884324405759e-22 2.010723133292223e-14 2.010722941315415e-14 1.919768077887692e-21
1.0229392996569957 7.581595353237504e-22 2.058637588692609e-14 2.0586373585868008e-14 2.301058086501074e-21
1.0267826658714554 7.641948617546471e-22 2.0828216083475046e-14 2.0828213565420605e-14 2.518054436090379e-21
1.0306404723013447 7.702403093556136e-22 2.1071859838546276e-14 2.107185708395189e-14 2.75459438712729e-21
1.03451277320114 7.762956933827731e-22 2.1317313258016055e-14 2.1317310245667343e-14 3.0123487080838635e-21
1.0383996230291617 7.823608348502162e-22 2.1564582592679642e-14 2.156457929955687e-14 3.2931227788802403e-21
1.0403485208654093 7.853970103016306e-22 2.1688900222846847e-14 2.168889678010116e-14 3.442745688473518e-21
1.0423010764483396 7.8843556067719465e-22 2.1813674244915312e-14 2.1813670646048593e-14 3.598866722014491e-21
1.0462171883269815 7.945197038344879e-22 2.206459477544685e-14 2.206459084376061e-14 3.9316862376840755e-21
1.0471985131304309 7.960421920959135e-22 2.2127611454779357e-14 2.2127607435395177e-14 4.019384179421214e-21
1.048180758391296 7.97565256405904e-22 2.2190742965283642e-14 2.21907388563309e-14 4.1089527418478805e-21
1.0501480137395462 8.006131034898673e-22 2.231735091020371e-14 2.2317346616349522e-14 4.2938541873212e-21
1.0521189612883777 8.036632259743364e-22 2.244441947790296e-14 2.2444414991200128e-14 4.486702831483194e-21
1.0531058218030118 8.051871144416352e-22 2.2508070297488842e-14 2.2508065711273947e-14 4.586214892950455e-21
1.0540936079674168 8.067049463967235e-22 2.2571651314668463e-14 2.2571646626809494e-14 4.687858968331076e-21
1.058054026499678 8.127815803065246e-22 2.282712043546123e-14 2.282711531905626e-14 5.116404960629976e-21
1.0590464539527713 8.143020544108444e-22 2.289127453657305e-14 2.2891269307316217e-14 5.229256830750651e-21
1.06003981227728 8.15823050500631e-22 2.295554359184649e-14 2.2955538247359488e-14 5.344487003613394e-21
1.0620293250338977 8.188666003204242e-22 2.3084427022604133e-14 2.308442144033055e-14 5.5822735816553524e-21
1.0660195594769086 8.249598738262842e-22 2.3343578412934442e-14 2.3343572324392285e-14 6.0885421579251546e-21
1.070024785945596 8.310612751894712e-22 2.3604582145804066e-14 2.360457550727763e-14 6.6385264349077016e-21
1.0740450607676866 8.371706858907149e-22 2.3867445970515518e-14 2.386743873471775e-14 7.235797769426783e-21
1.07808044048254 8.432879946625919e-22 2.413217785384665e-14 2.4132169969645195e-14 7.884201461173992e-21
1.0861967418109137 8.555365343413043e-22 2.466700880963289e-14 2.4666999458356495e-14 9.351276390972616e-21
1.0902777775684922 8.616462898060473e-22 2.4936506788302417e-14 2.493649660910946e-14 1.0179192955008819e-20
1.0943741465085532 8.677632060865015e-22 2.520788967858857e-14 2.5207878601815107e-14 1.10767734634032e-20
1.1026131145906286 8.80018244246206e-22 2.5756346715734904e-14 2.5756333612257153e-14 1.3103477748077094e-20
1.1109141095355224 8.923011768607792e-22 2.6312455672096636e-14 2.631244019131295e-14 1.5480783692788278e-20
1.1192775983109025 9.046020461189158e-22 2.687601101974645e-14 2.6875992754116556e-14 1.8265629892345902e-20
1.1277040513999907 9.16876435752655e-22 2.7445767815452833e-14 2.7445746291893253e-14 2.1523559568862153e-20
1.1361939428280308 9.291766905830344e-22 2.80233602110856e-14 2.8023334881168678e-14 2.532991691769189e-20
1.1447477501889525 9.415029087774652e-22 2.8608882749986815e-14 2.860885297879171e-14 2.9771195103333354e-20
1.1533659546722406 9.538597234594387e-22 2.920256988246937e-14 2.920253493586812e-14 3.4946601240381876e-20
1.1707974979042381 9.787027797354997e-22 3.0415995866563685e-14 3.0415947895755346e-14 4.797080834746213e-20
1.1884924949847024 1.0036727834651865e-21 3.1663434768697685e-14 3.166336924988506e-14 6.551881261549467e-20
1.2064549276569216 1.028938959424024e-21 3.295111737753137e-14 3.295102833379928e-14 8.904373208679885e-20
1.2246888378427687 1.0543384544107546e-21 3.427482446421924e-14 3.4274704042367473e-14 1.204218517722309e-19
1.2431983285522175 1.0798514633834173e-21 3.5634762757129704e-14 3.563460068984774e-14 1.620672819541108e-19
1.2619875648066055 1.1055161567975879e-21 3.703306032772752e-14 3.703284325740788e-14 2.1707031964405174e-19
1.3004222497298317 1.1571477879161713e-21 3.994318152432259e-14 3.994279759901046e-14 3.839253121360569e-19
1.3400274889804893 1.209399480415128e-21 4.3018267737020014e-14 4.3017601159323535e-14 6.665776964737654e-19
1.3808389325824078 1.2624771905615798e-21 4.6273888612937194e-14 4.627275198894355e-14 1.1366239936299713e-18
1.4228933163050095 1.3168443660423763e-21 4.9736614763965467e-14 4.973471035488273e-14 1.9044090827391606e-18
1.466228494730424 1.3734677295031163e-21 5.3455149469795e-14 5.345201258574673e-14 3.1368840482792996e-18
1.5108834753276823 1.4322655623898448e-21 5.74412595209257e-14 5.74361776577145e-14 5.081863211185483e-18
1.5568984535646726 1.4932278047184112e-21 6.171003439100152e-14 6.170192865467289e-14 8.10573632863118e-18
1.6043148490894465 1.5567582040467138e-21 6.629491214137199e-14 6.628215892905718e-14 1.2753212314817241e-17
1.6531753430134553 1.6232922082160146e-21 7.123362674134531e-14 7.121385757783074e-14 1.97691635145798e-17
1.7035239163302658 1.69334311932888e-21 7.657070321267808e-14 7.654050371081946e-14 3.019950185861895e-17
1.755405889504358 1.768269236722686e-21 8.239395985551256e-14 8.234847462206368e-14 4.548523344888727e-17
1.8088679632656115 1.8481712474446745e-21 8.873981308835025e-14 8.867224324837102e-14 6.756983997920978e-17
1.8639582606462262 1.9331353492558362e-21 9.564623483791655e-14 9.554719303027444e-14 9.904180764214748e-17
1.9207263702978936 2.0235385415383487e-21 1.0316833286741213e-13 1.0302503840097338e-13 1.432944664387212e-16
1.979223391128241 2.1199004924914988e-21 1.113729501363639e-13 1.11168234288991e-13 2.0471584737289975e-16
2.039501978296691 2.222714367929924e-21 1.2033091547440812e-13 1.2004202213564696e-13 2.8889333876113574e-16
2.1016163906111602 2.3331626464947152e-21 1.301571093331354e-13 1.297542394307551e-13 4.0286990238030795e-16
2.1656225393682647 2.4519413960297284e-21 1.409490917696196e-13 1.4039372424052938e-13 5.553675290902491e-16
2.231578038680979 2.579029543614372e-21 1.5276991218874375e-13 1.5201287479069982e-13 7.570373980439024e-16
2.299542257339062 2.714784407363989e-21 1.6570902954248644e-13 1.6468831166076407e-13 1.020717881722402e-15
2.369576372248914 2.8598335916990066e-21 1.798791832062481e-13 1.7851747726757367e-13 1.361705938674473e-15
2.4417434235010123 3.0148955545105357e-21 1.9540772615622204e-13 1.9360977458052862e-13 1.797951575693447e-15
2.5161083711144245 3.181216182607843e-21 2.1246723136858795e-13 2.1011691242440923e-13 2.350318944178682e-15
2.5927381535095444 3.3607067294818395e-21 2.312909858571297e-13 2.282482611713462e-13 3.042724685783513e-15
2.6717017477616296 3.555051118255357e-21 2.5211765410506584e-13 2.4821559437554525e-13 3.902059729520657e-15
2.753070231689431 3.7665889525526255e-21 2.752548321635176e-13 2.7029664518161064e-13 4.958186981907008e-15
2.836916847834745 4.001245576435519e-21 3.013084050446621e-13 2.9506435896093057e-13 6.244046083731417e-15
2.9233170693905177 4.271654438041186e-21 3.314678932660602e-13 3.2367405132407356e-13 7.7938419419866e-15
2.967498994190263 4.431591396541021e-21 3.490757855680811e-13 3.4041383803250237e-13 8.661947535578715e-15
3.0123486681368425 4.6024222252647536e-21 3.680112792910826e-13 3.583970607041572e-13 9.614218586925483e-15
3.0578761833420214 4.8586588941639275e-21 3.9437169732704323e-13 3.837111718368354e-13 1.0660525490207908e-14
3.1040917844459814 5.153434277384565e-21 4.2462027690625536e-13 4.1282306711020673e-13 1.179720979604847e-14
3.127460860933648 5.406984879856649e-21 4.4886575311725423e-13 4.3646069650281607e-13 1.2405056614438207e-14
3.1510058709225794 5.722884949952138e-21 4.786671906014161e-13 4.656290946903929e-13 1.3038095911023195e-14
3.162844764501044 5.9981357013649e-21 5.03574345411785e-13 4.902088632664233e-13 1.3365482145361698e-14
3.1747281389236908 6.307994277135726e-21 5.31578325826031e-13 5.178789503701506e-13 1.3699375455880516e-14
3.1986289994194426 7.137843791074837e-21 6.060386788007922e-13 5.916499410292376e-13 1.4388737771554492e-14
3.2227097969389145 9.02299232483269e-21 7.718647723285408e-13 7.567461261862537e-13 1.5118646142287208e-14
3.2348180950136065 1.0779252379952705e-20 9.25567160470294e-13 9.100591353520268e-13 1.5508025118267176e-14
3.240889293275058 1.2087644735972596e-20 1.0398610625662203e-12 1.0241476495526866e-12 1.5713413013533774e-14
3.2469718861334385 1.3602765723172703e-20 1.1723982992221666e-12 1.1564723708121354e-12 1.592592841003137e-14
3.2714166318528037 2.1542361199293603e-20 1.87067608308884e-12 1.8538723938545176e-12 1.680368923432288e-14
3.2744851364798273 2.2040443867360746e-20 1.9157233507946634e-12 1.898816347493961e-12 1.6907003300702254e-14
3.2775565192852394 2.2551745330472274e-20 1.9620035151923197e-12 1.9449926932024766e-12 1.7010821989843307e-14
3.283707930232385 2.2072078759200704e-20 1.9238765097583786e-12 1.9066802847451076e-12 1.719622501327119e-14
3.2898708863219004 2.053049825684486e-20 1.7928657738271027e-12 1.7755010592111588e-12 1.736471461594358e-14
3.29141343181113 2.0166264803903347e-20 1.7618840978073592e-12 1.7444770806498494e-12 1.740701715750944e-14
3.292184975758714 1.9987190283855754e-20 1.7466480718127232e-12 1.7292198763363813e-12 1.7428195476342586e-14
3.295272960557952 1.8868631780188207e-20 1.6504456871716059e-12 1.6329351569023538e-12 1.751053026925206e-14
3.3076538914384823 1.4965967868253198e-20 1.313996779385641e-12 1.2961556720112118e-12 1.784110737442928e-14
3.310756385682612 1.4163999151442374e-20 1.2447511910187589e-12 1.2268267834941615e-12 1.7924407524597307e-14
3.313861789986515 1.3421073475447759e-20 1.1805681937883418e-12 1.1625602234277516e-12 1.8007970360590415e-14
3.3200813396944477 1.2386115168563859e-20 1.0915742209480636e-12 1.0733864048397525e-12 1.818781610831114e-14
3.345076488085796 1.059876462829856e-20 9.410890786858494e-13 9.220995047570361e-13 1.898957392881345e-14
3.3482140837626964 1.0677261424198718e-20 9.489482475677139e-13 9.29850050768425e-13 1.9098196799289263e-14
3.3513546224236106 1.075644355293833e-20 9.56882298393453e-13 9.376750022663408e-13 1.9207296127112283e-14
3.3576445397418455 1.1289777221462188e-20 1.0062120696956086e-12 9.867766304996469e-13 1.943543919596184e-14
3.3702598118196083 1.3207102281955608e-20 1.1815180371988542e-12 1.1616040809063014e-12 1.9913956292552602e-14
3.382922481734668 1.3678947958977614e-20 1.2283275044072002e-12 1.2079488056759997e-12 2.0378698731200678e-14
3.389271646505754 1.3921969397041116e-20 1.252496400072687e-12 1.2318822121914772e-12 2.0614187881209778e-14
3.395632727569191 1.4188696594824654e-20 1.278888393031458e-12 1.2580315193754767e-12 2.0856873655980757e-14
3.421196662673239 1.54758189132133e-20 1.4054037630129146e-12 1.3835426836381905e-12 2.1861079374724432e-14
3.4276182099114902 1.5259099786628655e-20 1.3883238599755626e-12 1.3662390777933626e-12 2.2084782182199845e-14
3.4340518103208963 1.4244138073184333e-20 1.298411791904906e-12 1.2761156215738124e-12 2.2296170331093576e-14
3.4469541582030403 1.2792242395368847e-20 1.1704466442393787e-12 1.147745138468793e-12 2.270150577058552e-14
3.472904465399547 1.242103575932421e-20 1.145038480101546e-12 1.1214026627460959e-12 2.363581735545041e-14
3.4990501388274233 1.1841646364218293e-20 1.0998455094818886e-12 1.0752544967855267e-12 2.4591012696361928e-14
3.5253949054701885 9.693311740379037e-21 9.070879248514299e-13 8.815703844366242e-13 2.5517540414806038e-14
3.5519380250092896 7.650065565164339e-21 7.21273489383773e-13 6.948258693371559e-13 2.6447620046617157e-14
3.578680990867387 6.879130469517292e-21 6.534704685360116e-13 6.260036151405421e-13 2.746685339546945e-14
3.605625307711299 6.60914092356373e-21 6.325502600854552e-13 6.040106808813235e-13 2.853957920413168e-14
3.660119384959845 6.498928555296695e-21 6.314027179850053e-13 6.006127290804842e-13 3.07899889045211e-14
3.715437065384467 6.455140660870669e-21 6.366269985890861e-13 6.034694817474441e-13 3.3157516841641966e-14
3.8285932144167436 6.632247011710339e-21 6.740146730440008e-13 6.357858433373642e-13 3.822882970663673e-14
3.94519561050918 6.87984634555574e-21 7.204713460420391e-13 6.767382652317902e-13 4.3733080810249134e-14
4.06534921144712 7.154436515912715e-21 7.720451954356923e-13 7.223877729582796e-13 4.9657422477412805e-14
4.189162171576248 7.442295866870124e-21 8.275677109358582e-13 7.715614918349755e-13 5.600621910088283e-14
4.316745939156006 7.736642679152916e-21 8.864994314115214e-13 8.237514565344551e-13 6.274797487706608e-14
4.448215356677963 8.033165638448017e-21 9.485101006958998e-13 8.787300474319429e-13 6.978005326395714e-14
4.58368876423945 8.330059084976192e-21 1.0135207300521822e-12 9.364172503476808e-13 7.710347970450146e-14
4.723288106065518 8.626937842781095e-21 1.08160961431922e-12 9.96852791385705e-13 8.475682293351487e-14
4.867139040275056 8.922613391999514e-21 1.1527503476538998e-12 1.0602280810922158e-12 9.252226656168404e-14
4.940699165968905 9.07323363962077e-21 1.1899259569528731e-12 1.0934568760335695e-12 9.646908091930415e-14
5.015371051989984 9.220373689542562e-21 1.2274986545714882e-12 1.1270537232588957e-12 1.0044493131259252e-13
5.091171501069577 9.375535662235594e-21 1.2670193574873839e-12 1.1624812881807434e-12 1.0453806930664031e-13
5.129500256944802 9.451566659247606e-21 1.2869103407592205e-12 1.1803198438325616e-12 1.0659049692665869e-13
5.168117569889187 9.527639029914648e-21 1.307034685305741e-12 1.1983667499806168e-12 1.086679353251242e-13
5.20702561229733 9.612210423097217e-21 1.3285638048061556e-12 1.217620077001016e-12 1.1094372780513924e-13
5.246226572918644 9.695961461619186e-21 1.3502287671656534e-12 1.2369996989173798e-12 1.132290682482739e-13
5.265937586045735 9.737525130787902e-21 1.3611115896168622e-12 1.246736612321619e-12 1.1437497729524247e-13
5.285722656980489 9.778878855842541e-21 1.3720276728790377e-12 1.2565048116185065e-12 1.1552286126053123e-13
5.305582063971359 9.82002123556125e-21 1.3829768052498027e-12 1.2663042245645013e-12 1.1667258068530133e-13
5.3255160863122235 9.862599289208024e-21 1.3941917942543996e-12 1.2763579916858529e-12 1.1783380256854692e-13
5.365609099470188 9.959870543583396e-21 1.418541861607299e-12 1.2983050069211681e-12 1.2023685468613142e-13
5.406003951863644 1.005694758040072e-20 1.4431516769581347e-12 1.320502520215848e-12 1.2264915674228644e-13
5.446702915881641 1.0153864443428702e-20 1.4680284833809159e-12 1.3429588926948632e-12 1.2506959068605246e-13
5.487708281020852 1.025376277230242e-20 1.493632364226973e-12 1.3661242456464685e-12 1.2750811858050477e-13
5.529022354014368 1.0381158941294803e-20 1.5235742332377937e-12 1.3935243385778985e-12 1.3004989465989557e-13
5.570647458961463 1.0510500527037064e-20 1.5541699449490575e-12 1.4215690875706678e-12 1.3260085737838954e-13
5.612585937458331 1.0642014256844789e-20 1.5854635910592643e-12 1.4503037233072691e-12 1.3515986775199498e-13
5.654840148729818 1.0780595527371585e-20 1.6182011969043266e-12 1.480461831011721e-12 1.3773936589260496e-13
5.67608639626678 1.0871467785869319e-20 1.637972528406245e-12 1.4988820587612565e-12 1.3909046964498878e-13
5.686739436050992 1.0917575438079751e-20 1.6480066660759972e-12 1.5082396744486622e-12 1.3976699162733447e-13
5.6974124697621304 1.0964147535229175e-20 1.658142938207318e-12 1.5176988019295058e-12 1.4044413627781148e-13
5.718818669136295 1.1058737352977581e-20 1.6787317444711222e-12 1.536931523463367e-12 1.4180022100775453e-13
5.740305295436557 1.1161127138264015e-20 1.7006403500184233e-12 1.5574709579890408e-12 1.4316939202938265e-13
5.7835210386641895 1.1420431859980949e-20 1.753251744620577e-12 1.6072534675579996e-12 1.4599827706257763e-13
5.827062130521658 1.1708215862116008e-20 1.8109639396733163e-12 1.6620990968512876e-12 1.4886484282202904e-13
5.8489554468988025 1.190881924493249e-20 1.8489128880744936e-12 1.6984950379823308e-12 1.504178500921625e-13
5.870931020387893 1.2119613661945894e-20 1.888709595710711e-12 1.7367339105220503e-12 1.5197568518866086e-13
5.892989160043636 1.2341418390266281e-20 1.930501533712724e-12 1.7769633293124795e-12 1.535382044002449e-13
5.915130176081913 1.2590855660566962e-20 1.9769194991543748e-12 1.821759992652722e-12 1.551595065016528e-13
5.95966208400165 1.32856253100949e-20 2.1017113461154996e-12 1.942827596817899e-12 1.588837492976007e-13
6.004529249263818 1.4270043173595847e-20 2.274435811569189e-12 2.1113444173080005e-12 1.6309139426118897e-13
6.027089341400364 1.4950368310800985e-20 2.391822539260095e-12 2.226285035197235e-12 1.655375040628593e-13
6.049734195844842 1.5743546298363977e-20 2.528181752349061e-12 2.3600499636182515e-12 1.6813178873080907e-13
6.095279466722835 1.8022005047756728e-20 2.9158566059461516e-12 2.741297139616425e-12 1.7455946632972775e-13
6.141167624020661 2.1479123571086066e-20 3.501361413022535e-12 3.3183966608240656e-12 1.8296475219846835e-13
6.164241091010745 2.3679141716597937e-20 3.8744941183006666e-12 3.686223644096467e-12 1.882704742042004e-13
6.187401249150058 2.6143988692077115e-20 4.293876614405709e-12 4.1001638032666275e-12 1.9371281113908092e-13
6.1990139391386085 2.7340264302373373e-20 4.4987799880708244e-12 4.302299049693174e-12 1.9648093837765021e-13
6.204828454712694 2.796693937764196e-20 4.606214446802858e-12 4.408335976941894e-12 1.9787846986096353e-13
6.210648424152782 2.8419957877840624e-20 4.685218053906633e-12 4.486155657224902e-12 1.990623966817315e-13
6.233982942956859 2.993423552902502e-20 4.953397882523507e-12 4.750236437155627e-12 2.0316144536787926e-13
6.239830258556775 3.0113731082982325e-20 4.987774110423495e-12 4.784065482271502e-12 2.0370862815199347e-13
6.245683058788269 3.010855981766903e-20 4.991595187808299e-12 4.7873387236969035e-12 2.0425646411139522e-13
6.257405133728602 3.0018946044544466e-20 4.986078910459535e-12 4.780876187902875e-12 2.0520272255665986e-13
6.269149208991335 2.9660802247798344e-20 4.935838404962939e-12 4.73034911834169e-12 2.0548928662124953e-13
6.280915325867298 2.883489866212479e-20 4.807405999866492e-12 4.6024450962794976e-12 2.0496090358699257e-13
6.304513850009849 2.6828170720087537e-20 4.4896459836483054e-12 4.286478009578708e-12 2.031679740695971e-13
6.32820103803542 2.4390095773775435e-20 4.096973985849733e-12 3.896382080029947e-12 2.0059190581978722e-13
6.3519772230701035 2.216901885766858e-20 3.737875552082752e-12 3.5396093397838365e-12 1.9826621229891497e-13
6.375842739491607 2.029336437035364e-20 3.434480721544239e-12 3.238282759347074e-12 1.9619796219716357e-13
6.399797922933955 1.8810769125935688e-20 3.1955252040839473e-12 3.000468813888425e-12 1.9505639019552215e-13
6.42384311029221 1.7571498576241617e-20 2.9962162861086953e-12 2.802116245514035e-12 1.9410004059466033e-13
6.447978639727206 1.6674407618426463e-20 2.8539307911209227e-12 2.6600661392378465e-12 1.9386465188307657e-13
6.472204850670314 1.5923311035690987e-20 2.735615564803479e-12 2.541843762585584e-12 1.9377180221789508e-13
