Dust emission spectrum from A.P. Jones, M. Kohler, N. Ysard, M. Bocchio, and L. Verstraete (2017), A&A, 602A, 46J 
inside the DustPedia framework.

lambda    nu*dP/dnu     j_nu    j_nu(carb.) j_nu(sil)
 (um)   (erg s-1 H-1) (Jy cm2 sr-1 H-1)
0.9927057738263894 3.6903582228625625e-26 9.724303525405352e-19 9.724303525375123e-19 3.022741634811943e-30
1.0001793341362166 3.7510495226581695e-26 9.958641712183149e-19 9.958641712146731e-19 3.6416348992319406e-30
1.0077091589558085 3.811646496974992e-26 1.0195704854245284e-18 1.0195704854201465e-18 4.381633190114668e-30
1.0114953028030835 3.841902139883167e-26 1.0315246290142993e-18 1.0315246290094951e-18 4.803930803727279e-30
1.0152956718711033 3.872125259257572e-26 1.0435454425054986e-18 1.0435454425002335e-18 5.265235270713662e-30
1.0229392996569957 3.9324323252152855e-26 1.0677769812947263e-18 1.0677769812884074e-18 6.318960378156075e-30
1.0267826658714554 3.9624428324841363e-26 1.07996820789792e-18 1.079968207891001e-18 6.919339889636356e-30
1.0306404723013447 3.992407535835759e-26 1.0922234397712635e-18 1.0922234397636894e-18 7.574318458782943e-30
1.03451277320114 4.0223235416510355e-26 1.1045421441000932e-18 1.1045421440918046e-18 8.288620073971783e-30
1.0383996230291617 4.052187972777893e-26 1.1169237815535803e-18 1.1169237815445132e-18 9.067354938421094e-30
1.0403485208654093 4.067099953361448e-26 1.1231380299108121e-18 1.1231380299013294e-18 9.482594622956944e-30
1.0423010764483396 4.081997969081303e-26 1.1293678064122991e-18 1.129367806402383e-18 9.916049061506618e-30
1.0462171883269815 4.111750687980999e-26 1.141873666695936e-18 1.1418736666850947e-18 1.0840675952447448e-29
1.0471985131304309 4.1191795867108366e-26 1.145009728281008e-18 1.1450097282699234e-18 1.1084442521917861e-29
1.048180758391296 4.126604685027808e-26 1.1481496109477408e-18 1.148149610936407e-18 1.1333461573105657e-29
1.0501480137395462 4.141443304976888e-26 1.154440804291093e-18 1.1544408042792455e-18 1.1847690552858249e-29
1.0521189612883777 4.156266197674925e-26 1.1607471760244964e-18 1.1607471760121122e-18 1.238425094082856e-29
1.0531058218030118 4.16366019635481e-26 1.1639028334351633e-18 1.163902833422502e-18 1.266121024092959e-29
1.0540936079674168 4.1710126491062216e-26 1.167051764901384e-18 1.1670517648884396e-18 1.294416172705326e-29
1.058054026499678 4.200379425703245e-26 1.1796843007810435e-18 1.1796843007669059e-18 1.4137777354200022e-29
1.0590464539527713 4.2077101464670294e-26 1.1828515918799829e-18 1.1828515918655307e-18 1.4452268978428147e-29
1.06003981227728 4.215036392242923e-26 1.1860225276054142e-18 1.1860225275906408e-18 1.4773458414404453e-29
1.0620293250338977 4.2296752882094943e-26 1.1923752963153902e-18 1.192375296299954e-18 1.5436476485191748e-29
1.0660195594769086 4.2588975080301677e-26 1.2051241652547119e-18 1.205124165237863e-18 1.6849038187387154e-29
1.070024785945596 4.288043377618522e-26 1.217930316012995e-18 1.2179303159946103e-18 1.8384932607294916e-29
1.0740450607676866 4.317110210919152e-26 1.2307931517961019e-18 1.2307931517760474e-18 2.005437178205875e-29
1.07808044048254 4.3460953437988796e-26 1.2437120707296822e-18 1.243712070707814e-18 2.1868363900246305e-29
1.0861967418109137 4.4037584707676147e-26 1.2697008793149303e-18 1.2697008792889518e-18 2.5978375429155413e-29
1.0902777775684922 4.4323141611174895e-26 1.282735543275817e-18 1.2827355432475156e-18 2.8300942069967543e-29
1.0943741465085532 4.460775685956431e-26 1.2958228763770716e-18 1.2958228763462501e-18 3.082127608097179e-29
1.1026131145906286 4.517406129897298e-26 1.3221530269191646e-18 1.3221530268826442e-18 3.6520210539019104e-29
1.1109141095355224 4.573629832875614e-26 1.3486862436010756e-18 1.3486862435578583e-18 4.3217692510575513e-29
1.1192775983109025 4.6293747356369547e-26 1.3754017796369086e-18 1.3754017795858307e-18 5.107840467277822e-29
1.1277040513999907 4.684380580050196e-26 1.4022218997670612e-18 1.4022218997067688e-18 6.029239225516767e-29
1.1361939428280308 4.738914804299762e-26 1.4292256566101511e-18 1.4292256565390722e-18 7.107864483203637e-29
1.1447477501889525 4.7929592560698144e-26 1.4564077083990772e-18 1.4564077083153879e-18 8.368919790652219e-29
1.1533659546722406 4.8465258693300384e-26 1.483771742379522e-18 1.4837717422811076e-18 9.841386945446109e-29
1.1707974979042381 4.9524004194706236e-26 1.5391004685702028e-18 1.5391004684346165e-18 1.355860776365236e-28
1.1884924949847024 5.0561357349136453e-26 1.5950878280408464e-18 1.5950878278549681e-18 1.8587831825977182e-28
1.2064549276569216 5.1585496202528585e-26 1.651992788084559e-18 1.6519927878309716e-18 2.535869075037279e-28
1.2246888378427687 5.258516880778464e-26 1.709458118280857e-18 1.7094581179365676e-18 3.442893013922958e-28
1.2431983285522175 5.355803567221372e-26 1.767398535477629e-18 1.7673985350124275e-18 4.652014910782329e-28
1.2619875648066055 5.450374151572256e-26 1.8257900033641777e-18 1.825790002738566e-18 6.256116124545824e-28
1.3004222497298317 5.629789512489684e-26 1.9433274365589824e-18 1.943327435443256e-18 1.1157269231254665e-27
1.3400274889804893 5.79606722041994e-26 2.0616576701703658e-18 2.0616576682165557e-18 1.9538095005951092e-27
1.3808389325824078 5.948597575213145e-26 2.180354177140872e-18 2.1803541737798044e-18 3.361068550907884e-27
1.4228933163050095 6.08814207792173e-26 2.299463664547714e-18 2.2994636588649996e-18 5.682714622365528e-27
1.466228494730424 6.218103724636778e-26 2.4200762557369847e-18 2.4200762462891212e-18 9.44786298461824e-27
1.5108834753276823 6.335938074234798e-26 2.541038985978036e-18 2.5410389705254353e-18 1.545260090070584e-26
1.5568984535646726 6.439590457045541e-26 2.6612640570484405e-18 2.661264032159292e-18 2.488914939645517e-26
1.6043148490894465 6.529264133560781e-26 2.78050239887629e-18 2.780502359325878e-18 3.955041260053955e-26
1.6531753430134553 6.605246590805632e-26 2.8985272509937392e-18 2.8985271890592896e-18 6.193444969037443e-26
1.7035239163302658 6.66846651367587e-26 3.0153910596969033e-18 3.0153909640963887e-18 9.560051490382189e-26
1.755405889504358 6.724239003635313e-26 3.1332144846406558e-18 3.133214339110165e-18 1.455304901461416e-25
1.8088679632656115 6.771260597818636e-26 3.2512160366834403e-18 3.2512158181239344e-18 2.185595072395043e-25
1.8639582606462262 6.808652058965054e-26 3.3687342896715675e-18 3.3687339657185587e-18 3.239530087769752e-25
1.9207263702978936 6.837063403586023e-26 3.4858166453332e-18 3.485816171246726e-18 4.740864737975762e-25
1.979223391128241 6.857998224458327e-26 3.602978050116813e-18 3.602977364838934e-18 6.852778802550133e-25
2.039501978296691 6.873253539074694e-26 3.720967941620147e-18 3.720966962878975e-18 9.787411712132533e-25
2.1016163906111602 6.887849367272855e-26 3.842434922028189e-18 3.842433540232177e-18 1.3817960116735825e-24
2.1656225393682647 6.904697065646251e-26 3.9691437239203784e-18 3.969141794848229e-18 1.9290721500762286e-24
2.231578038680979 6.924007973599733e-26 4.101465579330163e-18 4.101462915412132e-18 2.663918030800782e-24
2.299542257339062 6.947525683329189e-26 4.240733575686926e-18 4.240729935710861e-18 3.6399760647857705e-24
2.369576372248914 6.979101923866454e-26 4.389748960296782e-18 4.389744037328837e-18 4.922967945494008e-24
2.4417434235010123 7.023284350554841e-26 4.552078174108782e-18 4.552071581725171e-18 6.592383610255819e-24
2.5161083711144245 7.087858676703817e-26 4.7338427284642164e-18 4.733833984850862e-18 8.743613355582226e-24
2.5927381535095444 7.185566276471834e-26 4.9452595593878524e-18 4.945248069514056e-18 1.1489873796496905e-23
2.6717017477616296 7.331623850942414e-26 5.1994521164226426e-18 5.199437152919494e-18 1.4963503148560174e-23
2.753070231689431 7.548939844749964e-26 5.5166151553939996e-18 5.5165958375723386e-18 1.9317821660072456e-23
2.836916847834745 7.889415571798453e-26 5.941018058658564e-18 5.9409933290536665e-18 2.4729604898145788e-23
2.9233170693905177 8.467361483175209e-26 6.570424909270735e-18 6.570393513649162e-18 3.139562157283929e-23
2.967498994190263 8.958234922190361e-26 7.056388130024372e-18 7.05635291673822e-18 3.521328615002484e-23
3.0123486681368425 9.531558849206819e-26 7.621467553496922e-18 7.621428110389484e-18 3.944310744050028e-23
3.0578761833420214 1.0814361379455065e-25 8.777891483278565e-18 8.777847348614006e-18 4.413466456155916e-23
3.1040917844459814 1.2467636107557625e-25 1.027278279183629e-17 1.0272733497657694e-17 4.929417859794975e-23
3.127460860933648 1.4216434427150517e-25 1.1801901961216801e-17 1.1801849882913684e-17 5.2078303119814524e-23
3.1510058709225794 1.6546626410018152e-25 1.3839745594887107e-17 1.3839690598562594e-17 5.499632451567006e-23
3.162844764501044 1.8715438028291868e-25 1.5712572911692035e-17 1.5712516399089014e-17 5.651260302524836e-23
3.1747281389236908 2.1237788880143886e-25 1.7897207513447264e-17 1.7897149449385556e-17 5.80640617076572e-23
3.1986289994194426 2.8273846118748075e-25 2.400591109579711e-17 2.4005849813028856e-17 6.12827682513404e-23
3.2227097969389145 4.4859046041384535e-25 3.8374317646613806e-17 3.837425293597448e-17 6.471063931902688e-23
3.2348180950136065 6.058707453121707e-25 5.2023465597070205e-17 5.202339905248856e-17 6.654458166068708e-23
3.240889293275058 7.234564630517399e-25 6.223662448901799e-17 6.223655697684462e-17 6.75121733722569e-23
3.2469718861334385 8.594833177238541e-25 7.407734577040455e-17 7.407727725685975e-17 6.85135448326839e-23
3.2714166318528037 1.5850791673880461e-24 1.3764367149931647e-16 1.3764359883335526e-16 7.266596118463075e-23
3.2744851364798273 1.6304334201744902e-24 1.4171490346298092e-16 1.4171483030387892e-16 7.315910201426137e-23
3.2775565192852394 1.6770903348661568e-24 1.4590698343229102e-16 1.459069097772103e-16 7.365508073781105e-23
3.283707930232385 1.6322021301675243e-24 1.4226821912267415e-16 1.422681445731524e-16 7.454952175906142e-23
3.2898708863219004 1.4898785151772104e-24 1.3010654508255796e-16 1.3010646971211843e-16 7.53704395026326e-23
3.29141343181113 1.456315423877898e-24 1.2723521245369186e-16 1.2723513687691845e-16 7.557677345404405e-23
3.292184975758714 1.4398237636576168e-24 1.2582385842266415e-16 1.2582378274255762e-16 7.568010653013925e-23
3.295272960557952 1.3357275070891856e-24 1.168365427336691e-16 1.1683646665032197e-16 7.608334707742798e-23
3.3076538914384823 9.751187964464205e-25 8.561443999669299e-17 8.56143622899453e-17 7.770674769862791e-23
3.310756385682612 9.017285902914929e-25 7.924511465582097e-17 7.924503653908148e-17 7.811673950929066e-23
3.313861789986515 8.340157342938875e-25 7.336316657736974e-17 7.336308804897354e-17 7.852839619308923e-23
3.3200813396944477 7.390546725256955e-25 6.5132046442436e-17 6.513196703168892e-17 7.941074708021177e-23
3.345076488085796 5.696438191833543e-25 5.058000585681564e-17 5.057992252075076e-17 8.333606486874562e-23
3.3482140837626964 5.759931988572739e-25 5.119175366707394e-17 5.1191669799418576e-17 8.386765534166261e-23
3.3513546224236106 5.824127697108381e-25 5.181084872075271e-17 5.1810764318685804e-17 8.440206691354394e-23
3.3576445397418455 6.293402032753048e-25 5.609054067749661e-17 5.609045515920042e-17 8.551829618357974e-23
3.3702598118196083 8.024374796922291e-25 7.178670504249106e-17 7.178661718158968e-17 8.786090136685515e-23
3.382922481734668 8.418465180120665e-25 7.559523112923227e-17 7.559514097747137e-17 9.01517609141405e-23
3.389271646505754 8.622629619149606e-25 7.757388519644589e-17 7.75737938806359e-17 9.13158099863251e-23
3.395632727569191 8.84261233947073e-25 7.97022771573728e-17 7.970218464171046e-17 9.25156623334625e-23
3.421196662673239 9.898834108950254e-25 8.989416834207908e-17 8.989407084284739e-17 9.749923172274411e-23
3.4276182099114902 9.685788445254007e-25 8.812453807402964e-17 8.81244394473939e-17 9.862663575822243e-23
3.4340518103208963 8.752580528824553e-25 7.97833727097712e-17 7.978327300944508e-17 9.970032614067926e-23
3.4469541582030403 7.4235454432050555e-25 6.792291440243113e-17 6.792281262611021e-17 1.0177632093516841e-22
3.472904465399547 7.050938270136243e-25 6.499937522574115e-17 6.499926868620915e-17 1.065395320003483e-22
3.4990501388274233 6.481149717543129e-25 6.019655708229031e-17 6.019644563137415e-17 1.1145091616923655e-22
3.5253949054701885 4.453865113602165e-25 4.167870972967992e-17 4.167859344993726e-17 1.1627974266979456e-22
3.5519380250092896 2.54867686739165e-25 2.402976865748978e-17 2.4029647476502583e-17 1.211809871951792e-22
3.578680990867387 1.7932753152783389e-25 1.7034892210311993e-17 1.7034765646378203e-17 1.2656393379391873e-22
3.605625307711299 1.4877087360360154e-25 1.423862130940248e-17 1.4238489044281558e-17 1.32265120922904e-22
3.660119384959845 1.2647283620508734e-25 1.2287455055353957e-17 1.2287310674117064e-17 1.4438123689745218e-22
3.715437065384467 1.106833361346294e-25 1.0915951143303497e-17 1.0915793783750971e-17 1.5735955252783806e-22
3.8285932144167436 1.0265316286885473e-25 1.0432322240986753e-17 1.0432136252294503e-17 1.8598869224777525e-22
3.94519561050918 1.0109307688081619e-25 1.05866703291859e-17 1.0586451972678347e-17 2.1835650754878714e-22
4.06534921144712 1.0218983943778076e-25 1.1027447708118844e-17 1.1027192949488604e-17 2.5475863024114744e-22
4.189162171576248 1.0482521642172009e-25 1.1656344487546117e-17 1.165604886561709e-17 2.9562192902514043e-22
4.316745939156006 1.0858237201063995e-25 1.2441858185866991e-17 1.244151695359245e-17 3.4123227453838445e-22
4.448215356677963 1.1332114754672645e-25 1.3380310814963657e-17 1.337991932301003e-17 3.9149195362958186e-22
4.58368876423945 1.1905800021923636e-25 1.4485821777469197e-17 1.4485374833124826e-17 4.469443443730066e-22
4.723288106065518 1.2592513143461943e-25 1.578796965113962e-17 1.5787461206276193e-17 5.0844486342476855e-22
4.867139040275056 1.341875558737881e-25 1.73362606770607e-17 1.733568533427421e-17 5.753427864873244e-22
4.940699165968905 1.3917499607291712e-25 1.8252361502387167e-17 1.8251750327006597e-17 6.111753805706912e-22
5.015371051989984 1.4434008496559142e-25 1.9215843745785083e-17 1.9215195124567784e-17 6.48621217300866e-22
5.091171501069577 1.5064618336253128e-25 2.0358477353005738e-17 2.0357788959489314e-17 6.883935164257152e-22
5.129500256944802 1.5388279056467913e-25 2.0952436943224755e-17 2.0951728012461178e-17 7.089307635759814e-22
5.168117569889187 1.5725736401690485e-25 2.1573112566974197e-17 2.1572382525231406e-17 7.300417427912268e-22
5.20702561229733 1.6140124861022636e-25 2.2308277442492035e-17 2.230752467869432e-17 7.527637977147256e-22
5.246226572918644 1.6565100579304797e-25 2.3068032419174468e-17 2.306725640024585e-17 7.760189286220634e-22
5.265937586045735 1.6781664550946814e-25 2.3457416341998123e-17 2.3456628492887348e-17 7.878491107757111e-22
5.285722656980489 1.7001004252599889e-25 2.3853295091558334e-17 2.3852495275721544e-17 7.99815836795899e-22
5.305582063971359 1.7223164617723125e-25 2.4255789888776962e-17 2.42549779685584e-17 8.1192021856392425e-22
5.3255160863122235 1.7461883831077116e-25 2.4684380289231273e-17 2.4683556064014127e-17 8.242252171460428e-22
5.365609099470188 1.8056760758834485e-25 2.5717473846019595e-17 2.571662410387466e-17 8.497421449403316e-22
5.406003951863644 1.8674318276042273e-25 2.6797269768653336e-17 2.6796393902239827e-17 8.758664134968957e-22
5.446702915881641 1.931565452654594e-25 2.792624539956915e-17 2.7925342790794146e-17 9.026087750083065e-22
5.487708281020852 2.0008741085797668e-25 2.91460841418264e-17 2.9145154085057613e-17 9.300567687934826e-22
5.529022354014368 2.097265282340605e-25 3.078017938563409e-17 3.077922055998541e-17 9.588256486812076e-22
5.570647458961463 2.1993478088430607e-25 3.252138424997575e-17 3.25203959562858e-17 9.882936899510493e-22
5.612585937458331 2.3075319113695105e-25 3.437796400555142e-17 3.437694553120295e-17 1.0184743484631977e-21
5.654840148729818 2.426468223290501e-25 3.642204897873881e-17 3.642099949674353e-17 1.049481995291175e-21
5.67608639626678 2.507501225449199e-25 3.7779793889186915e-17 3.7778728185637065e-17 1.0657035498521842e-21
5.686739436050992 2.5492715748399874e-25 3.8481222985836216e-17 3.848014909588676e-17 1.0738899494668983e-21
5.6974124697621304 2.5919045178593808e-25 3.91981972058199e-17 3.9197115078708476e-17 1.0821271114317424e-21
5.718818669136295 2.6798413497418106e-25 4.068036522041664e-17 4.067926646564226e-17 1.0987547743894204e-21
5.740305295436557 2.7767852857613506e-25 4.231036025128275e-17 4.2309244570928697e-17 1.1156803540620532e-21
5.7835210386641895 3.0283396563843547e-25 4.649072689155212e-17 4.6489576005073e-17 1.150886479114937e-21
5.827062130521658 3.3181678538684584e-25 5.132363803252399e-17 5.132245081066766e-17 1.1872218563466236e-21
5.8489554468988025 3.5215277867350103e-25 5.4673750408777145e-17 5.467254369787391e-17 1.2067109032323288e-21
5.870931020387893 3.7397706986740744e-25 5.82802472204333e-17 5.82790207508444e-17 1.2264695888987621e-21
5.892989160043636 3.974095009183841e-25 6.216462539184653e-17 6.21633788905796e-17 1.246501266911366e-21
5.915130176081913 4.240609974326861e-25 6.65828024127933e-17 6.658153515981994e-17 1.267252973367385e-21
5.95966208400165 4.985877222969155e-25 7.887377887957509e-17 7.887246536341444e-17 1.3135161606677401e-21
6.004529249263818 6.060192255040456e-25 9.659058576194208e-17 9.658922059091691e-17 1.3651710251446768e-21
6.027089341400364 6.807026601982977e-25 1.089016625777941e-16 1.0890026806164534e-16 1.3945161487118206e-21
6.049734195844842 7.689628792429462e-25 1.2348411740865739e-16 1.2348269185908946e-16 1.4255495678835445e-21
6.095279466722835 1.0239210634114106e-24 1.6566453004557344e-16 1.656630300545822e-16 1.499990991206154e-21
6.141167624020661 1.416310270050037e-24 2.308759997589594e-16 2.3087440536461894e-16 1.5943943404362794e-21
6.164241091010745 1.66688789744159e-24 2.727441489138526e-16 2.7274249641079205e-16 1.6525030605617422e-21
6.187401249150058 1.9523402996952665e-24 3.206514681045522e-16 3.206497554622594e-16 1.7126422926731658e-21
6.1990139391386085 2.0917185719183643e-24 3.4418766212166927e-16 3.4418591878305517e-16 1.7433386140964695e-21
6.204828454712694 2.1651385929547653e-24 3.566029350416369e-16 3.56601176148753e-16 1.7588928839170127e-21
6.210648424152782 2.2187321657769006e-24 3.6577267441999257e-16 3.657709019770201e-16 1.7724429723707345e-21
6.233982942956859 2.4008086043081278e-24 3.972762306020191e-16 3.9727440958008445e-16 1.821021934766817e-21
6.239830258556775 2.4240808491462773e-24 4.015034758604808e-16 4.0150164712218726e-16 1.8287382935513e-21
6.245683058788269 2.4260933484880934e-24 4.0221372117507153e-16 4.022118846911351e-16 1.836483936220108e-21
6.257405133728602 2.421078592047687e-24 4.021356676034234e-16 4.021338169815248e-16 1.8506218986061255e-21
6.269149208991335 2.3852520144988722e-24 3.9692852540941126e-16 3.9692666682895654e-16 1.8585804548432718e-21
6.280915325867298 2.2954278660164605e-24 3.826978490423145e-16 3.8269599019256067e-16 1.8588497538325427e-21
6.304513850009849 2.073926949451989e-24 3.4706793452806556e-16 3.470660821361129e-16 1.852391952655998e-21
6.32820103803542 1.79938268690334e-24 3.0225482208880384e-16 3.022529836292388e-16 1.8384595650368742e-21
6.3519772230701035 1.5476098087917531e-24 2.6093950776920026e-16 2.60937680888293e-16 1.8268809072980337e-21
6.375842739491607 1.3358040137603785e-24 2.260735602679905e-16 2.260717425524565e-16 1.8177155340656674e-21
6.399797922933955 1.1660463280463396e-24 1.980849589644979e-16 1.980831413736689e-16 1.817590829030636e-21
6.42384311029221 1.0249138836850659e-24 1.747639028527831e-16 1.7476208354289416e-16 1.8193098889162282e-21
6.447978639727206 9.220660843283977e-25 1.5781746792642264e-16 1.578156396905427e-16 1.828235879919772e-21
6.472204850670314 8.363927482999876e-25 1.436917871797959e-16 1.4368994848653047e-16 1.8386932654339547e-21
6.496522083828205 7.807108869846714e-25 1.3462961001930907e-16 1.3462775489762986e-16 1.8551216792538654e-21
6.520930681187647 7.338069044805758e-25 1.2701669567082226e-16 1.2701482305068017e-16 1.8726201420504695e-21
