Dust emission spectrum from A.P. Jones, M. Kohler, N. Ysard, M. Bocchio, and L. Verstraete (2017), A&A, 602A, 46J 
inside the DustPedia framework.

lambda    nu*dP/dnu     j_nu    j_nu(carb.) j_nu(sil)
 (um)   (erg s-1 H-1) (Jy cm2 sr-1 H-1)
0.9927057738263894 1.1663604165048444e-20 3.0734259454393674e-13 3.0734258056190484e-13 1.398203181696796e-20
1.0001793341362166 1.1859357309856573e-20 3.1485345547218587e-13 3.148534386489498e-13 1.6823236021774888e-20
1.0077091589558085 1.2055938927560846e-20 3.224821481839093e-13 3.2248212796921976e-13 2.0214689477469317e-20
1.0114953028030835 1.2154532360244586e-20 3.263409380886748e-13 3.2634091594103527e-13 2.214763939311711e-20
1.0152956718711033 1.2253323408604382e-20 3.3022949781967435e-13 3.302294735623929e-13 2.425728143313965e-20
1.0229392996569957 1.2451389955544965e-20 3.3809374148422024e-13 3.3809371241455043e-13 2.9069669869465085e-20
1.0267826658714554 1.2550440904035082e-20 3.420636648772089e-13 3.4206363306920593e-13 3.180800304080294e-20
1.0306404723013447 1.2649673009333917e-20 3.460636030320523e-13 3.460635682394305e-13 3.479262170986823e-20
1.03451277320114 1.2749083633568124e-20 3.500936716332017e-13 3.5009363358865633e-13 3.804454535955931e-20
1.0383996230291617 1.284867023640156e-20 3.5415398902481193e-13 3.5415394743832834e-13 4.1586483568926046e-20
1.0403485208654093 1.2898528763191565e-20 3.561955287542316e-13 3.561954852804335e-13 4.3473798061570184e-20
1.0423010764483396 1.2948430377404091e-20 3.5824467632213e-13 3.5824463087916716e-13 4.544296290325608e-20
1.0462171883269815 1.3048361718402813e-20 3.6236585752439354e-13 3.623658078839309e-13 4.9640462595020314e-20
1.0471985131304309 1.3073371039572628e-20 3.6340093231260905e-13 3.634008815661866e-13 5.074642254507348e-20
1.048180758391296 1.3098390886757075e-20 3.6443792290635233e-13 3.6443787103041305e-13 5.187593925620005e-20
1.0501480137395462 1.3148462025814393e-20 3.6651765962921395e-13 3.6651760542165427e-13 5.4207559568259056e-20
1.0521189612883777 1.3198574873098291e-20 3.6860508405518077e-13 3.686050274159319e-13 5.663924883083278e-20
1.0531058218030118 1.3223613895806022e-20 3.696507629286295e-13 3.696507050346576e-13 5.78939717943048e-20
1.0540936079674168 1.3248555266645625e-20 3.7069534683970555e-13 3.7069528766416595e-13 5.917553968407837e-20
1.058054026499678 1.334841912057177e-20 3.7489281040718386e-13 3.748927458287828e-13 6.457840102504011e-20
1.0590464539527713 1.3373409530190672e-20 3.759469688027599e-13 3.759469028016943e-13 6.600106569684819e-20
1.06003981227728 1.3398409661223333e-20 3.770030484562675e-13 3.770029810025993e-13 6.745366815891595e-20
1.0620293250338977 1.3448438977046546e-20 3.791209801597678e-13 3.791209097086773e-13 7.045109054876419e-20
1.0660195594769086 1.354861307581864e-20 3.833799942959171e-13 3.8337991746364103e-13 7.683227611524332e-20
1.070024785945596 1.3648939773661308e-20 3.8766999463074283e-13 3.8766991086712795e-13 8.376361489974831e-20
1.0740450607676866 1.3749417546550704e-20 3.9199112671892546e-13 3.919910354289571e-13 9.128996838529829e-20
1.07808044048254 1.3850044991816008e-20 3.9634353997890306e-13 3.9634344051927146e-13 9.945963155327142e-20
1.0861967418109137 1.405159088423181e-20 4.051384157399733e-13 4.0513829779924474e-13 1.1794072854293514e-19
1.0902777775684922 1.4152159259109367e-20 4.0957109617840413e-13 4.0957096781017257e-13 1.2836823144974974e-19
1.0943741465085532 1.4252866987558542e-20 4.140354143917898e-13 4.1403527472009495e-13 1.396716948839828e-19
1.1026131145906286 1.4454697696192788e-20 4.2305964446586647e-13 4.230594792763677e-13 1.6518949888014537e-19
1.1109141095355224 1.4657078749262336e-20 4.3221251397337086e-13 4.3221231885951455e-13 1.9511385613797654e-19
1.1192775983109025 1.4859850836696917e-20 4.4149083738238036e-13 4.4149060722348214e-13 2.301588982857509e-19
1.1277040513999907 1.5062291377425246e-20 4.508744426114057e-13 4.508741714650048e-13 2.7114640093430068e-19
1.1361939428280308 1.526525969172882e-20 4.603902308275286e-13 4.603899118068079e-13 3.1902072072214797e-19
1.1447477501889525 1.5468760922847154e-20 4.70039936577522e-13 4.700395617119369e-13 3.748655850606485e-19
1.1533659546722406 1.567287324013396e-20 4.798275519949223e-13 4.798271120713203e-13 4.399236019874487e-19
1.1707974979042381 1.6083551220784083e-20 4.998424829070603e-13 4.998418793309435e-13 6.035761166970551e-19
1.1884924949847024 1.649679314282674e-20 5.204336933070895e-13 5.204328693595403e-13 8.239475491762822e-19
1.2064549276569216 1.691537952093382e-20 5.417042973975728e-13 5.417031781877258e-13 1.1192098471406595e-18
1.2246888378427687 1.733668855708301e-20 5.635874842646708e-13 5.635859714544782e-13 1.5128101923542089e-18
1.2431983285522175 1.7760412307996488e-20 5.860880875979744e-13 5.860860527031165e-13 2.0348948580952025e-18
1.2619875648066055 1.818720991431342e-20 6.092430561131375e-13 6.0924033208685e-13 2.7240262873028015e-18
1.3004222497298317 1.9047611908620064e-20 6.574978823067819e-13 6.57493069740073e-13 4.812566708762893e-18
1.3400274889804893 1.9920747144839156e-20 7.085797935881504e-13 7.085714473943483e-13 8.346193802037942e-18
1.3808389325824078 2.0810056368684167e-20 7.627561413644922e-13 7.627419262150884e-13 1.4215149403912437e-17
1.4228933163050095 2.172307444251235e-20 8.204706743616902e-13 8.20446885065922e-13 2.3789295768224795e-17
1.466228494730424 2.2675416478952658e-20 8.825236670182111e-13 8.824845291865626e-13 3.913783164853185e-17
1.5108834753276823 2.366546007751571e-20 9.491073929938433e-13 9.490440660179964e-13 6.332697584711703e-17
1.5568984535646726 2.469252957837778e-20 1.0204583953416705e-12 1.020357512424301e-12 1.008829173696249e-16
1.6043148490894465 2.5762440677149764e-20 1.0970995603551687e-12 1.096941034914968e-12 1.585254402005941e-16
1.6531753430134553 2.6881252136152058e-20 1.1796083732275482e-12 1.1793629509806127e-12 2.4542224693557144e-16
1.7035239163302658 2.805589999923268e-20 1.2686501440164337e-12 1.2682757202890435e-12 3.744237273904237e-16
1.755405889504358 2.930671877664235e-20 1.3655706722890624e-12 1.365007471003093e-12 5.632012859689537e-16
1.8088679632656115 3.0633090213740304e-20 1.470845682533139e-12 1.470010142376992e-12 8.355401561474422e-16
1.8639582606462262 3.20336013690553e-20 1.5849347333223822e-12 1.583711678899968e-12 1.223054422414313e-15
1.9207263702978936 3.351107884851949e-20 1.708532882581931e-12 1.7067657838876893e-12 1.7670986942420164e-15
1.979223391128241 3.507010938094431e-20 1.8424740015840164e-12 1.839952970199679e-12 2.5210313843364323e-15
2.039501978296691 3.67142098827415e-20 1.9875943350401415e-12 1.9840416990557025e-12 3.5526359844389215e-15
2.1016163906111602 3.8457577484972237e-20 2.145382845434816e-12 2.1404356947604975e-12 4.947150674318311e-15
2.1656225393682647 4.030581636616254e-20 2.316967370852611e-12 2.3101575080052913e-12 6.809862847320394e-15
2.231578038680979 4.2252198899990813e-20 2.5028269768041448e-12 2.493557975954006e-12 9.269000850139181e-15
2.299542257339062 4.429574923201627e-20 2.7037895157287927e-12 2.6913108304760256e-12 1.2478685252767226e-14
2.369576372248914 4.6439292600512127e-20 2.920960871955264e-12 2.9043388677866267e-12 1.662200416863697e-14
2.4417434235010123 4.868677678389373e-20 3.1555893639442395e-12 3.1336762543368735e-12 2.1913109607366036e-14
2.5161083711144245 5.105023851806759e-20 3.4095459773967015e-12 3.380945889519249e-12 2.860008787745324e-14
2.5927381535095444 5.3552074390566093e-20 3.685567672963269e-12 3.648601385038664e-12 3.696628792460454e-14
2.6717017477616296 5.621043136300752e-20 3.986339892189797e-12 3.939010888398814e-12 4.732900379098365e-14
2.753070231689431 5.905364343747941e-20 4.31552285576893e-12 4.255483814644367e-12 6.003904112456326e-14
2.836916847834745 6.216629736005437e-20 4.68134923170018e-12 4.605867647836938e-12 7.54815838632419e-14
2.9233170693905177 6.573761485717405e-20 5.101046683690812e-12 5.006993332415544e-12 9.405335127526979e-14
2.967498994190263 6.787419380790206e-20 5.34644000387464e-12 5.2420085689562765e-12 1.0443143491836586e-13
3.0123486681368425 7.015118214332348e-20 5.609312883687273e-12 5.493507645390821e-12 1.1580523829645196e-13
3.0578761833420214 7.37239867937751e-20 5.984090350631775e-12 5.8557985752268964e-12 1.2829177540487994e-13
3.1040917844459814 7.78593775026165e-20 6.415269634851809e-12 6.273428859363001e-12 1.418407754888102e-13
3.127460860933648 8.156163287411979e-20 6.77091291708687e-12 6.621833106358813e-12 1.490798107280581e-13
3.1510058709225794 8.621742873211774e-20 7.211302472964399e-12 7.0546882138235785e-12 1.5661425914082222e-13
3.162844764501044 9.036232936520508e-20 7.586382357040141e-12 7.42587330500142e-12 1.6050905203871957e-13
3.1747281389236908 9.503514630362382e-20 8.008666740523944e-12 7.8441867210164e-12 1.6448001950754748e-13
3.1986289994194426 1.0761086519263698e-19 9.136701288910583e-12 8.96402650706358e-12 1.7267478184700463e-13
3.2227097969389145 1.364847487246143e-19 1.1675480340453015e-11 1.1494133477739648e-11 1.8134686271336848e-13
3.2348180950136065 1.6348095948427678e-19 1.403739351554965e-11 1.3851421572063958e-11 1.8597194348569308e-13
3.240889293275058 1.8362493172797116e-19 1.5796660208919845e-11 1.5608248635610124e-11 1.8841157330972064e-13
3.2469718861334385 2.0696434008961415e-19 1.7837890121664707e-11 1.764695426025153e-11 1.9093586141317735e-13
3.2714166318528037 3.292063097108321e-19 2.858731985230035e-11 2.8385961656778382e-11 2.0135819552197963e-13
3.2744851364798273 3.3685067556198006e-19 2.9278571193417455e-11 2.9075987380774486e-11 2.0258381264296362e-13
3.2775565192852394 3.4469755478499342e-19 2.998871281383841e-11 2.978489749795914e-11 2.0381531587926946e-13
3.283707930232385 3.3720490765034822e-19 2.939191219283421e-11 2.918589988504483e-11 2.0601230778938856e-13
3.2898708863219004 3.133229383299995e-19 2.736153625007665e-11 2.7153529457840934e-11 2.080067922357233e-13
3.29141343181113 3.0767874591037913e-19 2.6881244242507467e-11 2.6672736748768023e-11 2.0850749373943992e-13
3.292184975758714 3.049035598117569e-19 2.6645026503009998e-11 2.6436268346198876e-11 2.0875815681112596e-13
3.295272960557952 2.876063554514408e-19 2.515702645998848e-11 2.4947294197380762e-11 2.0973226260771546e-13
3.3076538914384823 2.2721444773394064e-19 1.9949197751894706e-11 1.9735555443763083e-11 2.1364230813162337e-13
3.310756385682612 2.147909369636814e-19 1.8876114842067824e-11 1.8661487473773424e-11 2.1462736829440666e-13
3.313861789986515 2.032767127881837e-19 1.7880985607790304e-11 1.7665370157110218e-11 2.1561545068008687e-13
3.3200813396944477 1.872152744377528e-19 1.6499068881793945e-11 1.628132587260403e-11 2.1774300918992e-13
3.345076488085796 1.5932049355305356e-19 1.4146438924900184e-11 1.3919208464007455e-11 2.272304608927295e-13
3.3482140837626964 1.6049173900669225e-19 1.4263803088526969e-11 1.4035287134446931e-11 2.285159540800408e-13
3.3513546224236106 1.6167324904070326e-19 1.4382288101957767e-11 1.415248112657086e-11 2.298069753869079e-13
3.3576445397418455 1.698206756148988e-19 1.5135428284867703e-11 1.4902921206623676e-11 2.3250707824402623e-13
3.3702598118196083 1.992147022160137e-19 1.782190816111148e-11 1.758373792853948e-11 2.3817023257199675e-13
3.382922481734668 2.0632630240716386e-19 1.8527468113000932e-11 1.8283801518914594e-11 2.4366659408634355e-13
3.389271646505754 2.0998929244783856e-19 1.8891783579169997e-11 1.864533265407036e-11 2.4645092509963296e-13
3.395632727569191 2.1402076185822543e-19 1.9290613931942834e-11 1.9041293579198052e-11 2.493203527447743e-13
3.421196662673239 2.335478050906402e-19 2.1209149962174188e-11 2.0947960259023286e-11 2.611897031509018e-13
3.4276182099114902 2.3012422981861936e-19 2.09374709834227e-11 2.0673641333144836e-11 2.638296502778663e-13
3.4340518103208963 2.1439665752957205e-19 1.954313745423855e-11 1.9276815200693578e-11 2.663222535449699e-13
3.4469541582030403 1.9184418879240736e-19 1.7553090384699873e-11 1.728199266142855e-11 2.710977232713289e-13
3.472904465399547 1.8576325872333219e-19 1.7124665249240637e-11 1.6842553531090718e-11 2.821117181499185e-13
3.4990501388274233 1.7648271382146753e-19 1.639161602429188e-11 1.6098253092689863e-11 2.933629316020168e-13
3.5253949054701885 1.4308700929272648e-19 1.3389902420229108e-11 1.3085640490509552e-11 3.042619297195544e-13
3.5519380250092896 1.113013945464085e-19 1.0493863684427593e-11 1.0178672622035833e-11 3.1519106239175864e-13
3.578680990867387 9.909496008320874e-20 9.413345230487491e-12 9.086178724278194e-12 3.271665062092991e-13
3.605625307711299 9.459500029717091e-20 9.053535509800392e-12 8.71377189219735e-12 3.397636176030398e-13
3.660119384959845 9.21914354755152e-20 8.95684918504572e-12 8.590690202673639e-12 3.661589823720791e-13
3.715437065384467 9.078389748574106e-20 8.953403684432053e-12 8.559521035658401e-12 3.938826487736546e-13
3.8285932144167436 9.197194997504384e-20 9.346823735936537e-12 8.893714245999643e-12 4.5310948993689613e-13
3.94519561050918 9.415443523379725e-20 9.860041820925621e-12 9.342884754159156e-12 5.171570667664673e-13
4.06534921144712 9.666978986397437e-20 1.04317714808513e-11 9.845949101914811e-12 5.858223789364919e-13
4.189162171576248 9.931580526039246e-20 1.1043709507031448e-11 1.0384605118875712e-11 6.591043881557356e-13
4.316745939156006 1.0199888654492264e-19 1.1687492711836408e-11 1.0950912826578958e-11 7.365798852574491e-13
4.448215356677963 1.0466652244542744e-19 1.2358422347106254e-11 1.1541421267910838e-11 8.170010791954168e-13
4.58368876423945 1.0730144428519187e-19 1.305539817163158e-11 1.2155068586345153e-11 9.00329585286427e-13
4.723288106065518 1.0990745047893007e-19 1.3779739380271411e-11 1.2792779530316722e-11 9.86959849954685e-13
4.867139040275056 1.1248310967863385e-19 1.4532171023290252e-11 1.3457857313013231e-11 1.0743137102770208e-12
4.940699165968905 1.1381010324499398e-19 1.4925835858930347e-11 1.3807332145800388e-11 1.1185037131299593e-12
5.015371051989984 1.150859935874169e-19 1.5321277319681573e-11 1.4158404087823246e-11 1.1628732318583289e-12
5.091171501069577 1.1648012351164882e-19 1.574124152140331e-11 1.4532810827523904e-11 1.2084306938793988e-12
5.129500256944802 1.1715534214496449e-19 1.5951685759315294e-11 1.4720471495442942e-11 1.2312142638723508e-12
5.168117569889187 1.1783163949760247e-19 1.6164554446936058e-11 1.4910307586232668e-11 1.2542468607033918e-12
5.20702561229733 1.1862994463093604e-19 1.639658763858356e-11 1.511703885894649e-11 1.2795487796370697e-12
5.246226572918644 1.194171264103388e-19 1.662964936584744e-11 1.532473454424126e-11 1.3049148216061827e-12
5.265937586045735 1.1980655211193005e-19 1.6746563875454647e-11 1.5428946131884647e-11 1.3176177435700023e-12
5.285722656980489 1.2019320712048543e-19 1.6863733429201932e-11 1.553340172696062e-11 1.3303317022413133e-12
5.305582063971359 1.2057709783919384e-19 1.6981157734371285e-11 1.5638102721302648e-11 1.3430550130686345e-12
5.3255160863122235 1.209822158472705e-19 1.710222707410874e-11 1.5746327299934084e-11 1.3558997741746547e-12
5.365609099470188 1.219696312195224e-19 1.737161411612562e-11 1.5989126717900836e-11 1.3824873982247785e-12
5.406003951863644 1.2295548833456433e-19 1.7643864379589675e-11 1.6234732485714723e-11 1.4091318938749523e-12
5.446702915881641 1.2394049031750188e-19 1.791910568079734e-11 1.6483285946642405e-11 1.4358197341549342e-12
5.487708281020852 1.2497051378701794e-19 1.820404939253825e-11 1.6741384244652634e-11 1.4626651478856166e-12
5.529022354014368 1.2640186167543955e-19 1.8551167607685944e-11 1.7060519507002358e-11 1.4906481006835848e-12
5.570647458961463 1.2786303251358535e-19 1.890689046553698e-11 1.738820758790442e-11 1.5186828776325655e-12
5.612585937458331 1.293575185036919e-19 1.9271881325047713e-11 1.7725125603899414e-11 1.5467557211483037e-12
5.654840148729818 1.309564694446145e-19 1.965697674674812e-11 1.8081968071906348e-11 1.5750086748417777e-12
5.67608639626678 1.3206949922189329e-19 1.989852849925296e-11 1.8308710698774556e-11 1.5898178004784011e-12
5.686739436050992 1.3263593615712505e-19 2.0021378206901452e-11 1.8424150173029328e-11 1.597228033872122e-12
5.6974124697621304 1.3320923543262215e-19 2.0145656771480276e-11 1.8541015015344012e-11 1.604641756136266e-12
5.718818669136295 1.3437719281185702e-19 2.0398645171317178e-11 1.8779166381923857e-11 1.619478789393316e-12
5.740305295436557 1.3565862389432085e-19 2.0670540418065615e-11 1.9036090521006224e-11 1.6344498970593928e-12
5.7835210386641895 1.390125134447978e-19 2.134104337816081e-11 1.967566842428509e-11 1.6653749538757199e-12
5.827062130521658 1.427810448148747e-19 2.2084605073371672e-11 2.0387938123276777e-11 1.6966669500949007e-12
5.8489554468988025 1.4548494451226054e-19 2.258737691765562e-11 2.0873726810441537e-11 1.713650107214075e-12
5.870931020387893 1.4833758590948925e-19 2.311679478624829e-11 2.1386123606573024e-11 1.7306711796752644e-12
5.892989160043636 1.5135092323090757e-19 2.3675008835009573e-11 2.1927280447401077e-11 1.7477283876084981e-12
5.915130176081913 1.5476397339759902e-19 2.4299851020811816e-11 2.2534413486388666e-11 1.765437534423152e-12
5.95966208400165 1.644173588979446e-19 2.600990323214874e-11 2.420362407867144e-11 1.8062791534773049e-12
6.004529249263818 1.782562291201687e-19 2.8411431290998053e-11 2.6558916701658776e-11 1.852514589339279e-12
6.027089341400364 1.878898935448854e-19 3.0059412111952143e-11 2.8179939069908982e-11 1.8794730420431663e-12
6.049734195844842 1.991573978970843e-19 3.198174602256243e-11 3.0073663761211874e-11 1.908082261350559e-12
6.095279466722835 2.3167750243472423e-19 3.7484085379694386e-11 3.550485626412295e-11 1.9792291155714494e-12
6.141167624020661 2.812149664639074e-19 4.584149949519401e-11 4.376891000724322e-11 2.072589487950793e-12
6.164241091010745 3.1275738892143823e-19 5.117485584292904e-11 4.90431807187718e-11 2.131675124157234e-12
6.187401249150058 3.4814905905355306e-19 5.717984048281175e-11 5.4987589493295304e-11 2.192250989516435e-12
6.1990139391386085 3.653118307827818e-19 6.011125333519281e-11 5.788819717305276e-11 2.22305616214004e-12
6.204828454712694 3.743074619892136e-19 6.164923575223909e-11 5.941063046439594e-11 2.238605287843135e-12
6.210648424152782 3.807892928338845e-19 6.27756338411298e-11 6.052388894865917e-11 2.251744892470658e-12
6.233982942956859 4.024136379460172e-19 6.658980351001822e-11 6.429270588719167e-11 2.2970976228265577e-12
6.239830258556775 4.049476539759113e-19 6.707197520665887e-11 6.476893022219096e-11 2.303044984467904e-12
6.245683058788269 4.0480950128021666e-19 6.711198313057817e-11 6.480298487517727e-11 2.3089982554008906e-12
6.257405133728602 4.0338983953368426e-19 6.700213820325285e-11 6.468292174329526e-11 2.3192164599575863e-12
6.269149208991335 3.980957432819287e-19 6.624690195927061e-11 6.3924909224416e-11 2.3219927348546132e-12
6.280915325867298 3.860517382073482e-19 6.436323790361242e-11 6.204765804501397e-11 2.3155798585984532e-12
6.304513850009849 3.5686475582350724e-19 5.972067325816597e-11 5.74262126863669e-11 2.2944605717990584e-12
6.32820103803542 3.214540614834978e-19 5.3996873967164794e-11 5.1732354493748664e-11 2.2645194734161525e-12
6.3519772230701035 2.8919389067240223e-19 4.876042465822258e-11 4.652301725971027e-11 2.2374073985123124e-12
6.375842739491607 2.6197236609400978e-19 4.4336612919719965e-11 4.212340472336376e-11 2.2132081963562155e-12
6.399797922933955 2.4038390269236515e-19 4.0835800735569665e-11 3.8636362297400635e-11 2.1994384381690317e-12
6.42384311029221 2.22343520597538e-19 3.791305986991003e-11 3.572530174850422e-11 2.187758121405806e-12
6.447978639727206 2.0922083112076533e-19 3.5809474359953916e-11 3.362529201510955e-11 2.18418234484437e-12
6.472204850670314 1.9822307979978512e-19 3.4054609696948805e-11 3.187240229064617e-11 2.1822074063026356e-12
6.496522083828205 1.9100539809955995e-19 3.293790657517951e-11 3.0751132809350855e-11 2.1867737658286525e-12
6.520930681187647 1.8487248956252242e-19 3.2000097847664426e-11 2.98077906326918e-11 2.1923072149726335e-12
