Dust emission spectrum from A.P. Jones, M. Kohler, N. Ysard, M. Bocchio, and L. Verstraete (2017), A&A, 602A, 46J 
inside the DustPedia framework.

lambda    nu*dP/dnu     j_nu    j_nu(carb.) j_nu(sil)
 (um)   (erg s-1 H-1) (Jy cm2 sr-1 H-1)
0.9927057738263894 4.087663815703341e-25 1.0771226329047966e-17 1.077122632904786e-17 1.064289163036633e-31
1.0001793341362166 4.155208525604161e-25 1.1031641330231401e-17 1.103164133023127e-17 1.2824442495057034e-31
1.0077091589558085 4.222657266152236e-25 1.129511018938673e-17 1.1295110189386577e-17 1.5433596814451713e-31
1.0114953028030835 4.256337341618618e-25 1.14279766569129e-17 1.1427976656912732e-17 1.6922884821442496e-31
1.0152956718711033 4.289983483428084e-25 1.1561590632565448e-17 1.1561590632565266e-17 1.8549971728597505e-31
1.0229392996569957 4.357127815532198e-25 1.183094940032961e-17 1.1830949400329388e-17 2.226744780048771e-31
1.0267826658714554 4.390544589018126e-25 1.1966478185188554e-17 1.196647818518831e-17 2.4386015462599638e-31
1.0306404723013447 4.4239126547990155e-25 1.2102725119370127e-17 1.2102725119369857e-17 2.6697603971351176e-31
1.03451277320114 4.457228792876984e-25 1.2239684343264438e-17 1.2239684343264145e-17 2.9218953169224496e-31
1.0383996230291617 4.490489801093819e-25 1.2377349923940467e-17 1.2377349923940148e-17 3.196817549785788e-31
1.0403485208654093 4.507098635859297e-25 1.2446445724327257e-17 1.244644572432692e-17 3.343430036691181e-31
1.0423010764483396 4.523692495745048e-25 1.2515715856549478e-17 1.251571585654913e-17 3.496486154714542e-31
1.0462171883269815 4.556833712180499e-25 1.2654776065730286e-17 1.2654776065729904e-17 3.823019313749136e-31
1.0471985131304309 4.56510904132259e-25 1.268964888018341e-17 1.268964888018302e-17 3.909114537066072e-31
1.048180758391296 4.573380282469013e-25 1.2724564606550092e-17 1.2724564606549688e-17 3.997068506242282e-31
1.0501480137395462 4.589910305391224e-25 1.2794524407015613e-17 1.2794524407015195e-17 4.178706442719766e-31
1.0521189612883777 4.6064233909840345e-25 1.2864654688501506e-17 1.2864654688501067e-17 4.36824818239925e-31
1.0531058218030118 4.614660785065219e-25 1.2899748081704042e-17 1.2899748081703594e-17 4.466091052041581e-31
1.0540936079674168 4.622852269509663e-25 1.2934767534607457e-17 1.2934767534607e-17 4.566054833522997e-31
1.058054026499678 4.655571724130974e-25 1.3075258964725396e-17 1.3075258964724898e-17 4.987791735027421e-31
1.0590464539527713 4.663739727702087e-25 1.3110484726848939e-17 1.3110484726848432e-17 5.098921882231667e-31
1.06003981227728 4.671902891826238e-25 1.3145751449947287e-17 1.3145751449946763e-17 5.2124236532690925e-31
1.0620293250338977 4.688214511611268e-25 1.3216407375420542e-17 1.3216407375419995e-17 5.44673581013038e-31
1.0660195594769086 4.720777591465404e-25 1.3358206304662247e-17 1.3358206304661652e-17 5.946003641562108e-31
1.070024785945596 4.753257946166435e-25 1.3500649230094577e-17 1.3500649230093925e-17 6.488957937941899e-31
1.0740450607676866 4.785652581641898e-25 1.3643729570448269e-17 1.3643729570447563e-17 7.079225702338783e-31
1.07808044048254 4.81795852775649e-25 1.3787440686950217e-17 1.3787440686949442e-17 7.720717640402411e-31
1.0861967418109137 4.882235514168489e-25 1.40765638408906e-17 1.4076563840889686e-17 9.174562404255131e-31
1.0902777775684922 4.914070937534936e-25 1.4221585439614986e-17 1.4221585439613987e-17 9.996352080031126e-31
1.0943741465085532 4.945803769480124e-25 1.4367200051643428e-17 1.4367200051642337e-17 1.088828248425764e-30
1.1026131145906286 5.008950377256943e-25 1.466018044990062e-17 1.466018044989933e-17 1.290567402093096e-30
1.1109141095355224 5.071653046210739e-25 1.4955448835353832e-17 1.4955448835352303e-17 1.5277447095897066e-30
1.1192775983109025 5.133831725005077e-25 1.5252775362020618e-17 1.525277536201881e-17 1.806222974960741e-30
1.1277040513999907 5.195197659367985e-25 1.5551298207086122e-17 1.555129820708399e-17 2.1327714346786762e-30
1.1361939428280308 5.256047186262165e-25 1.585189394868112e-17 1.5851893948678606e-17 2.5151942170034466e-30
1.1447477501889525 5.316360008373723e-25 1.6154503477188107e-17 1.615450347718515e-17 2.9624778684234814e-30
1.1533659546722406 5.376149159827055e-25 1.6459167703300622e-17 1.6459167703297137e-17 3.4849615873937416e-30
1.1707974979042381 5.494349449638095e-25 1.7075266731623357e-17 1.707526673161855e-17 4.804812551418911e-30
1.1884924949847024 5.61020038230645e-25 1.7698817460326663e-17 1.7698817460320078e-17 6.592034938017353e-30
1.2064549276569216 5.72460751571568e-25 1.8332692378198754e-17 1.8332692378189753e-17 9.00028671940993e-30
1.2246888378427687 5.83632160216719e-25 1.897293014346217e-17 1.8972930143449942e-17 1.2229273909377627e-29
1.2431983285522175 5.945081221040238e-25 1.9618583302175403e-17 1.9618583302158867e-17 1.6537676246189733e-29
1.2619875648066055 6.05084557029343e-25 2.026938526955126e-17 2.0269385269528997e-17 2.225884854110738e-29
1.3004222497298317 6.251630347083976e-25 2.1579785087454118e-17 2.1579785087414345e-17 3.9765724307209007e-29
1.3400274889804893 6.4378891611586275e-25 2.2899533535512896e-17 2.2899533535443137e-17 6.976174201232722e-29
1.3808389325824078 6.608930202421221e-25 2.422387527662814e-17 2.4223875276507905e-17 1.2023390948373803e-28
1.4228933163050095 6.765583935193879e-25 2.5553303831136483e-17 2.5553303830932806e-17 2.0368083392686456e-28
1.466228494730424 6.911616798902228e-25 2.689990460838318e-17 2.6899904608043867e-17 3.3931504579578546e-28
1.5108834753276823 7.044190116445981e-25 2.8250846995047625e-17 2.825084699449149e-17 5.561314302408996e-28
1.5568984535646726 7.1610065402779025e-25 2.959400826038526e-17 2.9594008259487586e-17 8.976816306526236e-28
1.6043148490894465 7.262277685619586e-25 3.092657934050944e-17 3.09265793390798e-17 1.4296388349263691e-27
1.6531753430134553 7.348309600546117e-25 3.224599616851548e-17 3.224599616627158e-17 2.2439007625142966e-27
1.7035239163302658 7.420121955740944e-25 3.355279562597424e-17 3.3552795622502374e-17 3.471868525225619e-27
1.755405889504358 7.483613973124031e-25 3.487051499117581e-17 3.487051498587762e-17 5.298180447618126e-27
1.8088679632656115 7.53732742147651e-25 3.619042485875189e-17 3.6190424850774646e-17 7.977249760489084e-27
1.8639582606462262 7.58027410246671e-25 3.750511712588606e-17 3.750511711403054e-17 1.1855521257925033e-26
1.9207263702978936 7.613168405270662e-25 3.8815069547107184e-17 3.8815069529709165e-17 1.7398029974248274e-26
1.979223391128241 7.637674925849883e-25 4.012595834980434e-17 4.012595832458308e-17 2.5221261353926356e-26
2.039501978296691 7.655786165984212e-25 4.1446070233808505e-17 4.144607019767706e-17 3.6131447889648873e-26
2.1016163906111602 7.673085292811826e-25 4.280484272622029e-17 4.280484267504668e-17 5.117359572805458e-26
2.1656225393682647 7.692809395629084e-25 4.4221876559792354e-17 4.4221876488110264e-17 7.168209527859415e-26
2.231578038680979 7.715189472574583e-25 4.5701253060983775e-17 4.570125296164263e-17 9.934114454286571e-26
2.299542257339062 7.742163508125041e-25 4.725776374766985e-17 4.7257763611415386e-17 1.3625446423847143e-25
2.369576372248914 7.778017822300249e-25 4.892254909166979e-17 4.8922548906642784e-17 1.8502699357011e-25
2.4417434235010123 7.82781393082921e-25 5.073526738625828e-17 5.0735267137409867e-17 2.488484236221029e-25
2.5161083711144245 7.900220684745785e-25 5.27640348765227e-17 5.2764034544921995e-17 3.3160072306086413e-25
2.5927381535095444 8.009424573194072e-25 5.512256363910695e-17 5.512256320113908e-17 4.37967871494565e-25
2.6717017477616296 8.172362768323163e-25 5.795688616304224e-17 5.795688558950878e-17 5.735334495575453e-25
2.753070231689431 8.414536202996268e-25 6.149175764772332e-17 6.149175690280729e-17 7.449160043309699e-25
2.836916847834745 8.793720619423268e-25 6.62199278607433e-17 6.621992690079222e-17 9.599510757746961e-25
2.9233170693905177 9.437163810999424e-25 7.322963156807028e-17 7.322963034038665e-17 1.2276836398153436e-24
2.967498994190263 9.9836128121982e-25 7.864076746664445e-17 7.864076608404708e-17 1.3825973825650995e-24
3.0123486681368425 1.0621802337595656e-24 8.493230032606859e-17 8.493229877079469e-17 1.5552738836540459e-24
3.0578761833420214 1.2049817847107935e-24 9.780697143719517e-17 9.780696968917121e-17 1.748023979903188e-24
3.1040917844459814 1.3889967881951814e-24 1.1444721501807263e-16 1.1444721305650045e-16 1.9615722378502918e-24
3.127460860933648 1.5836636327933955e-24 1.3146927261928287e-16 1.3146927054177165e-16 2.0775112265314367e-24
3.1510058709225794 1.8430302011282627e-24 1.541526863256278e-16 1.5415268412606322e-16 2.1995646405267007e-24
3.162844764501044 2.0844632887804138e-24 1.7500141518032581e-16 1.750014129170243e-16 2.263301555335754e-24
3.1747281389236908 2.36522929358004e-24 1.9931924044910023e-16 1.9931923812042896e-16 2.3286712570213044e-24
3.1986289994194426 3.1483649993467696e-24 2.673119530820464e-16 2.67311950617144e-16 2.4649022944198618e-24
3.2227097969389145 4.9944145492480715e-24 4.2724325924118486e-16 4.272432566295243e-16 2.6116605157503196e-24
3.2348180950136065 6.74504887867846e-24 5.79167786207744e-16 5.791677835165381e-16 2.6912057902429106e-24
3.240889293275058 8.053876730785746e-24 6.928490204653884e-16 6.928490177317179e-16 2.7336703047991646e-24
3.2469718861334385 9.567989595858639e-24 8.246480868262493e-16 8.246480840482828e-16 2.777966378989552e-24
3.2714166318528037 1.7644532184417457e-23 1.5321999315359804e-15 1.5321999285723412e-15 2.9636387989653364e-24
3.2744851364798273 1.8149424371698068e-23 1.5775215908347872e-15 1.577521587849288e-15 2.9854986640840785e-24
3.2775565192852394 1.8668818503293767e-23 1.624188593441461e-15 1.6241885904339484e-15 3.0075127189328215e-24
3.283707930232385 1.8169330764990953e-23 1.583699887905899e-15 1.5836998848598726e-15 3.046026924860081e-24
3.2898708863219004 1.6585289662175568e-23 1.4483427441615713e-15 1.4483427410812495e-15 3.0803220978548666e-24
3.29141343181113 1.6211733113281684e-23 1.4163849898796993e-15 1.4163849867907547e-15 3.0889443144137728e-24
3.292184975758714 1.6028180638368292e-23 1.4006766538508854e-15 1.4006766507576221e-15 3.0932627077710152e-24
3.295272960557952 1.4869578772181786e-23 1.3006471502811369e-15 1.3006471471712843e-15 3.1098525266595124e-24
3.3076538914384823 1.0855821658874541e-23 9.53130116469438e-16 9.531301132929067e-16 3.176531350982249e-24
3.310756385682612 1.0038918554575875e-23 8.822335905093672e-16 8.82233587315986e-16 3.1933809973241182e-24
3.313861789986515 9.285197878765327e-24 8.167609922376657e-16 8.167609890273628e-16 3.210303059294967e-24
3.3200813396944477 8.228188370058657e-24 7.251408684343843e-16 7.251408651870621e-16 3.2473221726888144e-24
3.345076488085796 6.342579469116903e-24 5.631724524899855e-16 5.631724490735869e-16 3.4163984494412385e-24
3.3482140837626964 6.413286375612254e-24 5.69984814036139e-16 5.69984810596353e-16 3.439785999199775e-24
3.3513546224236106 6.4847750261520854e-24 5.768790029018292e-16 5.768789994385117e-16 3.4633175924051714e-24
3.3576445397418455 7.007235531067579e-24 6.245264922638518e-16 6.245264887507275e-16 3.5131244105943426e-24
3.3702598118196083 8.934294948621186e-24 7.992692421162564e-16 7.992692384972042e-16 3.619052058104145e-24
3.382922481734668 9.373201503082304e-24 8.416847001037524e-16 8.416846963825827e-16 3.721169605754145e-24
3.389271646505754 9.600585664025215e-24 8.637211187475158e-16 8.637211149743029e-16 3.773213034209725e-24
3.395632727569191 9.845603626590577e-24 8.874267002811137e-16 8.874266964540311e-16 3.827082792939476e-24
3.421196662673239 1.1022090060989723e-23 1.0009477970019653e-15 1.0009477929497444e-15 4.0522210192416996e-24
3.4276182099114902 1.0785000643220932e-23 9.81255377591548e-16 9.812553734892248e-16 4.1023230477133e-24
3.4340518103208963 9.746080384964328e-24 8.883953266722187e-16 8.883953225228392e-16 4.1493798293495446e-24
3.4469541582030403 8.266464431770467e-24 7.563533628312667e-16 7.563533585918677e-16 4.239399049912399e-24
3.472904465399547 7.851781538177276e-24 7.238198305495451e-16 7.238198260960114e-16 4.453533734904582e-24
3.4990501388274233 7.21754528299666e-24 6.703615802083689e-16 6.703615755332161e-16 4.675152881934301e-24
3.5253949054701885 4.960454455780443e-24 4.641930909815105e-16 4.641930860917705e-16 4.889740045497789e-24
3.5519380250092896 2.8390393629294996e-24 2.6767402322963686e-16 2.6767401812245877e-16 5.107178053992286e-24
3.578680990867387 1.9978588821828584e-24 1.8978296538987932e-16 1.89782960037817e-16 5.352062355719947e-24
3.605625307711299 1.6575906672568613e-24 1.5864533981266385e-16 1.5864533419739965e-16 5.615264150325113e-24
3.660119384959845 1.4092959502395796e-24 1.3691999932839825e-16 1.369199931455053e-16 6.1828929463489355e-24
3.715437065384467 1.2334208447780807e-24 1.2164398138806361e-16 1.2164397458752015e-16 6.80054347497276e-24
3.8285932144167436 1.1439602719961925e-24 1.162571308552636e-16 1.1625712265275364e-16 8.202509993024151e-24
3.94519561050918 1.126549185583682e-24 1.1797449642815758e-16 1.1797448657593085e-16 9.852226747268796e-24
4.06534921144712 1.1387250332747284e-24 1.228814021770584e-16 1.2288139038475792e-16 1.1792300481240307e-23
4.189162171576248 1.1680363459027907e-24 1.2988319496563835e-16 1.2988318088648303e-16 1.4079155290561258e-23
4.316745939156006 1.2098427776597135e-24 1.3862924513532044e-16 1.3862922836151234e-16 1.677380812877174e-23
4.448215356677963 1.2625855031944913e-24 1.49078850937718e-16 1.4907883100446309e-16 1.9933254938703097e-23
4.58368876423945 1.3264506157183621e-24 1.6138963514025098e-16 1.6138961148284025e-16 2.3657410724980866e-23
4.723288106065518 1.4029145852104987e-24 1.758916003668765e-16 1.7589157228725725e-16 2.8079619280763043e-23
4.867139040275056 1.4949351656025437e-24 1.9313702792654474e-16 1.9313699463450483e-16 3.3292039875322055e-23
4.940699165968905 1.550494669088831e-24 2.0334248253117498e-16 2.0334244627363774e-16 3.625753727692982e-23
5.015371051989984 1.6080335470177545e-24 2.140758153553793e-16 2.1407577586633034e-16 3.948904900049342e-23
5.091171501069577 1.6783007054294248e-24 2.268072522009653e-16 2.2680720914965975e-16 4.3051305547215817e-23
5.129500256944802 1.714365405576086e-24 2.3342527729168727e-16 2.3342523233991877e-16 4.495176853293096e-23
5.168117569889187 1.7519687275549947e-24 2.403411681840192e-16 2.4034112124053833e-16 4.6943480862876794e-23
5.20702561229733 1.7981553742597252e-24 2.485343163023861e-16 2.485342672185913e-16 4.908379482228727e-23
5.246226572918644 1.8455223918656563e-24 2.5700158089626313e-16 2.5700152957443844e-16 5.132182471163292e-23
5.265937586045735 1.8696603458265844e-24 2.613411858938866e-16 2.613411334149846e-16 5.2478902011677757e-23
5.285722656980489 1.894107765708388e-24 2.6575319198420374e-16 2.657531383220667e-16 5.366213703167283e-23
5.305582063971359 1.9188696612991955e-24 2.7023895063121634e-16 2.702388957590826e-16 5.487213366671374e-23
5.3255160863122235 1.9454790325674293e-24 2.750158273253038e-16 2.750157712106261e-16 5.611467768140842e-23
5.365609099470188 2.0118014561613803e-24 2.865322968124324e-16 2.865322380863977e-16 5.872603465510043e-23
5.406003951863644 2.0806533929548138e-24 2.9856956190794127e-16 2.9856950044812913e-16 6.14598120210848e-23
5.446702915881641 2.1521573128216683e-24 3.1115525064779007e-16 3.111551863259502e-16 6.432183986791819e-23
5.487708281020852 2.229434430143073e-24 3.2475448210860955e-16 3.2475441478038013e-16 6.732822946444289e-23
5.529022354014368 2.3369306112751376e-24 3.4297589357199073e-16 3.4297582300512427e-16 7.056686640259843e-23
5.570647458961463 2.4507756471070516e-24 3.623920519055054e-16 3.6239197794138774e-16 7.396411764914247e-23
5.612585937458331 2.5714271178453047e-24 3.83095152290741e-16 3.830950747629017e-16 7.752783929546151e-23
5.654840148729818 2.7040743521496124e-24 4.0589004030964163e-16 4.05889959025712e-16 8.12839297694606e-23
5.67608639626678 2.794460636582411e-24 4.2103328130025854e-16 4.2103319799122904e-16 8.330902955642289e-23
5.686739436050992 2.8410526335329888e-24 4.2885654468705406e-16 4.2885646034603657e-16 8.434101764030416e-23
5.6974124697621304 2.8886069797881375e-24 4.3685322998455553e-16 4.368531445983676e-16 8.53861878727573e-23
5.718818669136295 2.9866954950734826e-24 4.533845391760534e-16 4.533844516592962e-16 8.751675723960022e-23
5.740305295436557 3.094833915531587e-24 4.715652252821801e-16 4.715651355559732e-16 8.972620695960919e-23
5.7835210386641895 3.375456239043616e-24 5.181962129410667e-16 5.181961184259064e-16 9.451516010742257e-23
5.827062130521658 3.698782665489087e-24 5.72107834940353e-16 5.721077353131157e-16 9.962723719779959e-23
5.8489554468988025 3.925661667491181e-24 6.0948162046653e-16 6.094815179340748e-16 1.0253245519473429e-22
5.870931020387893 4.1691468417259545e-24 6.497160607205808e-16 6.497159551906999e-16 1.0552988073785952e-22
5.892989160043636 4.430575272966868e-24 6.930510002349625e-16 6.930508916124175e-16 1.0862254524715087e-22
5.915130176081913 4.727922387432588e-24 7.423420782653229e-16 7.423419663590566e-16 1.1190626611435814e-22
5.95966208400165 5.559439467375722e-24 8.794721162087631e-16 8.794719965424615e-16 1.196663016044562e-22
6.004529249263818 6.758122180334184e-24 1.0771456623448233e-15 1.0771455332198198e-15 1.2912500331253266e-22
6.027089341400364 7.591431716820026e-24 1.2145090413877095e-15 1.2145089064275147e-15 1.3496019544796765e-22
6.049734195844842 8.576240186864194e-24 1.3772179109636757e-15 1.3772177695626955e-15 1.4140098010139638e-22
6.095279466722835 1.1421124666391304e-23 1.8478721827889465e-15 1.8478720244487257e-15 1.583402211375586e-22
6.141167624020661 1.579960652498328e-23 2.5755302558985337e-15 2.575530073679375e-15 1.8221915927830884e-22
6.164241091010745 1.8595738446376214e-23 3.042723427151893e-15 3.0427232294436074e-15 1.9770828520247017e-22
6.187401249150058 2.178108307436665e-23 3.577315013060483e-15 3.577314798441117e-15 2.1461936659690093e-22
6.1990139391386085 2.3336423622963495e-23 3.839956864609306e-15 3.839956641292095e-15 2.2331721137566826e-22
6.204828454712694 2.4155731944815078e-23 3.978500469960471e-15 3.9785002421391875e-15 2.2782128370870267e-22
6.210648424152782 2.4753810184575072e-23 4.080829355140517e-15 4.080829123537393e-15 2.316031234244238e-22
6.233982942956859 2.678575629157381e-23 4.4324000981358586e-15 4.4323998530484836e-15 2.450873749067693e-22
6.239830258556775 2.704550439887672e-23 4.479579972084366e-15 4.479579725062749e-15 2.470216164879836e-22
6.245683058788269 2.706802234276668e-23 4.4875148757647195e-15 4.487514626793457e-15 2.4897126234419885e-22
6.257405133728602 2.701218594876881e-23 4.486662872331079e-15 4.486662619908458e-15 2.524226217759704e-22
6.269149208991335 2.661252409466482e-23 4.428576050710104e-15 4.428575796947966e-15 2.5376213960507886e-22
6.280915325867298 2.56103041251125e-23 4.269795817635066e-15 4.26979556516097e-15 2.5247409538985866e-22
6.304513850009849 2.31387989584039e-23 3.8722362733535154e-15 3.872236025895214e-15 2.4745830127490214e-22
6.32820103803542 2.0075315853103244e-23 3.3721903993634575e-15 3.3721901599104505e-15 2.394530075039408e-22
6.3519772230701035 1.726587580036561e-23 2.9111660490630753e-15 2.911165817096357e-15 2.319667174091159e-22
6.375842739491607 1.4902391153638648e-23 2.522103983746261e-15 2.5221037582848214e-15 2.2546143966728413e-22
6.399797922933955 1.3008076930231816e-23 2.2097787394512522e-15 2.209778518019166e-15 2.214320863061461e-22
6.42384311029221 1.1433174442578407e-23 1.9495356823516994e-15 1.9495354642072616e-15 2.181444372924987e-22
6.447978639727206 1.02854767587312e-23 1.7604246876310734e-15 1.7604244705182872e-15 2.171127859126841e-22
6.472204850670314 9.329421484050562e-24 1.6027891790329014e-15 1.6027889623983826e-15 2.1663451846586057e-22
6.496522083828205 8.708041990564158e-24 1.5016574211606178e-15 1.5016572030494875e-15 2.181111296902993e-22
