Dust emission spectrum from A.P. Jones, M. Kohler, N. Ysard, M. Bocchio, and L. Verstraete (2017), A&A, 602A, 46J 
inside the DustPedia framework.

lambda    nu*dP/dnu     j_nu    j_nu(carb.) j_nu(sil)
 (um)   (erg s-1 H-1) (Jy cm2 sr-1 H-1)
0.9927057738263894 1.601505337739296e-24 4.2200575286302553e-17 4.2200574691453754e-17 5.94848805946457e-25
1.0001793341362166 1.628357859609566e-24 4.3231187445313996e-17 4.3231186729150044e-17 7.161639602274399e-25
1.0077091589558085 1.6552552568750272e-24 4.427612600205528e-17 4.427612514096764e-17 8.610876435438935e-25
1.0114953028030835 1.6687186096700155e-24 4.480396121754071e-17 4.48039602738053e-17 9.437354226647453e-25
1.0152956718711033 1.6821905876440082e-24 4.533537020695796e-17 4.533536917298318e-17 1.0339747805217683e-24
1.0229392996569957 1.7091439183581835e-24 4.6408542673212576e-17 4.640854143326022e-17 1.2399523762146704e-24
1.0267826658714554 1.7225938519422927e-24 4.694948732047206e-17 4.694948596324333e-17 1.3572287336417314e-24
1.0306404723013447 1.7360483794900046e-24 4.7493967377730784e-17 4.749396589262374e-17 1.4851070539256376e-24
1.03451277320114 1.7495066880550225e-24 4.8041979923588074e-17 4.8041978299090214e-17 1.6244978487441104e-24
1.0383996230291617 1.7629679744295848e-24 4.8593522067236977e-17 4.859352029085158e-17 1.7763853955066386e-24
1.0403485208654093 1.7696994860279347e-24 4.887061584579034e-17 4.887061398844577e-17 1.857344575412106e-24
1.0423010764483396 1.7764314454369546e-24 4.914859095891441e-17 4.9148589017081083e-17 1.941833326528604e-24
1.0462171883269815 1.7898963182211116e-24 4.970718380049167e-17 4.9707181678501066e-17 2.121990609823615e-24
1.0471985131304309 1.7932626647097618e-24 4.9847382305935424e-17 4.9847380136463873e-17 2.1694715501991997e-24
1.048180758391296 1.7966290385297e-24 4.9987800844833947e-17 4.9987798626864725e-17 2.217969210450242e-24
1.0501480137395462 1.8033618205335822e-24 5.02692978562037e-17 5.026929553810575e-17 2.318097946489428e-24
1.0521189612883777 1.8100945694057065e-24 5.055167450415749e-17 5.055167208161012e-17 2.4225473610374974e-24
1.0531058218030118 1.8134561485311304e-24 5.069305971302989e-17 5.06930572365789e-17 2.4764509832733234e-24
1.0540936079674168 1.816802110491596e-24 5.0834228708947236e-17 5.08342261774334e-17 2.5315138200260095e-24
1.058054026499678 1.830184648793528e-24 5.1401073067362665e-17 5.140107030364767e-17 2.7637150173529887e-24
1.0590464539527713 1.8335298987123694e-24 5.154332603619288e-17 5.154332321131824e-17 2.824874634766935e-24
1.06003981227728 1.8368749720216774e-24 5.1685795672407016e-17 5.168579278507866e-17 2.8873283566156033e-24
1.0620293250338977 1.843564543691632e-24 5.197138478191331e-17 5.1971381765690584e-17 3.0162227259114265e-24
1.0660195594769086 1.8569410740469432e-24 5.2545161219976435e-17 5.254515792925682e-17 3.290719625865655e-24
1.070024785945596 1.8703135309047743e-24 5.312239987188119e-17 5.312239628286163e-17 3.589019548035804e-24
1.0740450607676866 1.8836812177602905e-24 5.370309836247368e-17 5.370309444939669e-17 3.913077000224345e-24
1.07808044048254 1.897043450820706e-24 5.4287254462809277e-17 5.4287250197811943e-17 4.264997330460314e-24
1.0861967418109137 1.923727139699476e-24 5.546530439969067e-17 5.54652993380221e-17 5.061668580979695e-24
1.0902777775684922 1.9369978422447394e-24 5.605775875032854e-17 5.605775323884141e-17 5.511487150668221e-24
1.0943741465085532 1.9502596204823075e-24 5.665362280043872e-17 5.665361680111223e-17 5.999326494025304e-24
1.1026131145906286 1.9767539723672115e-24 5.785557403711253e-17 5.785556693566899e-17 7.101443547898048e-24
1.1109141095355224 2.0032054771010637e-24 5.907114849244099e-17 5.907114009729819e-17 8.395142787857923e-24
1.1192775983109025 2.0295873900762735e-24 6.029967906357994e-17 6.029966915186158e-17 9.91171834589099e-24
1.1277040513999907 2.0557931511053287e-24 6.153808659671579e-17 6.15380749094886e-17 1.1687227177064544e-23
1.1361939428280308 2.0819400796791437e-24 6.278994876005359e-17 6.278993499689862e-17 1.3763154969982018e-23
1.1447477501889525 2.1080244915690813e-24 6.40552726403259e-17 6.40552564531546e-17 1.6187171299986425e-23
1.1533659546722406 2.1340542569189542e-24 6.533441662117422e-17 6.533439760716988e-17 1.9014004350965527e-23
1.1707974979042381 2.186030095150249e-24 6.793715489011198e-17 6.793712875383944e-17 2.6136272543609886e-23
1.1884924949847024 2.2377452105467294e-24 7.059541781982543e-17 7.059538207253131e-17 3.574729412380148e-23
1.2064549276569216 2.289569123421726e-24 7.332199858781964e-17 7.332194993556666e-17 4.865225296070512e-23
1.2246888378427687 2.3410758302256294e-24 7.610455902725662e-17 7.61044931343764e-17 6.589288019231089e-23
1.2431983285522175 2.3921926043598967e-24 7.89416126349755e-17 7.894152382273664e-17 8.881223886568963e-23
1.2619875648066055 2.4429577535643865e-24 8.183525976491367e-17 8.183514063186317e-17 1.1913305051269918e-22
1.3004222497298317 2.54292392189571e-24 8.777830530855322e-17 8.777809395182988e-17 2.1135672330686538e-22
1.3400274889804893 2.6410286233224874e-24 9.394123137891749e-17 9.394086325530531e-17 3.681236121667133e-22
1.3808389325824078 2.7373954760150416e-24 1.0033443320297332e-16 1.0033380345405684e-16 6.2974891647378e-22
1.4228933163050095 2.832743842128589e-24 1.0699145080020124e-16 1.0699039215278452e-16 1.0586474167161177e-21
1.466228494730424 2.928949191678921e-24 1.139942449811135e-16 1.1399249528783367e-16 1.7496932797940503e-21
1.5108834753276823 3.0254101962848694e-24 1.2133460218933358e-16 1.2133175779327122e-16 2.8443960623488304e-21
1.5568984535646726 3.1217139078654125e-24 1.2900983493913046e-16 1.2900528200950491e-16 4.552929625541351e-21
1.6043148490894465 3.2184141585052797e-24 1.370569195126289e-16 1.3704973050091004e-16 7.189011718850489e-21
1.6531753430134553 3.3161238890954254e-24 1.4551879824735027e-16 1.4550761373696038e-16 1.1184510389890612e-20
1.7035239163302658 3.415682431643537e-24 1.5445257535625267e-16 1.5443542643464082e-16 1.7148921611840665e-20
1.755405889504358 3.51985620816432e-24 1.6401059583561027e-16 1.639846692402659e-16 2.5926595344443428e-20
1.8088679632656115 3.628519600601746e-24 1.7422311465455976e-16 1.7418445159087805e-16 3.866306368171384e-20
1.8639582606462262 3.7415996659219154e-24 1.8512408893355575e-16 1.8506719564439676e-16 5.689328915898555e-20
1.9207263702978936 3.85967405474308e-24 1.967820871534914e-16 1.9669944478376435e-16 8.264236972707826e-20
1.979223391128241 3.983644941192207e-24 2.092882618631483e-16 2.0916971550127578e-16 1.1854636187252928e-19
2.039501978296691 4.114413892199437e-24 2.227417060114985e-16 2.225737206403574e-16 1.6798537114110395e-19
2.1016163906111602 4.254364234199119e-24 2.373326830024277e-16 2.3709743233286253e-16 2.3525066956515643e-19
2.1656225393682647 4.404810450856239e-24 2.532091645709089e-16 2.5288346667460043e-16 3.256978963084605e-19
2.231578038680979 4.5655800667392355e-24 2.7044407754590753e-16 2.69998156554492e-16 4.45920991415545e-19
2.299542257339062 4.737234810947926e-24 2.8915835125165237e-16 2.8855441430408695e-16 6.039369475653811e-19
2.369576372248914 4.921057239451536e-24 3.095270155973824e-16 3.087176301811313e-16 8.093854162511009e-19
2.4417434235010123 5.118542655765772e-24 3.3175370871486166e-16 3.3068001881180467e-16 1.0736899030570515e-18
2.5161083711144245 5.332471198037087e-24 3.561453628941701e-16 3.5473509670813266e-16 1.4102661860373417e-18
2.5927381535095444 5.5674480509020675e-24 3.8316361767158266e-16 3.813289512616578e-16 1.8346664099248906e-18
2.6717017477616296 5.828248596353603e-24 4.133286174447258e-16 4.1096401999804766e-16 2.3645974466781418e-18
2.753070231689431 6.122018231499574e-24 4.473849209565073e-16 4.443649273100728e-16 3.019993646434568e-18
2.836916847834745 6.4662837641606664e-24 4.869347832634441e-16 4.831116256119832e-16 3.823157651460953e-18
2.9233170693905177 6.899753560952417e-24 5.354007001448002e-16 5.306028898866822e-16 4.797810258117943e-18
2.967498994190263 7.187914983589507e-24 5.661909785842465e-16 5.608432602113899e-16 5.347718372856332e-18
3.0123486681368425 7.505178826453457e-24 6.001167050840497e-16 5.941639553237913e-16 5.95274976025832e-18
3.0578761833420214 8.072117893438663e-24 6.552044306883168e-16 6.48585062796472e-16 6.619367891844912e-18
3.1040917844459814 8.76071602548072e-24 7.218443982028677e-16 7.144980973151682e-16 7.346300887699461e-18
3.127460860933648 9.425178792179953e-24 7.824397646417665e-16 7.74703649642337e-16 7.736114999429631e-18
3.1510058709225794 1.028498862917924e-23 8.602456026200404e-16 8.521027251079389e-16 8.142877512101229e-18
3.162844764501044 1.1066639459105635e-23 9.291013073044045e-16 9.207477614455894e-16 8.353545858814971e-18
3.1747281389236908 1.1962353745787316e-23 1.0080744683255759e-15 9.995058530082788e-16 8.568615317297172e-18
3.1986289994194426 1.4418725846200234e-23 1.224222022447228e-15 1.2152087164539053e-15 9.01330599332254e-18
3.2227097969389145 2.0134685194395142e-23 1.7224057877902297e-15 1.7129208168453765e-15 9.484970944853332e-18
3.2348180950136065 2.551949434725429e-23 2.191247137283329e-15 2.18151034302083e-15 9.736794262499072e-18
3.240889293275058 2.9541682779791216e-23 2.5413756208410084e-15 2.5315059942805225e-15 9.86962656048611e-18
3.2469718861334385 3.419867990225496e-23 2.9475236851830007e-15 2.9375166136163126e-15 1.0007071566687895e-17
3.2714166318528037 5.884486488215577e-23 5.109917168748095e-15 5.099341729993067e-15 1.0575438755028736e-17
3.2744851364798273 6.038875262930189e-23 5.248902618909437e-15 5.238260092071879e-15 1.0642526837557407e-17
3.2775565192852394 6.197551979084723e-23 5.391874815170548e-15 5.381164854936506e-15 1.0709960234042636e-17
3.283707930232385 6.046660102711185e-23 5.270472011726593e-15 5.259641240981925e-15 1.0830770744666289e-17
3.2898708863219004 5.565129717715778e-23 4.859857989308272e-15 4.848917073381139e-15 1.0940915927132143e-17
3.29141343181113 5.45145396526917e-23 4.76282055439316e-15 4.751851975168635e-15 1.0968579224524152e-17
3.292184975758714 5.3955799509201e-23 4.7151096195837854e-15 4.704127189631834e-15 1.0982429951952274e-17
3.295272960557952 5.044667039773434e-23 4.4125875452998885e-15 4.401551200766513e-15 1.1036344533377336e-17
3.3076538914384823 3.824477764777424e-23 3.357852636052787e-15 3.346599641925262e-15 1.1252994127524485e-17
3.310756385682612 3.574890444245217e-23 3.14166153969493e-15 3.1303539160700407e-15 1.130762362488952e-17
3.313861789986515 3.3441209421076724e-23 2.9416147878604104e-15 2.930252347437053e-15 1.136244042335715e-17
3.3200813396944477 3.021348728307972e-23 2.6626802184801546e-15 2.6511999655562445e-15 1.1480252923909782e-17
3.345076488085796 2.45301119401508e-23 2.1780859614695637e-15 2.1660809290881858e-15 1.2005032381377954e-17
3.3482140837626964 2.4756961796513654e-23 2.2002903720853247e-15 2.1882142597321487e-15 1.2076112353175628e-17
3.3513546224236106 2.4986091176229025e-23 2.222737304845269e-15 2.210589781022998e-15 1.2147523822270972e-17
3.3576445397418455 2.660747921640138e-23 2.3714167433545395e-15 2.359119950736908e-15 1.229679261763104e-17
3.3702598118196083 3.252372360393826e-23 2.9095985822283747e-15 2.8969886700480878e-15 1.2609912180288195e-17
3.382922481734668 3.3917522214560996e-23 3.045689298799069e-15 3.0327746203945532e-15 1.2914678404516797e-17
3.389271646505754 3.463782911770212e-23 3.1162082776503803e-15 3.1031390415985075e-15 1.3069236051874178e-17
3.395632727569191 3.5421638844823273e-23 3.1927050154360242e-15 3.1794764957152874e-15 1.322851972073631e-17
3.421196662673239 3.920043288863366e-23 3.559904403274121e-15 3.546016056391287e-15 1.3888346882833485e-17
3.4276182099114902 3.8496886316346974e-23 3.5025752865569036e-15 3.4885392297481816e-15 1.4036056808722366e-17
3.4340518103208963 3.532427379348643e-23 3.219952895590462e-15 3.2057769082822684e-15 1.4175987308192608e-17
3.4469541582030403 3.0792979119157803e-23 2.8174527938275748e-15 2.8030077743753115e-15 1.4445019452262765e-17
3.472904465399547 2.9561309499612734e-23 2.72512192663469e-15 2.7100578311947717e-15 1.5064095439917594e-17
3.4990501388274233 2.7667446257896134e-23 2.569736976568403e-15 2.554038335866188e-15 1.5698640702214845e-17
3.5253949054701885 2.0838795511776977e-23 1.9500682824879333e-15 1.9337515323527943e-15 1.631675013513914e-17
3.5519380250092896 1.4375479618275168e-23 1.3553677752846683e-15 1.3384284299931608e-15 1.6939345291507473e-17
3.578680990867387 1.1852839288254959e-23 1.1259388781038067e-15 1.1083169383533874e-15 1.7621939750419453e-17
3.605625307711299 1.0877909813571024e-23 1.0411072726907828e-15 1.0227656145070539e-15 1.8341658183729086e-17
3.660119384959845 1.0260168446177122e-23 9.968255826755234e-16 9.76968220413859e-16 1.9857362261664522e-17
3.715437065384467 9.855301118874234e-24 9.719618984498333e-16 9.505013961396128e-16 2.1460502310220546e-17
3.8285932144167436 9.860203238102875e-24 1.0020618426820989e-15 9.771372838707589e-16 2.4924558811340313e-17
3.94519561050918 1.0084967936615116e-23 1.0561181251929505e-15 1.0273881540099205e-15 2.872997118303014e-17
4.06534921144712 1.039819545064954e-23 1.1220837337811091e-15 1.0892045132859802e-15 3.28792204951291e-17
4.189162171576248 1.0760993272715109e-23 1.1965999107533763e-15 1.159213076032117e-15 3.738683472125935e-17
4.316745939156006 1.1157639074753581e-23 1.2784926363882448e-15 1.2362486554512235e-15 4.224398093702132e-17
4.448215356677963 1.1581600551397884e-23 1.3674889327127606e-15 1.3200963539086947e-15 4.739257880406544e-17
4.58368876423945 1.2032160672134704e-23 1.463956515088989e-15 1.4111104515858055e-15 5.28460635031835e-17
4.723288106065518 1.2512723608295524e-23 1.5687932847895146e-15 1.5101479961485196e-15 5.864528864099466e-17
4.867139040275056 1.3029559870793146e-23 1.6833442188923792e-15 1.6186919970032583e-15 6.465222188912058e-17
4.940699165968905 1.3313097107849614e-23 1.7459706699150546e-15 1.6782174288896457e-15 6.77532410254091e-17
5.015371051989984 1.359823573029542e-23 1.8103188249750507e-15 1.7394075086218936e-15 7.091131635315737e-17
5.091171501069577 1.392027292623699e-23 1.8811997409483705e-15 1.8070077419093386e-15 7.419199903903155e-17
5.129500256944802 1.408196581648065e-23 1.917378153357851e-15 1.8415266074089844e-15 7.585154594886608e-17
5.168117569889187 1.4247203819864856e-23 1.9544810107431862e-15 1.8769423956546347e-15 7.753861508855191e-17
5.20702561229733 1.4439872909289436e-23 1.9958252731530814e-15 1.9164524044849142e-15 7.937286866816699e-17
5.246226572918644 1.4634285735588674e-23 2.0379241053433417e-15 1.956698981502505e-15 8.122512384083649e-17
5.265937586045735 1.4732164598655723e-23 2.059262462078088e-15 1.9771046291970055e-15 8.215783288108237e-17
5.285722656980489 1.483050219196581e-23 2.0807967569731348e-15 1.9977019195897633e-15 8.309483738337201e-17
5.305582063971359 1.492930668509317e-23 2.1025295535182853e-15 2.0184934864992652e-15 8.403606701902036e-17
5.3255160863122235 1.5033677634870486e-23 2.1251831673762965e-15 2.0401948443038366e-15 8.498832307246048e-17
5.365609099470188 1.528376715390044e-23 2.1768017381344476e-15 2.0898432233079327e-15 8.695851482651483e-17
5.406003951863644 1.5538846091174792e-23 2.229793047562025e-15 2.1408453164233087e-15 8.89477311387165e-17
5.446702915881641 1.5799177657885e-23 2.2842182840820615e-15 2.1932628602661324e-15 9.095542381592966e-17
5.487708281020852 1.6074919540591355e-23 2.3415813893245097e-15 2.248592403634908e-15 9.298898568960208e-17
5.529022354014368 1.6445394108396684e-23 2.413582034595907e-15 2.3184720825369743e-15 9.510995205893251e-17
5.570647458961463 1.6830470486888784e-23 2.4886932190134735e-15 2.3914418951051375e-15 9.725132390833576e-17
5.612585937458331 1.7231239759868457e-23 2.5671365033656778e-15 2.467723949626521e-15 9.941255373915592e-17
5.654840148729818 1.7664094789812513e-23 2.6514360230408496e-15 2.549833024982919e-15 1.0160299805793126e-16
5.67608639626678 1.795519110681491e-23 2.705256581220252e-15 2.602508074683873e-15 1.0274850653637892e-16
5.686739436050992 1.8104182129252032e-23 2.732824059891176e-15 2.6295006652129358e-15 1.0332339467823978e-16
5.6974124697621304 1.8255542113383125e-23 2.760843753806694e-15 2.6569440594521383e-15 1.0389969435455559e-16
5.718818669136295 1.8565598673659646e-23 2.818283756435515e-15 2.713227261686306e-15 1.0505649474920907e-16
5.740305295436557 1.8904977549830746e-23 2.880584302925094e-15 2.7743572828541166e-15 1.0622702007097636e-16
5.7835210386641895 1.9778263449837073e-23 3.036336569766994e-15 2.9276880857294356e-15 1.0864848403755785e-16
5.827062130521658 2.076772528083792e-23 3.2122401940275e-15 3.101125509766235e-15 1.1111468426126533e-16
5.8489554468988025 2.14617438619951e-23 3.332059544348332e-15 3.219615214747727e-15 1.124443296006046e-16
5.870931020387893 2.219911647441744e-23 3.4594901678408906e-15 3.3457080196354954e-15 1.1378214820539526e-16
5.892989160043636 2.2983265804439186e-23 3.595148343742338e-15 3.4800202553985925e-15 1.1512808834374633e-16
5.915130176081913 2.3870690614531967e-23 3.747992591317227e-15 3.631469858012426e-15 1.1652273330480235e-16
5.95966208400165 2.6350099531939083e-23 4.168437831486121e-15 4.048748898819819e-15 1.19688932666303e-16
6.004529249263818 2.989779857863902e-23 4.765271060998746e-15 4.642025157059352e-15 1.2324590393939414e-16
6.027089341400364 3.235884115136531e-23 5.176902936515417e-15 5.0516076725893386e-15 1.2529526392607807e-16
6.049734195844842 3.524861914176624e-23 5.6604092890415515e-15 5.5329442566245e-15 1.2746503241705215e-16
6.095279466722835 4.357984166847299e-23 7.05096735232141e-15 6.918189142633386e-15 1.327782096880249e-16
6.141167624020661 5.632525169388674e-23 9.18170903049492e-15 9.042059783952826e-15 1.3964924654209535e-16
6.164241091010745 6.446036626238269e-23 1.0547312606860443e-14 1.0403362908169827e-14 1.439496986906179e-16
6.187401249150058 7.365883317696016e-23 1.2097692702828058e-14 1.1949323283446796e-14 1.4836941938126364e-16
6.1990139391386085 7.81425740522018e-23 1.2858187633975092e-14 1.2707568543888227e-14 1.5061909008686794e-16
6.204828454712694 8.049852569898632e-23 1.3258278534312236e-14 1.3106522755861718e-14 1.517557784505163e-16
6.210648424152782 8.221448862864638e-23 1.3553602298474022e-14 1.3400875250473397e-14 1.527270480006257e-16
6.233982942956859 8.801249173538801e-23 1.456395603538863e-14 1.440783065584143e-14 1.561253795471928e-16
6.239830258556775 8.873635270843828e-23 1.4697510629716482e-14 1.4540904656092177e-14 1.5660597362429884e-16
6.245683058788269 8.877330072714659e-23 1.4717422002212187e-14 1.456033451909457e-14 1.5708748311761512e-16
6.257405133728602 8.855459854260065e-23 1.4708718139613554e-14 1.4550782536438577e-14 1.5793560317498288e-16
6.269149208991335 8.734100076742597e-23 1.4534369715092864e-14 1.4376096831961425e-14 1.582728831314372e-16
6.280915325867298 8.438599496869615e-23 1.4068984367546231e-14 1.3911006369583803e-14 1.579779979624282e-16
6.304513850009849 7.713528491169366e-23 1.2908450811447025e-14 1.2751635180656548e-14 1.5681563079047487e-16
6.32820103803542 6.821213746609615e-23 1.1458067049424411e-14 1.130302304851555e-14 1.5504400090886013e-16
6.3519772230701035 6.004795315005099e-23 1.0124569674157904e-14 9.971103928263576e-15 1.5346574589432812e-16
6.375842739491607 5.316543375471958e-23 8.997801150698984e-15 8.845715854803121e-15 1.5208529589586159e-16
6.399797922933955 4.7682745317690884e-23 8.10022245462107e-15 7.948792918757809e-15 1.5142953586326014e-16
6.42384311029221 4.3111611852753035e-23 7.351206443385997e-15 7.200288527701602e-15 1.5091791568439815e-16
6.447978639727206 3.979242676113617e-23 6.8107266288448615e-15 6.659753848235799e-15 1.509727806090612e-16
6.472204850670314 3.702069301291575e-23 6.360133504831016e-15 6.208992899109439e-15 1.5114060572157806e-16
6.496522083828205 3.5223354371917e-23 6.074087785529006e-15 5.922319109919401e-15 1.5176867560960397e-16
6.520930681187647 3.370613434849604e-23 5.834289351383577e-15 5.68182162958007e-15 1.524677218035075e-16
