Dust emission spectrum from A.P. Jones, M. Kohler, N. Ysard, M. Bocchio, and L. Verstraete (2017), A&A, 602A, 46J 
inside the DustPedia framework.

lambda    nu*dP/dnu     j_nu    j_nu(carb.) j_nu(sil)
 (um)   (erg s-1 H-1) (Jy cm2 sr-1 H-1)
0.9927057738263894 1.0962431511510447e-21 2.88866296865094e-14 2.888662857913711e-14 1.1073722972375007e-21
1.0001793341362166 1.1146744423831181e-21 2.9593433332105345e-14 2.95934319994863e-14 1.3326190455031e-21
1.0077091589558085 1.1331789505518052e-21 3.031120051672886e-14 3.031119891518297e-14 1.6015459029491124e-21
1.0114953028030835 1.1424578134067668e-21 3.067421629262896e-14 3.067421453778438e-14 1.7548445726630766e-21
1.0152956718711033 1.1517539778708524e-21 3.1039998296056064e-14 3.103999637388133e-14 1.922174737737166e-21
1.0229392996569957 1.170387881343354e-21 3.177965024016834e-14 3.1779647936225605e-14 2.303942739169215e-21
1.0267826658714554 1.1797044544206417e-21 3.2152976316660955e-14 3.2152973795449846e-14 2.521211119743957e-21
1.0306404723013447 1.1890366292071595e-21 3.2529085908931576e-14 3.252908315088398e-14 2.758047602017902e-21
1.03451277320114 1.1983841190706917e-21 3.290798839594392e-14 3.290798537981887e-14 3.016125048972048e-21
1.0383996230291617 1.2077466461835003e-21 3.328969337740711e-14 3.3289690080156e-14 3.29725110378709e-21
1.0403485208654093 1.2124334643495366e-21 3.348159986631291e-14 3.3481596419251326e-14 3.447061583667231e-21
1.0423010764483396 1.217123941745077e-21 3.3674210683889503e-14 3.367420708051116e-14 3.603378333673859e-21
1.0462171883269815 1.2265157462033954e-21 3.4061550387075524e-14 3.406154645046044e-14 3.936615078577906e-21
1.0471985131304309 1.2288659348152242e-21 3.415882751643044e-14 3.415882349200748e-14 4.024422960217521e-21
1.048180758391296 1.231217010741797e-21 3.425628185332001e-14 3.42562777392162e-14 4.114103807594359e-21
1.0501480137395462 1.2359218094745605e-21 3.445172281016357e-14 3.445171851092652e-14 4.2992370492362144e-21
1.0521189612883777 1.2406301126563504e-21 3.46478745890338e-14 3.464787009670634e-14 4.492327452334757e-21
1.0531058218030118 1.2429824506637365e-21 3.4746130279898173e-14 3.47461256879339e-14 4.591964264122449e-21
1.0540936079674168 1.2453254369181673e-21 3.4844278147738646e-14 3.484427345400288e-14 4.693735762558999e-21
1.058054026499678 1.2547055511272483e-21 3.523863657911875e-14 3.523863145629975e-14 5.12281898872755e-21
1.0590464539527713 1.257052604991289e-21 3.533766878261077e-14 3.533766354679844e-14 5.2358123322209135e-21
1.06003981227728 1.2594004623274266e-21 3.543687837063204e-14 3.5436873019445074e-14 5.351186959944465e-21
1.0620293250338977 1.2640985744379242e-21 3.563583040213338e-14 3.563582481286176e-14 5.58927163202013e-21
1.0660195594769086 1.2735042998823964e-21 3.603587086682218e-14 3.6035864770647297e-14 6.096174876753062e-21
1.070024785945596 1.2829225311376633e-21 3.643876953120904e-14 3.643876288436042e-14 6.6468486250798314e-21
1.0740450607676866 1.292353082731915e-21 3.684453827252107e-14 3.684453102765236e-14 7.244868710948926e-21
1.07808044048254 1.3017957802485202e-21 3.725318929853127e-14 3.7253181404446014e-14 7.89408525459692e-21
1.0861967418109137 1.3207025162490908e-21 3.8078771970039795e-14 3.8078762607040453e-14 9.362999339015513e-21
1.0902777775684922 1.3301333963534314e-21 3.8494775477976294e-14 3.849476528602251e-14 1.0191953795897379e-20
1.0943741465085532 1.3395752721047162e-21 3.891368686587855e-14 3.891367577521901e-14 1.1090659529258307e-20
1.1026131145906286 1.3584915691385411e-21 3.9760289168897964e-14 3.976027604899344e-14 1.3119904531159906e-20
1.1109141095355224 1.3774506487899628e-21 4.0618694759876593e-14 4.061867925968587e-14 1.5500190714386847e-20
1.1192775983109025 1.3964371055770727e-21 4.148858517277617e-14 4.148856688424812e-14 1.8288528053115216e-20
1.1277040513999907 1.4153823356532827e-21 4.236803721817195e-14 4.2368015667630015e-14 2.155054193575781e-20
1.1361939428280308 1.4343671046429435e-21 4.3259572109067106e-14 4.3259546747396094e-14 2.5361671010667218e-20
1.1447477501889525 1.4533915189156746e-21 4.416333414038518e-14 4.416330433186831e-14 2.9808516871911195e-20
1.1533659546722406 1.47246268071692e-21 4.507968339098504e-14 4.507964840057402e-14 3.499041100211795e-20
1.1707974979042381 1.510803121372975e-21 4.695254008299728e-14 4.695249205205177e-14 4.803094551701216e-20
1.1884924949847024 1.5493368552247031e-21 4.887780884201708e-14 4.887774324106877e-14 6.56009483159072e-20
1.2064549276569216 1.5883244941980182e-21 5.086508423320282e-14 5.0864995077843715e-14 8.915535909910775e-20
1.2246888378427687 1.6275138925470568e-21 5.2907823618464374e-14 5.290770304564936e-14 1.2057281502607265e-19
1.2431983285522175 1.6668735757340062e-21 5.500631006351603e-14 5.5006147793063265e-14 1.6227045275629513e-19
1.2619875648066055 1.7064613953743235e-21 5.716378491011601e-14 5.716356756767265e-14 2.173424433598365e-19
1.3004222497298317 1.7860801771202707e-21 6.165307964696857e-14 6.165269524035994e-14 3.8440660862418856e-19
1.3400274889804893 1.866613341493199e-21 6.639532576802946e-14 6.639465835469777e-14 6.674133316721707e-19
1.3808389325824078 1.9483603156061967e-21 7.141373237969061e-14 7.141259433080228e-14 1.1380488883143484e-18
1.4228933163050095 2.03201122207768e-21 7.674814272264576e-14 7.67462359261575e-14 1.9067964882436028e-18
1.466228494730424 2.1190243108399753e-21 8.247209514493597e-14 8.246895432842679e-14 3.140816509173094e-18
1.5108834753276823 2.2092282438747253e-21 8.86014830138227e-14 8.859639477988565e-14 5.08823393705167e-18
1.5568984535646726 2.3025484261912703e-21 9.515650734484195e-14 9.514839144699934e-14 8.115897842616764e-18
1.6043148490894465 2.3995315729464576e-21 1.0218461312451841e-13 1.021718439245203e-13 1.2769199998112638e-17
1.6531753430134553 2.5007530322959078e-21 1.0973853454925783e-13 1.0971874060272251e-13 1.9793946535318727e-17
1.7035239163302658 2.6068833076206662e-21 1.1787976446086018e-13 1.1784952710029902e-13 3.0237360561154116e-17
1.755405889504358 2.7198676590983684e-21 1.2673447123437294e-13 1.266889289797211e-13 4.5542254651784776e-17
1.8088679632656115 2.8396770183543647e-21 1.3634689328083682e-13 1.3627923873394806e-13 6.765454688875076e-17
1.8639582606462262 2.966222257408827e-21 1.4676054148137817e-13 1.4666137551293527e-13 9.916596844293231e-17
1.9207263702978936 3.0998212481736003e-21 1.5804166009011508e-13 1.57898185986853e-13 1.4347410326204483e-16
1.979223391128241 3.2409653693807196e-21 1.702701970003757e-13 1.700652245171018e-13 2.049724832739225e-16
2.039501978296691 3.390057009466147e-21 1.8352725358922796e-13 1.8323799808797064e-13 2.8925550125731694e-16
2.1016163906111602 3.548509339915861e-21 1.9795607426639258e-13 1.9755269931820508e-13 4.03374948187553e-16
2.1656225393682647 3.716931359454692e-21 2.1366664804202542e-13 2.131105842930379e-13 5.56063748987516e-16
2.231578038680979 3.8947788423843844e-21 2.307088816484714e-13 2.29950895213129e-13 7.579864353424217e-16
2.299542257339062 4.082042485028059e-21 2.49165752134993e-13 2.481437546608178e-13 1.0219974741751963e-15
2.369576372248914 4.279084827376889e-21 2.69147927296539e-13 2.677845142959298e-13 1.3634130006092685e-15
2.4417434235010123 4.486374635664462e-21 2.907803107568907e-13 2.8898010523296347e-13 1.800205523927278e-15
2.5161083711144245 4.7051580413187166e-21 3.1424833925342524e-13 3.11895073902177e-13 2.3532653512481426e-15
2.5927381535095444 4.937693416535783e-21 3.398225641506371e-13 3.367760250440293e-13 3.0465391066078947e-15
2.6717017477616296 5.185889623174739e-21 3.6777370641135896e-13 3.6386675498133066e-13 3.906951430028366e-15
2.753070231689431 5.452693572519647e-21 3.9847200558633747e-13 3.9350760292157096e-13 4.964402664766299e-15
2.836916847834745 5.746596808047952e-21 4.3273972706523227e-13 4.2648785331982603e-13 6.251873745406318e-15
2.9233170693905177 6.0865646902260374e-21 4.722996216945775e-13 4.644960092356772e-13 7.803612458900061e-15
2.967498994190263 6.2919547352423065e-21 4.95616325024424e-13 4.86943518697311e-13 8.672806327113088e-15
3.0123486681368425 6.5115417489965e-21 5.20665139337069e-13 5.110388681724788e-13 9.62627116459032e-15
3.0578761833420214 6.859862171087523e-21 5.568070421841981e-13 5.461331524449608e-13 1.0673889739237306e-14
3.1040917844459814 7.265107447408254e-21 5.986128414618733e-13 5.868008424465025e-13 1.1811999015370846e-14
3.127460860933648 7.630498654176504e-21 6.334527654824766e-13 6.210321576397269e-13 1.2420607842749734e-14
3.1510058709225794 8.091429818800276e-21 6.76774391445008e-13 6.63719950714887e-13 1.3054440730120911e-14
3.162844764501044 8.502566136343802e-21 7.138341627475062e-13 7.00451925365083e-13 1.3382237382423196e-14
3.1747281389236908 8.966955947262406e-21 7.556505635204716e-13 7.419340142521646e-13 1.3716549268307278e-14
3.1986289994194426 1.0219454407591337e-20 8.676828505249438e-13 8.532760747425078e-13 1.4406775782436263e-14
3.2227097969389145 1.3099238281194409e-20 1.1205640223991779e-12 1.1054264232182043e-12 1.513759918097357e-14
3.2348180950136065 1.579411142128015e-20 1.356171128113975e-12 1.3406436618237107e-12 1.5527466290264282e-14
3.240889293275058 1.7805214634175005e-20 1.5317251468859526e-12 1.5159920352220283e-12 1.573311166392465e-14
3.2469718861334385 2.0135257091985783e-20 1.7354221670399553e-12 1.7194762735659608e-12 1.5945893473994817e-14
3.2714166318528037 3.235581605784226e-20 2.8096850985031354e-12 2.7928603438262374e-12 1.6824754676898518e-14
3.2744851364798273 3.3120623012682914e-20 2.8787964198954056e-12 2.8618682216355378e-12 1.69281982598681e-14
3.2775565192852394 3.3905823758671087e-20 2.9498091799625185e-12 2.932777032864314e-12 1.7032147098204602e-14
3.283707930232385 3.315824518295372e-20 2.8901840061485757e-12 2.872966223601987e-12 1.7217782546589226e-14
3.2898708863219004 3.0772213825252984e-20 2.6872435467459464e-12 2.6698570633747322e-12 1.7386483371214135e-14
3.29141343181113 3.0208369538429587e-20 2.639241645787842e-12 2.6218128068437468e-12 1.742883894409638e-14
3.292184975758714 2.9931143086955826e-20 2.6156339444173686e-12 2.5981839006048734e-12 1.745004381249569e-14
3.295272960557952 2.8201320810449924e-20 2.4667791945053082e-12 2.4492467126833526e-12 1.753248182195647e-14
3.3076538914384823 2.216434752984351e-20 1.946007202994065e-12 1.928143729648828e-12 1.7863473345237287e-14
3.310756385682612 2.092322794857459e-20 1.83876125877154e-12 1.8208143808493922e-12 1.794687792214789e-14
3.313861789986515 1.9773247709172315e-20 1.739329374513258e-12 1.7212988289990665e-12 1.8030545514191803e-14
3.3200813396944477 1.8168700256485825e-20 1.6011868578816006e-12 1.5829762411614433e-12 1.8210616720156732e-14
3.345076488085796 1.5378142112906718e-20 1.3654611740593674e-12 1.346447794418989e-12 1.901337964037803e-14
3.3482140837626964 1.549493977463248e-20 1.3771224063110575e-12 1.3580002676283898e-12 1.912213868266758e-14
3.3513546224236106 1.5612781394259124e-20 1.3888971825424746e-12 1.3696658077628737e-12 1.923137477960084e-14
3.3576445397418455 1.6426760943991008e-20 1.4640506011426385e-12 1.4445907972894512e-12 1.9459803853187145e-14
3.3702598118196083 1.936688265956325e-20 1.7325769648843402e-12 1.712638044055912e-12 1.993892082842831e-14
3.382922481734668 2.0077139228053612e-20 1.8028654248549554e-12 1.7824611789774167e-12 2.040424587753872e-14
3.389271646505754 2.0443145350076325e-20 1.839177003404073e-12 1.8185369731625937e-12 2.064003024147957e-14
3.395632727569191 2.084540712506483e-20 1.87888641089024e-12 1.858003390638224e-12 2.0883020252015744e-14
3.421196662673239 2.2792703836953044e-20 2.069871192040305e-12 2.047982707177072e-12 2.1888484863232815e-14
3.4276182099114902 2.2450348682136495e-20 2.042607701372622e-12 2.0204952332635777e-12 2.2112468109044076e-14
3.4340518103208963 2.0877609488427268e-20 1.9030800043698025e-12 1.880755883111433e-12 2.2324121258370124e-14
3.4469541582030403 1.862361997693308e-20 1.703997847436213e-12 1.681267882601697e-12 2.272996483451619e-14
3.472904465399547 1.801757228492646e-20 1.6609575871130413e-12 1.6372921394218774e-12 2.366544769116338e-14
3.4990501388274233 1.7090110581353777e-20 1.58731993857272e-12 1.5626980980885665e-12 2.4621840484153542e-14
3.5253949054701885 1.3744032304977918e-20 1.2861492621432942e-12 1.2605997324269255e-12 2.5549529716368547e-14
3.5519380250092896 1.0560147923940623e-20 9.95645681285849e-13 9.691649059711483e-13 2.6480775314700562e-14
3.578680990867387 9.335485908667881e-21 8.868074791982545e-13 8.593061928032891e-13 2.7501286394965406e-14
3.605625307711299 8.88202165967633e-21 8.500840239132682e-13 8.215086669190053e-13 2.857535699426299e-14
3.660119384959845 8.63585508708569e-21 8.390155896800145e-13 8.081870018265287e-13 3.0828587853485705e-14
3.715437065384467 8.490116316440286e-21 8.373229263572044e-13 8.04123842585989e-13 3.319908377121547e-14
3.8285932144167436 8.600871853908179e-21 8.740799038801631e-13 8.358031497442127e-13 3.827675413595037e-14
3.94519561050918 8.813404831374749e-21 9.229574794465927e-13 8.791695739672117e-13 4.378790547938085e-14
4.06534921144712 9.061677425474861e-21 9.778582147406802e-13 9.281385407203435e-13 4.971967402033678e-14
4.189162171576248 9.325627901342212e-21 1.0369902881325512e-12 9.809138585096873e-13 5.6076429622863807e-14
4.316745939156006 9.596157206026072e-21 1.0995709973527065e-12 1.03674436035311e-12 6.282663699959632e-14
4.448215356677963 9.868366030180594e-21 1.165200031752235e-12 1.0953325008109383e-12 6.986753094129686e-14
4.58368876423945 1.0140736326664786e-20 1.233826360680292e-12 1.156626222503865e-12 7.720013817642675e-14
4.723288106065518 1.0413839317872983e-20 1.305643895140875e-12 1.2207808193505322e-12 8.4863075790343e-14
4.867139040275056 1.0688085031210943e-20 1.3808391324598059e-12 1.2882008781250768e-12 9.263825433472869e-14
4.940699165968905 1.0830831644662299e-20 1.42042938838164e-12 1.3238393718834821e-12 9.659001649815782e-14
5.015371051989984 1.0969527372231765e-20 1.4603616452087233e-12 1.3597907941113102e-12 1.0057085109741316e-13
5.091171501069577 1.112138051195295e-20 1.5029545935583744e-12 1.3982854732268526e-12 1.0466912033152174e-13
5.129500256944802 1.119555081027975e-20 1.5243684595026923e-12 1.417644338586634e-12 1.06724120916058e-13
5.168117569889187 1.1270121576995106e-20 1.5460745062333874e-12 1.4372703426003312e-12 1.0880416363305602e-13
5.20702561229733 1.135725234024967e-20 1.5697569775468805e-12 1.4586741684546136e-12 1.1108280909226713e-13
5.246226572918644 1.144359272551284e-20 1.5935983408018522e-12 1.4802273263177366e-12 1.1337101448411626e-13
5.265937586045735 1.1486467607203144e-20 1.6055788276725935e-12 1.491060467606895e-12 1.1451836006569868e-13
5.285722656980489 1.1529146463826457e-20 1.617599341011829e-12 1.5019316579704304e-12 1.1566768304139863e-13
5.305582063971359 1.1571630106593835e-20 1.6296600233812968e-12 1.5128411796037481e-12 1.1681884377754878e-13
5.3255160863122235 1.161637138741924e-20 1.6421076424622749e-12 1.524126121070387e-12 1.179815213918876e-13
5.365609099470188 1.1724262114207976e-20 1.6698366241492156e-12 1.5494490381253082e-12 1.2038758602390768e-13
5.406003951863644 1.183240443362324e-20 1.6979261514804328e-12 1.5751232392900256e-12 1.2280291219040716e-13
5.446702915881641 1.1940874007144936e-20 1.7263912923612262e-12 1.601164911922411e-12 1.2522638043881544e-13
5.487708281020852 1.2054393900965895e-20 1.755924460263285e-12 1.6282564949424347e-12 1.2766796532085026e-13
5.529022354014368 1.2209689288695342e-20 1.791935573021436e-12 1.6617226451996122e-12 1.3021292782182344e-13
5.570647458961463 1.2368603281284095e-20 1.8289244580999056e-12 1.6961573696214505e-12 1.3276708847845531e-13
5.612585937458331 1.2531507925959423e-20 1.8669632532112325e-12 1.7316339463323319e-12 1.3532930687890076e-13
5.654840148729818 1.2705771628699981e-20 1.9071761671192384e-12 1.7692641283890115e-12 1.3791203873022735e-13
5.67608639626678 1.2825565495063427e-20 1.932390764151914e-12 1.7931259278984818e-12 1.392648362534321e-13
5.686739436050992 1.2886560607758923e-20 1.945224734633423e-12 1.8052825282960906e-12 1.3994220633733288e-13
5.6974124697621304 1.2948314168698598e-20 1.9582147751597694e-12 1.8175945752898145e-12 1.406201998699542e-13
5.718818669136295 1.3074178695940145e-20 1.9846785495681596e-12 1.842700564953188e-12 1.419779846149718e-13
5.740305295436557 1.3212003560541557e-20 2.01313595672729e-12 1.869787084670377e-12 1.433488720569127e-13
5.7835210386641895 1.3570420196143598e-20 2.0833155151947786e-12 1.9371342117575334e-12 1.4618130343724552e-13
5.827062130521658 1.3972973815779945e-20 2.1612645349539787e-12 2.0122130721728277e-12 1.4905146278115047e-13
5.8489554468988025 1.425988002445965e-20 2.2139286370341528e-12 2.06332222010174e-12 1.50606416932413e-13
5.870931020387893 1.4562674645485565e-20 2.2694340025460513e-12 2.1172677975837504e-12 1.5216620496230054e-13
5.892989160043636 1.488262535502981e-20 2.3280088369921168e-12 2.1742781540127425e-12 1.5373068297937456e-13
5.915130176081913 1.5244615298593093e-20 2.3935924653065793e-12 2.238238447728894e-12 1.5535401757768475e-13
5.95966208400165 1.626468967195784e-20 2.5729826053898557e-12 2.4138996762305966e-12 1.5908292915925836e-13
6.004529249263818 1.7724382474724534e-20 2.8250068866683407e-12 2.661711037757196e-12 1.6329584891114597e-13
6.027089341400364 1.8739098628705394e-20 2.9979594839261977e-12 2.832214458720968e-12 1.6574502520523008e-13
6.049734195844842 1.9925937331442105e-20 3.1998121773261348e-12 3.0314696152055502e-12 1.683425621205843e-13
6.095279466722835 2.3348883041760636e-20 3.777714781367031e-12 3.6029364837816943e-12 1.7477829758533627e-13
6.141167624020661 2.856344408008245e-20 4.656192818763634e-12 4.472998698274247e-12 1.831941204893869e-13
6.164241091010745 3.188502858398883e-20 5.217180470013359e-12 5.028673976158489e-12 1.8850649385486944e-13
6.187401249150058 3.5615131218072817e-20 5.849412683636058e-12 5.655457030223336e-12 1.9395565341272163e-13
6.1990139391386085 3.7425729261800785e-20 6.158320928423873e-12 5.961593677592636e-12 1.9672725083123608e-13
6.204828454712694 3.837497625599049e-20 6.320440275540938e-12 6.12231374125283e-12 1.9812653428810706e-13
6.210648424152782 3.9060499876375993e-20 6.43938178944689e-12 6.240069844143557e-12 1.9931194530333427e-13
6.233982942956859 4.135281002285538e-20 6.842898039102869e-12 6.6394819064635624e-12 2.0341613263930524e-13
6.239830258556775 4.1624770430347694e-20 6.894361636314661e-12 6.690397634931905e-12 2.0396400138275584e-13
6.245683058788269 4.1615725102509443e-20 6.899328776162013e-12 6.694816252041685e-12 2.0451252412032775e-13
6.257405133728602 4.147751452797743e-20 6.889321168682808e-12 6.683861199868608e-12 2.054599688141991e-13
6.269149208991335 4.0932102877915254e-20 6.811489577821674e-12 6.605742685700415e-12 2.0574689212125997e-13
6.280915325867298 3.967659175976595e-20 6.614952509983844e-12 6.409734663288433e-12 2.0521784669541086e-13
6.304513850009849 3.6627296985115524e-20 6.129512090736429e-12 5.926089421210894e-12 2.0342266952553472e-13
6.32820103803542 3.2918989558028785e-20 5.52963158122221e-12 5.3287882093574194e-12 2.0084337186478836e-13
6.3519772230701035 2.9538407542981454e-20 4.980413978229551e-12 4.781899215421779e-12 1.9851476280777228e-13
6.375842739491607 2.6685969494416686e-20 4.5163752097304194e-12 4.319931289824298e-12 1.964439199061218e-13
6.399797922933955 2.442328298261786e-20 4.1489646603457426e-12 3.9536637435388665e-12 1.9530091680687384e-13
6.42384311029221 2.2533026138471246e-20 3.842234605003225e-12 3.647891236696295e-12 1.9434336830692988e-13
6.447978639727206 2.1159368582418e-20 3.6215603516437282e-12 3.427452667136403e-12 1.9410768450732595e-13
6.472204850670314 2.0008915969416007e-20 3.4375201136303138e-12 3.243505395186376e-12 1.940147184439379e-13
