Dust emission spectrum from A.P. Jones, M. Kohler, N. Ysard, M. Bocchio, and L. Verstraete (2017), A&A, 602A, 46J 
inside the DustPedia framework.

lambda    nu*dP/dnu     j_nu    j_nu(carb.) j_nu(sil)
 (um)   (erg s-1 H-1) (Jy cm2 sr-1 H-1)
0.9927057738263894 6.968929095111156e-20 1.8363523992888308e-12 1.836352213935678e-12 1.8535315250372834e-19
1.0001793341362166 7.085684437897828e-20 1.8811746466256064e-12 1.8811744236441535e-12 2.2298145252242863e-19
1.0077091589558085 7.202953547930995e-20 1.926705126297161e-12 1.926704858409147e-12 2.6788801430434866e-19
1.0114953028030835 7.261776380958261e-20 1.949737633759867e-12 1.949737340281388e-12 2.9347847841384257e-19
1.0152956718711033 7.320722495681382e-20 1.972949242267167e-12 1.9729489208619132e-12 3.214052540422553e-19
1.0229392996569957 7.438920495890959e-20 2.0198969529015514e-12 2.0198965678016905e-12 3.850998608153913e-19
1.0267826658714554 7.498038536522229e-20 2.0435987554578495e-12 2.0435983341203268e-12 4.213375222815165e-19
1.0306404723013447 7.557270762524236e-20 2.067481386466e-12 2.0674809256358956e-12 4.608301036877885e-19
1.03451277320114 7.616615786251874e-20 2.0915456064680586e-12 2.091545102613102e-12 5.038549564652292e-19
1.0383996230291617 7.676072281117678e-20 2.1157921935756427e-12 2.115791642863953e-12 5.507116901376323e-19
1.0403485208654093 7.705841932725841e-20 2.127984122930816e-12 2.1279835472536824e-12 5.756771344511928e-19
1.0423010764483396 7.735638983060438e-20 2.140221944172757e-12 2.140221342448918e-12 6.017238395690864e-19
1.0462171883269815 7.795314692005134e-20 2.1648356736286955e-12 2.164835016388048e-12 6.57240647388991e-19
1.0471985131304309 7.810250517161493e-20 2.171017950106545e-12 2.171017278239315e-12 6.718672297151608e-19
1.048180758391296 7.825193066933153e-20 2.177211790600609e-12 2.177211103795677e-12 6.86804932115345e-19
1.0501480137395462 7.855098273313407e-20 2.189634217020897e-12 2.1896334993819283e-12 7.176389688081936e-19
1.0521189612883777 7.885030179776882e-20 2.202103060473846e-12 2.202102310679333e-12 7.497945126482977e-19
1.0531058218030118 7.899986504244579e-20 2.2083494432229776e-12 2.2083486768372877e-12 7.663856899967636e-19
1.0540936079674168 7.914885241790988e-20 2.2145894936097687e-12 2.2145887102783987e-12 7.833313704093091e-19
1.058054026499678 7.974543604908876e-20 2.2396652642945077e-12 2.2396644095283636e-12 8.547661442670589e-19
1.0590464539527713 7.989473977709377e-20 2.24596316853055e-12 2.2459622949557654e-12 8.73574784530669e-19
1.06003981227728 8.004410635809174e-20 2.2522726854138456e-12 2.2522717926351775e-12 8.92778667701095e-19
1.0620293250338977 8.034302755138569e-20 2.264926613882284e-12 2.264925681478436e-12 9.324038485164616e-19
1.0660195594769086 8.094161852869672e-20 2.290374452069815e-12 2.290373435315699e-12 1.0167541160705251e-18
1.070024785945596 8.154120131662904e-20 2.3160097121684554e-12 2.3160086038025577e-12 1.1083658970574884e-18
1.0740450607676866 8.214176899621437e-20 2.341833351885473e-12 2.3418321440551935e-12 1.2078302794838247e-18
1.07808044048254 8.274331540747765e-20 2.3678463541143036e-12 2.3678450383308074e-12 1.3157834955995052e-18
1.0861967418109137 8.394841276583277e-20 2.4204182453106033e-12 2.420416685363933e-12 1.5599466709131216e-18
1.0902777775684922 8.454988456935657e-20 2.4469191075940606e-12 2.4469174099089403e-12 1.6976851194696251e-18
1.0943741465085532 8.51522830296626e-20 2.473611857976972e-12 2.4736100110008547e-12 1.846976116750421e-18
1.1026131145906286 8.635985278423849e-20 2.527577496459683e-12 2.527575312518747e-12 2.1839409353173562e-18
1.1109141095355224 8.757111625831191e-20 2.582324415181587e-12 2.5823218361845244e-12 2.5789970621795225e-18
1.1192775983109025 8.878514518134485e-20 2.63783455998278e-12 2.6378315184426767e-12 3.0415401033156376e-18
1.1277040513999907 8.999765848122162e-20 2.69398878877543e-12 2.6939852063969596e-12 3.582378470102577e-18
1.1361939428280308 9.121379473024656e-20 2.7509482877167564e-12 2.750944073787688e-12 4.213929068303066e-18
1.1447477501889525 9.243360712859441e-20 2.8087244381794492e-12 2.8087194877427047e-12 4.950436745098706e-18
1.1533659546722406 9.365758004254222e-20 2.8673419780173898e-12 2.867336169787875e-12 5.808229514197785e-18
1.1707974979042381 9.612176006771303e-20 2.9872593778639485e-12 2.987251412737917e-12 7.965126032103328e-18
1.1884924949847024 9.860360885949399e-20 3.110703994883272e-12 3.110693126861129e-12 1.0868022141246765e-17
1.2064549276569216 1.0111984791273105e-19 3.238298975126478e-12 3.238284219784573e-12 1.4755341904032475e-17
1.2246888378427687 1.0365516300855952e-19 3.369660379990566e-12 3.3696404454734706e-12 1.9934517095850637e-17
1.2431983285522175 1.0620794339772407e-19 3.504829130890149e-12 3.504802330344094e-12 2.6800546054578267e-17
1.2619875648066055 1.0878244217854975e-19 3.644041490506557e-12 3.644005632145749e-12 3.585836080983436e-17
1.3004222497298317 1.1398349105341448e-19 3.934556433903291e-12 3.934493148643845e-12 6.328525944741045e-17
1.3400274889804893 1.1927815521166095e-19 4.242716901376367e-12 4.242607265995042e-12 1.0963538132511922e-16
1.3808389325824078 1.2469039985926653e-19 4.5703080557231344e-12 4.570121529159446e-12 1.865265636886988e-16
1.4228933163050095 1.3026924584856482e-19 4.920210363077847e-12 4.919898553875581e-12 3.118092022670083e-16
1.466228494730424 1.361126954256544e-19 5.297484842506834e-12 5.296972437111074e-12 5.124053957609468e-16
1.5108834753276823 1.422176488819197e-19 5.703663547038978e-12 5.70283540064296e-12 8.281463960192966e-16
1.5568984535646726 1.485881107022399e-19 6.140642032351053e-12 6.139324289687349e-12 1.3177426637038405e-15
1.6043148490894465 1.5526860158361294e-19 6.61214970542107e-12 6.610081457852695e-12 2.0682475683747064e-15
1.6531753430134553 1.623074292805462e-19 7.122406413460209e-12 7.119208244103688e-12 3.1981693565235722e-15
1.7035239163302658 1.697607841795021e-19 7.676354823889387e-12 7.671481469564275e-12 4.873354325112835e-15
1.755405889504358 1.7776792083280633e-19 8.283242522413025e-12 8.275921048471657e-12 7.321473941369106e-15
1.8088679632656115 1.8634741892937357e-19 8.947458277014523e-12 8.936609878973376e-12 1.0848398041149742e-14
1.8639582606462262 1.9551724766642461e-19 9.67365714581999e-12 9.657797238957039e-12 1.5859906862951002e-14
1.9207263702978936 2.0532554718807315e-19 1.0468342442530745e-11 1.044545668609012e-11 2.2885756440625022e-14
1.979223391128241 2.158364064533997e-19 1.1339370606633723e-11 1.1306762519805844e-11 3.260808682787781e-14
2.039501978296691 2.271129008767749e-19 1.2295193513327046e-11 1.2249301913852588e-11 4.5891599474459826e-14
2.1016163906111602 2.392879219845902e-19 1.3348844012498902e-11 1.3285022706608208e-11 6.38213058906958e-14
2.1656225393682647 2.524492457742282e-19 1.4511966708266108e-11 1.4424232409421935e-11 8.773429884417282e-14
2.231578038680979 2.666161193880271e-19 1.5793119255985844e-11 1.5673864230248092e-11 1.192550257377526e-13
2.299542257339062 2.818477957344189e-19 1.7203842995101412e-11 1.704351206147854e-11 1.603309336228769e-13
2.369576372248914 2.9823036431278746e-19 1.8758236316825572e-11 1.8544967030127077e-11 2.1326928669849655e-13
2.4417434235010123 3.1585971039518394e-19 2.0472161199861565e-11 2.0191400190984582e-11 2.8076100887697844e-13
2.5161083711144245 3.3488249286757226e-19 2.236614929924585e-11 2.2000235237388762e-11 3.6591406185707713e-13
2.5927381535095444 3.5550573214823765e-19 2.4466660701186573e-11 2.3994394098914677e-11 4.722666022718948e-13
2.6717017477616296 3.779071571420258e-19 2.6800477056127198e-11 2.6196710811508792e-11 6.037662446184006e-13
2.753070231689431 4.0231667807476806e-19 2.940050297365359e-11 2.863574270469186e-11 7.647602689617294e-13
2.836916847834745 4.2928534314895817e-19 3.2326754152513455e-11 3.136675161843655e-11 9.600025340769053e-13
2.9233170693905177 4.599427632568918e-19 3.569021346905641e-11 3.4495860991707746e-11 1.1943524773486716e-12
2.967498994190263 4.775671350178146e-19 3.761789115936116e-11 3.6292863528974974e-11 1.3250276303861857e-12
3.0123486681368425 4.962949034214815e-19 3.968391281251413e-11 3.821578740209299e-11 1.4681254104211369e-12
3.0578761833420214 5.228218280635325e-19 4.243684033483137e-11 4.081173061577343e-11 1.6251097190579509e-12
3.1040917844459814 5.528265970558642e-19 4.555047568048896e-11 4.3755202919637584e-11 1.7952727608513784e-12
3.127460860933648 5.77311041508764e-19 4.792599964448357e-11 4.6039881759454986e-11 1.886117885028572e-12
3.1510058709225794 6.073099799199156e-19 5.0795947228486486e-11 4.881532806915578e-11 1.980619159330726e-12
3.162844764501044 6.327637027411412e-19 5.312376766262538e-11 5.109431735971693e-11 2.02945030290846e-12
3.1747281389236908 6.612317336428773e-19 5.572238060313031e-11 5.3643157803494116e-11 2.0792227996361897e-12
3.1986289994194426 7.366485503907809e-19 6.254515050855742e-11 6.036325538884045e-11 2.1818951197169604e-12
3.2227097969389145 9.053703656803965e-19 7.744919490351722e-11 7.515869847096213e-11 2.2904964325550803e-12
3.2348180950136065 1.061563194714339e-18 9.115177909915827e-11 8.88033748295e-11 2.3484042696582607e-12
3.240889293275058 1.177678821193175e-18 1.013119079123178e-10 9.893295825640649e-11 2.3789496559113165e-12
3.2469718861334385 1.3120683591498244e-18 1.1308484936339023e-10 1.1067429431832335e-10 2.410555045066904e-12
3.2714166318528037 2.014012219821713e-18 1.7489097206264856e-10 1.7234996619502277e-10 2.5410058676258552e-12
3.2744851364798273 2.058100120405481e-18 1.7888707154273014e-10 1.7633073764206103e-10 2.556333900669069e-12
3.2775565192852394 2.1033391305629005e-18 1.8299066024968925e-10 1.8041892580468022e-10 2.5717344450090868e-12
3.283707930232385 2.061359795049406e-18 1.7967504244260458e-10 1.7707585892633814e-10 2.5991835162664828e-12
3.2898708863219004 1.925748612635217e-18 1.6816975084555526e-10 1.6554567169599354e-10 2.624079149561666e-12
3.29141343181113 1.893707482062089e-18 1.6544923569079602e-10 1.628189072357203e-10 2.6303284550757362e-12
3.292184975758714 1.8779545635581616e-18 1.6411139689004827e-10 1.614779399699929e-10 2.633456920055359e-12
3.295272960557952 1.7796270480074867e-18 1.5566458768048497e-10 1.530189776088167e-10 2.6456100716682434e-12
3.3076538914384823 1.4364321115898138e-18 1.2611728055617115e-10 1.2342289919912114e-10 2.6943813570499853e-12
3.310756385682612 1.3658733420090355e-18 1.2003477627103533e-10 1.1732811022329116e-10 2.70666604774418e-12
3.313861789986515 1.3004967303285369e-18 1.1439659269881041e-10 1.1167760519228957e-10 2.7189875065208018e-12
3.3200813396944477 1.2096191060923334e-18 1.066023539590362e-10 1.0385682451656537e-10 2.7455294424708607e-12
3.345076488085796 1.0542609342929564e-18 9.361029196734918e-11 9.074637212169326e-11 2.8639198456559294e-12
3.3482140837626964 1.0614792105484575e-18 9.433962480272532e-11 9.145966225883403e-11 2.8799625438912797e-12
3.3513546224236106 1.0687568914168403e-18 9.507552804508746e-11 9.217945502353299e-11 2.896073021554455e-12
3.3576445397418455 1.1163832089589873e-18 9.949870907324798e-11 9.656893748546691e-11 2.929771587781049e-12
3.3702598118196083 1.2863991393337203e-18 1.1508230599807367e-10 1.1208185702745138e-10 3.0004489706222835e-12
3.382922481734668 1.329155901355479e-18 1.193541167183521e-10 1.1628511368439826e-10 3.0690030339538667e-12
3.389271646505754 1.3511478687867435e-18 1.2155664140311583e-10 1.1845291837373047e-10 3.1037230293853588e-12
3.395632727569191 1.3753038061878454e-18 1.2396206112879797e-10 1.208225567805055e-10 3.139504348292467e-12
3.421196662673239 1.4915872188584395e-18 1.3545533855115135e-10 1.321678687903772e-10 3.2874697607741597e-12
3.4276182099114902 1.4729677240813208e-18 1.3401552286249327e-10 1.306951889357623e-10 3.320333926730983e-12
3.4340518103208963 1.3839368449094758e-18 1.2615153752721424e-10 1.2280019608714323e-10 3.351341440071013e-12
3.4469541582030403 1.2567164374624118e-18 1.1498527713333991e-10 1.1157457499169856e-10 3.4107021416413694e-12
3.472904465399547 1.2258277810423355e-18 1.1300345691520119e-10 1.0945577435038738e-10 3.547682564813822e-12
3.4990501388274233 1.1767404817020954e-18 1.0929499959873533e-10 1.0560748405579891e-10 3.687515542936393e-12
3.5253949054701885 9.89960507726265e-19 9.263925959356096e-11 8.881644820171426e-11 3.822811391846687e-12
3.5519380250092896 8.123434537754717e-19 7.659042821159315e-11 7.263207423621965e-11 3.958353975373509e-12
3.578680990867387 7.469310306629053e-19 7.095335271430379e-11 6.684649186949299e-11 4.1068608448107986e-12
3.605625307711299 7.256931711720687e-19 6.945492757319089e-11 6.519192385054914e-11 4.263003722641734e-12
3.660119384959845 7.210761955777234e-19 7.005608168918802e-11 6.546624365008475e-11 4.589838039103277e-12
3.715437065384467 7.223128630356307e-19 7.123684737408023e-11 6.630421686178698e-11 4.93263051229326e-12
3.8285932144167436 7.481224143349875e-19 7.602935831620196e-11 7.036610912175305e-11 5.663249194448927e-12
3.94519561050918 7.800997351658954e-19 8.169361320185279e-11 7.524279323688817e-11 6.450819964964611e-12
4.06534921144712 8.143083424562125e-19 8.78731458442913e-11 8.058084851403321e-11 7.292297330258085e-12
4.189162171576248 8.494334962942001e-19 9.44552254701031e-11 8.626807705624643e-11 8.187148413856627e-12
4.316745939156006 8.847477030104278e-19 1.0137838442181613e-10 9.224877725354181e-11 9.12960716827429e-12
4.448215356677963 9.197093448033325e-19 1.0859400173141516e-10 9.849018734738579e-11 1.0103814384029363e-11
4.58368876423945 9.54051603482034e-19 1.1607973818727477e-10 1.0497091264473432e-10 1.110882554254041e-11
4.723288106065518 9.876468238417991e-19 1.2382705424416923e-10 1.116780651465131e-10 1.2148989097656135e-11
4.867139040275056 1.0201890431447885e-18 1.3180255856567076e-10 1.1861033720142463e-10 1.3192221364246095e-11
4.940699165968905 1.0363251541426905e-18 1.3591077335126537e-10 1.2219294051131558e-10 1.3717832839949807e-11
5.015371051989984 1.0518861273151016e-18 1.400364941288793e-10 1.257924015351879e-10 1.424409259369141e-11
5.091171501069577 1.0678910171341797e-18 1.4431587048896846e-10 1.2953264736365318e-10 1.478322312531532e-11
5.129500256944802 1.0756457007559803e-18 1.4645821430478738e-10 1.3140598303223913e-10 1.5052231272548235e-11
5.168117569889187 1.0833354921516431e-18 1.4861573361660487e-10 1.3329183707376707e-10 1.5323896542837776e-11
5.20702561229733 1.0917580535134784e-18 1.508987183653708e-10 1.35275610209888e-10 1.5623108155482853e-11
5.246226572918644 1.1000283476739402e-18 1.5318645042128882e-10 1.372637968047671e-10 1.5922653616521762e-11
5.265937586045735 1.1041056211403346e-18 1.5433192078176795e-10 1.3825942137903902e-10 1.607249940272896e-11
5.285722656980489 1.1081439247673032e-18 1.5547836850490663e-10 1.3925600261304234e-10 1.6222365891864316e-11
5.305582063971359 1.112142984011453e-18 1.5662572555742907e-10 1.4025349358486183e-10 1.637223197256721e-11
5.3255160863122235 1.1162476047279668e-18 1.5779443179555854e-10 1.4127095888977533e-10 1.6523472905783185e-11
5.365609099470188 1.1254565344597683e-18 1.6029397175038606e-10 1.434573530181969e-10 1.683661873218917e-11
5.406003951863644 1.1345566885298423e-18 1.6280659460200451e-10 1.4565661645408558e-10 1.7149978147918926e-11
5.446702915881641 1.1435495726271732e-18 1.653324558475086e-10 1.478690742787791e-10 1.74633815687295e-11
5.487708281020852 1.1527052854606167e-18 1.6791084005085363e-10 1.5013262101142782e-10 1.77782190394258e-11
5.529022354014368 1.1641329217617743e-18 1.7085211137696422e-10 1.5274567494792276e-10 1.810643642904147e-11
5.570647458961463 1.1756153940704537e-18 1.7383626094530134e-10 1.5540149081497719e-10 1.843477013032408e-11
5.612585937458331 1.1871696472331652e-18 1.7686635318010792e-10 1.58103305074555e-10 1.8763048105552964e-11
5.654840148729818 1.1992115486755011e-18 1.800054142167892e-10 1.6091242170290056e-10 1.9092992513888625e-11
5.67608639626678 1.2070284755483732e-18 1.8185948051302715e-10 1.6259341913566826e-10 1.9266061377358845e-11
5.686739436050992 1.2109805157308878e-18 1.8279735951736814e-10 1.6344474663292895e-10 1.9352612884439155e-11
5.6974124697621304 1.2149629173450235e-18 1.8374271005623627e-10 1.6430353792976242e-10 1.9439172126473835e-11
5.718818669136295 1.2230228950579444e-18 1.8565658018778587e-10 1.6604427734869823e-10 1.961230283908759e-11
5.740305295436557 1.2317073719008248e-18 1.8767739405892077e-10 1.6789048355764456e-10 1.9786910501276305e-11
5.7835210386641895 1.2535659701366276e-18 1.9244602577950972e-10 1.7229848809524023e-10 2.014753768426957e-11
5.827062130521658 1.2776391052016613e-18 1.976183540417344e-10 1.7710634673472978e-10 2.051200730700466e-11
5.8489554468988025 1.2943921365718316e-18 2.0096184636846478e-10 1.8025170046596084e-10 2.071014590250389e-11
5.870931020387893 1.311930079711582e-18 2.044499931737053e-10 1.83541412428813e-10 2.090858074489228e-11
5.892989160043636 1.3303180136264977e-18 2.08094473780838e-10 1.8698718452668564e-10 2.1107289254152365e-11
5.915130176081913 1.3509612713512484e-18 2.121175678553052e-10 1.9080385915050356e-10 2.131370870480174e-11
5.95966208400165 1.408476854846984e-18 2.2281313204909552e-10 2.010216498763998e-10 2.17914821726957e-11
6.004529249263818 1.4897645694355418e-18 2.374466458378156e-10 2.1511329600781384e-10 2.233334983000174e-11
6.027089341400364 1.5459070246043802e-18 2.4732068054657625e-10 2.2467055121114511e-10 2.265012933543112e-11
6.049734195844842 1.6112234659193647e-18 2.587387675111832e-10 2.3575226891335694e-10 2.2986498597826258e-11
6.095279466722835 1.7987065217287178e-18 2.9102035426374197e-10 2.671946271076046e-10 2.3825727156137358e-11
6.141167624020661 2.0824539249014487e-18 3.3946561147692944e-10 3.1453529385921786e-10 2.4930317617711608e-11
6.164241091010745 2.262849824664993e-18 3.7025828221285105e-10 3.446273284703423e-10 2.563095374250873e-11
6.187401249150058 2.4642613784494367e-18 4.0472914937856577e-10 3.78380187640887e-10 2.6348961737678674e-11
6.1990139391386085 2.561832862502096e-18 4.2154392829355877e-10 3.9482988063286596e-10 2.6714047660692805e-11
6.204828454712694 2.612888708277109e-18 4.3034833213018025e-10 4.034500370432439e-10 2.689829508693637e-11
6.210648424152782 2.649658209725033e-18 4.3681368333642635e-10 4.0976002103999803e-10 2.705366229642833e-11
6.233982942956859 2.7719467020377398e-18 4.586906824805416e-10 4.311021505368935e-10 2.7588531943647947e-11
6.239830258556775 2.7860526535722962e-18 4.614573085437929e-10 4.3379970929435434e-10 2.765759924943851e-11
6.245683058788269 2.7850740807779638e-18 4.617279093881674e-10 4.3400118568300557e-10 2.7726723705161943e-11
6.257405133728602 2.7765960612428227e-18 4.611863135795824e-10 4.333416046562902e-10 2.784470892329217e-11
6.269149208991335 2.7460513646640374e-18 4.569689543281228e-10 4.290954633891683e-10 2.787349093895435e-11
6.280915325867298 2.6771929880599356e-18 4.4634641461408356e-10 4.1855424792800896e-10 2.7792166686074517e-11
6.304513850009849 2.5105474213358865e-18 4.201355830242942e-10 3.926053632064061e-10 2.7530219817888206e-11
6.32820103803542 2.3091817000376518e-18 3.8788930725834824e-10 3.60726646761437e-10 2.7162660496911328e-11
6.3519772230701035 2.126018677565388e-18 3.5846391259638715e-10 3.316348454069624e-10 2.682906718942473e-11
6.375842739491607 1.9711281859844633e-18 3.33596816718377e-10 3.070663313812551e-10 2.6530485337121876e-11
6.399797922933955 1.84905367747995e-18 3.1411249537609634e-10 2.8775580199096356e-10 2.6356693385132806e-11
6.42384311029221 1.7468259121820595e-18 2.978612338820813e-10 2.7165327603819356e-10 2.6207957843887654e-11
6.447978639727206 1.6728380293913517e-18 2.8631685574018344e-10 2.601607525183736e-10 2.6156103221809838e-11
6.472204850670314 1.6107554876123873e-18 2.767268549316413e-10 2.506034752553782e-10 2.612337967626312e-11
6.496522083828205 1.570308504708465e-18 2.7079169142296824e-10 2.446229210688747e-10 2.6168770354093563e-11
6.520930681187647 1.5359370339724978e-18 2.6585965002840093e-10 2.3963399764167676e-10 2.622565238672425e-11
