Dust emission spectrum from A.P. Jones, M. Kohler, N. Ysard, M. Bocchio, and L. Verstraete (2017), A&A, 602A, 46J 
inside the DustPedia framework.

lambda    nu*dP/dnu     j_nu    j_nu(carb.) j_nu(sil)
 (um)   (erg s-1 H-1) (Jy cm2 sr-1 H-1)
0.9927057738263894 3.784985471295566e-22 9.97365169974673e-15 9.973651699746537e-15 1.9116868365242707e-28
1.0001793341362166 3.847528713324912e-22 1.0214783809675535e-14 1.0214783809675303e-14 2.3035391841830822e-28
1.0077091589558085 3.909983092248153e-22 1.0458743649309888e-14 1.045874364930961e-14 2.7721980919385453e-28
1.0114953028030835 3.941169266799645e-22 1.058177178334296e-14 1.0581771783342657e-14 3.039705492900379e-28
1.0152956718711033 3.972324020378813e-22 1.0705492074954816e-14 1.0705492074954482e-14 3.331964470095484e-28
1.0229392996569957 4.034496531375659e-22 1.0954905694608493e-14 1.0954905694608093e-14 3.999701239250377e-28
1.0267826658714554 4.0654389006372873e-22 1.1080399010040028e-14 1.108039901003959e-14 4.380240481084787e-28
1.0306404723013447 4.096336168849546e-22 1.1206557298173448e-14 1.1206557298172965e-14 4.795450320395062e-28
1.03451277320114 4.127185354445117e-22 1.1333375133284609e-14 1.1333375133284087e-14 5.248337584426102e-28
1.0383996230291617 4.157983492375398e-22 1.1460847021757464e-14 1.1460847021756894e-14 5.7421556480556915e-28
1.0403485208654093 4.1733624965453803e-22 1.1524826501005058e-14 1.1524826501004461e-14 6.005502463020374e-28
1.0423010764483396 4.188727634679086e-22 1.1588967403383525e-14 1.1588967403382897e-14 6.280423392629323e-28
1.0462171883269815 4.219414851038259e-22 1.171773065266307e-14 1.1717730652662385e-14 6.866945517907821e-28
1.0471985131304309 4.227077418776612e-22 1.1750021247704254e-14 1.1750021247703552e-14 7.021590618899928e-28
1.048180758391296 4.234736201222677e-22 1.1782351577171641e-14 1.1782351577170928e-14 7.1795744177901535e-28
1.0501480137395462 4.250042229321861e-22 1.1847131080107394e-14 1.1847131080106645e-14 7.505834295497355e-28
1.0521189612883777 4.265332574248238e-22 1.1912068440499753e-14 1.191206844049897e-14 7.846291063546501e-28
1.0531058218030118 4.272960015897623e-22 1.1944563281154461e-14 1.1944563281153664e-14 8.022037404333555e-28
1.0540936079674168 4.280544947371542e-22 1.1976989656552915e-14 1.1976989656552095e-14 8.201593348173073e-28
1.058054026499678 4.310841632043588e-22 1.2107078149550094e-14 1.2107078149549198e-14 8.959121387622617e-28
1.0590464539527713 4.318404821329637e-22 1.2139695557644039e-14 1.2139695557643118e-14 9.1587344692265e-28
1.06003981227728 4.325963529514676e-22 1.217235089368628e-14 1.2172350893685345e-14 9.362607485273525e-28
1.0620293250338977 4.3410673265372835e-22 1.2237774975856678e-14 1.22377749758557e-14 9.783481324326146e-28
1.0660195594769086 4.371219215505725e-22 1.2369074151935143e-14 1.2369074151934078e-14 1.0680271195346574e-27
1.070024785945596 4.401294504860228e-22 1.2500969638389608e-14 1.250096963838844e-14 1.1655531131529736e-27
1.0740450607676866 4.431290422229859e-22 1.2633455341273206e-14 1.2633455341271936e-14 1.271577599205482e-27
1.07808044048254 4.461204217408374e-22 1.2766525113393195e-14 1.2766525113391805e-14 1.3868030225513056e-27
1.0861967418109137 4.520721700670485e-22 1.303423963094614e-14 1.303423963094449e-14 1.6479440727408128e-27
1.0902777775684922 4.550199813820321e-22 1.316852284839566e-14 1.3168522848393865e-14 1.7955547560150954e-27
1.0943741465085532 4.579582932121874e-22 1.3303355168456845e-14 1.330335516845489e-14 1.9557641870677073e-27
1.1026131145906286 4.638053737715439e-22 1.3574641314071148e-14 1.357464131406883e-14 2.3181300720843448e-27
1.1109141095355224 4.696113476761977e-22 1.3848046028937885e-14 1.3848046028935142e-14 2.7441503233569152e-27
1.1192775983109025 4.7536880254696015e-22 1.4123356486434793e-14 1.4123356486431552e-14 3.244355768133765e-27
1.1277040513999907 4.810510010891017e-22 1.4399774678956135e-14 1.4399774678952304e-14 3.830905376652672e-27
1.1361939428280308 4.866853827192214e-22 1.467811227685119e-14 1.467811227684667e-14 4.517817002127979e-27
1.1447477501889525 4.9227006800109885e-22 1.495831454738524e-14 1.495831454737992e-14 5.3212323692191136e-27
1.1533659546722406 4.978062638337697e-22 1.5240419371952666e-14 1.5240419371946402e-14 6.259722849573008e-27
1.1707974979042381 5.087510579451927e-22 1.581089825835875e-14 1.5810898258350123e-14 8.630452348407467e-27
1.1884924949847024 5.194783125928058e-22 1.6388277071484405e-14 1.6388277071472566e-14 1.1840679069737086e-26
1.2064549276569216 5.300718782013946e-22 1.697521560163295e-14 1.6975215601616784e-14 1.616640499969833e-26
1.2246888378427687 5.404160802789017e-22 1.7568045831689463e-14 1.7568045831667492e-14 2.196634407711453e-26
1.2431983285522175 5.504867124995813e-22 1.8165890463686604e-14 1.8165890463656902e-14 2.970513943441595e-26
1.2619875648066055 5.602799967864334e-22 1.8768502652657245e-14 1.8768502652617262e-14 3.998156631682043e-26
1.3004222497298317 5.788717285365239e-22 1.9981871610256073e-14 1.9981871610184643e-14 7.14275916199741e-26
1.3400274889804893 5.961184241894672e-22 2.1203896967072147e-14 2.1203896966946838e-14 1.2530673855351261e-25
1.3808389325824078 6.11956025378126e-22 2.2430175504213927e-14 2.2430175503997968e-14 2.1596535043925954e-25
1.4228933163050095 6.264614292283992e-22 2.3661164199424796e-14 2.366116419905894e-14 3.658535505137628e-25
1.466228494730424 6.399833904318733e-22 2.4908053577711917e-14 2.4908053577102427e-14 6.094810780856427e-25
1.5108834753276823 6.522590607902005e-22 2.6158963092856397e-14 2.615896309185747e-14 9.989288357832783e-25
1.5568984535646726 6.630757166948098e-22 2.7402667665159754e-14 2.7402667663547335e-14 1.6124247209394873e-24
1.6043148490894465 6.724529527631402e-22 2.863656623536948e-14 2.863656623280154e-14 2.5679315703213296e-24
1.6531753430134553 6.804191076668683e-22 2.9858284600828397e-14 2.985828459679788e-14 4.0305169864984375e-24
1.7035239163302658 6.870685982144667e-22 3.106831989341963e-14 3.1068319887183424e-14 6.236204960388477e-24
1.755405889504358 6.929476648746756e-22 3.228846653888218e-14 3.228846652936554e-14 9.516644696769517e-24
1.8088679632656115 6.979212824271329e-22 3.351064152664213e-14 3.351064151231332e-14 1.4328815784689582e-23
1.8639582606462262 7.018979486053575e-22 3.472798531691184e-14 3.472798529561684e-14 2.129500582740487e-23
1.9207263702978936 7.0494381298018265e-22 3.5940940316892845e-14 3.594094028564232e-14 3.1250515403472463e-23
1.979223391128241 7.072130101812439e-22 3.715476249837201e-14 3.715476245306933e-14 4.530268183251224e-23
2.039501978296691 7.088900380155839e-22 3.837712504848149e-14 3.837712498358182e-14 6.489966797945017e-23
2.1016163906111602 7.10491874232869e-22 3.963528590420594e-14 3.9635285812287404e-14 9.191852433394486e-23
2.1656225393682647 7.123182626810864e-22 4.094739472092797e-14 4.0947394592171875e-14 1.2875609629208479e-22
2.231578038680979 7.143906005006904e-22 4.2317231137261106e-14 4.2317230958823534e-14 1.7843755714471607e-22
2.299542257339062 7.168883492555975e-22 4.375849232197706e-14 4.3758492077235435e-14 2.447416310799993e-22
2.369576372248914 7.202084243188721e-22 4.5300014476636964e-14 4.530001414428963e-14 3.323473359443248e-22
2.4417434235010123 7.248195348026628e-22 4.697852201131833e-14 4.697852156433432e-14 4.469840267572236e-22
2.5161083711144245 7.315244345394718e-22 4.885709186782201e-14 4.8857091272197465e-14 5.956245344532975e-22
2.5927381535095444 7.416368191447195e-22 5.104102346781547e-14 5.104102268113318e-14 7.86682270040078e-22
2.6717017477616296 7.5672513607585135e-22 5.366554791015427e-14 5.366554687996776e-14 1.0301865168834548e-21
2.753070231689431 7.791508728748722e-22 5.693879673222314e-14 5.693879539419756e-14 1.3380255754297826e-21
2.836916847834745 8.14264123747366e-22 6.131706233086838e-14 6.131706060659467e-14 1.7242737209028912e-21
2.9233170693905177 8.738479265677064e-22 6.780804380495156e-14 6.780804159977393e-14 2.205177629503322e-21
2.967498994190263 9.244492796437951e-22 7.281873025599402e-14 7.281872777255878e-14 2.4834352432203015e-21
3.0123486681368425 9.835460189057212e-22 7.864468120117431e-14 7.864467840757581e-14 2.7935985010767996e-21
3.0578761833420214 1.11577773703064e-21 9.056638253017782e-14 9.056637939035965e-14 3.139818151276873e-21
3.1040917844459814 1.2861721287118696e-21 1.0597491615240165e-13 1.0597491262900599e-13 3.5233956674806295e-21
3.127460860933648 1.466427499350669e-21 1.217368086861269e-13 1.2173680495448049e-13 3.7316464382291546e-21
3.1510058709225794 1.7065921063433608e-21 1.4274088264744186e-13 1.4274087869656192e-13 3.950880000865329e-21
3.162844764501044 1.93014964662509e-21 1.620459911610271e-13 1.6204598709566224e-13 4.065364884553788e-21
3.1747281389236908 2.1901277200413967e-21 1.8456332958079792e-13 1.8456332539801534e-13 4.182782596356125e-21
3.1986289994194426 2.915278836207392e-21 2.475217707117955e-13 2.475217662843133e-13 4.427482147912023e-21
3.2227097969389145 4.624639034968284e-21 3.956111040905345e-13 3.956110993994437e-13 4.691090732508217e-21
3.2348180950136065 6.245647173027579e-21 5.362863504327579e-13 5.36286345598787e-13 4.833970749928783e-21
3.240889293275058 7.457561982490558e-21 6.415499873344108e-13 6.415499824241648e-13 4.910245935579424e-21
3.2469718861334385 8.859561194647944e-21 7.635898969255578e-13 7.63589891935747e-13 4.989810986958746e-21
3.2714166318528037 1.633806843159345e-20 1.4187504134808058e-12 1.4187504081574882e-12 5.3233176442665936e-21
3.2744851364798273 1.68055757711194e-20 1.46071622341323e-12 1.4607162180506468e-12 5.362582552570706e-21
3.2775565192852394 1.7286511242938935e-20 1.5039277593397461e-12 1.5039277539376216e-12 5.4021244180096e-21
3.283707930232385 1.6824010363456896e-20 1.4664372436916026e-12 1.4664372382202988e-12 5.471304019801515e-21
3.2898708863219004 1.535726364940789e-20 1.3411029791974405e-12 1.3411029736645354e-12 5.5329053524538134e-21
3.29141343181113 1.5011368075358737e-20 1.3115116237682415e-12 1.3115116182198492e-12 5.5483926640508715e-21
3.292184975758714 1.4841407228375954e-20 1.2969664545280695e-12 1.2969664489719204e-12 5.556149405378971e-21
3.295272960557952 1.3768596709421846e-20 1.2043438719987453e-12 1.2043438664127975e-12 5.585948203948876e-21
3.3076538914384823 1.0052047871319636e-20 8.825595942353142e-13 8.825595885295968e-13 5.7057173749221065e-21
3.310756385682612 9.295634448056047e-21 8.169127890207808e-13 8.169127832847981e-13 5.735982878161787e-21
3.313861789986515 8.597725004034664e-21 7.562882877640629e-13 7.562882819976848e-13 5.7663784550783254e-21
3.3200813396944477 7.618985075404756e-21 6.714524760118285e-13 6.714524701789562e-13 5.832872556712225e-21
3.345076488085796 5.87300622141649e-21 5.214779465214306e-13 5.214779403848615e-13 6.136569055616649e-21
3.3482140837626964 5.938478474874962e-21 5.277859666505348e-13 5.277859604719568e-13 6.178578006346153e-21
3.3513546224236106 6.004674598299192e-21 5.341697562439909e-13 5.341697500231453e-13 6.220845689355203e-21
3.3576445397418455 6.488450676845238e-21 5.782893016041953e-13 5.782892952938862e-13 6.3103091942073325e-21
3.3702598118196083 8.272822080467874e-21 7.40093345075723e-13 7.400933385751455e-13 6.500577493840016e-21
3.382922481734668 8.67923345552673e-21 7.793685013325723e-13 7.793684946485703e-13 6.684002054007152e-21
3.389271646505754 8.889782851663479e-21 7.997734157857616e-13 7.997734090082786e-13 6.777482980583779e-21
3.395632727569191 9.116660425232289e-21 8.217239069930861e-13 8.217239001188417e-13 6.874244379860432e-21
3.421196662673239 1.0206042279451452e-20 9.268401436749404e-13 9.268401363963003e-13 7.2786399131123e-21
3.4276182099114902 9.986510995519542e-21 9.086061226978395e-13 9.08606115329206e-13 7.36863367762555e-21
3.4340518103208963 9.024521525140177e-21 8.226222677945546e-13 8.22622260341397e-13 7.453157539323568e-21
3.4469541582030403 7.654470833828084e-21 7.003580313742133e-13 7.003580237593623e-13 7.614850963405026e-21
3.472904465399547 7.27050474427037e-21 6.702345813392427e-13 6.70234573339761e-13 7.999481825730867e-21
3.4990501388274233 6.683243377141215e-21 6.207359172061013e-13 6.207359088085452e-13 8.397556353606023e-21
3.5253949054701885 4.593294775831579e-21 4.2983474977738165e-13 4.298347409943817e-13 8.782999962465995e-21
3.5519380250092896 2.6289763239658225e-21 2.4786858498688164e-13 2.4786857581331733e-13 9.173564287496778e-21
3.578680990867387 1.8500973074268615e-21 1.7574662374535235e-13 1.7574661413192443e-13 9.613427918869765e-21
3.605625307711299 1.5350413147918772e-21 1.4691633816607305e-13 1.469163280798794e-13 1.0086193614106802e-20
3.660119384959845 1.3051696440424586e-21 1.2680361903783206e-13 1.2680360793205793e-13 1.1105774133272074e-20
3.715437065384467 1.1423617718047462e-21 1.1266343900070393e-13 1.1266342678549971e-13 1.2215204188703146e-20
3.8285932144167436 1.0596383599577883e-21 1.0768775672419468e-13 1.0768774199076423e-13 1.473343046675683e-20
3.94519561050918 1.043670015352322e-21 1.0929522303508121e-13 1.0929520533841303e-13 1.7696668196327207e-20
4.06534921144712 1.0551505181292709e-21 1.1386276000511284e-13 1.1386273882366482e-13 2.1181448036176215e-20
4.189162171576248 1.0825653550865753e-21 1.2037899982391228e-13 1.2037897453479275e-13 2.5289119511048324e-20
4.316745939156006 1.1216360247317604e-21 1.2852211733323242e-13 1.2852208720395056e-13 3.012928188300365e-20
4.448215356677963 1.1709411000213663e-21 1.382580057075492e-13 1.3825796990323734e-13 3.580431183446101e-20
4.58368876423945 1.2306791075022304e-21 1.4973708766907184e-13 1.4973704517539414e-13 4.249367769578365e-20
4.723288106065518 1.3022480521650946e-21 1.6327044881039425e-13 1.6327039837350132e-13 5.043689292155291e-20
4.867139040275056 1.3884228746057995e-21 1.7937625234637636e-13 1.7937619254688154e-13 5.97994949127408e-20
4.940699165968905 1.440441062486037e-21 1.8890929935146596e-13 1.8890923422531498e-13 6.512615099765796e-20
5.015371051989984 1.4943582683855566e-21 1.9894234503439667e-13 1.9894227410377203e-13 7.093062466756206e-20
5.091171501069577 1.5601349441003827e-21 2.1083821188264068e-13 2.1083813455345518e-13 7.732918549595718e-20
5.129500256944802 1.5939146392974678e-21 2.170248918037787e-13 2.1702481106096256e-13 8.074281611371833e-20
5.168117569889187 1.6291397459137344e-21 2.2349106094739479e-13 2.2349097662704513e-13 8.432034971599316e-20
5.20702561229733 1.6723354396383597e-21 2.311439551156029e-13 2.311438669507999e-13 8.816480305098718e-20
5.246226572918644 1.7166466028729084e-21 2.390547482507341e-13 2.3905465606595937e-13 9.218477471639697e-20
5.265937586045735 1.739231704969135e-21 2.4310986609705793e-13 2.431097718339294e-13 9.426312853240834e-20
5.285722656980489 1.7621093314167566e-21 2.472331236517671e-13 2.472330272632999e-13 9.638846710654663e-20
5.305582063971359 1.7852842402076264e-21 2.514257999813838e-13 2.5142570141950864e-13 9.856187516122092e-20
5.3255160863122235 1.81017638672474e-21 2.5588924283745984e-13 2.5588914204371466e-13 1.0079374514467209e-19
5.365609099470188 1.8721160438805894e-21 2.666374995950295e-13 2.6663739411073877e-13 1.0548429065190007e-19
5.406003951863644 1.9364246627381705e-21 2.778730302601748e-13 2.778729198654458e-13 1.1039472889185085e-19
5.446702915881641 2.0032166940701914e-21 2.896216688398264e-13 2.896215533042944e-13 1.155355319278853e-19
5.487708281020852 2.0753842056309023e-21 3.0231448557686396e-13 3.023143646412249e-13 1.2093563898219526e-19
5.529022354014368 2.1755713263945694e-21 3.1929425550749855e-13 3.1929412875458765e-13 1.2675291103379478e-19
5.570647458961463 2.2816693194671664e-21 3.373865851113653e-13 3.373864522562776e-13 1.3285508769211367e-19
5.612585937458331 2.394103105097813e-21 3.5667714915276826e-13 3.56677009896488e-13 1.3925628014705388e-19
5.654840148729818 2.5176807241111507e-21 3.779117722054938e-13 3.779116262024865e-13 1.4600300741377804e-19
5.67608639626678 2.60177145075189e-21 3.920013603924304e-13 3.9200121075191835e-13 1.4964051190018857e-19
5.686739436050992 2.6451156772522924e-21 3.9927988529847256e-13 3.992797338042933e-13 1.5149417921535393e-19
5.6974124697621304 2.6893534168558557e-21 4.0671947930059e-13 4.067193259290656e-13 1.5337152443759306e-19
5.718818669136295 2.780595431065785e-21 4.220982621858422e-13 4.2209810498736777e-13 1.5719847443798059e-19
5.740305295436557 2.8811557033584695e-21 4.3900670453067095e-13 4.3900654336356084e-13 1.611671101174534e-19
5.7835210386641895 3.1419087262361966e-21 4.823422636945198e-13 4.823420939254441e-13 1.6976907564652567e-19
5.827062130521658 3.4422543842692155e-21 5.324294183253382e-13 5.324292393738988e-13 1.7895143963216234e-19
5.8489554468988025 3.6528565629017074e-21 5.671270542048395e-13 5.671268700350183e-13 1.8416982124766922e-19
5.870931020387893 3.878848782850113e-21 6.044762746425346e-13 6.044760850887077e-13 1.89553826979631e-19
5.892989160043636 4.121469403376034e-21 6.446992357574411e-13 6.446990406485391e-13 1.9510890189491947e-19
5.915130176081913 4.397372235521041e-21 6.904416309582372e-13 6.90441429951083e-13 2.0100715415067796e-19
5.95966208400165 5.168594044057421e-21 8.176425642236396e-13 8.176423492778321e-13 2.149458074909554e-19
6.004529249263818 6.279979931378078e-21 1.0009367931199403e-12 1.0009365611843182e-12 2.319356220770098e-19
6.027089341400364 7.052432614198374e-21 1.128277707450602e-12 1.1282774650337494e-12 2.424168525370413e-19
6.049734195844842 7.965227119689775e-21 1.2790982079690768e-12 1.279097953983223e-12 2.5398585433324147e-19
6.095279466722835 1.060167921058747e-20 1.7152906282290344e-12 1.7152903438167464e-12 2.8441228845867136e-19
6.141167624020661 1.4658833365621588e-20 2.389570195285182e-12 2.3895698679813057e-12 3.273038759137232e-19
6.164241091010745 1.7249705848843956e-20 2.822479152904228e-12 2.82247879777863e-12 3.551255987752073e-19
6.187401249150058 2.020106402341587e-20 3.3178134146969145e-12 3.3178130291954614e-12 3.8550145227058957e-19
6.1990139391386085 2.1642192120443232e-20 3.5611748201344956e-12 3.561174419009888e-12 4.011246080323743e-19
6.204828454712694 2.2401321034974626e-20 3.689545258615603e-12 3.689544849400735e-12 4.0921486779340387e-19
6.210648424152782 2.2955533274279013e-20 3.784371510893962e-12 3.784371094886115e-12 4.16007846105577e-19
6.233982942956859 2.483857376912551e-20 4.110188101967458e-12 4.1101876617390655e-12 4.402283934478368e-19
6.239830258556775 2.5079381347550017e-20 4.153928606390395e-12 4.153928162687698e-12 4.437026975165872e-19
6.245683058788269 2.5100434231113583e-20 4.161315170126433e-12 4.161314722921762e-12 4.472046708981225e-19
6.257405133728602 2.5049099975413316e-20 4.160598740810859e-12 4.160598287406821e-12 4.534040372197774e-19
6.269149208991335 2.4679269980044994e-20 4.106864256613183e-12 4.106863800803092e-12 4.558100925383244e-19
6.280915325867298 2.3751257884919624e-20 3.959852295590661e-12 3.9598518420941666e-12 4.534964946397307e-19
6.304513850009849 2.1462534108287477e-20 3.591716373939685e-12 3.59171592945261e-12 4.444870750972821e-19
6.32820103803542 1.8625439258283296e-20 3.1286445458840055e-12 3.128644115776119e-12 4.3010788638056905e-19
6.3519772230701035 1.602365513492052e-20 2.701717616298852e-12 2.701717199637915e-12 4.166609372564745e-19
6.375842739491607 1.3834883047983335e-20 2.341437242536927e-12 2.341436837560835e-12 4.0497609233001525e-19
6.399797922933955 1.2080833165823747e-20 2.0522609474004037e-12 2.0522605496618765e-12 3.977385275330438e-19
6.42384311029221 1.062260296202509e-20 1.8113205232660165e-12 1.811320131432797e-12 3.918332195013716e-19
6.447978639727206 9.560180932944874e-21 1.6362856994732193e-12 1.6362853094930622e-12 3.8998015697741734e-19
6.472204850670314 8.675260395111148e-21 1.4904046848293812e-12 1.490404295708293e-12 3.8912108820721413e-19
6.496522083828205 8.100429947629278e-21 1.39687782381274e-12 1.3968774320393481e-12 3.917733920532565e-19
