Dust emission spectrum from A.P. Jones, M. Kohler, N. Ysard, M. Bocchio, and L. Verstraete (2017), A&A, 602A, 46J 
inside the DustPedia framework.

lambda    nu*dP/dnu     j_nu    j_nu(carb.) j_nu(sil)
 (um)   (erg s-1 H-1) (Jy cm2 sr-1 H-1)
0.9927057738263894 8.570932732063844e-24 2.2584894568248686e-16 2.258489414442652e-16 4.238221633155134e-24
1.0001793341362166 8.71430183261963e-24 2.313555424919628e-16 2.3135553738891216e-16 5.103050561059507e-24
1.0077091589558085 8.857812989330932e-24 2.3693605103461625e-16 2.3693604489831103e-16 6.1363052087500855e-24
1.0114953028030835 8.929608857015956e-24 2.397539325079295e-16 2.397539257823207e-16 6.72560887163785e-24
1.0152956718711033 9.00142473539491e-24 2.4259018316155086e-16 2.425901757924674e-16 7.369083526729327e-24
1.0229392996569957 9.145026229348583e-24 2.483157418481534e-16 2.4831573301015096e-16 8.838002558331317e-24
1.0267826658714554 9.2166430648672e-24 2.5120063340722727e-16 2.5120062373279455e-16 9.674432724089463e-24
1.0306404723013447 9.288256133603409e-24 2.5410359470221666e-16 2.5410358411567876e-16 1.0586537860947917e-23
1.03451277320114 9.359860523137367e-24 2.5702458550761937e-16 2.570245739267959e-16 1.1580823448545736e-23
1.0383996230291617 9.431451369440845e-24 2.5996356535931015e-16 2.599635526949876e-16 1.2664322643993255e-23
1.0403485208654093 9.467240207478387e-24 2.614397884795415e-16 2.6143977523766225e-16 1.3241879289824307e-23
1.0423010764483396 9.503023858395552e-24 2.629204936046396e-16 2.6292047976000327e-16 1.384463632198371e-23
1.0462171883269815 9.574573227295219e-24 2.6589532945317646e-16 2.658953143232005e-16 1.5129975925486357e-23
1.0471985131304309 9.592456403897472e-24 2.6664183168921625e-16 2.66641816220471e-16 1.5468745219212143e-23
1.048180758391296 9.610337767802613e-24 2.673894499565953e-16 2.673894341418207e-16 1.5814774694312675e-23
1.0501480137395462 9.646094766331144e-24 2.6888803202808963e-16 2.6888801549888035e-16 1.6529209306681764e-23
1.0521189612883777 9.681843642660956e-24 2.7039107055308975e-16 2.703910532785909e-16 1.727449884997071e-23
1.0531058218030118 9.699689135281404e-24 2.7114354043295833e-16 2.711435227738249e-16 1.7659133428211275e-23
1.0540936079674168 9.717448116830566e-24 2.7189476343388396e-16 2.718947453818376e-16 1.8052046363582267e-23
1.058054026499678 9.78845666861242e-24 2.749106090315708e-16 2.7491058932252774e-16 1.9709043193062106e-23
1.0590464539527713 9.806201610628039e-24 2.7566730553354947e-16 2.756672853880496e-16 2.0145499866547802e-23
1.06003981227728 9.823943534152271e-24 2.7642509476005113e-16 2.764250741688514e-16 2.059119970807972e-23
1.0620293250338977 9.859418047361467e-24 2.779439487586892e-16 2.779439272476122e-16 2.151107687604555e-23
1.0660195594769086 9.930327803162002e-24 2.8099474058548994e-16 2.8099471711531124e-16 2.347017871186354e-23
1.070024785945596 1.0001181547224327e-23 2.840629426906393e-16 2.840629170913204e-16 2.5599318958015578e-23
1.0740450607676866 1.007197495325165e-23 2.8714851351651405e-16 2.871484856040389e-16 2.79124751409852e-23
1.07808044048254 1.0142703758788808e-23 2.9025141182509496e-16 2.9025138140039005e-16 3.042470494326397e-23
1.0861967418109137 1.0283833622838143e-23 2.965056480804228e-16 2.965056119679298e-16 3.611249296064705e-23
1.0902777775684922 1.0353959908880465e-23 2.996491653341031e-16 2.9964912600979867e-16 3.9324304494839475e-23
1.0943741465085532 1.0424000525998785e-23 3.0280962989197447e-16 3.028095870841163e-16 4.280785820364642e-23
1.1026131145906286 1.0563809243059052e-23 3.0918124173229265e-16 3.091811910535406e-16 5.067875212531167e-23
1.1109141095355224 1.0703229484561885e-23 3.1562017249782596e-16 3.156201125785408e-16 5.991928532656915e-23
1.1192775983109025 1.0842112255206014e-23 3.22122561736876e-16 3.2212249098341194e-16 7.075346412984071e-23
1.1277040513999907 1.0979878671406068e-23 3.2867155148324585e-16 3.286714680438056e-16 8.34394402570865e-23
1.1361939428280308 1.1117155486157472e-23 3.3528612573756437e-16 3.3528602746327354e-16 9.827429084179812e-23
1.1447477501889525 1.1253917662527631e-23 3.419660288711418e-16 3.419659132716955e-16 1.155994463245379e-22
1.1533659546722406 1.1390203955857124e-23 3.487129384079093e-16 3.4871280260093435e-16 1.3580697494017482e-22
1.1707974979042381 1.1661773286016951e-23 3.6242305162365572e-16 3.624228648902995e-16 1.8673335616795686e-22
1.1884924949847024 1.1931142382276756e-23 3.763985182829938e-16 3.7639826280460457e-16 2.554783892651708e-22
1.2064549276569216 1.2200273674151795e-23 3.9070602409691915e-16 3.9070567628094626e-16 3.4781597285104283e-22
1.2246888378427687 1.2466807696261696e-23 4.052755959255549e-16 4.052751247060208e-16 4.7121953402210605e-22
1.2431983285522175 1.2730320309537606e-23 4.2009661461334725e-16 4.20095979284757e-16 6.353285902649445e-22
1.2619875648066055 1.2990952103708474e-23 4.351765553249528e-16 4.351757028118719e-16 8.525130808677408e-22
1.3004222497298317 1.350063930666391e-23 4.660238667453144e-16 4.660223532599087e-16 1.513485405691326e-21
1.3400274889804893 1.3995758656848973e-23 4.978283047354891e-16 4.978256668373823e-16 2.637898106845053e-21
1.3808389325824078 1.4476560151209992e-23 5.306129385494837e-16 5.306084226700318e-16 4.515879451849168e-21
1.4228933163050095 1.494652712448862e-23 5.645235540506756e-16 5.645159570010201e-16 7.597049655819007e-21
1.466228494730424 1.5415385629477366e-23 5.999644005151509e-16 5.99951834943434e-16 1.256557171687515e-20
1.5108834753276823 1.587951331662842e-23 6.368506437901602e-16 6.368302007713387e-16 2.0443018821788064e-20
1.5568984535646726 1.633640504522238e-23 6.751281445339229e-16 6.750953963116943e-16 3.274822222865216e-20
1.6043148490894465 1.678885888581149e-23 7.149574814480096e-16 7.149057310950468e-16 5.1750352962640043e-20
1.6531753430134553 1.7240079036444877e-23 7.565325262190779e-16 7.564519483420111e-16 8.05778770664176e-20
1.7035239163302658 1.769469379403316e-23 8.001303052384994e-16 8.000066540950296e-16 1.2365114346977062e-19
1.755405889504358 1.8167820079479672e-23 8.465445234263164e-16 8.463574219476064e-16 1.8710147870997093e-19
1.8088679632656115 1.8659259196359128e-23 8.95923024309227e-16 8.956437657059065e-16 2.792586033207063e-19
1.8639582606462262 1.916946835765513e-23 9.484527159260201e-16 9.480414163437363e-16 4.112995822840193e-19
1.9207263702978936 1.9702650944197455e-23 1.004522330192974e-15 1.0039243378937198e-15 5.979922992545939e-19
1.979223391128241 2.0265073724435033e-23 1.0646636733258326e-15 1.0638050837279304e-15 8.58589597902323e-19
2.039501978296691 2.08634398516517e-23 1.1294824263149082e-15 1.1282646072976862e-15 1.2178190172218182e-18
2.1016163906111602 2.1512634748828472e-23 1.20009736880271e-15 1.1983902420481666e-15 1.7071267545432976e-18
2.1656225393682647 2.2222312465059817e-23 1.2774427496687618e-15 1.2750769192478891e-15 2.3658304208725407e-18
2.231578038680979 2.2994812838405063e-23 1.3621075209540159e-15 1.3588650886632886e-15 3.242432290726771e-18
2.299542257339062 2.3836657031128356e-23 1.4549771589415831e-15 1.4505811355659665e-15 4.396023375616807e-18
2.369576372248914 2.4758813817816296e-23 1.557291731809653e-15 1.5513939222952102e-15 5.89780951444292e-18
2.4417434235010123 2.5773790883265916e-23 1.6705049245868857e-15 1.6626725518932453e-15 7.832372693640775e-18
2.5161083711144245 2.6901498205778867e-23 1.7966986571668207e-15 1.7863993643341916e-15 1.0299292832629039e-17
2.5927381535095444 2.8172337527704397e-23 1.9388801955019775e-15 1.92546587576576e-15 1.3414319736217696e-17
2.6717017477616296 2.961890285941525e-23 2.1005178428337916e-15 2.083208204035958e-15 1.7309638797833233e-17
2.753070231689431 3.1287832217247014e-23 2.286452573987976e-15 2.2643180191927046e-15 2.2134554795271867e-17
2.836916847834745 3.328464383770863e-23 2.506455241408561e-15 2.478398555459992e-15 2.805668594856955e-17
2.9233170693905177 3.5836141065212434e-23 2.7807797550024536e-15 2.7455244599656038e-15 3.525529503684851e-17
2.967498994190263 3.75368418599683e-23 2.9567713689129093e-15 2.9174475389248336e-15 3.932382998807499e-17
3.0123486681368425 3.94191461325277e-23 3.15196861277958e-15 3.1081650351396275e-15 4.380357763995299e-17
3.0578761833420214 4.2738986222051176e-23 3.4690738546542563e-15 3.420331038908539e-15 4.874281574571747e-17
3.1040917844459814 4.6779545893875485e-23 3.8544284571893865e-15 3.800294482634993e-15 5.4133974554393426e-17
3.127460860933648 5.0633183638360237e-23 4.203359656363485e-15 4.146332708430277e-15 5.702694793320827e-17
3.1510058709225794 5.561493722149158e-23 4.651682846692232e-15 4.591635682659349e-15 6.004716403288345e-17
3.162844764501044 6.011047511722359e-23 5.046583583072182e-15 4.9849716410587325e-15 6.161194201345038e-17
3.1747281389236908 6.526976305516511e-23 5.500320680011909e-15 5.437110874641974e-15 6.320980536993333e-17
3.1986289994194426 7.942225980009071e-23 6.743347543806679e-15 6.676832686722417e-15 6.651485708426029e-17
3.2227097969389145 1.122577418192774e-22 9.603000114827134e-15 9.532978196964323e-15 7.002191786281189e-17
3.2348180950136065 1.4317277682229757e-22 1.2293618873467969e-14 1.2221724129051448e-14 7.189474441652422e-17
3.240889293275058 1.6625097021465428e-22 1.4302034376109192e-14 1.4229151739667064e-14 7.288263644213111e-17
3.2469718861334385 1.9296069279349044e-22 1.6630940549276337e-14 1.6557035705574263e-14 7.390484370207272e-17
3.2714166318528037 3.3453287802696855e-22 2.90498635754212e-14 2.897173041193474e-14 7.813316348646078e-17
3.2744851364798273 3.4341001125736393e-22 2.984869911974094e-14 2.97700665135916e-14 7.863260614934128e-17
3.2775565192852394 3.525352524534716e-22 3.067059309189344e-14 3.059145843954495e-14 7.913465234848695e-17
3.283707930232385 3.439069975549488e-22 2.997608885668266e-14 2.989605406686905e-14 8.003478981360437e-17
3.2898708863219004 3.163043544839801e-22 2.762189422644601e-14 2.7541038123788335e-14 8.085610265767856e-17
3.29141343181113 3.097902041274459e-22 2.7065717901462627e-14 2.6984655506351542e-14 8.106239511108888e-17
3.292184975758714 3.0658867150838333e-22 2.6792285675204856e-14 2.6711119988997076e-14 8.116568620778054e-17
3.295272960557952 2.864448906561697e-22 2.5055432736368865e-14 2.4973864864492946e-14 8.156787187591073e-17
3.3076538914384823 2.16469834736345e-22 1.9005831642941964e-14 1.8922647299393798e-14 8.318434354816995e-17
3.310756385682612 2.0217639233025363e-22 1.7767531786623383e-14 1.7683939770424798e-14 8.359201619859159e-17
3.313861789986515 1.88968397355024e-22 1.662237226825521e-14 1.6538371153592942e-14 8.400111466226516e-17
3.3200813396944477 1.7049750202529622e-22 1.502575064207422e-14 1.4940870582657652e-14 8.488005941656758e-17
3.345076488085796 1.3798393396113944e-22 1.2251915939167686e-14 1.2163121459815952e-14 8.879447935173435e-17
3.3482140837626964 1.392960000931113e-22 1.2380018614320853e-14 1.2290693962600542e-14 8.932465172031229e-17
3.3513546224236106 1.4062141730041266e-22 1.2509538522424228e-14 1.2419681188867405e-14 8.98573335568243e-17
3.3576445397418455 1.4994176293930412e-22 1.3363701396529883e-14 1.3272730727392437e-14 9.097066913744173e-17
3.3702598118196083 1.8395385768483244e-22 1.6456660683539264e-14 1.6363354498980613e-14 9.330618455865576e-17
3.382922481734668 1.919871843720439e-22 1.723985936382666e-14 1.7144278756469863e-14 9.558060735679775e-17
3.389271646505754 1.9614015075278854e-22 1.7645839156907912e-14 1.7549104866413403e-14 9.67342904945115e-17
3.395632727569191 2.0064644952628578e-22 1.808512950342006e-14 1.79872062414221e-14 9.792326199796098e-17
3.421196662673239 2.223182090013474e-22 2.0189357944090265e-14 2.0086508023082518e-14 1.0284992100774086e-16
3.4276182099114902 2.183047194960694e-22 1.9862092460215014e-14 1.9758138328041042e-14 1.0395413217397544e-16
3.4340518103208963 2.0014123635660405e-22 1.8243697161364824e-14 1.8138696333827394e-14 1.0500082753742938e-16
3.4469541582030403 1.7424218868395554e-22 1.5942567278422806e-14 1.5835552755150892e-14 1.0701452327191308e-16
3.472904465399547 1.6733563624786215e-22 1.5425907010391055e-14 1.5314260523856876e-14 1.116464865341801e-16
3.4990501388274233 1.5661785089335632e-22 1.4546578635405235e-14 1.4430181373343993e-14 1.163972620612438e-16
3.5253949054701885 1.175277487900898e-22 1.0998098959137982e-14 1.087706914053475e-14 1.2102981860323018e-16
3.5519380250092896 8.059199124199451e-23 7.598479548227391e-15 7.472779602488455e-15 1.2569994573893891e-16
3.578680990867387 6.625818534252579e-23 6.294075626561626e-15 6.1632547638966085e-15 1.3082086266501623e-16
3.605625307711299 6.079742370613995e-23 5.8188237507133885e-15 5.6826009500021815e-15 1.3622280071120505e-16
3.660119384959845 5.752739048684356e-23 5.589067552123525e-15 5.441457334628757e-15 1.4761021749476813e-16
3.715437065384467 5.550888604638753e-23 5.4744671534344e-15 5.3147962714358446e-15 1.596708819985564e-16
3.8285932144167436 5.619492885279753e-23 5.710916154143905e-15 5.525126932152266e-15 1.857892219916406e-16
3.94519561050918 5.822405831367568e-23 6.097340486736636e-15 5.882770960361555e-15 2.1456952637508365e-16
4.06534921144712 6.084338500034743e-23 6.5656943015825595e-15 6.319640253851868e-15 2.4605404773069126e-16
4.189162171576248 6.38298288803769e-23 7.097743266443946e-15 6.817365945287862e-15 2.8037732115608307e-16
4.316745939156006 6.709309903738797e-23 7.687830059484354e-15 7.370329170683943e-15 3.175008888004084e-16
4.448215356677963 7.059423075244866e-23 8.335361666025725e-15 7.978346814675347e-15 3.570148513503783e-16
4.58368876423945 7.432879859586095e-23 9.043606707742087e-15 8.64455577880974e-15 3.990509289323458e-16
4.723288106065518 7.831615408024501e-23 9.818953927039187e-15 9.375001460717874e-15 4.4395246632131583e-16
4.867139040275056 8.258992062262578e-23 1.0670142874934621e-14 1.0179434952714063e-14 4.907079222205582e-16
4.940699165968905 8.490103460519691e-23 1.1134502743070609e-14 1.0619561570357008e-14 5.149411727136004e-16
5.015371051989984 8.72408271394015e-23 1.1614279588122845e-14 1.107459048026292e-14 5.39689107859925e-16
5.091171501069577 8.981459255645908e-23 1.213763473934044e-14 1.1572176597728181e-14 5.654581416122582e-16
5.129500256944802 9.111284499465851e-23 1.2405780610444539e-14 1.1827257927168112e-14 5.785226832764278e-16
5.168117569889187 9.243674742834672e-23 1.2680794759998138e-14 1.2088975604725312e-14 5.918191552728325e-16
5.20702561229733 9.392651053931218e-23 1.2982171292715564e-14 1.2375918256034598e-14 6.062530366809678e-16
5.246226572918644 9.543179528908584e-23 1.328952840949815e-14 1.2668678865149115e-14 6.208495443490293e-16
5.265937586045735 9.619035536507256e-23 1.3445491101512672e-14 1.2817283392678335e-14 6.282077088343345e-16
5.285722656980489 9.695291543264641e-23 1.3602999372511496e-14 1.2967394146576938e-14 6.356052259345554e-16
5.305582063971359 9.771951862882148e-23 1.3762070818588424e-14 1.3119029172931962e-14 6.430416456564631e-16
5.3255160863122235 9.851989990065778e-23 1.3926920478515319e-14 1.3276351763563155e-14 6.505687149521649e-16
5.365609099470188 1.003662498069731e-22 1.4294736685654063e-14 1.3628593531489786e-14 6.661431541642744e-16
5.406003951863644 1.022478993542637e-22 1.467236716099824e-14 1.3990475742468276e-14 6.818914185299637e-16
5.446702915881641 1.0416640351139588e-22 1.5060201780125605e-14 1.436239170100738e-14 6.978100791182196e-16
5.487708281020852 1.0618115918593846e-22 1.5467065052417063e-14 1.4753108648098082e-14 7.13956404318981e-16
5.529022354014368 1.0875697558423857e-22 1.596154404551971e-14 1.5230742075199407e-14 7.308019703203008e-16
5.570647458961463 1.1142648006362395e-22 1.6476445240726168e-14 1.572860936292297e-14 7.47835877803198e-16
5.612585937458331 1.1419626189614797e-22 1.701313408361201e-14 1.62480793021478e-14 7.650547814642058e-16
5.654840148729818 1.1716277447145264e-22 1.7586499873867452e-14 1.6803968474951757e-14 7.825313989156912e-16
5.67608639626678 1.1908811364740352e-22 1.7942660775549535e-14 1.7150991929386245e-14 7.916688461632871e-16
5.686739436050992 1.2007210761779368e-22 1.8124869838199422e-14 1.7328612529039533e-14 7.962573091598883e-16
5.6974124697621304 1.210707639599062e-22 1.8309917085522625e-14 1.7509058218747048e-14 8.008588667755847e-16
5.718818669136295 1.2311345400293425e-22 1.8688793920091034e-14 1.787869285177777e-14 8.10101068313265e-16
5.740305295436557 1.253316258750809e-22 1.909699777237084e-14 1.827753929850285e-14 8.19458473868e-16
5.7835210386641895 1.3092369694385319e-22 2.009925744431255e-14 1.9260433220949772e-14 8.388242233627732e-16
5.827062130521658 1.3721745537981073e-22 2.1224058943995194e-14 2.0365484495354308e-14 8.585744486408857e-16
5.8489554468988025 1.4154722617251947e-22 2.197602342926905e-14 2.110681124191919e-14 8.692121873498595e-16
5.870931020387893 1.4613937283835751e-22 2.277422725590701e-14 2.1894303448238365e-14 8.799238076686449e-16
5.892989160043636 1.5101454551563054e-22 2.3622391082761486e-14 2.2731682007936873e-14 8.907090748246062e-16
5.915130176081913 1.5650735991587615e-22 2.457358418839462e-14 2.367170214181916e-14 9.01882046575464e-16
5.95966208400165 1.716885115895196e-22 2.716015877184168e-14 2.6232977931450142e-14 9.27180840391537e-16
6.004529249263818 1.9324450216291175e-22 3.080034242092856e-14 2.9844774526569477e-14 9.555678943590835e-16
6.027089341400364 2.0812047735130738e-22 3.3295985641423816e-14 3.232409631732505e-14 9.718893240987627e-16
6.049734195844842 2.255602156674344e-22 3.6221649842995395e-14 3.523248623341185e-14 9.891636095835519e-16
6.095279466722835 2.756673638567035e-22 4.4601391566327595e-14 4.3570046847415244e-14 1.031344718912353e-15
6.141167624020661 3.5214551207819446e-22 5.740405113267415e-14 5.631830479442218e-14 1.0857463382519485e-15
6.164241091010745 4.0093159741535226e-22 6.560234043186666e-14 6.448261733935127e-14 1.119723092515384e-15
6.187401249150058 4.560880398478509e-22 7.490768877995696e-14 7.375302758175982e-14 1.1546611981971285e-15
6.1990139391386085 4.829928176736044e-22 7.94753993048753e-14 7.830295030114826e-14 1.1724490037270376e-15
6.204828454712694 4.971287962892506e-22 8.187817095280355e-14 8.069673231956902e-14 1.1814386332344999e-15
6.210648424152782 5.074508519663581e-22 8.36566297290983e-14 8.246749248989578e-14 1.1891372392025063e-15
6.233982942956859 5.423986487519132e-22 8.97539646738674e-14 8.853781771602437e-14 1.2161469578430417e-15
6.239830258556775 5.468088078427071e-22 9.056861162749301e-14 8.934859026191903e-14 1.220021365573983e-15
6.245683058788269 5.47123287727304e-22 9.070569919969353e-14 8.948179531031868e-14 1.2239038893748578e-15
6.257405133728602 5.460057758221347e-22 9.069032203116292e-14 8.945954792003748e-14 1.2307741111254423e-15
6.269149208991335 5.389493178315898e-22 8.968627075753478e-14 8.845261332304009e-14 1.2336574344946763e-15
6.280915325867298 5.214947085812348e-22 8.694453274514531e-14 8.571292827509362e-14 1.2316044700516912e-15
6.304513850009849 4.785541729244454e-22 8.008517773519532e-14 7.886215309978649e-14 1.2230246354088306e-15
6.32820103803542 4.256007706076682e-22 7.149112089227793e-14 7.0281436525968e-14 1.209684366309935e-15
6.3519772230701035 3.771461591361327e-22 6.358988716856171e-14 6.239203362930953e-14 1.1978535392521741e-15
6.375842739491607 3.363018889846337e-22 5.691625761295622e-14 5.572869315768515e-14 1.1875644552710778e-15
6.399797922933955 3.03822810459415e-22 5.1612639648002014e-14 5.042969095563296e-14 1.1829486923690422e-15
6.42384311029221 2.7676267252656543e-22 4.7192379364403055e-14 4.6012918493463346e-14 1.1794608709397028e-15
6.447978639727206 2.571863951080511e-22 4.4019085346404896e-14 4.2838671261574156e-14 1.1804140848307298e-15
6.472204850670314 2.4086828200578927e-22 4.138103060635951e-14 4.019877447492658e-14 1.1822561314329385e-15
6.496522083828205 2.3038316009059034e-22 3.9728400762805305e-14 3.8540688678745346e-14 1.187712084059948e-15
6.520930681187647 2.2156656013595293e-22 3.8351577462384347e-14 3.71578454730604e-14 1.1937319893239279e-15
6.57002334288761 2.127470484734483e-22 3.710221940350537e-14 3.5891387824350314e-14 1.2108315791550463e-15
