Dust emission spectrum from A.P. Jones, M. Kohler, N. Ysard, M. Bocchio, and L. Verstraete (2017), A&A, 602A, 46J 
inside the DustPedia framework.

lambda    nu*dP/dnu     j_nu    j_nu(carb.) j_nu(sil)
 (um)   (erg s-1 H-1) (Jy cm2 sr-1 H-1)
0.9927057738263894 9.300887791433695e-26 2.4508367610307906e-18 2.4508367610307875e-18 3.488287595768847e-33
1.0001793341362166 9.454596561791944e-26 2.510095884455346e-18 2.5100958844553424e-18 4.203705717960748e-33
1.0077091589558085 9.608087533153163e-26 2.570050102482681e-18 2.570050102482676e-18 5.0594717274039933e-33
1.0114953028030835 9.684732442811071e-26 2.60028487880153e-18 2.600284878801525e-18 5.547989422197596e-33
1.0152956718711033 9.761300280695785e-26 2.630689799224323e-18 2.6306897992243163e-18 6.0817475572662386e-33
1.0229392996569957 9.9140997282411e-26 2.6919846559588547e-18 2.691984655958847e-18 7.301388208112185e-33
1.0267826658714554 9.990146081345045e-26 2.7228254428455107e-18 2.722825442845503e-18 7.996532496124802e-33
1.0306404723013447 1.0066081742828454e-25 2.7538296948608646e-18 2.753829694860856e-18 8.755070718654438e-33
1.03451277320114 1.0141899385216173e-25 2.7849960790563268e-18 2.7849960790563164e-18 9.582507455015297e-33
1.0383996230291617 1.0217591721599185e-25 2.8163232457934763e-18 2.816323245793466e-18 1.0484799326569565e-32
1.0403485208654093 1.025538863431671e-25 2.8320466963681145e-18 2.8320466963681045e-18 1.0966009507740062e-32
1.0423010764483396 1.0293151507032133e-25 2.8478098290633402e-18 2.847809829063329e-18 1.1468389823557161e-32
1.0462171883269815 1.0368571539900018e-25 2.8794544468060582e-18 2.879454446806045e-18 1.2540246623506464e-32
1.0471985131304309 1.0387403872073554e-25 2.8873901306655903e-18 2.8873901306655776e-18 1.2822872075437706e-32
1.048180758391296 1.0406226910794913e-25 2.8953355824008556e-18 2.8953355824008425e-18 1.3111605398741735e-32
1.0501480137395462 1.0443844663254037e-25 2.9112557012308324e-18 2.911255701230819e-18 1.3707901564453725e-32
1.0521189612883777 1.048142390985199e-25 2.9272146261667092e-18 2.9272146261666946e-18 1.433017177194267e-32
1.0531058218030118 1.0500169975017104e-25 2.935200522889116e-18 2.9352005228891017e-18 1.4651402615239583e-32
1.0540936079674168 1.0518811586909189e-25 2.9431695993053476e-18 2.943169599305333e-18 1.4979603489148304e-32
1.058054026499678 1.059327234882161e-25 2.9751400569510536e-18 2.9751400569510367e-18 1.6364325564811987e-32
1.0590464539527713 1.0611860573324463e-25 2.983156095603369e-18 2.9831560956033523e-18 1.672922778122085e-32
1.06003981227728 1.0630437794305826e-25 2.9911814582568125e-18 2.9911814582567944e-18 1.710192559741774e-32
1.0620293250338977 1.0667558793042825e-25 3.0072600637390302e-18 3.007260063739011e-18 1.7871345715090959e-32
1.0660195594769086 1.074166400034285e-25 3.0395281495860956e-18 3.0395281495860752e-18 1.9510921949716346e-32
1.070024785945596 1.0815581103706905e-25 3.0719428306757688e-18 3.0719428306757476e-18 2.1294123749386958e-32
1.0740450607676866 1.0889303289464925e-25 3.10450260977949e-18 3.1045026097794665e-18 2.323289209239244e-32
1.07808044048254 1.0962823798390154e-25 3.137205976577264e-18 3.137205976577239e-18 2.5340103587473944e-32
1.0861967418109137 1.1109103148151528e-25 3.2029999213716153e-18 3.2029999213715853e-18 3.011646050795156e-32
1.0902777775684922 1.1181553403204864e-25 3.2360016591674437e-18 3.2360016591674117e-18 3.281668831058437e-32
1.0943741465085532 1.125377034366436e-25 3.26913839284152e-18 3.2691383928414847e-18 3.574766555452124e-32
1.1026131145906286 1.1397478605639018e-25 3.335810508149871e-18 3.3358105081498297e-18 4.237800823225423e-32
1.1109141095355224 1.1540177203383636e-25 3.4030034811838972e-18 3.403003481183846e-18 5.017460049310311e-32
1.1192775983109025 1.1681683977575434e-25 3.470665014052391e-18 3.470665014052333e-18 5.933069888802287e-32
1.1277040513999907 1.182134188003491e-25 3.538599006966435e-18 3.538599006966365e-18 7.006949977145029e-32
1.1361939428280308 1.195982519024263e-25 3.607004919134204e-18 3.607004919134121e-18 8.26483904138188e-32
1.1447477501889525 1.20970877132513e-25 3.675869301923883e-18 3.675869301923786e-18 9.736383815702653e-32
1.1533659546722406 1.2233159095203204e-25 3.7452014649010214e-18 3.745201464900906e-18 1.1455703013610226e-31
1.1707974979042381 1.2502167536578443e-25 3.885407132678481e-18 3.885407132678323e-18 1.5800355822792393e-31
1.1884924949847024 1.2765831804477594e-25 4.027309390752877e-18 4.027309390752662e-18 2.168612979600073e-31
1.2064549276569216 1.3026212351330506e-25 4.1715618622664686e-18 4.1715618622661704e-18 2.962076602206866e-31
1.2246888378427687 1.3280466516120575e-25 4.317263178050038e-18 4.317263178049635e-18 4.026456566757905e-31
1.2431983285522175 1.352799933236258e-25 4.464197745094729e-18 4.4641977450941854e-18 5.447335559774409e-31
1.2619875648066055 1.3768717875418653e-25 4.612304909164688e-18 4.612304909163954e-18 7.3350715797701575e-31
1.3004222497298317 1.4225711138811187e-25 4.910523688191825e-18 4.9105236881905145e-18 1.3116213617502196e-30
1.3400274889804893 1.4649655128993022e-25 5.210873634390122e-18 5.210873634387819e-18 2.3032070881293225e-30
1.3808389325824078 1.503897471239331e-25 5.512272585174463e-18 5.512272585170487e-18 3.97353413227785e-30
1.4228933163050095 1.539555868818773e-25 5.814832726601601e-18 5.814832726594863e-18 6.738343740044187e-30
1.466228494730424 1.5727976899162571e-25 6.121304038984416e-18 6.121304038973177e-18 1.1237735931680059e-29
1.5108834753276823 1.6029769074093915e-25 6.428766770801652e-18 6.428766770783212e-18 1.843941109213759e-29
1.5568984535646726 1.629570657229504e-25 6.734462148537553e-18 6.734462148507753e-18 2.979944133764013e-29
1.6043148490894465 1.6526270051037448e-25 7.037750745171207e-18 7.037750745123689e-18 4.751720016987084e-29
1.6531753430134553 1.6722155112394678e-25 7.338048871042749e-18 7.33804887096807e-18 7.467855508503115e-29
1.7035239163302658 1.6885681324825997e-25 7.63547847160205e-18 7.635478471486342e-18 1.1570651366011634e-28
1.755405889504358 1.7030272350450592e-25 7.935395511218356e-18 7.935395511041523e-18 1.7683361694738094e-28
1.8088679632656115 1.7152609310640047e-25 8.235813355002749e-18 8.23581335473607e-18 2.6667657589203483e-28
1.8639582606462262 1.7250442817649212e-25 8.535045957491155e-18 8.53504595709414e-18 3.9701520523511748e-28
1.9207263702978936 1.7325398059743927e-25 8.833201826386875e-18 8.833201825803136e-18 5.837365919967626e-28
1.979223391128241 1.7381262604169316e-25 9.131572449639206e-18 9.131572448791186e-18 8.480228800332933e-28
2.039501978296691 1.7422570316751129e-25 9.432043389742498e-18 9.432043388524725e-18 1.2177727755603028e-27
2.1016163906111602 1.7462026507111486e-25 9.74131356285352e-18 9.741313561124058e-18 1.7294627506685698e-27
2.1656225393682647 1.7506997641609118e-25 1.0063843374043513e-17 1.0063843371613327e-17 2.4301836947392517e-27
2.231578038680979 1.7558009221655021e-25 1.0400561457866204e-17 1.0400561454486015e-17 3.380188827653942e-27
2.299542257339062 1.7619471426238133e-25 1.0754833802543003e-17 1.0754833797886972e-17 4.656032205084476e-27
2.369576372248914 1.7701138615417779e-25 1.1133746960676468e-17 1.1133746954321947e-17 6.354521946311885e-27
2.4417434235010123 1.7814529297410738e-25 1.1546325899557023e-17 1.1546325890959696e-17 8.597327152107957e-27
2.5161083711144245 1.7979371344849764e-25 1.2008071857148787e-17 1.2008071845611514e-17 1.1537272535911347e-26
2.5927381535095444 1.8227949114418464e-25 1.2544862316734986e-17 1.2544862301369031e-17 1.5365954784829472e-26
2.6717017477616296 1.8598806246308528e-25 1.3189929607186982e-17 1.3189929586864418e-17 2.0322566880010613e-26
2.753070231689431 1.9149974832937112e-25 1.3994420880471812e-17 1.399442085376554e-17 2.6706275472918563e-26
2.836916847834745 2.0012934167070846e-25 1.5070470329681137e-17 1.5070470294787302e-17 3.489382937129478e-26
2.9233170693905177 2.1477259581022458e-25 1.6665725399160158e-17 1.6665725353805226e-17 4.535493305072424e-26
2.967498994190263 2.2720829659178236e-25 1.7897163236273975e-17 1.7897163184720312e-17 5.1553658266562514e-26
3.0123486681368425 2.4173169783394558e-25 1.932895049844288e-17 1.932895043987084e-17 5.85720455775658e-26
3.0578761833420214 2.7422905512835316e-25 2.2258853787258914e-17 2.2258853720716513e-17 6.65424090051522e-26
3.1040917844459814 3.1610508531922123e-25 2.6045666178136244e-17 2.6045666102594893e-17 7.554135790741382e-26
3.127460860933648 3.6040512557343713e-25 2.991935833231485e-17 2.99193582518065e-17 8.050834813232331e-26
3.1510058709225794 4.194286037239181e-25 3.5081381708377963e-17 3.5081381622578105e-17 8.579985772357518e-26
3.162844764501044 4.743711524742076e-25 3.9825898326220727e-17 3.982589823761395e-17 8.860677479878517e-26
3.1747281389236908 5.382644441538255e-25 4.53598560024206e-17 4.535985591091683e-17 9.150376449895617e-26
3.1986289994194426 7.1648040110434285e-25 6.083277364725746e-17 6.083277354963526e-17 9.762219982314598e-26
3.2227097969389145 1.1365808825074968e-24 9.722791647458129e-17 9.722791637010227e-17 1.0447904287376587e-25
3.2348180950136065 1.5349678594134788e-24 1.3180096290284027e-16 1.3180096279446976e-16 1.0837051442515818e-25
3.240889293275058 1.8328142990832162e-24 1.5767109856061509e-16 1.5767109845007913e-16 1.1053595364360295e-25
3.2469718861334385 2.1773770426298497e-24 1.8766427309675251e-16 1.8766427298389662e-16 1.1285592063315134e-25
3.2714166318528037 4.015334253963559e-24 3.486799652557728e-16 3.486799651328767e-16 1.2289602082624802e-25
3.2744851364798273 4.130231645991237e-24 3.5899373243266575e-16 3.589937323086293e-16 1.240364084696036e-25
3.2775565192852394 4.248429220091056e-24 3.696136570237626e-16 3.6961365689857367e-16 1.2518895660419436e-25
3.283707930232385 4.134763319567179e-24 3.6039985679237113e-16 3.6039985666539056e-16 1.2698069143343963e-25
3.2898708863219004 3.774288463902151e-24 3.2959709612622723e-16 3.2959709599785748e-16 1.283697995374308e-25
3.29141343181113 3.6892794366560055e-24 3.223245769615086e-16 3.223245768327896e-16 1.287189980577171e-25
3.292184975758714 3.6475090029057006e-24 3.187498831184275e-16 3.1874988298953357e-16 1.2889388646207676e-25
3.295272960557952 3.383849737655344e-24 2.9598649603274647e-16 2.9598649590323276e-16 1.295138065580214e-25
3.3076538914384823 2.4704509616106398e-24 2.169030854377631e-16 2.1690308530578748e-16 1.3197561006888968e-25
3.310756385682612 2.28455049785387e-24 2.0076935353787552e-16 2.0076935340527787e-16 1.3259767806423194e-25
3.313861789986515 2.1130281995171726e-24 1.8586992236435812e-16 1.8586992223113576e-16 1.332224130798692e-25
3.3200813396944477 1.87248735516782e-24 1.650201776857372e-16 1.6502017755099883e-16 1.3473843469046908e-25
3.345076488085796 1.4433852243238255e-24 1.2816154699019261e-16 1.2816154684769769e-16 1.424948978644473e-25
3.3482140837626964 1.4594760667289849e-24 1.29711842846765e-16 1.2971184270310792e-16 1.436570786388786e-25
3.3513546224236106 1.4757448117381258e-24 1.3128076025764535e-16 1.3128076011281635e-16 1.4482895840345026e-25
3.3576445397418455 1.594640639498077e-24 1.4212385477720505e-16 1.4212385462977656e-16 1.4742849157159609e-25
3.3702598118196083 2.0331788493700167e-24 1.818898220137189e-16 1.8188982186051949e-16 1.531994300625193e-25
3.382922481734668 2.133061549455454e-24 1.9154237428544205e-16 1.9154237412696573e-16 1.5847641004120479e-25
3.389271646505754 2.1848077559693565e-24 1.9655723778448293e-16 1.965572376232966e-16 1.6118630675739624e-25
3.395632727569191 2.2405670453648107e-24 2.0195196711521877e-16 2.0195196695118855e-16 1.6403011292792553e-25
3.421196662673239 2.508303157400939e-24 2.277862461403349e-16 2.2778624596421594e-16 1.7611900001035623e-25
3.4276182099114902 2.454349770971285e-24 2.233049390469862e-16 2.233049388683553e-16 1.7863092483920514e-25
3.4340518103208963 2.2179242406755655e-24 2.0217292003552606e-16 2.0217291985466907e-16 1.8085701369212301e-25
3.4469541582030403 1.8812100308625156e-24 1.7212431563442096e-16 1.721243154495134e-16 1.8490760187614215e-25
3.472904465399547 1.7868423757729324e-24 1.6472082665088397e-16 1.647208264549167e-16 1.9596725044877172e-25
3.4990501388274233 1.6425110407032067e-24 1.5255550932939036e-16 1.5255550912191922e-16 2.074711670915674e-25
3.5253949054701885 1.1288672492844965e-24 1.0563797781522446e-16 1.0563797759732829e-16 2.178961584801682e-25
3.5519380250092896 6.460970956167737e-25 6.09161715892066e-17 6.0916171360924e-17 2.282826145855303e-25
3.578680990867387 4.546695654491975e-25 4.319050718396976e-17 4.3190506942927654e-17 2.4104211286188713e-25
3.605625307711299 3.772348072269291e-25 3.610453736489761e-17 3.61045371095452e-17 2.5535240627327968e-25
3.660119384959845 3.2073079540331877e-25 3.11605665820253e-17 3.116056629470739e-17 2.873179099551337e-25
3.715437065384467 2.807069311758122e-25 2.768423191161053e-17 2.7684231588359033e-17 3.232514915896153e-25
3.8285932144167436 2.603490438023797e-25 2.6458465030922643e-17 2.6458464621217545e-17 4.0970509979606113e-25
3.94519561050918 2.5638755609991408e-25 2.6849420521006224e-17 2.684942000169189e-17 5.193143317046217e-25
4.06534921144712 2.5915925222332248e-25 2.796623536832063e-17 2.7966234709926084e-17 6.583945466305111e-25
4.189162171576248 2.6583055533904547e-25 2.95598009154748e-17 2.9559800080306803e-17 8.351679983432916e-25
4.316745939156006 2.753454721933712e-25 3.155032675851668e-17 3.155032569871849e-17 1.059798194645807e-24
4.448215356677963 2.8734927701217415e-25 3.392855369111595e-17 3.392855234665096e-17 1.3444649962294493e-24
4.58368876423945 3.018843430141156e-25 3.673035648388372e-17 3.673035477826215e-17 1.705621570054153e-24
4.723288106065518 3.192867070900165e-25 4.0030840421768585e-17 4.0030838257418337e-17 2.164350245764736e-24
4.867139040275056 3.4022951967276913e-25 4.395569771481647e-17 4.395569497030823e-17 2.7445082399519056e-24
4.940699165968905 3.528741876049409e-25 4.62783360428628e-17 4.627833295229622e-17 3.0905665741513156e-24
5.015371051989984 3.6596933053399265e-25 4.87211121773082e-17 4.87211086980299e-17 3.4792782942522594e-24
5.091171501069577 3.819612506794319e-25 5.1618629148868604e-17 5.1618625230045395e-17 3.9188232201342016e-24
5.129500256944802 3.901691181578158e-25 5.3124808923706e-17 5.312480476537442e-17 4.1583315636460354e-24
5.168117569889187 3.9872715326956754e-25 5.469877874888505e-17 5.469877433645955e-17 4.4124254987951554e-24
5.20702561229733 4.0923863725828777e-25 5.656343515775505e-17 5.656343047224283e-17 4.68551222044211e-24
5.246226572918644 4.200187537779994e-25 5.84904763024311e-17 5.849047132762811e-17 4.97480299073389e-24
5.265937586045735 4.255122360418021e-25 5.94781146360358e-17 5.94781095102336e-17 5.125802186425534e-24
5.285722656980489 4.310761474650453e-25 6.048223034144219e-17 6.048222506025161e-17 5.28119058544161e-24
5.305582063971359 4.3671162816645365e-25 6.150313098610762e-17 6.150312554502092e-17 5.441086686661489e-24
5.3255160863122235 4.42767569436502e-25 6.259028618812578e-17 6.259028058185813e-17 5.6062676554795966e-24
5.365609099470188 4.578616771899509e-25 6.521128493362879e-17 6.521127897725182e-17 5.956376967679132e-24
5.406003951863644 4.735314601996175e-25 6.795080867392597e-17 6.795080234657738e-17 6.327348614530787e-24
5.446702915881641 4.898047902048522e-25 7.0815145043864e-17 7.081513832353309e-17 6.720330918568733e-24
5.487708281020852 5.073920158477364e-25 7.391014918617748e-17 7.391014204802969e-17 7.138147777168452e-24
5.529022354014368 5.318567068075076e-25 7.805710122048838e-17 7.805709362509657e-17 7.595391770110801e-24
5.570647458961463 5.577662946510185e-25 8.247595908703922e-17 8.24759510064975e-17 8.080541725788216e-24
5.612585937458331 5.852249163053263e-25 8.718770478868873e-17 8.718769619352316e-17 8.595165571573441e-24
5.654840148729818 6.154135955630744e-25 9.237551064808045e-17 9.237550150403035e-17 9.144050094953902e-24
5.67608639626678 6.359842848004882e-25 9.582190809186979e-17 9.582189864708946e-17 9.444780322317002e-24
5.686739436050992 6.465879866582933e-25 9.760237685199322e-17 9.760236725331932e-17 9.598673963926654e-24
5.6974124697621304 6.574107039689158e-25 9.942231375356756e-17 9.94223039986023e-17 9.754965236675116e-24
5.718818669136295 6.797342988951397e-25 1.0318461402411846e-16 1.0318460394923931e-16 1.0074879137110168e-23
5.740305295436557 7.043451135665159e-25 1.073222897320956e-16 1.0732227932263681e-16 1.0409458781687123e-23
5.7835210386641895 7.682109206743687e-25 1.1793486913822918e-16 1.1793485798949175e-16 1.1148737419669694e-23
5.827062130521658 8.417955540934109e-25 1.3020441466006354e-16 1.3020440271132772e-16 1.1948735807449423e-23
5.8489554468988025 8.934301335041016e-25 1.3871018229895158e-16 1.387101698836868e-16 1.241526479641818e-23
5.870931020387893 9.488440270275998e-25 1.4786699218860152e-16 1.4786697928899412e-16 1.2899607401361937e-23
5.892989160043636 1.0083415335074517e-24 1.5772942909687511e-16 1.5772941569447122e-16 1.34024039032369e-23
5.915130176081913 1.07601363337601e-24 1.6894740044070948e-16 1.6894738649928233e-16 1.3941427139703424e-23
5.95966208400165 1.2652555597817929e-24 2.0015632713264575e-16 2.0015631188711043e-16 1.5245535397145523e-23
6.004529249263818 1.5380594075509473e-24 2.4514413546607827e-16 2.4514411858246416e-16 1.688361413580929e-23
6.027089341400364 1.7277093643061238e-24 2.764061802980906e-16 2.764061623773091e-16 1.7920781515380503e-23
6.049734195844842 1.951838394374659e-24 3.134365103436124e-16 3.134364912643224e-16 1.9079290018722572e-23
6.095279466722835 2.599295733344029e-24 4.2055107713013576e-16 4.2055105492710034e-16 2.2203035373092203e-23
6.141167624020661 3.5957795553120436e-24 5.861563086146123e-16 5.861562818968816e-16 2.671773054958915e-23
6.164241091010745 4.2321422334041376e-24 6.924832997490946e-16 6.924832700687195e-16 2.9680375321341015e-23
6.187401249150058 4.9570846568441856e-24 8.141492919977818e-16 8.14149259051399e-16 3.2946382741468046e-23
6.1990139391386085 5.311059897185374e-24 8.739231529239059e-16 8.739231182957303e-16 3.462817567643164e-23
6.204828454712694 5.497523798652697e-24 9.054538718398611e-16 9.054538363375348e-16 3.550232604918405e-23
6.210648424152782 5.633638793348441e-24 9.28742621549248e-16 9.28742585318724e-16 3.6230524035631593e-23
6.233982942956859 6.096084352379211e-24 1.0087557203016163e-15 1.0087556814812731e-15 3.882034345851447e-23
6.239830258556775 6.155200056860525e-24 1.0194933136477253e-15 1.019493274466208e-15 3.918151721687779e-23
6.245683058788269 6.16032537114747e-24 1.02129928047597e-15 1.021299240930117e-15 3.954585289229403e-23
6.257405133728602 6.147618820306577e-24 1.0211055546050867e-15 1.0211055144201947e-15 4.0184891771369873e-23
6.269149208991335 6.056662172231393e-24 1.0078859467735733e-15 1.0078859063733897e-15 4.0400183512763524e-23
6.280915325867298 5.828571262517556e-24 9.717498502910134e-16 9.717498102025869e-16 4.0088426767415793e-23
6.304513850009849 5.266091289426137e-24 8.81270879545836e-16 8.812708405716388e-16 3.897419691058351e-23
6.32820103803542 4.5688845027641016e-24 7.674673000793633e-16 7.674672628311897e-16 3.7248173796841703e-23
6.3519772230701035 3.929494062501399e-24 6.625444221315884e-16 6.625443865135713e-16 3.561801714422735e-23
6.375842739491607 3.3915967236013646e-24 5.739991334053252e-16 5.739990992165227e-16 3.4188802297625763e-23
6.399797922933955 2.9604762280169256e-24 5.029181071429946e-16 5.029180739051701e-16 3.3237824644600275e-23
6.42384311029221 2.602049348262857e-24 4.4369025218287577e-16 4.4369021974468086e-16 3.2438194910264814e-23
6.447978639727206 2.340848635574934e-24 4.006511146481822e-16 4.006510825644102e-16 3.208377184542926e-23
6.472204850670314 2.1232630745280377e-24 3.647753599632762e-16 3.6477532812293016e-16 3.184034600919992e-23
6.496522083828205 1.981845386284023e-24 3.417591273826102e-16 3.4175909539771707e-16 3.1984893207508706e-23
