Dust emission spectrum from A.P. Jones, M. Kohler, N. Ysard, M. Bocchio, and L. Verstraete (2017), A&A, 602A, 46J 
inside the DustPedia framework.

lambda    nu*dP/dnu     j_nu    j_nu(carb.) j_nu(sil)
 (um)   (erg s-1 H-1) (Jy cm2 sr-1 H-1)
0.9927057738263894 9.660251718920053e-21 2.5455311970698046e-13 2.545531081265198e-13 1.1580460696083161e-20
1.0001793341362166 9.822382104879085e-21 2.607739075471657e-13 2.6077389361350963e-13 1.3933656143928145e-20
1.0077091589558085 9.985198664138442e-21 2.6709228825746417e-13 2.670922715148749e-13 1.6742589349086705e-20
1.0114953028030835 1.0066857588525785e-20 2.702882884898165e-13 2.702882701462831e-13 1.8343533390602314e-20
1.0152956718711033 1.0148680185853179e-20 2.735089452510001e-13 2.735089251601794e-13 2.0090820698133533e-20
1.0229392996569957 1.0312726620860822e-20 2.8002241842871847e-13 2.800223943520912e-13 2.4076627329865033e-20
1.0267826658714554 1.0394764477399291e-20 2.8331046374087507e-13 2.8331043739625404e-13 2.6344621000497045e-20
1.0306404723013447 1.04769523749963e-20 2.8662336844684575e-13 2.8662333963024787e-13 2.881659786640306e-20
1.03451277320114 1.0559288128860799e-20 2.89961228360939e-13 2.899611968509719e-13 3.1509967078037226e-20
1.0383996230291617 1.0641769634985849e-20 2.9332414150033195e-13 2.9332410705679443e-13 3.444353758899472e-20
1.0403485208654093 1.0683064410216417e-20 2.950150242849084e-13 2.9501498827822385e-13 3.600668460434411e-20
1.0423010764483396 1.0724394872110544e-20 2.967122081773274e-13 2.9671217053970426e-13 3.763762325129945e-20
1.0462171883269815 1.0807161903667397e-20 3.0012553109286047e-13 3.001254899787053e-13 4.1114155191622114e-20
1.0471985131304309 1.0827875598215708e-20 3.009828203793694e-13 3.0098277834921536e-13 4.203015408939963e-20
1.048180758391296 1.084859801081464e-20 3.018416964105522e-13 3.018416534448885e-13 4.2965663609761105e-20
1.0501480137395462 1.0890068879714067e-20 3.035642154312352e-13 3.035641705344333e-13 4.4896801926097986e-20
1.0521189612883777 1.0931574292972242e-20 3.052931017067147e-13 3.052930547958936e-13 4.691082122593599e-20
1.0531058218030118 1.0952312587460626e-20 3.061591737090629e-13 3.061591257590314e-13 4.7950031417499674e-20
1.0540936079674168 1.0972970002856861e-20 3.070243388206497e-13 3.0702428980917403e-13 4.901147561753892e-20
1.058054026499678 1.1055681138728339e-20 3.105008417570594e-13 3.1050078827072457e-13 5.3486334795692514e-20
1.0590464539527713 1.1076379169926923e-20 3.1137393682915846e-13 3.113738821645176e-13 5.466464081954136e-20
1.06003981227728 1.1097085252774012e-20 3.1224862316181093e-13 3.122485672940685e-13 5.586774248167572e-20
1.0620293250338977 1.113852148190695e-20 3.1400277675041986e-13 3.14002718400096e-13 5.835032388540795e-20
1.0660195594769086 1.1221489574482359e-20 3.1753025826201007e-13 3.175301946265409e-13 6.363546910710216e-20
1.070024785945596 1.1304584055468509e-20 3.2108340374855895e-13 3.2108333437228636e-13 6.937627254797168e-20
1.0740450607676866 1.1387803662607836e-20 3.246623337640516e-13 3.2466225815416143e-13 7.560989022708954e-20
1.07808044048254 1.1471147234152066e-20 3.2826717206258664e-13 3.282670896862648e-13 8.237632191995256e-20
1.0861967418109137 1.1638075396061787e-20 3.3555143094251857e-13 3.3555133325943585e-13 9.768308277638095e-20
1.0902777775684922 1.172137004291353e-20 3.392227496379181e-13 3.3922264331837333e-13 1.0631954485509806e-19
1.0943741465085532 1.1804780107727447e-20 3.429202719686727e-13 3.429201562871613e-13 1.156815113949607e-19
1.1026131145906286 1.1971944164729223e-20 3.503944910054796e-13 3.503943541891339e-13 1.3681634573779912e-19
1.1109141095355224 1.2139564038033066e-20 3.5797525422199577e-13 3.5797509262113757e-13 1.616008582904971e-19
1.1192775983109025 1.230750778081173e-20 3.656599232357125e-13 3.656597326091921e-13 1.9062652054742115e-19
1.1277040513999907 1.2475176923226344e-20 3.734317907412465e-13 3.734315661672877e-13 2.2457395892158626e-19
1.1361939428280308 1.26432831878347e-20 3.8131313733358484e-13 3.8131287310825865e-13 2.6422532618439547e-19
1.1447477501889525 1.2811830834453918e-20 3.893053996312102e-13 3.893050891530026e-13 3.1047820738334154e-19
1.1533659546722406 1.2980884605981128e-20 3.974118840741201e-13 3.974115197123413e-13 3.6436177865884286e-19
1.1707974979042381 1.3321024104446583e-20 4.139890296508024e-13 4.1398852974566785e-13 4.999051345329065e-19
1.1884924949847024 1.3663287157016206e-20 4.3104347228438477e-13 4.310427898590882e-13 6.824252965359883e-19
1.2064549276569216 1.4009976694305153e-20 4.486606151728822e-13 4.486596881999062e-13 9.269729761130141e-19
1.2246888378427687 1.435892124075562e-20 4.667851229020181e-13 4.667838699339802e-13 1.2529680380165926e-18
1.2431983285522175 1.4709865745638826e-20 4.854209989146902e-13 4.854193135358959e-13 1.6853787942490425e-18
1.2619875648066055 1.5063356134754114e-20 5.045988455676008e-13 5.045965894234461e-13 2.2561441547376014e-18
1.3004222497298317 1.5775974546384358e-20 5.445653715193148e-13 5.44561385565031e-13 3.985954283874068e-18
1.3400274889804893 1.6499139113028383e-20 5.868733989789431e-13 5.868664863377368e-13 6.912641206344548e-18
1.3808389325824078 1.7235699593201148e-20 6.317443587135716e-13 6.317325851758544e-13 1.1773537717256873e-17
1.4228933163050095 1.7991896652503027e-20 6.795457806209928e-13 6.795260774041615e-13 1.9703216831269208e-17
1.466228494730424 1.878066333491465e-20 7.309404830887098e-13 7.309080676195514e-13 3.2415469158475105e-17
1.5108834753276823 1.9600655903617692e-20 7.860877145307051e-13 7.860352646747472e-13 5.244985595794303e-17
1.5568984535646726 2.0451314749462196e-20 8.451833889930164e-13 8.450998338506163e-13 8.355514239978954e-17
1.6043148490894465 2.1337456657110463e-20 9.086605811527967e-13 9.085292842387569e-13 1.3129691403966196e-16
1.6531753430134553 2.2264099728556318e-20 9.769975866138222e-13 9.767943183963136e-13 2.032682175084706e-16
1.7035239163302658 2.3236988664823282e-20 1.0507454409568954e-12 1.0504353287131607e-12 3.1011224373440384e-16
1.755405889504358 2.4272965299315834e-20 1.1310187877004415e-12 1.1305523225656513e-12 4.664651347904959e-16
1.8088679632656115 2.5371517568627872e-20 1.2182116402474932e-12 1.2175196135045325e-12 6.920267429603726e-16
1.8639582606462262 2.6531475219224747e-20 1.3127046227731552e-12 1.3116916416947722e-12 1.0129810783831441e-15
1.9207263702978936 2.7755179356166e-20 1.4150734091947574e-12 1.413609829563224e-12 1.463579631533636e-15
1.979223391128241 2.9046428887121437e-20 1.5260086440579896e-12 1.523920628149996e-12 2.0880159079934856e-15
2.039501978296691 3.0408136659878846e-20 1.6462029376999514e-12 1.6432605068770319e-12 2.9424308229193547e-15
2.1016163906111602 3.1852061292304193e-20 1.7768895067545634e-12 1.7727920848139254e-12 4.0974219406380984e-15
2.1656225393682647 3.3382844384380974e-20 1.919002470566387e-12 1.913362278205117e-12 5.640192361271003e-15
2.231578038680979 3.4994913855376945e-20 2.0729386097866164e-12 2.0652616640149197e-12 7.676945771696506e-15
2.299542257339062 3.6687461466082773e-20 2.2393835839896342e-12 2.2290482531879196e-12 1.0335330801714663e-14
2.369576372248914 3.8462827191135616e-20 2.4192533296436374e-12 2.4054863415202504e-12 1.3766988123387992e-14
2.4417434235010123 4.032428073693301e-20 2.6135817527411764e-12 2.595432466009536e-12 1.8149286731639983e-14
2.5161083711144245 4.2281791400345713e-20 2.823918476603274e-12 2.800230775280249e-12 2.3687701323025148e-14
2.5927381535095444 4.435390891250514e-20 3.0525303588666143e-12 3.0219134463895973e-12 3.0616912477017115e-14
2.6717017477616296 4.65556633014377e-20 3.301641587259078e-12 3.262441871841386e-12 3.9199715417691866e-14
2.753070231689431 4.8910521902517176e-20 3.574283699893404e-12 3.524557038913434e-12 4.972666097997044e-14
2.836916847834745 5.1488542775079203e-20 3.877275314716736e-12 3.814758541285738e-12 6.251677343099709e-14
2.9233170693905177 5.444644677013399e-20 4.224885057648709e-12 4.146986426603084e-12 7.789863104562425e-14
2.967498994190263 5.62160446272407e-20 4.428129352155786e-12 4.341635189981155e-12 8.649416217463292e-14
3.0123486681368425 5.810193503881878e-20 4.645850901194333e-12 4.5499365142119536e-12 9.591438698237958e-14
3.0578761833420214 6.10610712631452e-20 4.95625620962591e-12 4.849999988630618e-12 1.0625622099529136e-13
3.1040917844459814 6.448616333552559e-20 5.3133757138064596e-12 5.19589768578075e-12 1.1747802802570962e-13
3.127460860933648 6.755251600252942e-20 5.607933375845622e-12 5.484459698248873e-12 1.2347367759674959e-13
3.1510058709225794 7.140862828141224e-20 5.9726812233837204e-12 5.842967223575374e-12 1.2971399980834666e-13
3.162844764501044 7.484159721576192e-20 6.2833370573666166e-12 6.150397239117578e-12 1.3293981824903628e-13
3.1747281389236908 7.871180715261822e-20 6.633089510019212e-12 6.4968607825973065e-12 1.3622872742190634e-13
3.1986289994194426 8.91275100759964e-20 7.567371888805018e-12 7.424355941583577e-12 1.4301594722143942e-13
3.2227097969389145 1.1304199160163817e-19 9.670088144819647e-12 9.519889644093766e-12 1.5019850072588135e-13
3.2348180950136065 1.35401311136694e-19 1.162631717444717e-11 1.1472288002556949e-11 1.5402917189021931e-13
3.240889293275058 1.5208533826029428e-19 1.3083410780054478e-11 1.2927361012183648e-11 1.5604976787083055e-13
3.2469718861334385 1.7141595076991645e-19 1.4774037370933053e-11 1.4615896889813222e-11 1.5814048111983035e-13
3.2714166318528037 2.7266154075191666e-19 2.3677136333573736e-11 2.3510363671374037e-11 1.6677266219969048e-13
3.2744851364798273 2.789929041362523e-19 2.424965778258787e-11 2.408187001678351e-11 1.677877658043596e-13
3.2775565192852394 2.85491997039103e-19 2.4837824901877134e-11 2.4669017157359235e-11 1.6880774451788475e-13
3.283707930232385 2.7928629301126232e-19 2.4343531231641943e-11 2.4172903853268423e-11 1.7062737837352158e-13
3.2898708863219004 2.59506310029981e-19 2.2661894296199093e-11 2.248961500850065e-11 1.7227928769843817e-13
3.29141343181113 2.548315686642559e-19 2.226409763110678e-11 2.2091403643015706e-11 1.7269398809106803e-13
3.292184975758714 2.525330507747422e-19 2.2068452841066238e-11 2.189555124410346e-11 1.7290159696276984e-13
3.295272960557952 2.3820682813200054e-19 2.0836032878551763e-11 2.0662324489411798e-11 1.7370838913996546e-13
3.3076538914384823 1.8818788320810859e-19 1.6522705021931717e-11 1.634575818153501e-11 1.7694684039671076e-13
3.310756385682612 1.778982447283121e-19 1.5633935701214943e-11 1.5456172995810364e-11 1.7776270540458079e-13
3.313861789986515 1.6836171306208163e-19 1.4809730671426908e-11 1.4631149597892308e-11 1.7858107353459577e-13
3.3200813396944477 1.5505900038929827e-19 1.3665173078683627e-11 1.348482987872676e-11 1.8034319995686867e-13
3.345076488085796 1.3195544936837878e-19 1.1716632704730606e-11 1.1528431629538678e-11 1.8820107519192863e-13
3.3482140837626964 1.329255207113813e-19 1.1813838298480867e-11 1.1624572528005336e-11 1.8926577047553364e-13
3.3513546224236106 1.3390409358279778e-19 1.1911972224016202e-11 1.1721637179654182e-11 1.9033504436202544e-13
3.3576445397418455 1.406521114710401e-19 1.253575242576869e-11 1.2343181051564078e-11 1.9257137420460919e-13
3.3702598118196083 1.6499739617462191e-19 1.4760800326163192e-11 1.4563538508039604e-11 1.972618181235916e-13
3.382922481734668 1.7088750195899232e-19 1.5345172702254968e-11 1.514335858448555e-11 2.0181411776942096e-13
3.389271646505754 1.7392133377007218e-19 1.5646913035820427e-11 1.5442792827184787e-11 2.0412020863563936e-13
3.395632727569191 1.7726035459231526e-19 1.5977239947144984e-11 1.5770743167314272e-11 2.0649677983071328e-13
3.421196662673239 1.9343341633280532e-19 1.7566246589669014e-11 1.7349919153774468e-11 2.1632743589454758e-13
3.4276182099114902 1.905978770493233e-19 1.734123140082876e-11 1.712271745839898e-11 2.1851394242977448e-13
3.4340518103208963 1.775716853074223e-19 1.6186389722354147e-11 1.596581130928495e-11 2.205784130691984e-13
3.4469541582030403 1.5889284692188688e-19 1.4538154744526436e-11 1.431362110233207e-11 2.24533642194362e-13
3.472904465399547 1.5385638223881726e-19 1.4183316229518916e-11 1.394966036986231e-11 2.336558596566042e-13
3.4990501388274233 1.4616987110324544e-19 1.3576176099991443e-11 1.3333201549255398e-11 2.429745507360472e-13
3.5253949054701885 1.1851023948425845e-19 1.109003920297094e-11 1.0838037679547444e-11 2.5200152342349746e-13
3.5519380250092896 9.218414751479876e-20 8.691426390727807e-12 8.430372936010667e-12 2.610534547171415e-13
3.578680990867387 8.207429988876662e-20 7.796498618646039e-12 7.525526637189536e-12 2.7097198145650166e-13
3.605625307711299 7.834725655794913e-20 7.498490058824469e-12 7.217084661446087e-12 2.8140539737838265e-13
3.660119384959845 7.635652939236584e-20 7.418410555528987e-12 7.115143493961305e-12 3.032670615676812e-13
3.715437065384467 7.51907507270037e-20 7.415556758841568e-12 7.089327882187388e-12 3.262288766541808e-13
3.8285932144167436 7.617474126476003e-20 7.741402459396364e-12 7.36611961725115e-12 3.7528284214521546e-13
3.94519561050918 7.798236003592547e-20 8.16646958095395e-12 7.73814005318654e-12 4.2832952776741133e-13
4.06534921144712 8.006567431531135e-20 8.639998277567942e-12 8.15479747678538e-12 4.852008007825603e-13
4.189162171576248 8.225720701734552e-20 9.146829115240491e-12 8.600933314002874e-12 5.458958012376175e-13
4.316745939156006 8.447943920597538e-20 9.680035375533356e-12 9.069971364636312e-12 6.10064010897043e-13
4.448215356677963 8.668887900011255e-20 1.0235725372830367e-11 9.55905341197854e-12 6.766719608518267e-13
4.58368876423945 8.887122381357201e-20 1.081298784574225e-11 1.006729998632271e-11 7.456878594195381e-13
4.723288106065518 9.102961965025849e-20 1.1412915404731952e-11 1.0595477002314452e-11 8.174384024174967e-13
4.867139040275056 9.316288103153132e-20 1.2036108568127736e-11 1.1146320312744913e-11 8.897882553828213e-13
4.940699165968905 9.426194889941276e-20 1.2362157109961149e-11 1.1435768981405581e-11 9.263881285555704e-13
5.015371051989984 9.531869110934879e-20 1.2689677125010933e-11 1.172654044127652e-11 9.6313668373441e-13
5.091171501069577 9.647336400680614e-20 1.3037507837648546e-11 1.2036638698055453e-11 1.0008691395930928e-12
5.129500256944802 9.70326064853183e-20 1.3211805955428432e-11 1.2192066580073196e-11 1.0197393753552322e-12
5.168117569889187 9.759274241100349e-20 1.3388112098368707e-11 1.2349296233571719e-11 1.0388158647969885e-12
5.20702561229733 9.825392996559294e-20 1.3580291034680091e-11 1.252051913991674e-11 1.0597718947633515e-12
5.246226572918644 9.890590473500027e-20 1.377332184584007e-11 1.2692540811926991e-11 1.0807810339130797e-12
5.265937586045735 9.922844235242698e-20 1.3870155002576993e-11 1.2778852916326659e-11 1.091302086250334e-12
5.285722656980489 9.954868517650405e-20 1.3967199397227719e-11 1.2865367117611201e-11 1.1018322796165173e-12
5.305582063971359 9.986663851063334e-20 1.4064454787360645e-11 1.2952084568559846e-11 1.1123702188007985e-12
5.3255160863122235 1.002021731206207e-19 1.4164729138300642e-11 1.3041720390487315e-11 1.123008747813326e-12
5.365609099470188 1.0101998923614298e-19 1.4387846002969256e-11 1.3242816354378031e-11 1.14502964859122e-12
5.406003951863644 1.0183651475911739e-19 1.4613334302010573e-11 1.3446236649377949e-11 1.167097652632627e-12
5.446702915881641 1.0265233204580715e-19 1.4841299898015388e-11 1.3652098341638909e-11 1.189201556376484e-12
5.487708281020852 1.0350543791031491e-19 1.5077301413090674e-11 1.3865865444530894e-11 1.2114359685597784e-12
5.529022354014368 1.046909364107354e-19 1.5364798291879193e-11 1.4130185757189437e-11 1.2346125346897536e-12
5.570647458961463 1.0590113547540241e-19 1.5659421877051816e-11 1.4401589853461507e-11 1.2578320235903084e-12
5.612585937458331 1.0713892748454633e-19 1.596172158880847e-11 1.468063854811155e-11 1.2810830406969181e-12
5.654840148729818 1.0846324149314803e-19 1.6280672691847804e-11 1.497618945981398e-11 1.3044832320338218e-12
5.67608639626678 1.0938509648445857e-19 1.648073531446174e-11 1.516398659057213e-11 1.3167487238896093e-12
5.686739436050992 1.0985424181279085e-19 1.658248425495161e-11 1.525959808854376e-11 1.3228861664078488e-12
5.6974124697621304 1.1032907080358296e-19 1.6685416631263194e-11 1.535639013271939e-11 1.3290264985438023e-12
5.718818669136295 1.1129641901399168e-19 1.68949515375226e-11 1.555363643295007e-11 1.3413151045725304e-12
5.740305295436557 1.123577506091157e-19 1.7120145837966826e-11 1.576643108174327e-11 1.3537147562235549e-12
5.7835210386641895 1.151355737594221e-19 1.767548268196003e-11 1.629615459502217e-11 1.379328086937856e-12
5.827062130521658 1.1825681961438302e-19 1.82913296495539e-11 1.6886084318465683e-11 1.4052453310882188e-12
5.8489554468988025 1.204962956246995e-19 1.8707745021870474e-11 1.7288433581786895e-11 1.4193114400835867e-12
5.870931020387893 1.2285896538421335e-19 1.914622968295157e-11 1.771282073091676e-11 1.4334089520348149e-12
5.892989160043636 1.25354729853583e-19 1.9608564476782542e-11 1.816102808399794e-11 1.447536392784606e-12
5.915130176081913 1.2818155222823365e-19 2.01260833150127e-11 1.866387952042748e-11 1.4622037945852217e-12
5.95966208400165 1.3617686568095344e-19 2.1542415731281983e-11 2.0046385324769903e-11 1.496030406512075e-12
6.004529249263818 1.4763876220125644e-19 2.3531455640415536e-11 2.199713125383136e-11 1.5343243865841778e-12
6.027089341400364 1.556177419064207e-19 2.4896378126793833e-11 2.333972570476733e-11 1.556652422026502e-12
6.049734195844842 1.6494993215393389e-19 2.6488530641036513e-11 2.490818295468274e-11 1.5803476863537693e-12
6.095279466722835 1.9188436174139419e-19 3.1045784432906345e-11 2.940651016422595e-11 1.6392742686804017e-12
6.141167624020661 2.3291323804153116e-19 3.796772347632218e-11 3.6251124528577595e-11 1.7165989477445957e-12
6.164241091010745 2.5903791311755795e-19 4.23850189674465e-11 4.0619483005629135e-11 1.765535961817366e-12
6.187401249150058 2.8835068684950266e-19 4.735858348141496e-11 4.554287623997904e-11 1.815707241435926e-12
6.1990139391386085 3.025655697551635e-19 4.978649493800301e-11 4.7945273658587896e-11 1.8412212794151153e-12
6.204828454712694 3.100161055274299e-19 5.1060312490383417e-11 4.920621282237494e-11 1.8540996680084644e-12
6.210648424152782 3.1538461296419405e-19 5.1993239713290904e-11 5.0128257315437237e-11 1.864982397853688e-12
6.233982942956859 3.3329474698013756e-19 5.515228516014132e-11 5.3249739873129405e-11 1.902545287011913e-12
6.239830258556775 3.353935189662598e-19 5.555163875555434e-11 5.364416763311059e-11 1.9074711224437534e-12
6.245683058788269 3.352790956953978e-19 5.55847749205107e-11 5.367237306833071e-11 1.9124018521799748e-12
6.257405133728602 3.341032764468232e-19 5.549379708851189e-11 5.35729321232592e-11 1.920864965252712e-12
6.269149208991335 3.297184981284544e-19 5.4868280779894506e-11 5.294511639616332e-11 1.9231643837311904e-12
6.280915325867298 3.197431797718429e-19 5.3308156163926644e-11 5.13903031728747e-11 1.917852991051958e-12
6.304513850009849 2.9556937357557207e-19 4.9463001589199765e-11 4.756264041006125e-11 1.900361179138518e-12
6.32820103803542 2.6624084405047287e-19 4.472232590485711e-11 4.2846763103920024e-11 1.8755628009370964e-12
6.3519772230701035 2.3952170188113206e-19 4.0385292619526056e-11 3.853218508989172e-11 1.8531075296343365e-12
6.375842739491607 2.169757647244129e-19 3.6721317736598075e-11 3.4888252924153504e-11 1.8330648124445694e-12
6.399797922933955 1.9909535022772388e-19 3.3821807359881975e-11 3.200014719488558e-11 1.8216601649963974e-12
6.42384311029221 1.8415359627346618e-19 3.140107839442241e-11 2.9589092320499856e-11 1.811986073922559e-12
6.447978639727206 1.7328486873783692e-19 2.965880610833534e-11 2.784978163115851e-11 1.8090244771768284e-12
6.472204850670314 1.6417609859369704e-19 2.8205358149128103e-11 2.6397969392600415e-11 1.8073887565276957e-12
