Dust emission spectrum from A.P. Jones, M. Kohler, N. Ysard, M. Bocchio, and L. Verstraete (2017), A&A, 602A, 46J 
inside the DustPedia framework.

lambda    nu*dP/dnu     j_nu    j_nu(carb.) j_nu(sil)
 (um)   (erg s-1 H-1) (Jy cm2 sr-1 H-1)
0.9927057738263894 1.1778941741471264e-23 3.1038180519311354e-16 3.103817785981271e-16 2.6594986501881205e-23
1.0001793341362166 1.197724351076088e-23 3.1798321003960753e-16 3.1798317802945244e-16 3.201015503246565e-23
1.0077091589558085 1.2176241513935528e-23 3.2570010049100806e-16 3.257000620141345e-16 3.847687370891195e-23
1.0114953028030835 1.2275990982335024e-23 3.2960201959285484e-16 3.296019774290857e-16 4.216376903485418e-23
1.0152956718711033 1.2375901911572216e-23 3.3353301280322e-16 3.335329666146302e-16 4.6188589845610886e-23
1.0229392996569957 1.2576094852262048e-23 3.414798650626329e-16 3.41479809689688e-16 5.537294482276655e-23
1.0267826658714554 1.2676148556447805e-23 3.4548984094673495e-16 3.454897803459724e-16 6.06007625783492e-23
1.0306404723013447 1.27763429518229e-23 3.495289777228648e-16 3.4952891142276427e-16 6.630010055582728e-23
1.03451277320114 1.287667432764854e-23 3.535973504732424e-16 3.535972779619026e-16 7.251133980594855e-23
1.0383996230291617 1.297713906430988e-23 3.5769503623296374e-16 3.576949569548419e-16 7.927812174899924e-23
1.0403485208654093 1.302742033735577e-23 3.597548961250591e-16 3.5975481324062812e-16 8.288443087724562e-23
1.0423010764483396 1.3077733635813482e-23 3.6182211409691277e-16 3.618220274493185e-16 8.664759418976303e-23
1.0462171883269815 1.3178454612276119e-23 3.6597866532843724e-16 3.6597857065776287e-16 9.46706744820037e-23
1.0471985131304309 1.3203654214579052e-23 3.6702241808844074e-16 3.670223213035215e-16 9.678491915766421e-23
1.048180758391296 1.3228861457419036e-23 3.6806801947191787e-16 3.6806792052758895e-16 9.894432884016673e-23
1.0501480137395462 1.3279298662403943e-23 3.7016477346978414e-16 3.7016467006745326e-16 1.0340233092902618e-22
1.0521189612883777 1.332976582662877e-23 3.722689381393019e-16 3.7226883008706786e-16 1.080522340911419e-22
1.0531058218030118 1.335497666355163e-23 3.733228564803764e-16 3.7332274602862775e-16 1.1045174865118322e-22
1.0540936079674168 1.338008392292391e-23 3.743755262915126e-16 3.7437541338876607e-16 1.129027466062923e-22
1.058054026499678 1.3480580909381674e-23 3.786045985963205e-16 3.7860447535898556e-16 1.2323733488092354e-22
1.0590464539527713 1.3505721909855738e-23 3.796664718926688e-16 3.796663459336432e-16 1.2595902560216606e-22
1.06003981227728 1.3530869520009214e-23 3.8073019009643474e-16 3.807300613582711e-16 1.2873816372401293e-22
1.0620293250338977 1.3581184389062603e-23 3.828631669519401e-16 3.8286303247852787e-16 1.3447341220683718e-22
1.0660195594769086 1.3681891484482246e-23 3.8715132315941657e-16 3.8715117647396577e-16 1.4668545077434847e-22
1.070024785945596 1.3782699430170434e-23 3.9146916190531536e-16 3.914690019516094e-16 1.599537058573296e-22
1.0740450607676866 1.388360557506336e-23 3.958167808828768e-16 3.9581660651824274e-16 1.7436463399522903e-22
1.07808044048254 1.3984607384880876e-23 4.0019428091489836e-16 4.001940909035594e-16 1.9001133897840842e-22
1.0861967418109137 1.4186731964556844e-23 4.090348317141754e-16 4.0903460629353444e-16 2.2542064098694893e-22
1.0902777775684922 1.4287494428189202e-23 4.134877687183799e-16 4.1348752331119385e-16 2.454071860287923e-22
1.0943741465085532 1.4388337448433007e-23 4.1797073270037775e-16 4.1797046562197953e-16 2.6707839812906367e-22
1.1026131145906286 1.459025775141465e-23 4.270272119633894e-16 4.270268959420544e-16 3.1602133503344315e-22
1.1109141095355224 1.4792479389706876e-23 4.3620525032972597e-16 4.3620487688298295e-16 3.7344674306907783e-22
1.1192775983109025 1.4994830413692604e-23 4.455011230260411e-16 4.45500682290781e-16 4.407352601369556e-22
1.1277040513999907 1.5196563335314764e-23 4.548937377275866e-16 4.54893218250852e-16 5.19476734487763e-22
1.1361939428280308 1.5398546573633152e-23 4.644100758590195e-16 4.644094643596458e-16 6.114993736734507e-22
1.1447477501889525 1.5600776019680527e-23 4.740513999424501e-16 4.740506810397792e-16 7.189026708703044e-22
1.1533659546722406 1.580332516114338e-23 4.838213586793724e-16 4.838205145837757e-16 8.440955967017602e-22
1.1707974979042381 1.6210003733605705e-23 5.037723574174183e-16 5.0377119812458e-16 1.1592928382544756e-21
1.1884924949847024 1.661796351114815e-23 5.242563236667552e-16 5.242547394442634e-16 1.5842224917433541e-21
1.2064549276569216 1.7030007139967275e-23 5.453751741729965e-16 5.453730199437727e-16 2.154229223833069e-21
1.2246888378427687 1.744334810870057e-23 5.670548124208531e-16 5.670518974357814e-16 2.9149850716131317e-21
1.2431983285522175 1.7857629758226928e-23 5.89296233247896e-16 5.892923079487604e-16 3.9252991356414536e-21
1.2619875648066055 1.8273430303875195e-23 6.121313041667624e-16 6.121260436562221e-16 5.260510540304317e-21
1.3004222497298317 1.910689619501266e-23 6.595442959435255e-16 6.595349809034647e-16 9.315040060821624e-21
1.3400274889804893 1.994628084514239e-23 7.094880257924377e-16 7.094718333516162e-16 1.6192440821544536e-20
1.3808389325824078 2.07948793331893e-23 7.621998537299794e-16 7.621722088835506e-16 2.764484642866417e-20
1.4228933163050095 2.1660465557286818e-23 8.181059651480859e-16 8.180595878828435e-16 4.637726524231928e-20
1.466228494730424 2.25594424273057e-23 8.78009975045522e-16 8.779334854778418e-16 7.648956768009681e-20
1.5108834753276823 2.3490879681891122e-23 9.421058158592194e-16 9.419817373391338e-16 1.2407852008569779e-19
1.5568984535646726 2.4455424222235078e-23 1.0106596361465748e-15 1.010461462618443e-15 1.9817352813208616e-19
1.6043148490894465 2.546109200093476e-23 1.084266556513171e-15 1.0839543378504883e-15 3.1221866268264574e-19
1.6531753430134553 2.6516907870168816e-23 1.1636201467597317e-15 1.163135502273846e-15 4.846444858856241e-19
1.7035239163302658 2.7633891254886575e-23 1.2495674749769262e-15 1.2488260955581664e-15 7.413794187598488e-19
1.755405889504358 2.883788793040843e-23 1.3437251132975941e-15 1.3426068937624523e-15 1.1182195351420757e-18
1.8088679632656115 3.0134523779334954e-23 1.4469070500809646e-15 1.445243500554036e-15 1.6635495269277244e-18
1.8639582606462262 3.153023151891832e-23 1.5600293737907472e-15 1.5575874167668759e-15 2.441957023871175e-18
1.9207263702978936 3.303728930366385e-23 1.6843771393285282e-15 1.6808388268113374e-15 3.538312517190621e-18
1.979223391128241 3.4671484684920165e-23 1.821531505202385e-15 1.816468871939658e-15 5.06263326272729e-18
2.039501978296691 3.644943551845837e-23 1.9732602658011797e-15 1.9661048965391734e-15 7.155369262006242e-18
2.1016163906111602 3.840044647433203e-23 2.1421957520663438e-15 2.1322017252850004e-15 9.994026781343764e-18
2.1656225393682647 4.0547083590349214e-23 2.330836542513057e-15 2.317037485785037e-15 1.3799056728020586e-17
2.231578038680979 4.290132504269342e-23 2.54127824001888e-15 2.5224377598859315e-15 1.8840480132948215e-17
2.299542257339062 4.5482516892937934e-23 2.77622919707155e-15 2.750784398746593e-15 2.544479832495784e-17
2.369576372248914 4.8315901461978967e-23 3.0389967150819682e-15 3.0049943796177207e-15 3.4002335464247505e-17
2.4417434235010123 5.142921348471007e-23 3.333337916139406e-15 3.2883651541819685e-15 4.4972761957437366e-17
2.5161083711144245 5.486023568449544e-23 3.664008265718615e-15 3.605115880484624e-15 5.889238523399284e-17
2.5927381535095444 5.865902308398518e-23 4.0370387453007225e-15 3.960660253773637e-15 7.637849152708545e-17
2.6717017477616296 6.287316077898499e-23 4.45884834689731e-15 4.360720040943668e-15 9.812830595364027e-17
2.753070231689431 6.756234539574656e-23 4.937321878427083e-15 4.81240191167324e-15 1.24919966753843e-16
2.836916847834745 7.285013479323495e-23 5.485881209368954e-15 5.328264995561943e-15 1.5761621380701298e-16
2.9233170693905177 7.897999427565008e-23 6.1286166033411734e-15 5.9314956461733314e-15 1.9712095716784278e-16
2.967498994190263 8.255850130211059e-23 6.503120689297271e-15 6.2838127896824426e-15 2.1930789961482877e-16
3.0123486681368425 8.639276109211657e-23 6.907995176207411e-15 6.6643233851552245e-15 2.4367179105218583e-16
3.0578761833420214 9.182685761697982e-23 7.453479342234976e-15 7.183011696063738e-15 2.7046764617123886e-16
3.1040917844459814 9.80277764134758e-23 8.077056837197038e-15 7.777439400130274e-15 2.996174370667645e-16
3.127460860933648 1.030656126234747e-22 8.556085296830656e-15 8.2408643112275e-15 3.152209856031591e-16
3.1510058709225794 1.0925365693192927e-22 9.138073101919492e-15 8.806590521538755e-15 3.314825803807364e-16
3.162844764501044 1.144648529482825e-22 9.609913190688735e-15 9.270016315098998e-15 3.398968755897387e-16
3.1747281389236908 1.2031679789125393e-22 1.0139166140908908e-14 9.790684673532399e-15 3.48481467376509e-16
3.1986289994194426 1.3586190266249595e-22 1.1535355829991099e-14 1.1169141127440547e-14 3.662147025505521e-16
3.2227097969389145 1.7054387924289758e-22 1.4589041837214043e-14 1.4204039269703577e-14 3.8500256751046545e-16
3.2348180950136065 2.0265336148563572e-22 1.7400955997547847e-14 1.7005927895612276e-14 3.9502810193557173e-16
3.240889293275058 2.265074229773102e-22 1.94857025236166e-14 1.908538619999056e-14 4.003163236260359e-16
3.2469718861334385 2.541030288549867e-22 2.1900690265457512e-14 2.1494902178133362e-14 4.057880873241494e-16
3.2714166318528037 3.9881280508352345e-22 3.463174575885314e-14 3.420334788998768e-14 4.2839786886545527e-16
3.2744851364798273 4.0793640035552126e-22 3.545723908752539e-14 3.5026177276966234e-14 4.310618105591503e-16
3.2775565192852394 4.1730264976775384e-22 3.6305361458525143e-14 3.5871622444915216e-14 4.3373901360992e-16
3.283707930232385 4.087678640670756e-22 3.56295798054334e-14 3.519105419685841e-14 4.385256085749921e-16
3.2898708863219004 3.809598189233359e-22 3.3268058670875374e-14 3.282517801180751e-14 4.4288065906787e-16
3.29141343181113 3.7439288229871714e-22 3.270991787862935e-14 3.2265943670477536e-14 4.439742081518158e-16
3.292184975758714 3.7116476937751093e-22 3.243548590627519e-14 3.1990964204767693e-14 4.445217015074967e-16
3.295272960557952 3.5092752084733946e-22 3.069575049423843e-14 3.024909933948109e-14 4.466511547573303e-16
3.3076538914384823 2.8041052363651797e-22 2.4619759190170685e-14 2.4164555650797816e-14 4.552035393728644e-16
3.310756385682612 2.6594838239684392e-22 2.3371899574300153e-14 2.2914540446439942e-14 4.573591278602162e-16
3.313861789986515 2.525623931972766e-22 2.2216339766057523e-14 2.175681804078643e-14 4.595217252710929e-16
3.3200813396944477 2.3395807178430014e-22 2.061845836785236e-14 2.015428465042493e-14 4.641737174274314e-16
3.345076488085796 2.0215237320169497e-22 1.7949581609029584e-14 1.7464675615490006e-14 4.849059935395849e-16
3.3482140837626964 2.0365856452225478e-22 1.810028154481132e-14 1.7612567002590602e-14 4.877145422207165e-16
3.3513546224236106 2.051777951325449e-22 1.825240835592904e-14 1.7761872668436437e-14 4.905356874926065e-16
3.3576445397418455 2.1502448885384275e-22 1.9164260881389096e-14 1.8667826680494582e-14 4.964342008945167e-16
3.3702598118196083 2.502080763611155e-22 2.238381659823961e-14 2.1875010142081172e-14 5.088064561584387e-16
3.382922481734668 2.5911144777346244e-22 2.3267412008686523e-14 2.2746580074272666e-14 5.208319344138639e-16
3.389271646505754 2.636963158313403e-22 2.3723560717018906e-14 2.3196633542453353e-14 5.269271745655576e-16
3.395632727569191 2.687055291283874e-22 2.42195877576955e-14 2.3686379058351767e-14 5.332086993437249e-16
3.421196662673239 2.9272665055251165e-22 2.6583351648642818e-14 2.6024140556224822e-14 5.592110924179899e-16
3.4276182099114902 2.8895331288481036e-22 2.6289937434480785e-14 2.5724923622634026e-14 5.650138118467503e-16
3.4340518103208963 2.7067353076524298e-22 2.4673005997024832e-14 2.410250389825538e-14 5.705020987694563e-16
3.4469541582030403 2.446378153468402e-22 2.2383527545602437e-14 2.1802491537551696e-14 5.810360080507399e-16
3.472904465399547 2.386235860396448e-22 2.199761707232064e-14 2.1392315429509602e-14 6.053016428110388e-16
3.4990501388274233 2.288125847589566e-22 2.1251985249324342e-14 2.062185285156339e-14 6.301323977609487e-16
3.5253949054701885 1.9037007298496938e-22 1.781459206954162e-14 1.7160337556945242e-14 6.542545125963777e-16
3.5519380250092896 1.5387468657009459e-22 1.4507814497124815e-14 1.3829315892375637e-14 6.784986047491797e-16
3.578680990867387 1.4056115788907303e-22 1.335235115989625e-14 1.2647280603269977e-14 7.050705566262726e-16
3.605625307711299 1.3637876813068122e-22 1.3052592802739099e-14 1.2319537979842535e-14 7.330548228965704e-16
3.660119384959845 1.3588173731800986e-22 1.3201575850097824e-14 1.2409733891140096e-14 7.918419589577241e-16
3.715437065384467 1.3665903163388124e-22 1.3477758845216882e-14 1.2623953093894943e-14 8.538057513219413e-16
3.8285932144167436 1.432014416132428e-22 1.4553117921868334e-14 1.35661738127317e-14 9.869441091366283e-16
3.94519561050918 1.5125181116765083e-22 1.5839393862865572e-14 1.47073286759829e-14 1.1320651868826715e-15
4.06534921144712 1.6000560664392708e-22 1.7266427562458824e-14 1.5977450321572888e-14 1.2889772408859395e-15
4.189162171576248 1.6919812829383792e-22 1.881447744506966e-14 1.7356536327417754e-14 1.45794111765191e-15
4.316745939156006 1.7868688936894902e-22 2.0474750146223712e-14 1.883646192986309e-14 1.6382882163606186e-15
4.448215356677963 1.8836731928468694e-22 2.2241332125333007e-14 2.041386260850237e-14 1.8274695168306296e-15
4.58368876423945 1.9818719338200936e-22 2.4113493898957283e-14 2.2087830285691615e-14 2.0256636132656708e-15
4.723288106065518 2.081211872622718e-22 2.609336953491204e-14 2.3859315720701486e-14 2.2340538142105504e-15
4.867139040275056 2.1811303660808895e-22 2.8178950239317508e-14 2.5731911984620975e-14 2.4470382546965386e-15
4.940699165968905 2.231877044750494e-22 2.927036306745965e-14 2.6714479377682218e-14 2.5558836897774305e-15
5.015371051989984 2.2820837985394827e-22 3.038114166135907e-14 2.7715190793343048e-14 2.6659508680160264e-15
5.091171501069577 2.3339886795654065e-22 3.154175871867617e-14 2.8762137575245376e-14 2.779621143430785e-15
5.129500256944802 2.3596716804351024e-22 3.212891572189743e-14 2.9292120250118824e-14 2.8367954717786004e-15
5.168117569889187 2.385388093352988e-22 3.2723584154883906e-14 2.982883126743549e-14 2.8947528874484257e-15
5.20702561229733 2.412860613904986e-22 3.334965774338107e-14 3.0391599548121736e-14 2.958058195259333e-15
5.246226572918644 2.440188536373462e-22 3.398128975823176e-14 3.095953654693397e-14 3.021753211297793e-15
5.265937586045735 2.4537959907303367e-22 3.429916859447639e-14 3.124543008591305e-14 3.0537385085633424e-15
5.285722656980489 2.4673645959518885e-22 3.461841131926286e-14 3.1532600172548756e-14 3.085811146714112e-15
5.305582063971359 2.480893494302581e-22 3.4939009566403533e-14 3.182104186845616e-14 3.1179676979473627e-15
5.3255160863122235 2.4947078888905627e-22 3.52655640340046e-14 3.211509969866417e-14 3.150464335340434e-15
5.365609099470188 2.524740060120944e-22 3.59587953406264e-14 3.274109359271809e-14 3.2177017479083107e-15
5.406003951863644 2.5547415900917183e-22 3.666002612085456e-14 3.337469211830477e-14 3.2853340025497887e-15
5.446702915881641 2.584714680006217e-22 3.7369366045826694e-14 3.40160323060987e-14 3.3533337397279957e-15
5.487708281020852 2.6152765852146435e-22 3.809588573312064e-14 3.467391657404607e-14 3.421969159074578e-15
5.529022354014368 2.651281538582119e-22 3.89111106003252e-14 3.541759305012202e-14 3.4935175502031874e-15
5.570647458961463 2.687673297606513e-22 3.97421707009771e-14 3.6176696667936296e-14 3.565474033040798e-15
5.612585937458331 2.7244924490272205e-22 4.0589905987677606e-14 3.695209522853726e-14 3.637810759140339e-15
5.654840148729818 2.7627077700340663e-22 4.146911002101188e-14 3.77582457589219e-14 3.710864262089986e-15
5.67608639626678 2.7861022769329367e-22 4.1977395148775863e-14 3.8228292960256427e-14 3.749102188519443e-15
5.686739436050992 2.79793226130836e-22 4.223475298171404e-14 3.84664891585936e-14 3.768263823120424e-15
5.6974124697621304 2.809853965369105e-22 4.249431608887252e-14 3.87068627680663e-14 3.787453320806221e-15
5.718818669136295 2.8339826289315247e-22 4.302025132359357e-14 3.919433718345872e-14 3.825914140134846e-15
5.740305295436557 2.859661267885234e-22 4.3573156002117685e-14 3.970838102631043e-14 3.864774975807253e-15
5.7835210386641895 2.921865422589389e-22 4.4856146532009773e-14 4.091105118755262e-14 3.945095344457151e-15
5.827062130521658 2.9897257454381833e-22 4.624347191975124e-14 4.221684483779348e-14 4.026627081957754e-15
5.8489554468988025 3.0349911871943677e-22 4.7119989024806003e-14 4.304927410162623e-14 4.070714923179772e-15
5.870931020387893 3.0822684089536187e-22 4.8033791199347515e-14 4.3918805133383086e-14 4.114986065964443e-15
5.892989160043636 3.131718599328055e-22 4.89877854228474e-14 4.482834826030291e-14 4.159437162544495e-15
5.915130176081913 3.186687359388551e-22 5.003491858154071e-14 4.582938469223252e-14 4.20553388930818e-15
5.95966208400165 3.3358467985661187e-22 5.277122379871934e-14 4.846026661271554e-14 4.310957186003781e-15
6.004529249263818 3.5428780287950724e-22 5.64682851108898e-14 5.2038478615065155e-14 4.429806495824647e-15
6.027089341400364 3.684058807321122e-22 5.893911580054063e-14 5.4440444648745907e-14 4.498671151794725e-15
6.049734195844842 3.8477081156506218e-22 6.178852757821257e-14 5.721686881685579e-14 4.571658761356775e-15
6.095279466722835 4.313548221497712e-22 6.979072552355642e-14 6.503899608212141e-14 4.751729441435022e-15
6.141167624020661 5.01495874216078e-22 8.174999771098164e-14 7.676373405607022e-14 4.9862636549114496e-15
6.164241091010745 5.460596292455572e-22 8.934888126753123e-14 8.421501796635518e-14 5.133863301176043e-15
6.187401249150058 5.958487712753146e-22 9.786192668744531e-14 9.257656609043023e-14 5.285360597015054e-15
6.1990139391386085 6.200414236087519e-22 1.0202644412855403e-13 9.666400962948344e-14 5.3624344990705726e-15
6.204828454712694 6.327020905958732e-22 1.0420738111067509e-13 9.880602430260083e-14 5.401356808074258e-15
6.210648424152782 6.4190477507567015e-22 1.0582224836506044e-13 1.0038781979157234e-13 5.4344285734881154e-15
6.233982942956859 6.727644674568672e-22 1.1132638030146619e-13 1.0577702935106677e-13 5.549350950399434e-15
6.239830258556775 6.76493453866723e-22 1.1204843816162708e-13 1.0648342690221278e-13 5.565011259414296e-15
6.245683058788269 6.7654447618067245e-22 1.1216199552859175e-13 1.0658130146329894e-13 5.5806940652927814e-15
6.257405133728602 6.750593140179984e-22 1.1212582227037009e-13 1.0651784583012917e-13 5.607976440240919e-15
6.269149208991335 6.682018274477451e-22 1.1119511247973111e-13 1.0557792165421691e-13 5.6171908255142394e-15
6.280915325867298 6.519887742355143e-22 1.0870073731947856e-13 1.0309666499587326e-13 5.604072323605334e-15
6.304513850009849 6.124170179043369e-22 1.024868834121951e-13 9.692924203691501e-14 5.557641375280136e-15
6.32820103803542 5.642326647909156e-22 9.477808414760586e-14 8.928835844810109e-14 5.489725699504789e-15
6.3519772230701035 5.203578709617981e-22 8.773653794466964e-14 8.230788045112208e-14 5.428657493547571e-15
6.375842739491607 4.832715045999917e-22 8.178962519616087e-14 7.641500716665084e-14 5.374618029510056e-15
6.399797922933955 4.541511678522666e-22 7.71500353664507e-14 7.180399817999975e-14 5.346037186450971e-15
6.42384311029221 4.298147421735451e-22 7.329015934083398e-14 6.79676258660184e-14 5.322533474815583e-15
6.447978639727206 4.1237411565573276e-22 7.058044957654797e-14 6.526158266430517e-14 5.318866912242827e-15
6.472204850670314 3.978129036644375e-22 6.834402522847394e-14 6.302489508331389e-14 5.319130145160041e-15
6.496522083828205 3.8856451317217817e-22 6.700596821155912e-14 6.16705159572841e-14 5.335452254275011e-15
