Dust emission spectrum from A.P. Jones, M. Kohler, N. Ysard, M. Bocchio, and L. Verstraete (2017), A&A, 602A, 46J 
inside the DustPedia framework.

lambda    nu*dP/dnu     j_nu    j_nu(carb.) j_nu(sil)
 (um)   (erg s-1 H-1) (Jy cm2 sr-1 H-1)
0.9927057738263894 9.489648280370016e-20 2.500576222003684e-12 2.5005762220036833e-12 3.3995296539717915e-28
1.0001793341362166 9.646491755875138e-20 2.5610420389281384e-12 2.561042038928138e-12 4.097126454147924e-28
1.0077091589558085 9.803113434114746e-20 2.6222172309589345e-12 2.622217230958934e-12 4.931692542629597e-28
1.0114953028030835 9.881321813132146e-20 2.653067789428913e-12 2.653067789428912e-12 5.408159520698948e-28
1.0152956718711033 9.959451660305054e-20 2.6840919893066437e-12 2.6840919893066425e-12 5.928789937805796e-28
1.0229392996569957 1.0115368612120758e-19 2.746635381892407e-12 2.746635381892406e-12 7.118572283561491e-28
1.0267826658714554 1.0192966697247271e-19 2.7781044276386764e-12 2.778104427638676e-12 7.796776014584279e-28
1.0306404723013447 1.0270451945788036e-19 2.8097403011954318e-12 2.809740301195431e-12 8.536888181707568e-28
1.03451277320114 1.034781688096698e-19 2.8415416428104936e-12 2.8415416428104924e-12 9.344291083616135e-28
1.0383996230291617 1.0425054067378727e-19 2.8735070756983883e-12 2.873507075698387e-12 1.0224809713618516e-27
1.0403485208654093 1.0463622442896614e-19 2.889550891546785e-12 2.8895508915467833e-12 1.0694437146747677e-27
1.0423010764483396 1.0502156112414697e-19 2.9056352063660387e-12 2.905635206366037e-12 1.1184745933376535e-27
1.0462171883269815 1.0579115667657765e-19 2.937924624938888e-12 2.937924624938887e-12 1.2230915097587633e-27
1.0471985131304309 1.0598332435614074e-19 2.946022014064266e-12 2.9460220140642647e-12 1.2506782000576968e-27
1.048180758391296 1.0617539727646329e-19 2.954129372204976e-12 2.954129372204975e-12 1.2788616840084692e-27
1.0501480137395462 1.0655925430245379e-19 2.9703739054872894e-12 2.9703739054872882e-12 1.3370685290710695e-27
1.0521189612883777 1.0694271869933496e-19 2.986658044089602e-12 2.986658044089601e-12 1.3978134717310235e-27
1.0531058218030118 1.0713400656634376e-19 2.9948066825673075e-12 2.994806682567306e-12 1.429172496870948e-27
1.0540936079674168 1.0732422875803525e-19 3.0029381621651157e-12 3.002938162165114e-12 1.4612126238908115e-27
1.058054026499678 1.0808403981979308e-19 3.035560172496933e-12 3.035560172496931e-12 1.5964016950439722e-27
1.0590464539527713 1.0827371760228061e-19 3.043739582018399e-12 3.043739582018398e-12 1.6320287221726023e-27
1.06003981227728 1.0846328317597706e-19 3.051928507699116e-12 3.051928507699115e-12 1.6684176905051086e-27
1.0620293250338977 1.0884207328211039e-19 3.068334813859351e-12 3.0683348138593482e-12 1.743543863228655e-27
1.0660195594769086 1.0959825854098305e-19 3.101260586537616e-12 3.101260586537614e-12 1.9036431243287358e-27
1.070024785945596 1.1035252552498729e-19 3.1343359767998285e-12 3.1343359767998265e-12 2.0777830347696122e-27
1.0740450607676866 1.1110480470680659e-19 3.1675594572246544e-12 3.1675594572246516e-12 2.267132609626766e-27
1.07808044048254 1.1185502711444255e-19 3.2009294870284342e-12 3.2009294870284314e-12 2.4729526253274393e-27
1.0861967418109137 1.1334770338906668e-19 3.268064759154235e-12 3.268064759154231e-12 2.9395471684888144e-27
1.0902777775684922 1.1408700870446247e-19 3.301739357174423e-12 3.30173935717442e-12 3.2033660616492593e-27
1.0943741465085532 1.1482393440665876e-19 3.3355517388645944e-12 3.3355517388645904e-12 3.489758030515082e-27
1.1026131145906286 1.1629038497362564e-19 3.403583385538321e-12 3.4035833855383176e-12 4.137721442563006e-27
1.1109141095355224 1.177465374149315e-19 3.472146654757408e-12 3.472146654757403e-12 4.8998140641149126e-27
1.1192775983109025 1.1919053306635732e-19 3.5411881875400596e-12 3.5411881875400536e-12 5.7949799329009264e-27
1.1277040513999907 1.206156678820637e-19 3.6105079010776686e-12 3.610507901077663e-12 6.845104178287526e-27
1.1361939428280308 1.2202882155951232e-19 3.68030930753413e-12 3.680309307534122e-12 8.075431476374434e-27
1.1447477501889525 1.2342952269229769e-19 3.7505786861306615e-12 3.750578686130652e-12 9.515048006066498e-27
1.1533659546722406 1.248180736782498e-19 3.82132553617492e-12 3.8213255361749084e-12 1.1197437222284423e-26
1.1707974979042381 1.2756320503962898e-19 3.9643924565735405e-12 3.964392456573525e-12 1.5450256911617857e-26
1.1884924949847024 1.3025382112335511e-19 4.109191199021913e-12 4.109191199021891e-12 2.1214311228209174e-26
1.2064549276569216 1.3291094453597291e-19 4.256388675004572e-12 4.256388675004543e-12 2.898859344792239e-26
1.2246888378427687 1.355055704490859e-19 4.405065206183698e-12 4.4050652061836585e-12 3.9422449207068814e-26
1.2431983285522175 1.3803162741604784e-19 4.5550008151490725e-12 4.555000815149019e-12 5.335807408550789e-26
1.2619875648066055 1.404881667153558e-19 4.706133620310527e-12 4.706133620310455e-12 7.188221432258087e-26
1.3004222497298317 1.4515186535793249e-19 5.010446692402913e-12 5.010446692402784e-12 1.2866041052250966e-25
1.3400274889804893 1.4947838384251143e-19 5.316937241305076e-12 5.31693724130485e-12 2.2615840425751543e-25
1.3808389325824078 1.5345164370001658e-19 5.6245010374310895e-12 5.6245010374306985e-12 3.9059463832180914e-25
1.4228933163050095 1.570909103882515e-19 5.933252474157344e-12 5.9332524741566815e-12 6.631355217132216e-25
1.466228494730424 1.6048362059804715e-19 6.2459974430021845e-12 6.245997443001077e-12 1.1072965701821565e-24
1.5108834753276823 1.635638511465917e-19 6.559756702015955e-12 6.559756702014135e-12 1.8193365656631506e-24
1.5568984535646726 1.662782444426654e-19 6.871715186797797e-12 6.87171518679485e-12 2.9444951533509994e-24
1.6043148490894465 1.6863169840574781e-19 7.181220308329866e-12 7.181220308325163e-12 4.702833084524564e-24
1.6531753430134553 1.7063130459386208e-19 7.487676340900987e-12 7.487676340893583e-12 7.40466735121347e-24
1.7035239163302658 1.7230072546430423e-19 7.791207559921583e-12 7.791207559910086e-12 1.1497256982146842e-23
1.755405889504358 1.7377692829190233e-19 8.097278941545467e-12 8.097278941527852e-12 1.7615482519287484e-23
1.8088679632656115 1.7502604424775837e-19 8.403863264085515e-12 8.40386326405887e-12 2.664572286525025e-23
1.8639582606462262 1.7602511643362984e-19 8.709239955838411e-12 8.709239955798595e-12 3.981536578399935e-23
1.9207263702978936 1.7679072443573281e-19 9.013519600467146e-12 9.013519600408336e-12 5.880801315275841e-23
1.979223391128241 1.7736151288488442e-19 9.318019879047464e-12 9.318019878961544e-12 8.591863375398482e-23
2.039501978296691 1.7778374230873624e-19 9.624664678979999e-12 9.624664678855741e-12 1.2425818392284077e-22
2.1016163906111602 1.78187056569421e-19 9.940289520106647e-12 9.940289519928602e-12 1.78045408529973e-22
2.1656225393682647 1.7864662235427697e-19 1.0269445758091142e-11 1.0269445757838157e-11 2.5298514268950796e-22
2.231578038680979 1.7916780025752754e-19 1.0613080869959027e-11 1.0613080869602226e-11 3.5680458943229965e-22
2.299542257339062 1.797955907191268e-19 1.0974629430339858e-11 1.0974629429839843e-11 5.000168298360962e-22
2.369576372248914 1.8062952648479849e-19 1.1361322484401601e-11 1.1361322483704583e-11 6.970200288264442e-22
2.4417434235010123 1.817871409130093e-19 1.1782368976964087e-11 1.1782368975996448e-11 9.67635511777962e-22
2.5161083711144245 1.834697357025785e-19 1.2253586222077491e-11 1.2253586220738113e-11 1.3393759909540993e-21
2.5927381535095444 1.8600673706825885e-19 1.2801379309648558e-11 1.2801379307797908e-11 1.850652982593094e-21
2.6717017477616296 1.897914335798575e-19 1.3459657656589024e-11 1.3459657654033857e-11 2.5551696929416584e-21
2.753070231689431 1.9541596830966502e-19 1.428061045065591e-11 1.4280610447127751e-11 3.528159939525295e-21
2.836916847834745 2.0422193198954115e-19 1.5378657327432783e-11 1.5378657322557202e-11 4.875583021023283e-21
2.9233170693905177 2.191641160222995e-19 1.700649452598103e-11 1.7006494519235213e-11 6.745813397504921e-21
2.967498994190263 2.318535564675338e-19 1.8263069655706386e-11 1.8263069647773278e-11 7.933109541757596e-21
3.0123486681368425 2.466732219012001e-19 1.9724076478770208e-11 1.972407646943342e-11 9.33678403146582e-21
3.0578761833420214 2.7983351864051194e-19 2.2713761578903322e-11 2.2713761567898463e-11 1.1004855925929637e-20
3.1040917844459814 3.225636061869864e-19 2.6577819839493718e-11 2.6577819826515926e-11 1.2977787448786578e-20
3.127460860933648 3.6776730804406236e-19 3.0530536586497695e-11 3.053053657238784e-11 1.4109854271553105e-20
3.1510058709225794 4.2799469471958394e-19 3.579785718310611e-11 3.579785716775751e-11 1.5348601021135917e-20
3.162844764501044 4.840581294686116e-19 4.0639169872889127e-11 4.0639169856860105e-11 1.6029030942410384e-20
3.1747281389236908 5.492547811492547e-19 4.628601805704867e-11 4.6286018040308096e-11 1.67405751627456e-20
3.1986289994194426 7.311058816567697e-19 6.207455017953498e-11 6.207455016124956e-11 1.8285439557278512e-20
3.2227097969389145 1.1597759109935892e-18 9.921211691907228e-11 9.921211689891531e-11 2.0156955620066814e-20
3.2348180950136065 1.5662895531359428e-18 1.3449041947162213e-10 1.3449041945031323e-10 2.1308928944228373e-20
3.240889293275058 1.8702118843677503e-18 1.608882921182364e-10 1.6088829209624295e-10 2.1993444424081965e-20
3.2469718861334385 2.2218036297479026e-18 1.914933220002943e-10 1.914933219775386e-10 2.2755783248116185e-20
3.2714166318528037 4.097254334221673e-18 3.5579366711258667e-10 3.5579366708638805e-10 2.6198644607413177e-20
3.2744851364798273 4.214495881834171e-18 3.6631785735558673e-10 3.6631785732901634e-10 2.6570462324529653e-20
3.2775565192852394 4.3351049440739095e-18 3.7715445143431377e-10 3.7715445140736567e-10 2.6948100856492135e-20
3.283707930232385 4.219121089743925e-18 3.677527633413742e-10 3.6775276331394427e-10 2.7429954497598255e-20
3.2898708863219004 3.851293395297033e-18 3.363217018414226e-10 3.3632170181372787e-10 2.769473528623999e-20
3.29141343181113 3.764550357321079e-18 3.2890083882441163e-10 3.2890083879665036e-10 2.776124119041508e-20
3.292184975758714 3.721927888020735e-18 3.2525322852849346e-10 3.25253228500699e-10 2.7794540903246426e-20
3.295272960557952 3.452890486281226e-18 3.0202551397194495e-10 3.020255139440638e-10 2.7881170516930825e-20
3.3076538914384823 2.5208592582999735e-18 2.213288826923868e-10 2.2132888266418158e-10 2.8205158323740116e-20
3.310756385682612 2.331166395915798e-18 2.0486602101240617e-10 2.048660209841193e-10 2.8286879740192823e-20
3.313861789986515 2.156144939218446e-18 1.8966263325326684e-10 1.8966263322489796e-10 2.836889510115795e-20
3.3200813396944477 1.9106969693609915e-18 1.68387547460523e-10 1.6838754743185607e-10 2.8666946768703025e-20
3.345076488085796 1.4728413314185823e-18 1.3077702357257298e-10 1.307770235418852e-10 3.0687801754751325e-20
3.3482140837626964 1.4892605487921235e-18 1.323589572083625e-10 1.323589571773245e-10 3.103798750222513e-20
3.3513546224236106 1.5058612994563314e-18 1.3395989243042215e-10 1.339598923990299e-10 3.139227316773646e-20
3.3576445397418455 1.6271831038342077e-18 1.4502423268106704e-10 1.450242326488304e-10 3.2236602555009747e-20
3.3702598118196083 2.0746689591959566e-18 1.856015607492995e-10 1.8560156071507562e-10 3.422385909449742e-20
3.382922481734668 2.1765903747156626e-18 1.954511290714092e-10 1.9545112903549838e-10 3.591084490592252e-20
3.389271646505754 2.229392786932663e-18 2.005683506655771e-10 2.005683506287907e-10 3.678639692247005e-20
3.395632727569191 2.2862903012563136e-18 2.0607320128640958e-10 2.0607320124868624e-10 3.7723337697368916e-20
3.421196662673239 2.5594921995031604e-18 2.3243487073325162e-10 2.3243487069145392e-10 4.1797699160196585e-20
3.4276182099114902 2.504438298866877e-18 2.278621605974632e-10 2.278621605549022e-10 4.256095558448922e-20
3.4340518103208963 2.263188596856204e-18 2.062989523384962e-10 2.0629895229532492e-10 4.3171277919952346e-20
3.4469541582030403 1.9196035652202698e-18 1.7563719336614623e-10 1.7563719332197437e-10 4.4171890654114246e-20
3.472904465399547 1.8233104030978718e-18 1.6808264730654906e-10 1.680826472588663e-10 4.768278377346311e-20
3.4990501388274233 1.6760338387123025e-18 1.5566908811071433e-10 1.5566908805935815e-10 5.1356157427126e-20
3.5253949054701885 1.1519079372893611e-18 1.0779409642868245e-10 1.0779409637434411e-10 5.43383398003836e-20
3.5519380250092896 6.592840696436408e-19 6.215948312552639e-11 6.215948306831415e-11 5.721225485636332e-20
3.578680990867387 4.639483785809474e-19 4.407193113595481e-11 4.407193107466625e-11 6.128856077952106e-20
3.605625307711299 3.8493192438028165e-19 3.6841216082081936e-11 3.684121601594475e-11 6.613719309836173e-20
3.660119384959845 3.2727185559180753e-19 3.179606259438711e-11 3.179606251694097e-11 7.744615066271441e-20
3.715437065384467 2.8642740070232257e-19 2.8248403249852358e-11 2.824840315922211e-11 9.063025500619991e-20
3.8285932144167436 2.656448761875681e-19 2.6996664034562906e-11 2.699666391025165e-11 1.2431125683037714e-19
3.94519561050918 2.615899189501182e-19 2.7394222421663046e-11 2.7394222251663445e-11 1.6999960204944977e-19
4.06534921144712 2.644010244152917e-19 2.8531882296262098e-11 2.8531882064687635e-11 2.315744623779542e-19
4.189162171576248 2.711854766463782e-19 3.015525694783686e-11 3.015525663376699e-11 3.140698606350432e-19
4.316745939156006 2.8086413911089723e-19 3.2182680518076906e-11 3.218268009415114e-11 4.2392576030236213e-19
4.448215356677963 2.930731323555328e-19 3.460439368402152e-11 3.46043931147557e-11 5.692658232006013e-19
4.58368876423945 3.078534145204967e-19 3.745661516334401e-11 3.745661440283317e-11 7.605108549358835e-19
4.723288106065518 3.2554520306368367e-19 4.081550463746835e-11 4.0815503626583546e-11 1.0108848264170203e-18
4.867139040275056 3.468322551424451e-19 4.4808733173571234e-11 4.48087318367444e-11 1.3368268276856186e-18
4.940699165968905 3.5968574646842286e-19 4.7171650490710345e-11 4.717164895593493e-11 1.534775417769527e-18
5.015371051989984 3.7299312702336013e-19 4.965618281880086e-11 4.965618105922851e-11 1.7595723313760093e-18
5.091171501069577 3.8925011037651606e-19 5.260365300914937e-11 5.260365099311393e-11 2.0160354477541347e-18
5.129500256944802 3.975922860928436e-19 5.413553570807805e-11 5.413553355129112e-11 2.156786922143541e-18
5.168117569889187 4.062899787022029e-19 5.573627346592152e-11 5.5736271159202753e-11 2.3067187720120973e-18
5.20702561229733 4.169791013847054e-19 5.763329318396393e-11 5.763329071608152e-11 2.4678823998425015e-18
5.246226572918644 4.2794037899865093e-19 5.959361664575527e-11 5.959361400642102e-11 2.6393342690787983e-18
5.265937586045735 4.335257923912111e-19 6.059824981152735e-11 6.059824708242642e-11 2.7291009150086148e-18
5.285722656980489 4.39182551854162e-19 6.16196011293798e-11 6.161959830771738e-11 2.8216623986419328e-18
5.305582063971359 4.449118103514512e-19 6.265798202854795e-11 6.265797911145112e-11 2.9170968306653502e-18
5.3255160863122235 4.510695600887063e-19 6.376386801010502e-11 6.376386499423032e-11 3.0158747070539858e-18
5.365609099470188 4.664264019271458e-19 6.643112213128011e-11 6.643111890545389e-11 3.225826212374094e-18
5.406003951863644 4.823683496865024e-19 6.921888447725869e-11 6.92188810281429e-11 3.4491157803589337e-18
5.446702915881641 4.989237528561563e-19 7.213354918305504e-11 7.213354549655377e-11 3.6865012476134925e-18
5.487708281020852 5.16817328829506e-19 7.528310395655378e-11 7.528310001674246e-11 3.939811311931809e-18
5.529022354014368 5.417258033029403e-19 7.950552342563991e-11 7.950551920723191e-11 4.218407990639655e-18
5.570647458961463 5.681059163040352e-19 8.400486146175736e-11 8.400485694676585e-11 4.514991508477162e-18
5.612585937458331 5.960638270597043e-19 8.880250232166086e-11 8.880249749106053e-11 4.830600320596498e-18
5.654840148729818 6.268044748670712e-19 9.4085317353723e-11 9.408531218534954e-11 5.1683734731013854e-18
5.67608639626678 6.477614057034477e-19 9.759633274939769e-11 9.759632739504605e-11 5.354351630572409e-18
5.686739436050992 6.585644267499648e-19 9.941021900695492e-11 9.94102135573217e-11 5.449633240252107e-18
5.6974124697621304 6.695907314972298e-19 1.012643380941149e-10 1.012643325476416e-10 5.546473321916893e-18
5.718818669136295 6.923347299303629e-19 1.0509737701845366e-10 1.0509737127353261e-10 5.744921016388105e-18
5.740305295436557 7.174116625601314e-19 1.0931326252353101e-10 1.093132565705594e-10 5.952971585756568e-18
5.7835210386641895 7.825049328270448e-19 1.201292696697997e-10 1.2012926325454356e-10 6.415256122603036e-18
5.827062130521658 8.575114649877715e-19 1.3263526734026538e-10 1.3263526042288846e-10 6.917376956288888e-18
5.8489554468988025 9.101570788696496e-19 1.413071370623417e-10 1.4130712984997145e-10 7.21237026050328e-18
5.870931020387893 9.666581511437853e-19 1.5064312912628825e-10 1.5064312160716615e-10 7.519122081359358e-18
5.892989160043636 1.0273251808882153e-18 1.6069893869659265e-10 1.6069893085852958e-10 7.838063030577598e-18
5.915130176081913 1.0963320734235495e-18 1.7213764591768533e-10 1.721376377368014e-10 8.180883887152093e-18
5.95966208400165 1.28933546212864e-18 2.039656325130457e-10 2.0396562349731898e-10 9.015726672083987e-18
6.004529249263818 1.5675947803235523e-18 2.4985164116349316e-10 2.4985163109084525e-10 1.0072647857867707e-17
6.027089341400364 1.7610521894314693e-18 2.817405051120013e-10 2.8174049436568196e-10 1.0746319296226383e-17
6.049734195844842 1.9896889972726554e-18 3.195147599163957e-10 3.1951474841539164e-10 1.1501004070974434e-17
6.095279466722835 2.65020360642193e-18 4.287876777534023e-10 4.287876642049822e-10 1.3548420220506407e-17
6.141167624020661 3.666830703770819e-18 5.977385199995956e-10 5.977385034745174e-10 1.6525078115148415e-17
6.164241091010745 4.316062486595138e-18 7.062147318798007e-10 7.062147133960267e-10 1.8483773963613557e-17
6.187401249150058 5.055678987186549e-18 8.303423792254533e-10 8.303423585778829e-10 2.0647570528615252e-17
6.1990139391386085 5.416816128737185e-18 8.913251067915491e-10 8.913250850294915e-10 2.1762057534004186e-17
6.204828454712694 5.607054077072228e-18 9.234937418451472e-10 9.234937195033429e-10 2.234180426698004e-17
6.210648424152782 5.745918619940976e-18 9.472526936929867e-10 9.472526708691463e-10 2.2823840223397732e-17
6.233982942956859 6.217694906982249e-18 1.028879349751886e-09 1.0288793252149653e-09 2.4536920566961818e-17
6.239830258556775 6.2779953405447864e-18 1.0398320466713654e-09 1.039832021897283e-09 2.477408202895174e-17
6.245683058788269 6.28320826862535e-18 1.0416716158991534e-09 1.041671590885793e-09 2.5013360378182717e-17
6.257405133728602 6.270210301791975e-18 1.0414677218686979e-09 1.0414676964366794e-09 2.543201853410565e-17
6.269149208991335 6.1773719366437224e-18 1.0279731947873939e-09 1.027973169219991e-09 2.5567402550513008e-17
6.280915325867298 5.944613519170256e-18 9.910966233595453e-10 9.910965980090513e-10 2.535049413527394e-17
6.304513850009849 5.370641707986138e-18 8.987672035283427e-10 8.987671789398611e-10 2.4588481653325915e-17
6.32820103803542 4.659204949328553e-18 7.826390535401579e-10 7.826390301243073e-10 2.3415850778049494e-17
6.3519772230701035 4.006760646922848e-18 6.755721920458157e-10 6.75572169739682e-10 2.2306133774538784e-17
6.375842739491607 3.4578796117583947e-18 5.85216953052626e-10 5.852169317213441e-10 2.133128202368015e-17
6.399797922933955 3.017935294314185e-18 5.126791059265513e-10 5.126790852531026e-10 2.0673448634012213e-17
6.42384311029221 2.6521670768966707e-18 4.522361114961187e-10 4.5223609137903523e-10 2.0117083388405663e-17
6.447978639727206 2.3855944063347154e-18 4.083096375694198e-10 4.0830961771225497e-10 1.985716480221049e-17
6.472204850670314 2.163525164403886e-18 3.7169236356190047e-10 3.7169234389053743e-10 1.9671363049157183e-17
6.496522083828205 2.0191657619340016e-18 3.4819483579054147e-10 3.481948160463715e-10 1.974416997890778e-17
