Dust emission spectrum from A.P. Jones, M. Kohler, N. Ysard, M. Bocchio, and L. Verstraete (2017), A&A, 602A, 46J 
inside the DustPedia framework.

lambda    nu*dP/dnu     j_nu    j_nu(carb.) j_nu(sil)
 (um)   (erg s-1 H-1) (Jy cm2 sr-1 H-1)
0.9927057738263894 8.068822167604021e-24 2.1261804711586344e-16 2.1261804677197153e-16 3.438918828916868e-25
1.0001793341362166 8.202356108713305e-24 2.1776392230760856e-16 2.1776392189342614e-16 4.141823988850904e-25
1.0077091589558085 8.335767073744143e-24 2.229719384656483e-16 2.229719379674544e-16 4.98193858186164e-25
1.0114953028030835 8.402410974549598e-24 2.2559902745496604e-16 2.255990269088435e-16 5.461224805394011e-25
1.0152956718711033 8.469005627993628e-24 2.282413825460981e-16 2.282413819476309e-16 5.984672330622864e-25
1.0229392996569957 8.601957467852137e-24 2.3356974560893274e-16 2.335697448909369e-16 7.179959453562525e-25
1.0267826658714554 8.668154388396258e-24 2.362515134319298e-16 2.3625151264585157e-16 7.860781288035257e-25
1.0306404723013447 8.734274407237083e-24 2.389480320170163e-16 2.389480311566809e-16 8.603353725154841e-25
1.03451277320114 8.800311552244365e-24 2.416592024488147e-16 2.416592015075145e-16 9.413001723351122e-25
1.0383996230291617 8.86625988845299e-24 2.4438492462280787e-16 2.4438492359325954e-16 1.0295483803676598e-24
1.0403485208654093 8.899198909050112e-24 2.4575321101302467e-16 2.457532099364284e-16 1.0765963801316847e-24
1.0423010764483396 8.93211351930675e-24 2.471250972767004e-16 2.4712509615099784e-16 1.1257025101337828e-24
1.0462171883269815 8.997866587878312e-24 2.498796180219411e-16 2.498796167915058e-16 1.2304352750655995e-24
1.0471985131304309 9.014288459676243e-24 2.50570477994192e-16 2.505704767361492e-16 1.258042795274489e-24
1.048180758391296 9.030703592149391e-24 2.512622266322274e-16 2.512622253459839e-16 1.2862435217816475e-24
1.0501480137395462 9.063513278065455e-24 2.5264838337540094e-16 2.5264838203092765e-16 1.3444733753725166e-24
1.0521189612883777 9.096294925184994e-24 2.5403807515026384e-16 2.540380737450391e-16 1.4052247733857527e-24
1.0531058218030118 9.112650146492858e-24 2.5473354753809927e-16 2.5473354610151893e-16 1.4365803876488487e-24
1.0540936079674168 9.12891662929012e-24 2.5542761818604366e-16 2.5542761671743108e-16 1.4686125682352212e-24
1.058054026499678 9.193904626112257e-24 2.582125053735347e-16 2.5821250376981663e-16 1.6037181196316243e-24
1.0590464539527713 9.210131700352847e-24 2.589108699023364e-16 2.5891086826302625e-16 1.6393101690615892e-24
1.06003981227728 9.226350628689536e-24 2.596100881442048e-16 2.596100864685468e-16 1.6756580286243673e-24
1.0620293250338977 9.258763697273991e-24 2.6101107897870495e-16 2.610110772280225e-16 1.750682543691368e-24
1.0660195594769086 9.323488239793068e-24 2.6382323033266937e-16 2.6382322842217645e-16 1.9104929310941687e-24
1.070024785945596 9.38807269825117e-24 2.6664884986504504e-16 2.6664884778083134e-16 2.084213726672641e-24
1.0740450607676866 9.452511565829876e-24 2.694878271365663e-16 2.694878248635739e-16 2.2729923855250257e-24
1.07808044048254 9.516799385322462e-24 2.723400508717901e-16 2.723400483937247e-16 2.4780654104344412e-24
1.0861967418109137 9.644788091342342e-24 2.780805532745067e-16 2.7808055033198144e-16 2.9425252701904058e-24
1.0902777775684922 9.708223142594422e-24 2.809611962144625e-16 2.8096119300957093e-16 3.2048914817216878e-24
1.0943741465085532 9.771481367410684e-24 2.838544231633607e-16 2.8385441967383655e-16 3.489524191290239e-24
1.1026131145906286 9.897446738855191e-24 2.8967816459854384e-16 2.896781604656705e-16 4.1328732751863824e-24
1.1109141095355224 1.0022643573619987e-23 2.955508426828478e-16 2.9555083779430294e-16 4.888544844938382e-24
1.1192775983109025 1.0146917670028031e-23 3.014681121783402e-16 3.014681064033572e-16 5.774982914951433e-24
1.1277040513999907 1.0269704295496036e-23 3.0741320055430013e-16 3.0741319374084336e-16 6.813456783908876e-24
1.1361939428280308 1.0391589702384057e-23 3.1340353707430095e-16 3.1340352904584274e-16 8.028458170246435e-24
1.1447477501889525 1.0512537382314486e-23 3.194381520987681e-16 3.194381426506141e-16 9.44815404426011e-24
1.1533659546722406 1.0632575472981688e-23 3.255180197296389e-16 3.2551800862472886e-16 1.1104910223714533e-23
1.1707974979042381 1.0870308554651233e-23 3.378260151216683e-16 3.378259998380403e-16 1.5283628009117408e-23
1.1884924949847024 1.1103948209190573e-23 3.5030255436721067e-16 3.503025334366714e-16 2.0930539267418842e-23
1.2064549276569216 1.1335296095763509e-23 3.630056659237191e-16 3.6300563739993827e-16 2.852378078654297e-23
1.2246888378427687 1.1561937130650586e-23 3.758597288769678e-16 3.7585969019386973e-16 3.8683098070836374e-23
1.2431983285522175 1.1783380557538412e-23 3.8884789703319134e-16 3.8884784482417473e-16 5.2209016849960095e-23
1.2619875648066055 1.1999590803201118e-23 4.019675039487952e-16 4.019674338185047e-16 7.013029042785349e-23
1.3004222497298317 1.2412992480504643e-23 4.284797647167669e-16 4.2847963994343426e-16 1.247733324588018e-22
1.3400274889804893 1.2800899310890569e-23 4.55327228718096e-16 4.553270107610191e-16 2.179570769227661e-22
1.3808389325824078 1.316229130514464e-23 4.824407175818882e-16 4.824403435970259e-16 3.739848622059519e-22
1.4228933163050095 1.349916788100381e-23 5.098574515296796e-16 5.098568208861188e-16 6.306435606544771e-22
1.466228494730424 1.3819349756969867e-23 5.378469336891132e-16 5.378458880620074e-16 1.0456271057561778e-21
1.5108834753276823 1.411772154751091e-23 5.661936784276403e-16 5.661919730389322e-16 1.705388708023434e-21
1.5568984535646726 1.4390241515794307e-23 5.94699814742564e-16 5.946970758443272e-16 2.7388982368501382e-21
1.6043148490894465 1.4637840175893596e-23 6.233558467061669e-16 6.233515072828077e-16 4.339423359214651e-21
1.6531753430134553 1.486168534618746e-23 6.521633882916798e-16 6.5215661356026845e-16 6.774731411247925e-21
1.7035239163302658 1.506434991720977e-23 6.811896853248271e-16 6.811792607008822e-16 1.0424623944964749e-20
1.755405889504358 1.5258110439629208e-23 7.109642089141576e-16 7.109483907995298e-16 1.581811462775996e-20
1.8088679632656115 1.5440733479187486e-23 7.4138573727116e-16 7.413620601154826e-16 2.3677155677461022e-20
1.8639582606462262 1.5610850118822468e-23 7.723820461196317e-16 7.723470711077168e-16 3.4975011915150516e-20
1.9207263702978936 1.577048827001687e-23 8.040444745301554e-16 8.039934705236703e-16 5.1004006485103156e-20
1.979223391128241 1.5923561338270135e-23 8.365741737416024e-16 8.365007160767995e-16 7.345766480304123e-20
2.039501978296691 1.6074570965096726e-23 8.702278025448076e-16 8.701232794446203e-16 1.0452310018736951e-19
2.1016163906111602 1.6235243754961744e-23 9.056944228210478e-16 9.055474252471767e-16 1.4699757387101383e-19
2.1656225393682647 1.6412585558041064e-23 9.43472397726514e-16 9.43267997450759e-16 2.0440027575544005e-19
2.231578038680979 1.6607419979858872e-23 9.837475876484138e-16 9.83466486469811e-16 2.8110117860267454e-19
2.299542257339062 1.6824034894565824e-23 1.0269303476935877e-15 1.0265478859473175e-15 3.8246174627026215e-19
2.369576372248914 1.7071240556716877e-23 1.0737550662293228e-15 1.0732400753404223e-15 5.14990888900877e-19
2.4417434235010123 1.735933010400004e-23 1.1251292663001096e-15 1.1244427833293913e-15 6.864829707185361e-19
2.5161083711144245 1.7705686399449425e-23 1.1825283013893233e-15 1.1816221083388302e-15 9.061930504934263e-19
2.5927381535095444 1.813839497218814e-23 1.2483229251099311e-15 1.2471379455200788e-15 1.1849795898521448e-18
2.6717017477616296 1.8690209377020522e-23 1.3254751017980859e-15 1.3239397294062292e-15 1.5353723918564608e-18
2.753070231689431 1.941002904460434e-23 1.4184463328128246e-15 1.41647464756384e-15 1.971685248985044e-18
2.836916847834745 2.0408914353039034e-23 1.5368657871495683e-15 1.5343556076681867e-15 2.5101794813811146e-18
2.9233170693905177 2.1930732719690787e-23 1.7017607294354063e-15 1.698592161233242e-15 3.1685682021638683e-18
2.967498994190263 2.3127997892348518e-23 1.8217889039115863e-15 1.818246020208491e-15 3.54288370309543e-18
3.0123486681368425 2.4504499760908994e-23 1.959388309898359e-15 1.955432166752689e-15 3.956143145669901e-18
3.0578761833420214 2.740150486221198e-23 2.2241483127794914e-15 2.219735358231259e-15 4.412954548233812e-18
3.1040917844459814 3.1085312585396535e-23 2.5612927859880413e-15 2.5563795835861574e-15 4.913202401883663e-18
3.127460860933648 3.48974216290324e-23 2.8970411032074647e-15 2.8918588084670794e-15 5.182294740386342e-18
3.1510058709225794 3.9944982115076905e-23 3.341033855277413e-15 3.3355701520603464e-15 5.463703217067156e-18
3.162844764501044 4.461638427517666e-23 3.745774958192448e-15 3.7401652711333614e-15 5.609687059086577e-18
3.1747281389236908 5.0033455651021265e-23 4.2163482434764724e-15 4.210589355463632e-15 5.7588880128419375e-18
3.1986289994194426 6.509225074547422e-23 5.526658021191694e-15 5.520590121767112e-15 6.067899424582129e-18
3.2227097969389145 1.0048665285208458e-22 8.596051579504095e-15 8.58965527142621e-15 6.396308077883487e-18
3.2348180950136065 1.3400613368294823e-22 1.1506519401030412e-14 1.1499947582672852e-14 6.571818357563178e-18
3.240889293275058 1.5906077403714135e-22 1.3683485006027417e-14 1.3676820603244739e-14 6.6644027826746406e-18
3.2469718861334385 1.8805017706598438e-22 1.620771189089957e-14 1.620095168320307e-14 6.7602076965055664e-18
3.2714166318528037 3.4247144757537107e-22 2.973922589976199e-14 2.9732068980253136e-14 7.15691950884523e-18
3.2744851364798273 3.521328547691042e-22 3.060687600135606e-14 3.059967210945581e-14 7.203891900236877e-18
3.2775565192852394 3.62070168632084e-22 3.150013150612091e-14 3.149288038600844e-14 7.251120112476152e-18
3.283707930232385 3.525526546059606e-22 3.072967336013296e-14 3.072233733714484e-14 7.336022988138311e-18
3.2898708863219004 3.2230503567257044e-22 2.8145915406452446e-14 2.8138501707075955e-14 7.413699376491714e-18
3.29141343181113 3.1517047572188068e-22 2.7535780903029697e-14 2.7528347687574764e-14 7.433215454938697e-18
3.292184975758714 3.1166459393121655e-22 2.7235862285353696e-14 2.7228419297282755e-14 7.442988070951696e-18
3.295272960557952 2.895516442583473e-22 2.5327181538484056e-14 2.5319700459625023e-14 7.481078859031227e-18
3.3076538914384823 2.1289150055992954e-22 1.8691657536411275e-14 1.86840232506843e-14 7.63428572697188e-18
3.310756385682612 1.9727459698060427e-22 1.7336755454715395e-14 1.7329082506925323e-14 7.67294779007218e-18
3.313861789986515 1.8285987956813287e-22 1.608504402669639e-14 1.6077332272165305e-14 7.711754531089953e-18
3.3200813396944477 1.626564662506769e-22 1.4334729090875578e-14 1.4326934053648597e-14 7.795037226978348e-18
3.345076488085796 1.2671518224852045e-22 1.1251337141629973e-14 1.1243171417533173e-14 8.16572409679836e-18
3.3482140837626964 1.280837056815045e-22 1.138351897734526e-14 1.13753030534646e-14 8.215923880654755e-18
3.3513546224236106 1.2946711215010397e-22 1.1517262860242772e-14 1.1508996486537684e-14 8.266373705093535e-18
3.3576445397418455 1.3949680270141596e-22 1.243278443929584e-14 1.2424412657116653e-14 8.371782179185383e-18
3.3702598118196083 1.7640616911181958e-22 1.5781438367713147e-14 1.5772845431171372e-14 8.5929365417802e-18
3.382922481734668 1.8488132677250094e-22 1.6601775180883987e-14 1.659296647221153e-14 8.808708672452038e-18
3.389271646505754 1.8927017105966295e-22 1.702777826416949e-14 1.7018860024467234e-14 8.918239702257048e-18
3.395632727569191 1.9400789138542465e-22 1.7486767638672847e-14 1.747773651206024e-14 9.031126612603933e-18
3.421196662673239 2.1677179090887504e-22 1.9685671715780347e-14 1.9676172354349786e-14 9.49936143056154e-18
3.4276182099114902 2.122716328158488e-22 1.931318208512259e-14 1.930357734048301e-14 9.604744639581947e-18
3.4340518103208963 1.9240713491431576e-22 1.7538701993467595e-14 1.752899714336129e-14 9.704850106302729e-18
3.4469541582030403 1.6410461914467913e-22 1.5015014166054874e-14 1.5005116293372757e-14 9.897872682118546e-18
3.472904465399547 1.5625045576251782e-22 1.4404014918577242e-14 1.4393673612471734e-14 1.034130610551017e-17
3.4990501388274233 1.4420341020755556e-22 1.3393532308817982e-14 1.3382735147595623e-14 1.079716122235921e-17
3.5253949054701885 1.0111816779036288e-22 9.462511001647857e-15 9.45126769775191e-15 1.1243303895946982e-17
3.5519380250092896 6.055964411011667e-23 5.709763589745779e-15 5.698069179582128e-15 1.1694410163651171e-17
3.578680990867387 4.4538297838786564e-23 4.230834476170436e-15 4.2186451284436e-15 1.2189347726836856e-17
3.605625307711299 3.812671545871596e-23 3.649046685270361e-15 3.636334357217098e-15 1.2712328053262988e-17
3.660119384959845 3.3594737511680985e-23 3.2638931778347295e-15 3.250074543873633e-15 1.3818633961098194e-17
3.715437065384467 3.044118907275926e-23 3.002209223781606e-15 2.9872131700116386e-15 1.4996053769968318e-17
3.8285932144167436 2.9185804498168483e-23 2.9660626996590388e-15 2.9484965535100464e-15 1.7566146148993487e-17
3.94519561050918 2.9327780816842253e-23 3.0712641911233566e-15 3.050834628942631e-15 2.0429562180726065e-17
4.06534921144712 3.005357306567199e-23 3.2431228706021356e-15 3.2195234674551506e-15 2.359940314698399e-17
4.189162171576248 3.11251519210581e-23 3.4610516954190297e-15 3.4339530272156685e-15 2.709866820336055e-17
4.316745939156006 3.2453339904499444e-23 3.718650138808479e-15 3.687715346941069e-15 3.093479186740809e-17
4.448215356677963 3.400802044496895e-23 4.015471900932653e-15 3.980392866386805e-15 3.5079034545847676e-17
4.58368876423945 3.579295278059438e-23 4.354939054194593e-15 4.3153818260607095e-15 3.955722813388328e-17
4.723288106065518 3.7837155735643e-23 4.743865339937578e-15 4.699446991200909e-15 4.4418348736669574e-17
4.867139040275056 4.0197132230271065e-23 5.193238361608625e-15 5.143661957884242e-15 4.9576403724384075e-17
4.940699165968905 4.15686598813485e-23 5.451598553856875e-15 5.3993105002836386e-15 5.228805357323543e-17
5.015371051989984 4.2980701960785133e-23 5.721975660188162e-15 5.666890699469277e-15 5.508496071888654e-17
5.091171501069577 4.464594472807093e-23 6.0334980572501195e-15 5.9754760127285615e-15 5.802204452155752e-17
5.129500256944802 4.54969330384569e-23 6.194790314760466e-15 6.135267326218349e-15 5.952298854211593e-17
5.168117569889187 4.6378452519256444e-23 6.36235754767219e-15 6.301300529875645e-15 6.105701779654421e-17
5.20702561229733 4.7430900464916667e-23 6.555721817703115e-15 6.493007160944274e-15 6.271465675884374e-17
5.246226572918644 4.8506035254430376e-23 6.754796256249349e-15 6.69039661652473e-15 6.439963972461847e-17
5.265937586045735 4.9052320368695983e-23 6.856534987553771e-15 6.7912826042501685e-15 6.525238330360389e-17
5.285722656980489 4.9604533165480434e-23 6.959774551519514e-15 6.893662591915462e-15 6.611195960405366e-17
5.305582063971359 5.016276299268936e-23 7.064540497622212e-15 6.997562131109989e-15 6.697836651222404e-17
5.3255160863122235 5.0757603787703734e-23 7.175170826849555e-15 7.107313934620404e-15 6.785689222914791e-17
5.365609099470188 5.220731677850918e-23 7.435665354126529e-15 7.365989563132233e-15 6.967579099429424e-17
5.406003951863644 5.370494301787408e-23 7.706550914934557e-15 7.635026070865659e-15 7.152484406889779e-17
5.446702915881641 5.525271690599318e-23 7.988344009720757e-15 7.914939920628053e-15 7.340408909270557e-17
5.487708281020852 5.691282002393532e-23 8.29030589207663e-15 8.214986025698572e-15 7.531986637805638e-17
5.529022354014368 5.91719108310728e-23 8.68427110917757e-15 8.606949416171687e-15 7.732169300587773e-17
5.570647458961463 6.155065588743276e-23 9.101391434791794e-15 9.022034290603834e-15 7.935714418796042e-17
5.612585937458331 6.405750585204787e-23 9.543385379056902e-15 9.46195905950004e-15 8.142631955686277e-17
5.654840148729818 6.67952531049663e-23 1.0026176962817273e-14 9.94263960232593e-15 8.353736049133999e-17
5.67608639626678 6.863974740085474e-23 1.0341751713184485e-14 1.0257110962443932e-14 8.464075074055281e-17
5.686739436050992 6.958834954825358e-23 1.0504352783013101e-14 1.0419156773083328e-14 8.519600992977225e-17
5.6974124697621304 7.05550749039756e-23 1.0670268603264474e-14 1.05845149542332e-14 8.575364903127725e-17
5.718818669136295 7.254461862933664e-23 1.1012374224696485e-14 1.0925498146207013e-14 8.687607848947436e-17
5.740305295436557 7.473018155850827e-23 1.1386767711560093e-14 1.1298752710432907e-14 8.801500112719085e-17
5.7835210386641895 8.036556783601222e-23 1.233763081321399e-14 1.2247254563353855e-14 9.037624986013744e-17
5.827062130521658 8.681888345128739e-23 1.3428678550564983e-14 1.3335882211243279e-14 9.279633932170482e-17
5.8489554468988025 9.13308114703553e-23 1.4179635355343656e-14 1.408553917681352e-14 9.409617853013154e-17
5.870931020387893 9.615685640599264e-23 1.4984997249344338e-14 1.4889588443448835e-14 9.540880589550642e-17
5.892989160043636 1.0132202752761614e-22 1.5849258436551997e-14 1.5752524152549612e-14 9.673428400238609e-17
5.915130176081913 1.0718340700867347e-22 1.682911574984291e-14 1.673100897777878e-14 9.810677206412983e-17
5.95966208400165 1.2353862113027536e-22 1.9543116387278966e-14 1.944192744180595e-14 1.0118894547301205e-16
6.004529249263818 1.4703291075514057e-22 2.3434891796229936e-14 2.3330256540834995e-14 1.0463525539494985e-16
6.027089341400364 1.633426085286911e-22 2.6132234643223317e-14 2.602563101340217e-14 1.0660362982115064e-16
6.049734195844842 1.8257488517192402e-22 2.931883861368958e-14 2.92101537245548e-14 1.0868488913476569e-16
6.095279466722835 2.380781261020143e-22 3.8519669420037685e-14 3.8405949762966736e-14 1.1371965707092471e-16
6.141167624020661 3.233396927105518e-22 5.27083481599452e-14 5.2588193752284344e-14 1.201544076608665e-16
6.164241091010745 3.778055146528343e-22 6.181834045775005e-14 6.169419640804911e-14 1.2414404970095734e-16
6.187401249150058 4.39722893635563e-22 7.221988473291925e-14 7.209162953389105e-14 1.2825519902817655e-16
6.1990139391386085 4.699613534293439e-22 7.733110070157867e-14 7.720075047832213e-14 1.303502232565702e-16
6.204828454712694 4.858784339031121e-22 8.002521231993191e-14 7.989380240546242e-14 1.3140991446951253e-16
6.210648424152782 4.975082160461451e-22 8.201752042721139e-14 8.188519571039213e-14 1.3232471681925166e-16
6.233982942956859 5.37007331308186e-22 8.8861830970173e-14 8.872626550666746e-14 1.3556546350551715e-16
6.239830258556775 5.420535816265338e-22 8.978099769334192e-14 8.964494429321383e-14 1.3605340012806697e-16
6.245683058788269 5.424931296061126e-22 8.993808111578344e-14 8.980153841765635e-14 1.3654269812707582e-16
6.257405133728602 5.4141279416622805e-22 8.992743818651823e-14 8.979001642979573e-14 1.3742175672250727e-16
6.269149208991335 5.336559519935366e-22 8.880540454977998e-14 8.866755119842155e-14 1.3785335135841606e-16
6.280915325867298 5.141961908529399e-22 8.572771078477462e-14 8.558998096705408e-14 1.3772981772055864e-16
6.304513850009849 4.662009744257145e-22 7.801789224623309e-14 7.78809135655651e-14 1.3697868066799179e-16
6.32820103803542 4.067456214903992e-22 6.832389038407188e-14 6.818819912126711e-14 1.356912628047839e-16
6.3519772230701035 3.5223343242148426e-22 5.938940032156748e-14 5.925482642146245e-14 1.3457390010505224e-16
6.375842739491607 3.063323362722773e-22 5.184416364443414e-14 5.17105343930858e-14 1.336292513483618e-16
6.399797922933955 2.6961887444413495e-22 4.580216274065411e-14 4.5668833122933336e-14 1.333296177207758e-16
6.42384311029221 2.3906432697932865e-22 4.076421978553215e-14 4.063106131506444e-14 1.3315847046771275e-16
6.447978639727206 2.1684296363307294e-22 3.7114050760427647e-14 3.698055563657697e-14 1.334951238506818e-16
6.472204850670314 1.9832083651843162e-22 3.407140424429478e-14 3.393746892619993e-14 1.3393531809483674e-16
6.496522083828205 1.8632311876285375e-22 3.21304713880811e-14 3.199567995514249e-14 1.347914329386262e-16
6.520930681187647 1.7621814600022875e-22 3.05020932421331e-14 3.03663773473729e-14 1.3571589476019895e-16
6.57002334288761 1.6594914854562112e-22 2.8940856116896815e-14 2.880269829247291e-14 1.3815782442391473e-16
