Dust emission spectrum from A.P. Jones, M. Kohler, N. Ysard, M. Bocchio, and L. Verstraete (2017), A&A, 602A, 46J 
inside the DustPedia framework.

lambda    nu*dP/dnu     j_nu    j_nu(carb.) j_nu(sil)
 (um)   (erg s-1 H-1) (Jy cm2 sr-1 H-1)
0.9927057738263894 1.4850841548814796e-22 3.913281099208734e-15 3.913281001035547e-15 9.81731870399106e-23
1.0001793341362166 1.5100524090779444e-22 4.0090302241516625e-15 4.009030105967599e-15 1.181840638169675e-22
1.0077091589558085 1.5350826735258169e-22 4.106165112256916e-15 4.1061649701706104e-15 1.4208630430146844e-22
1.0114953028030835 1.5476193277476153e-22 4.1552527752796056e-15 4.155252619563445e-15 1.5571616124881625e-22
1.0152956718711033 1.5601694220884961e-22 4.204687557729099e-15 4.2046873871320376e-15 1.70597060657707e-22
1.0229392996569957 1.5852950518323113e-22 4.304566296164553e-15 4.3045660916040536e-15 2.0456049880234913e-22
1.0267826658714554 1.5978415900737422e-22 4.35493505266517e-15 4.354934828768892e-15 2.2389627803452753e-22
1.0306404723013447 1.6103982970194562e-22 4.4056493521375175e-15 4.405649107158843e-15 2.449786761765652e-22
1.03451277320114 1.622964537974649e-22 4.4567094417201395e-15 4.456709173762589e-15 2.6795755124541035e-22
1.0383996230291617 1.635539688161217e-22 4.50811558016072e-15 4.5081152871658315e-15 2.929948879592562e-22
1.0403485208654093 1.6418304117550155e-22 4.53394850200847e-15 4.5339481956688316e-15 3.0633964005187375e-22
1.0423010764483396 1.6481231330032908e-22 4.559868038925571e-15 4.5598677186598556e-15 3.2026571526585544e-22
1.0462171883269815 1.6607142684106663e-22 4.611967103325279e-15 4.6119667533661914e-15 3.4995908804668866e-22
1.0471985131304309 1.663863184142692e-22 4.625046061400907e-15 4.625045703616378e-15 3.5778452857167507e-22
1.048180758391296 1.6670125342345867e-22 4.638146705863951e-15 4.63814634008655e-15 3.657774007775027e-22
1.0501480137395462 1.6733125010600419e-22 4.664413073656395e-15 4.664412691377259e-15 3.8227913708058552e-22
1.0521189612883777 1.679614096449717e-22 4.690766246771162e-15 4.690765847278808e-15 3.994923530648867e-22
1.0531058218030118 1.6827611328291808e-22 4.703963239385224e-15 4.703962831009805e-15 4.0837541874799094e-22
1.0540936079674168 1.6858942991571882e-22 4.717142053477555e-15 4.717141636028188e-15 4.174493672401374e-22
1.058054026499678 1.6984300057158775e-22 4.770071964113161e-15 4.770071508400427e-15 4.557127336001891e-22
1.0590464539527713 1.7015646493401186e-22 4.7833581309031235e-15 4.783357665112612e-15 4.65790511683645e-22
1.06003981227728 1.704699562590776e-22 4.7966657838413115e-15 4.7966653077599616e-15 4.760813503276602e-22
1.0620293250338977 1.710970164013911e-22 4.8233455697884115e-15 4.823345072468997e-15 4.973194149852313e-22
1.0660195594769086 1.7235142315216793e-22 4.876963217947595e-15 4.876962675401433e-15 5.425461614576877e-22
1.070024785945596 1.7360616780109726e-22 4.930925277374978e-15 4.93092468568371e-15 5.916912661349027e-22
1.0740450607676866 1.7486119858191148e-22 4.985232139432757e-15 4.985231494356629e-15 6.4507612759481605e-22
1.07808044048254 1.7611646501102842e-22 5.039884219313943e-15 5.039883516267027e-15 7.030469165418605e-22
1.0861967418109137 1.786255106697667e-22 5.150168190898712e-15 5.150167356633012e-15 8.342657005229412e-22
1.0902777775684922 1.7987465032796629e-22 5.205669068634311e-15 5.2056681602875686e-15 9.083467417686847e-22
1.0943741465085532 1.8112375745882227e-22 5.2615133531465926e-15 5.261512364463079e-15 9.886835117686954e-22
1.1026131145906286 1.8362170251866223e-22 5.374234301989117e-15 5.374233131830962e-15 1.1701581561932942e-21
1.1109141095355224 1.8611901722238964e-22 5.48833568462547e-15 5.4883343014788994e-15 1.3831465701953818e-21
1.1192775983109025 1.886133481280584e-22 5.603761835947246e-15 5.603760203157144e-15 1.6327901009446531e-21
1.1277040513999907 1.9109499831313286e-22 5.720235300944596e-15 5.720233375933182e-15 1.925011412824394e-21
1.1361939428280308 1.9357487463467498e-22 5.8380913928215605e-15 5.838089126197965e-15 2.2666235950169656e-21
1.1447477501889525 1.9605275193006067e-22 5.9573370836022265e-15 5.9573344181484986e-15 2.665453727575884e-21
1.1533659546722406 1.9852943645791199e-22 6.078010843002083e-15 6.078007712516005e-15 3.1304860775889397e-21
1.1707974979042381 2.034868035850037e-22 6.323936035426824e-15 6.3239317335734696e-15 4.301853353234e-21
1.1884924949847024 2.084370645259727e-22 6.57568233863132e-15 6.575676456616933e-15 5.882014387026863e-21
1.2064549276569216 2.134148748763612e-22 6.834475969399237e-15 6.8344679663744856e-15 8.003024751860986e-21
1.2246888378427687 2.183824771950057e-22 7.099258345939195e-15 7.099247510276147e-15 1.0835663048490173e-20
1.2431983285522175 2.233339629317126e-22 7.369951381781303e-15 7.36993678176931e-15 1.460001199232804e-20
1.2619875648066055 2.28274348724996e-22 7.646833269351574e-15 7.646813691105605e-15 1.9578245969161412e-20
1.3004222497298317 2.3807956925242437e-22 8.218185741863974e-15 8.218151030369287e-15 3.4711494688568654e-20
1.3400274889804893 2.478130722709322e-22 8.814696272256728e-15 8.814635855355226e-15 6.041690150125329e-20
1.3808389325824078 2.574970322731294e-22 9.438102390007088e-15 9.437999106276416e-15 1.0328373067205335e-19
1.4228933163050095 2.6720872538540605e-22 1.0092352428864405e-14 1.0092178925462269e-14 1.7350340213840894e-19
1.466228494730424 2.7713251151804354e-22 1.0785954054774963e-14 1.0785667502833951e-14 2.8655194101515003e-19
1.5108834753276823 2.8722639689127203e-22 1.1519264610092774e-14 1.1518799121567375e-14 4.654885254008765e-19
1.5568984535646726 2.9746532490847177e-22 1.229323173076989e-14 1.2292487203255685e-14 7.445275142023807e-19
1.6043148490894465 3.0791340263448475e-22 1.3112564251623186e-14 1.3111389556959892e-14 1.1746946632960486e-18
1.6531753430134553 3.186409843399268e-22 1.3982666107853788e-14 1.398083997627952e-14 1.8261315742691005e-18
1.7035239163302658 3.2973829738422357e-22 1.4910323264470927e-14 1.4907525545093095e-14 2.7977193778332815e-18
1.755405889504358 3.4147457216679794e-22 1.591128862420055e-14 1.590706234776891e-14 4.226276431643955e-18
1.8088679632656115 3.538521034866619e-22 1.699018398199918e-14 1.6983886797874457e-14 6.297184124724137e-18
1.8639582606462262 3.668756406951925e-22 1.8152000427570446e-14 1.8142741911948605e-14 9.258515621839579e-18
1.9207263702978936 3.806108288054969e-22 1.940510836492162e-14 1.9391671266688993e-14 1.3437098232627776e-17
1.979223391128241 3.9515355890451924e-22 2.0760133679838857e-14 2.0740875938599187e-14 1.9257741239673614e-17
2.039501978296691 4.1059795672779947e-22 2.222850976168936e-14 2.2201245444522438e-14 2.7264317166922234e-17
2.1016163906111602 4.271786560086483e-22 2.3830459963188598e-14 2.3792313751989362e-14 3.814621119923526e-17
2.1656225393682647 4.450299084677935e-22 2.5582406459804286e-14 2.5529644145262567e-14 5.276231454171394e-17
2.231578038680979 4.641431476576825e-22 2.749371680764027e-14 2.742154862976751e-14 7.216817787275806e-17
2.299542257339062 4.845818225220971e-22 2.957862264356959e-14 2.9480977971148724e-14 9.764467242086409e-17
2.369576372248914 5.06473155069267e-22 3.185639112506087e-14 3.172566234758112e-14 1.3072877747974977e-16
2.4417434235010123 5.299639948550657e-22 3.434913658098808e-14 3.4175898712814865e-14 1.732378681732151e-16
2.5161083711144245 5.553184776236842e-22 3.708863928002591e-14 3.686133796515667e-14 2.273013148692329e-16
2.5927381535095444 5.829615840402157e-22 4.012065626157282e-14 3.9825274930202336e-14 2.953813313704776e-16
2.6717017477616296 6.133127309430587e-22 4.349500522344631e-14 4.311473187635088e-14 3.8027334709542298e-16
2.753070231689431 6.469850722065873e-22 4.728038278289867e-14 4.67952680251864e-14 4.851147577122779e-16
2.836916847834745 6.85490162554508e-22 5.161991275154452e-14 5.100650832473004e-14 6.134044268144651e-16
2.9233170693905177 7.321301166849945e-22 5.6811156167747605e-14 5.6042311958617986e-14 7.688442091296084e-16
2.967498994190263 7.616754260941074e-22 5.999705837483845e-14 5.914065563765923e-14 8.564027371792199e-16
3.0123486681368425 7.938140952950971e-22 6.347365070618597e-14 6.252097944837168e-14 9.526712578142904e-16
3.0578761833420214 8.4749951797781e-22 6.879055119309295e-14 6.773188089323988e-14 1.058670299853078e-15
3.1040917844459814 9.114661640512136e-22 7.510079572927626e-14 7.392663560450989e-14 1.1741601247663736e-15
3.127460860933648 9.708336552359294e-22 8.059463628842356e-14 7.935858487651401e-14 1.2360514119095437e-15
3.1510058709225794 1.0467233716123596e-21 8.754887438908245e-14 8.624826971862838e-14 1.3006046704540822e-15
3.162844764501044 1.1148078372761447e-21 9.359385230122687e-14 9.225982567756917e-14 1.334026623657683e-15
3.1747281389236908 1.1923955536201593e-21 1.0048386289970146e-13 9.911572391246313e-14 1.368138987238332e-15
3.1986289994194426 1.4036315471327559e-21 1.191753466797784e-13 1.177366988295901e-13 1.438647850188311e-15
3.2227097969389145 1.8916705126380793e-21 1.6182146420977692e-13 1.6030806062196048e-13 1.513403587816425e-15
3.2348180950136065 2.349927497278155e-21 2.0177797534566581e-13 2.0022466717639768e-13 1.5533081692681076e-15
3.240889293275058 2.691969981177013e-21 2.3158148888116383e-13 2.3000713189833063e-13 1.5743569828331967e-15
3.2469718861334385 3.088038284514875e-21 2.661525535598031e-13 2.6455641699039886e-13 1.5961365694042175e-15
3.2714166318528037 5.1780550923421376e-21 4.4964726607956245e-13 4.479610904931492e-13 1.6861755864132168e-15
3.2744851364798273 5.309082672748365e-21 4.614577505194904e-13 4.597609539113574e-13 1.6967966081331182e-15
3.2775565192852394 5.443702234191614e-21 4.736024978391578e-13 4.718950261858205e-13 1.7074716533375086e-15
3.283707930232385 5.316379149145372e-21 4.633934607426348e-13 4.616668779986852e-13 1.7265827439497657e-15
3.2898708863219004 4.9089186323782835e-21 4.2868088696088585e-13 4.2693689300903764e-13 1.743993951848152e-15
3.29141343181113 4.81270133781842e-21 4.204755832104918e-13 4.187272167183657e-13 1.748366492126159e-15
3.292184975758714 4.765404446714689e-21 4.164409489304315e-13 4.1469039320333156e-13 1.7505557271000274e-15
3.295272960557952 4.4688215646458605e-21 3.9088935350646077e-13 3.891302784769998e-13 1.7590750294609422e-15
3.3076538914384823 3.436412395111817e-21 3.017135182680877e-13 2.999202159573611e-13 1.7933023107265994e-15
3.310756385682612 3.22492308118532e-21 2.834105539917749e-13 2.8160862242728565e-13 1.8019315644892502e-15
3.313861789986515 3.0292587982493163e-21 2.664650182050603e-13 2.6465442834963327e-13 1.8105898554270334e-15
3.3200813396944477 2.7559201526526072e-21 2.428761038216346e-13 2.410468997066861e-13 1.8292041149484873e-15
3.345076488085796 2.277430610792322e-21 2.022183858634816e-13 2.0030625242374208e-13 1.9121334397394715e-15
3.3482140837626964 2.2971138476117864e-21 2.0415742141654283e-13 2.0223405487125527e-13 1.923366545287557e-15
3.3513546224236106 2.3169871300803475e-21 2.0611682285765307e-13 2.041821715399814e-13 1.934651317671622e-15
3.3576445397418455 2.455427189472797e-21 2.1884226994395083e-13 2.1688402826659734e-13 1.9582416773534787e-15
3.3702598118196083 2.9582773929814423e-21 2.646498849047776e-13 2.626421595026727e-13 2.007725402104828e-15
3.382922481734668 3.078443754414164e-21 2.7643479203645614e-13 2.743789269132632e-13 2.055865123192957e-15
3.389271646505754 3.140483738246338e-21 2.8253506845635947e-13 2.8045479474474125e-13 2.080273711618249e-15
3.395632727569191 3.2081788556103466e-21 2.891669910473353e-13 2.8706156256431555e-13 2.1054284830197353e-15
3.421196662673239 3.534678144259215e-21 3.2099431977328265e-13 3.1878471541498566e-13 2.209604358296945e-15
3.4276182099114902 3.475859919914565e-21 3.162453439736179e-13 3.1401244466647794e-13 2.232899307139909e-15
3.4340518103208963 3.2072806906158732e-21 2.923568310871897e-13 2.901018763021073e-13 2.2549547850823287e-15
3.4469541582030403 2.823493942148534e-21 2.5834008670867415e-13 2.5604275345235144e-13 2.2973332563227383e-15
3.472904465399547 2.7212063955461327e-21 2.5085557239940486e-13 2.484606848893084e-13 2.3948875100964716e-15
3.4990501388274233 2.5631095090504035e-21 2.3806018159414167e-13 2.3556536179308624e-13 2.4948198010553774e-15
3.5253949054701885 1.9877352433514877e-21 1.8600976480874515e-13 1.8341769544648652e-13 2.592069362258605e-15
3.5519380250092896 1.4421653717047618e-21 1.359721222069806e-13 1.3328217427303982e-13 2.689947933940786e-15
3.578680990867387 1.2313177944194292e-21 1.1696679102125732e-13 1.1416954520409132e-13 2.797245817165969e-15
3.605625307711299 1.1520702379179102e-21 1.1026279164868214e-13 1.0735246048149341e-13 2.910331167188722e-15
3.660119384959845 1.1067698591186998e-21 1.0752810886986673e-13 1.0437983746191628e-13 3.1482714079504628e-15
3.715437065384467 1.079383563628471e-21 1.0645232296866799e-13 1.0305269894680835e-13 3.3996240218596196e-15
3.8285932144167436 1.094160703027521e-21 1.1119615527083717e-13 1.0725451334422661e-13 3.941641926610513e-15
3.94519561050918 1.1278281034549198e-21 1.1810842727979107e-13 1.1357303176175344e-13 4.5353955180376575e-15
4.06534921144712 1.169171051790889e-21 1.2616687438206955e-13 1.2098603576532532e-13 5.180838616744236e-15
4.189162171576248 1.214826858607128e-21 1.350862019657522e-13 1.2920641288829555e-13 5.879789077456641e-15
4.316745939156006 1.2633612373431655e-21 1.4476163175920357e-13 1.3813127475616316e-13 6.6303570030404116e-15
4.448215356677963 1.314087798209702e-21 1.551599463899444e-13 1.477369884385658e-13 7.422957951378633e-15
4.58368876423945 1.3668503172895604e-21 1.6630507866983895e-13 1.58045918632675e-13 8.259160037163926e-15
4.723288106065518 1.4218465107053706e-21 1.782652065068539e-13 1.6912046642367598e-13 9.144740083177923e-15
4.867139040275056 1.479403960394449e-21 1.9113048551385112e-13 1.8107287479697396e-13 1.0057610716877103e-14
4.940699165968905 1.510097091756793e-21 1.9804446775775496e-13 1.8751731563337322e-13 1.0527152124381705e-14
5.015371051989984 1.5407336090270315e-21 2.0511624537286863e-13 1.9411213382634185e-13 1.1004111546526759e-14
5.091171501069577 1.5743488916565717e-21 2.1275909910965463e-13 2.0126056918815396e-13 1.149852992150071e-14
5.129500256944802 1.5911208939664098e-21 2.1664449986606022e-13 2.0489637996465748e-13 1.1748119901402736e-14
5.168117569889187 1.6081393498784442e-21 2.2061015352247035e-13 2.0860856852239804e-13 1.2001585000072329e-14
5.20702561229733 1.6275023645910272e-21 2.2494729501930304e-13 2.1266970207502267e-13 1.2277592944280352e-14
5.246226572918644 1.6469359391262677e-21 2.293470628456801e-13 2.1679111987096672e-13 1.2555942974713388e-14
5.265937586045735 1.6566799312668357e-21 2.3157077639814015e-13 2.1887480979265849e-13 1.269596660548173e-14
5.285722656980489 1.6664425019777262e-21 2.338105688474884e-13 2.2097402898669859e-13 1.2836539860789775e-14
5.305582063971359 1.6762240115964639e-21 2.360665901664105e-13 2.2308893969554887e-13 1.2977650470861648e-14
5.3255160863122235 1.686463081623708e-21 2.3840094489954367e-13 2.2528059050109342e-13 1.3120354398450306e-14
5.365609099470188 1.7104212009150832e-21 2.4360799308197937e-13 2.301923953222407e-13 1.341559775973866e-14
5.406003951863644 1.734693545575217e-21 2.489250221592164e-13 2.352117361349916e-13 1.371328602422479e-14
5.446702915881641 1.759298254205094e-21 2.54356354895682e-13 2.4034303251646496e-13 1.4013322379217055e-14
5.487708281020852 1.7850992449759206e-21 2.600296169183239e-13 2.457127792456569e-13 1.4316837672667015e-14
5.529022354014368 1.818842698959008e-21 2.669395475126976e-13 2.52306223438344e-13 1.4633324074353593e-14
5.570647458961463 1.8536447526267846e-21 2.740953159875067e-13 2.5914291153508307e-13 1.4952404452423516e-14
5.612585937458331 1.889587956010304e-21 2.8151370915816337e-13 2.662397281126492e-13 1.527398104551417e-14
5.654840148729818 1.9280526775795475e-21 2.894067533312324e-13 2.7380727263073396e-13 1.559948070049848e-14
5.67608639626678 1.953527132551369e-21 2.9433226861735107e-13 2.785625198761477e-13 1.5769748741203398e-14
5.686739436050992 1.96652644986168e-21 2.9684692510417264e-13 2.8099177142349314e-13 1.585515368067946e-14
5.6974124697621304 1.9797062043041233e-21 2.9939727204915626e-13 2.834565348319527e-13 1.5940737217203607e-14
5.718818669136295 2.0066248232883534e-21 3.046084451215326e-13 2.884960111419983e-13 1.611243397953428e-14
5.740305295436557 2.0359405097000944e-21 3.1021979573754704e-13 2.9393372063936354e-13 1.62860750981834e-14
5.7835210386641895 2.1106871028327866e-21 3.2403028981391836e-13 3.073851294429057e-13 1.664516037101279e-14
5.827062130521658 2.194706664071954e-21 3.3946543808227296e-13 3.2245500592166076e-13 1.701043216061235e-14
5.8489554468988025 2.253291175396844e-21 3.498364538993695e-13 3.3262889045322364e-13 1.720756344614586e-14
5.870931020387893 2.3152884495667275e-21 3.608124510821041e-13 3.4340668779413733e-13 1.7405763287966742e-14
5.892989160043636 2.3809676167572646e-21 3.724419260832672e-13 3.548369048948475e-13 1.7605021188419794e-14
5.915130176081913 2.455073133910317e-21 3.8547673653966686e-13 3.6766519460950577e-13 1.781154193016103e-14
5.95966208400165 2.6614241427590727e-21 4.210223596635894e-13 4.027407673768335e-13 1.8281592286755826e-14
6.004529249263818 2.955264327924693e-21 4.710258363143506e-13 4.522155515300208e-13 1.881028478432969e-14
6.027089341400364 3.1586314590135295e-21 5.05331090166286e-13 4.862155927943715e-13 1.911549737191462e-14
6.049734195844842 3.396785493332347e-21 5.454737413119716e-13 5.260349841077899e-13 1.9438757204181783e-14
6.095279466722835 4.082114180034048e-21 6.604625604385976e-13 6.402301228958166e-13 2.0232437542781075e-14
6.141167624020661 5.1273476851265576e-21 8.358207576038817e-13 8.145593202522216e-13 2.1261437351660247e-14
6.164241091010745 5.793901360572169e-21 9.48025777801559e-13 9.261190373305022e-13 2.1906740471056597e-14
6.187401249150058 6.545412436232387e-21 1.0750155120781462e-12 1.052445891925598e-12 2.256962015254834e-14
6.1990139391386085 6.911366907996653e-21 1.137250130139055e-12 1.1143431654284588e-12 2.2906964710596012e-14
6.204828454712694 7.103470199620965e-21 1.169956662547265e-12 1.1468792819853725e-12 2.3077380561892754e-14
6.210648424152782 7.243205786520907e-21 1.1940903876437146e-12 1.1708676887970312e-12 2.32226988466834e-14
6.233982942956859 7.714187138636264e-21 1.2765129144808165e-12 1.2527830335843683e-12 2.3729880896448074e-14
6.239830258556775 7.77234535752959e-21 1.2873430676766558e-12 1.2635424059952834e-12 2.3800661681372906e-14
6.245683058788269 7.774384061120027e-21 1.288888552048473e-12 1.2650169869331382e-12 2.3871565115334458e-14
6.257405133728602 7.754514614318312e-21 1.2880073045179268e-12 1.2640113971339615e-12 2.3995907383965124e-14
6.269149208991335 7.65331444423294e-21 1.2735840063768515e-12 1.2495412624496057e-12 2.404274392724613e-14
6.280915325867298 7.409903254550443e-21 1.2353923549988675e-12 1.2113986454354678e-12 2.3993709563399585e-14
6.304513850009849 6.81396479280958e-21 1.1403047186460824e-12 1.1164958631204317e-12 2.3808855525650932e-14
6.32820103803542 6.0829133971953666e-21 1.0217892614133244e-12 9.98257600080956e-13 2.353166133236826e-14
6.3519772230701035 5.414859927403997e-21 9.129890984595674e-13 8.897052869112326e-13 2.3283811548334557e-14
6.375842739491607 4.8513977161655845e-21 8.210581362770894e-13 7.979921186632317e-13 2.3066017613857522e-14
6.399797922933955 4.403782355508619e-21 7.481032495861848e-13 7.251453619150265e-13 2.2957887671158424e-14
6.42384311029221 4.0303555917432215e-21 6.872388834904479e-13 6.64367298245621e-13 2.2871585244826907e-14
6.447978639727206 3.75973143620553e-21 6.435019196888761e-13 6.206310177413227e-13 2.287090194755332e-14
6.472204850670314 3.533667087769948e-21 6.070819482499523e-13 5.841947047807194e-13 2.2887243469232877e-14
