Dust emission spectrum from A.P. Jones, M. Kohler, N. Ysard, M. Bocchio, and L. Verstraete (2017), A&A, 602A, 46J 
inside the DustPedia framework.

lambda    nu*dP/dnu     j_nu    j_nu(carb.) j_nu(sil)
 (um)   (erg s-1 H-1) (Jy cm2 sr-1 H-1)
0.9927057738263894 3.6317453650182905e-20 9.569855315841832e-13 9.569855109615424e-13 2.062264086285775e-20
1.0001793341362166 3.6926965114638904e-20 9.80372060868915e-13 9.80372036055672e-13 2.481324310871079e-20
1.0077091589558085 3.753905407714468e-20 1.0041254250148039e-12 1.0041253951993748e-12 2.981542930993279e-20
1.0114953028030835 3.7846039953675645e-20 1.0161404664009173e-12 1.0161404337345048e-12 3.266641208826693e-20
1.0152956718711033 3.81536405039058e-20 1.028248184059988e-12 1.0282481482819832e-12 3.577800493186025e-20
1.0229392996569957 3.8770347932959726e-20 1.0527348382870283e-12 1.0527347954110454e-12 4.2875983231013494e-20
1.0267826658714554 3.907875552524914e-20 1.065095834960623e-12 1.0650957880457661e-12 4.691485700090575e-20
1.0306404723013447 3.9387726357690813e-20 1.0775502646214846e-12 1.0775502133044977e-12 5.131698680081217e-20
1.03451277320114 3.969725216346536e-20 1.0900984857503077e-12 1.0900984296369329e-12 5.611337508106396e-20
1.0383996230291617 4.00073249763547e-20 1.1027408649999063e-12 1.1027408036623889e-12 6.133751708033767e-20
1.0403485208654093 4.016256410499579e-20 1.1090974808172573e-12 1.1090974166960668e-12 6.412119040382656e-20
1.0423010764483396 4.0317937137953345e-20 1.1154777775356706e-12 1.1154777105100826e-12 6.70255879807633e-20
1.0462171883269815 4.062908130481765e-20 1.1283096073804027e-12 1.1283095341637597e-12 7.321664302901177e-20
1.0471985131304309 4.0706949642359614e-20 1.131532441545352e-12 1.1315323666974859e-12 7.484786624157602e-20
1.048180758391296 4.0784850683265054e-20 1.1347612388085315e-12 1.1347611622946974e-12 7.651383423443182e-20
1.0501480137395462 4.0940750455548005e-20 1.1412367477634113e-12 1.1412366678105797e-12 7.9952831438385e-20
1.0521189612883777 4.1096779795461203e-20 1.147736184895181e-12 1.1477361013557568e-12 8.353942421750227e-20
1.0531058218030118 4.1174740167291933e-20 1.1509920235235227e-12 1.150991938133459e-12 8.539006376666007e-20
1.0540936079674168 4.1252396396477716e-20 1.1542444502352968e-12 1.154244362954999e-12 8.728029793849892e-20
1.058054026499678 4.1563326802428073e-20 1.1673136911636812e-12 1.1673135959144932e-12 9.524918761955774e-20
1.0590464539527713 4.1641135313896506e-20 1.1705959174751868e-12 1.170595820127656e-12 9.734753090607277e-20
1.06003981227728 4.1718974009228684e-20 1.1738841233871448e-12 1.1738840238971141e-12 9.949003060024255e-20
1.0620293250338977 4.1874741602293974e-20 1.1804785006865674e-12 1.1804783967755223e-12 1.0391104510438016e-19
1.0660195594769086 4.2186635232021944e-20 1.1937393063119314e-12 1.1937391929890282e-12 1.133229031189679e-19
1.070024785945596 4.249900248728792e-20 1.2070965466381633e-12 1.2070964230919598e-12 1.235462034463334e-19
1.0740450607676866 4.28118385300451e-20 1.2205506717272636e-12 1.2205505370801495e-12 1.3464711402723018e-19
1.07808044048254 4.3125138894973353e-20 1.23410214348152e-12 1.234101996784653e-12 1.4669686700227102e-19
1.0861967418109137 4.375264015223352e-20 1.2614852981243835e-12 1.2614851241690297e-12 1.7395535353403223e-19
1.0902777775684922 4.40657507811662e-20 1.2752865142998975e-12 1.2752863249646158e-12 1.8933528188483725e-19
1.0943741465085532 4.4379293153963954e-20 1.2891861719789812e-12 1.2891859659717828e-12 2.0600719838181903e-19
1.1026131145906286 4.5007663867636356e-20 1.3172829120526428e-12 1.3172826684082461e-12 2.4364439691708705e-19
1.1109141095355224 4.563773792132335e-20 1.345779863536978e-12 1.345779575755986e-12 2.8778099171664946e-19
1.1192775983109025 4.6269018036054007e-20 1.3746670637602837e-12 1.3746667242900003e-12 3.3947028320861983e-19
1.1277040513999907 4.68992529061043e-20 1.4038816527360112e-12 1.4038812528116709e-12 3.9992434010474934e-19
1.1361939428280308 4.753111674718589e-20 1.4335073397135796e-12 1.4335068691775492e-12 4.705360306274559e-19
1.1447477501889525 4.816462391252578e-20 1.4635494647593827e-12 1.4635489118555964e-12 5.529037863559402e-19
1.1533659546722406 4.880001596202764e-20 1.4940203903654313e-12 1.4940197415050532e-12 6.488603780655177e-19
1.1707974979042381 5.0078377148437894e-20 1.5563291980868327e-12 1.5563283078490152e-12 8.902378174348144e-19
1.1884924949847024 5.1364623136272495e-20 1.6204289095884575e-12 1.62042769431627e-12 1.2152721878284962e-18
1.2064549276569216 5.2667388811383295e-20 1.6866397124892975e-12 1.686638061723298e-12 1.6507659995270222e-18
1.2246888378427687 5.3978483259753475e-20 1.7547524998571987e-12 1.7547502685547885e-12 2.2313024100496574e-18
1.2431983285522175 5.529691462750572e-20 1.8247810006928417e-12 1.824777999347515e-12 3.0013453267390332e-18
1.2619875648066055 5.66246960527346e-20 1.896838659540367e-12 1.896834641768375e-12 4.017771991897205e-18
1.3004222497298317 5.930059377693669e-20 2.0469765456647887e-12 2.0469694474235495e-12 7.098241240083564e-18
1.3400274889804893 6.201457122916849e-20 2.205854617877921e-12 2.2058423077530685e-12 1.2310124851980391e-17
1.3808389325824078 6.477666788948476e-20 2.374275224174069e-12 2.3742542576990372e-12 2.096647503068863e-17
1.4228933163050095 6.760942560782183e-20 2.553577357038262e-12 2.553542269283532e-12 3.5087754729111264e-17
1.466228494730424 7.056022939082613e-20 2.7461931050059482e-12 2.746135379100528e-12 5.772590541949484e-17
1.5108834753276823 7.36223931255717e-20 2.9526388828488147e-12 2.9525454794367114e-12 9.340341210217363e-17
1.5568984535646726 7.679168175546262e-20 3.1735394339017655e-12 3.173390637775326e-12 1.4879612643896022e-16
1.6043148490894465 8.008344790539168e-20 3.4103723552349243e-12 3.410138539916544e-12 2.338153183799737e-16
1.6531753430134553 8.351308005865349e-20 3.6647373423026834e-12 3.6643753595147346e-12 3.6198278794972936e-16
1.7035239163302658 8.709781171508362e-20 3.938446151393436e-12 3.937893899320089e-12 5.522520733456402e-16
1.755405889504358 9.0895548433538e-20 4.2353528598157975e-12 4.234522172401685e-12 8.306874141097513e-16
1.8088679632656115 9.48977999420607e-20 4.556511222105359e-12 4.555278851532019e-12 1.2323705733392745e-15
1.8639582606462262 9.909228627513502e-20 4.902814532539647e-12 4.901010602149605e-12 1.8039303900432608e-15
1.9207263702978936 1.0347847447025494e-19 5.275759013042224e-12 5.273152650661021e-12 2.606362381206523e-15
1.979223391128241 1.0805970069627862e-19 5.6771191383858335e-12 5.673400771447199e-12 3.718366938635501e-15
2.039501978296691 1.128343288858065e-19 6.10850331813647e-12 6.103263397573948e-12 5.239920562520689e-15
2.1016163906111602 1.1783216887983766e-19 6.573349916644246e-12 6.566053172295036e-12 7.296744349208258e-15
2.1656225393682647 1.2305449053657944e-19 7.073749277771825e-12 7.063705147014293e-12 1.0044130757532527e-14
2.231578038680979 1.2846265924335277e-19 7.609540270964015e-12 7.595869062216089e-12 1.3671208747928237e-14
2.299542257339062 1.3403436086562062e-19 8.181387738982798e-12 8.162982442257889e-12 1.8405296724912112e-14
2.369576372248914 1.3975768923167306e-19 8.790546085882856e-12 8.766029647436853e-12 2.4516438446001114e-14
2.4417434235010123 1.4562323700490086e-19 9.438438282236305e-12 9.406117787222642e-12 3.232049501365985e-14
2.5161083711144245 1.5164571391742935e-19 1.0128121804830188e-11 1.0085938426286653e-11 4.2183378543533394e-14
2.5927381535095444 1.5787181980931998e-19 1.0865074456641629e-11 1.081055144525948e-11 5.45230113821488e-14
2.6717017477616296 1.6433535180825892e-19 1.1654359390691865e-11 1.1584552007876885e-11 6.98073828149778e-14
2.753070231689431 1.71103029635964e-19 1.2503869229797149e-11 1.2415315320102876e-11 8.855390969427103e-14
2.836916847834745 1.7841736230912866e-19 1.3435478988402821e-11 1.3324148273657757e-11 1.113307147450662e-13
2.9233170693905177 1.868512269044826e-19 1.4499108819441044e-11 1.4360385884842637e-11 1.3872293459840507e-13
2.967498994190263 1.9206984027026915e-19 1.512931233430321e-11 1.4975282361742234e-11 1.5402997256098018e-13
3.0123486681368425 1.976374037099426e-19 1.580315542885251e-11 1.563234979268402e-11 1.7080563616849464e-13
3.0578761833420214 2.0713444445763742e-19 1.6812862194086876e-11 1.6623639680187112e-11 1.89222513899766e-13
3.1040917844459814 2.182979059600772e-19 1.798678556620051e-11 1.7777579106731215e-11 2.0920645946929495e-13
3.127460860933648 2.289319814282322e-19 1.900499604488132e-11 1.8785112451653012e-11 2.198835932283101e-13
3.1510058709225794 2.425115998241196e-19 2.0283886045452832e-11 2.00528896021216e-11 2.309964433312252e-13
3.162844764501044 2.5494534673602154e-19 2.1403973249414533e-11 2.1167232225022415e-11 2.3674102439211696e-13
3.1747281389236908 2.69017238678074e-19 2.2670238283691998e-11 2.2427640325410748e-11 2.4259795828124916e-13
3.1986289994194426 3.0719645762705607e-19 2.6082517460717672e-11 2.5827832729720172e-11 2.5468473099750043e-13
3.2227097969389145 3.9606276326206847e-19 3.388087716219551e-11 3.361340164287898e-11 2.6747551931652226e-13
3.2348180950136065 4.79563778035125e-19 4.117803987277312e-11 4.090374264249372e-11 2.7429723027941666e-13
3.240889293275058 5.419892583855547e-19 4.6625586574946e-11 4.634769104004549e-11 2.778955349005071e-13
3.2469718861334385 6.143581014268001e-19 5.295043727755562e-11 5.266881857225517e-11 2.81618705300448e-13
3.2714166318528037 9.93757803948078e-19 8.629504161732823e-11 8.599805060733756e-11 2.9699100999064867e-13
3.2744851364798273 1.0174205623426661e-18 8.843271671787251e-11 8.813391799766834e-11 2.9879872020417753e-13
3.2775565192852394 1.0417134888864133e-18 9.06291507405736e-11 9.032853562849617e-11 3.0061511207742147e-13
3.283707930232385 1.0181411024918088e-18 8.874459773694747e-11 8.844074219631614e-11 3.038555406313031e-13
3.2898708863219004 9.435658689844672e-19 8.23987285008863e-11 8.209193121781141e-11 3.06797283074873e-13
3.29141343181113 9.259379341820332e-19 8.089724783719743e-11 8.058971205006065e-11 3.075357871367867e-13
3.292184975758714 9.172700117431513e-19 8.015873539948793e-11 7.985082989966754e-11 3.079054998203674e-13
3.295272960557952 8.633063281880037e-19 7.551370033951839e-11 7.520435809328888e-11 3.09342246229506e-13
3.3076538914384823 6.748418581710632e-19 5.925042977757624e-11 5.893532045359633e-11 3.15109323979903e-13
3.310756385682612 6.360527616171339e-19 5.5897167467217306e-11 5.5580605239808814e-11 3.1656222740848296e-13
3.313861789986515 6.000947181243079e-19 5.278659257577031e-11 5.246857298733952e-11 3.180195884307967e-13
3.3200813396944477 5.49850133948535e-19 4.8457665977980126e-11 4.813650837100972e-11 3.2115760697040247e-13
3.345076488085796 4.619243758021096e-19 4.1015344758715395e-11 4.0680193741364305e-11 3.3515101735109503e-13
3.3482140837626964 4.654220485528114e-19 4.13646739371384e-11 4.102762689604194e-11 3.370470410964706e-13
3.3513546224236106 4.689512223938484e-19 4.171742465901433e-11 4.137847344053459e-11 3.3895121847972503e-13
3.3576445397418455 4.940016978839093e-19 4.40283684177548e-11 4.368543471287795e-11 3.429337048768411e-13
3.3702598118196083 5.848553367235603e-19 5.2321630796712136e-11 5.1970344285935174e-11 3.5128651077697694e-13
3.382922481734668 6.063818660237418e-19 5.445122873809035e-11 5.409183543060124e-11 3.593933074891139e-13
3.389271646505754 6.17476278367653e-19 5.555153827231772e-11 5.51880382470581e-11 3.635000252596095e-13
3.395632727569191 6.29706399082828e-19 5.675815247881239e-11 5.6390420223460434e-11 3.677322553519402e-13
3.421196662673239 6.891597455845854e-19 6.258458471200192e-11 6.219934589151657e-11 3.8523882048533476e-13
3.4276182099114902 6.782360507091845e-19 6.170818102390795e-11 6.131904844304438e-11 3.8913258086358297e-13
3.4340518103208963 6.290659902249322e-19 5.7341953258095055e-11 5.69491442400252e-11 3.928090180698462e-13
3.4469541582030403 5.584183363631335e-19 5.109337735146322e-11 5.069352480793102e-11 3.9985254353219206e-13
3.472904465399547 5.383688951592886e-19 4.962976626038469e-11 4.9213668748752034e-11 4.1609751163266755e-13
3.4990501388274233 5.083572349541009e-19 4.721593643991633e-11 4.6783244077311264e-11 4.32692362605068e-13
3.5253949054701885 4.033769074472925e-19 3.774750381597075e-11 3.729873609844694e-11 4.48767717523811e-13
3.5519380250092896 3.034102389610943e-19 2.8606521069147433e-11 2.8141633550081765e-11 4.648875190656617e-13
3.578680990867387 2.6424144450402794e-19 2.510113470181008e-11 2.46185841363249e-11 4.825505654851902e-13
3.605625307711299 2.4899734227486577e-19 2.38311356102278e-11 2.3330005076710547e-11 5.011305335172484e-13
3.660119384959845 2.389625313343283e-19 2.3216379515066658e-11 2.2676317434603905e-11 5.400620804627594e-13
3.715437065384467 2.3196514668764955e-19 2.2877158356626268e-11 2.2296205565636924e-11 5.80952790989352e-13
3.8285932144167436 2.3024483097876474e-19 2.339906734447802e-11 2.2730758589009433e-11 6.683087554685966e-13
3.94519561050918 2.3141980895864594e-19 2.4234747825281413e-11 2.347197281538124e-11 7.627750099001719e-13
4.06534921144712 2.334720805328243e-19 2.519429694327881e-11 2.4330244802046465e-11 8.640521412323536e-13
4.189162171576248 2.3581351892928344e-19 2.6221969343729983e-11 2.5249830725680842e-11 9.72138618049137e-13
4.316745939156006 2.382024322602106e-19 2.72943096271623e-11 2.620789939442124e-11 1.0864102327410673e-12
4.448215356677963 2.4053791929911462e-19 2.840133719683438e-11 2.7196310626921866e-11 1.2050265699125157e-12
4.58368876423945 2.428110159875856e-19 2.95428874727067e-11 2.8214956458200813e-11 1.3279310145058875e-12
4.723288106065518 2.4507401313186385e-19 3.0726361271401694e-11 2.9270655920555277e-11 1.455705350846406e-12
4.867139040275056 2.474000498985943e-19 3.196266396411544e-11 3.037811701764185e-11 1.5845469464735907e-12
4.940699165968905 2.4875088787853348e-19 3.262289389410151e-11 3.0973169399007504e-11 1.6497244950940073e-12
5.015371051989984 2.5000097234650236e-19 3.328236658617683e-11 3.156719976753725e-11 1.7151668186395831e-12
5.091171501069577 2.516590000808073e-19 3.400945141434944e-11 3.222709012854087e-11 1.7823612858085694e-12
5.129500256944802 2.524465392751473e-19 3.437272079800657e-11 3.255675514141073e-11 1.8159656565958454e-12
5.168117569889187 2.5325204029713454e-19 3.4741996391079416e-11 3.2892059064357096e-11 1.8499373267223203e-12
5.20702561229733 2.544210713764003e-19 3.5165129739406473e-11 3.3277873631398336e-11 1.8872561080081257e-12
5.246226572918644 2.5557483056796996e-19 3.559053836613879e-11 3.3665868899293615e-11 1.924669466845177e-12
5.265937586045735 2.561462456693651e-19 3.580413081708889e-11 3.3860725318099243e-11 1.943405498989651e-12
5.285722656980489 2.5671416472788846e-19 3.601833535510588e-11 3.405617754550394e-11 1.962157809601937e-12
5.305582063971359 2.5727870239649277e-19 3.623316786837686e-11 3.425224395430512e-11 1.980923914071737e-12
5.3255160863122235 2.57911564899085e-19 3.6458764761849073e-11 3.445889561158241e-11 1.999869150266673e-12
5.365609099470188 2.597217163650627e-19 3.6991055799384457e-11 3.4951971531504134e-11 2.039084267880313e-12
5.406003951863644 2.6154879907113763e-19 3.7531724707553725e-11 3.5453341439931744e-11 2.0783832676219833e-12
5.446702915881641 2.633957292075541e-19 3.808130737138407e-11 3.59635611733453e-11 2.1177461980387788e-12
5.487708281020852 2.6540116602870087e-19 3.866012700770061e-11 3.650278546805291e-11 2.157341539647716e-12
5.529022354014368 2.6863780785497455e-19 3.9426199370980394e-11 3.722758468924674e-11 2.1986146817336467e-12
5.570647458961463 2.719911421410843e-19 4.0218870387822174e-11 3.7978906126552866e-11 2.239964261269306e-12
5.612585937458331 2.7547272241112496e-19 4.104034829984385e-11 3.8758978313183603e-11 2.281369986660246e-12
5.654840148729818 2.7929792587112827e-19 4.192349455927951e-11 3.960045319574365e-11 2.3230413635358605e-12
5.67608639626678 2.8216705466888566e-19 4.2513291955818465e-11 4.016840803867574e-11 2.3448839171427215e-12
5.686739436050992 2.836348729448628e-19 4.2814649094558215e-11 4.045883553686053e-11 2.35581355769769e-12
5.6974124697621304 2.8512564530487274e-19 4.3120459091322965e-11 4.0753710747200045e-11 2.366748344122921e-12
5.718818669136295 2.881784962112664e-19 4.37458974042409e-11 4.135726534447967e-11 2.3886320597612224e-12
5.740305295436557 2.9158310609400476e-19 4.442902490619737e-11 4.201831137925342e-11 2.410713526943958e-12
5.7835210386641895 3.008134582625993e-19 4.618054089113326e-11 4.3724214798810393e-11 2.4563260923228665e-12
5.827062130521658 3.1134463690705953e-19 4.815711607041262e-11 4.565463619955799e-11 2.502479870854634e-12
5.8489554468988025 3.19102461817952e-19 4.9542498054336285e-11 4.701496906654589e-11 2.527528987790405e-12
5.870931020387893 3.273295694126186e-19 5.101074307761446e-11 4.8458109050080235e-11 2.5526340275342262e-12
5.892989160043636 3.36063271719464e-19 5.256856553786629e-11 4.999077317297941e-11 2.5777923648868634e-12
5.915130176081913 3.4602280506032894e-19 5.4329844525042724e-11 5.172593225286891e-11 2.6039122721738123e-12
5.95966208400165 3.7454598421492713e-19 5.925107221474745e-11 5.6586921055048005e-11 2.6641511596994395e-12
6.004529249263818 4.158670034714295e-19 6.628310748880824e-11 6.35507618920349e-11 2.732345596773327e-12
6.027089341400364 4.448048254542701e-19 7.116173896027423e-11 6.83896312963278e-11 2.7721076639464483e-12
6.049734195844842 4.787650892475267e-19 7.688262475038092e-11 7.406832023959148e-11 2.8143045107894523e-12
6.095279466722835 5.771730267965187e-19 9.338327108991955e-11 9.046402932520998e-11 2.9192417647095765e-12
6.141167624020661 7.276909948891931e-19 1.1862258539910096e-10 1.1556564280123839e-10 3.0569425978625782e-12
6.164241091010745 8.236164863839563e-19 1.3476405819191054e-10 1.3161996789823612e-10 3.144090293674432e-12
6.187401249150058 9.31521253031591e-19 1.5299261988383566e-10 1.497591838975903e-10 3.2334359862453194e-12
6.1990139391386085 9.838574643071942e-19 1.6189156851549094e-10 1.5861269678571148e-10 3.278871729779488e-12
6.204828454712694 1.011312394335974e-18 1.6656530405844936e-10 1.6326349832027268e-10 3.301805738176656e-12
6.210648424152782 1.0310781161447293e-18 1.6998004801815617e-10 1.6665886216764283e-10 3.3211858505133386e-12
6.233982942956859 1.0970599350938877e-18 1.8153710169836543e-10 1.7814902334735543e-10 3.3880783510099662e-12
6.239830258556775 1.104810323863128e-18 1.8299108519990702e-10 1.7959423485461082e-10 3.396850345296198e-12
6.245683058788269 1.104366883053772e-18 1.830892095938461e-10 1.7968357853842034e-10 3.4056310554257924e-12
6.257405133728602 1.0999914835886768e-18 1.8270609267454129e-10 1.792853903930169e-10 3.4207022815243853e-12
6.269149208991335 1.083786141767107e-18 1.8035227829003745e-10 1.769274811730209e-10 3.424797117016531e-12
6.280915325867298 1.0469430284569796e-18 1.7454821865330603e-10 1.711328801361309e-10 3.4153385171751414e-12
6.304513850009849 9.576839693465036e-19 1.602666850245416e-10 1.5688249616234048e-10 3.3841888622010757e-12
6.32820103803542 8.492619626389262e-19 1.4265643728404183e-10 1.393164097087739e-10 3.3400275752679747e-12
6.3519772230701035 7.504189255983413e-19 1.26526689062018e-10 1.23226650137262e-10 3.3000389247559865e-12
6.375842739491607 6.671029055073978e-19 1.1290153896800006e-10 1.096371923847975e-10 3.26434658320258e-12
6.399797922933955 6.007879144658618e-19 1.0206030971576211e-10 9.881627268281462e-11 3.244037032947472e-12
6.42384311029221 5.454193706085983e-19 9.300256286542494e-11 8.977575358456097e-11 3.226809280863989e-12
6.447978639727206 5.049958917625035e-19 8.643325495401217e-11 8.321171972464474e-11 3.2215352293674212e-12
6.472204850670314 4.711204421436965e-19 8.093821765690744e-11 7.771959534097085e-11 3.2186223159365675e-12
6.496522083828205 4.487452294431094e-19 7.738382574795241e-11 7.415846833129602e-11 3.2253574166563827e-12
6.520930681187647 4.297123871331018e-19 7.438012257611911e-11 7.114660366076768e-11 3.2335189153513997e-12
6.57002334288761 4.088396807578268e-19 7.12999764047449e-11 6.803690462654536e-11 3.2630717781995495e-12
