Dust emission spectrum from A.P. Jones, M. Kohler, N. Ysard, M. Bocchio, and L. Verstraete (2017), A&A, 602A, 46J 
inside the DustPedia framework.

lambda    nu*dP/dnu     j_nu    j_nu(carb.) j_nu(sil)
 (um)   (erg s-1 H-1) (Jy cm2 sr-1 H-1)
0.9927057738263894 5.5757372940190485e-22 1.4692384465296073e-14 1.4692381963875044e-14 2.5014210286806244e-21
1.0001793341362166 5.669566232724358e-22 1.5052101667584175e-14 1.505209865709777e-14 3.0104864010143387e-21
1.0077091589558085 5.7637513947874035e-22 1.5417355235102356e-14 1.5417351616765338e-14 3.618337012078647e-21
1.0114953028030835 5.810973006951752e-22 1.560206782203541e-14 1.5602063857171475e-14 3.964863935622705e-21
1.0152956718711033 5.858278286990323e-22 1.5788176254633428e-14 1.5788171911503327e-14 4.343130105191685e-21
1.0229392996569957 5.9530869649863275e-22 1.6164472019261226e-14 1.6164466813031822e-14 5.206229403080181e-21
1.0267826658714554 6.000482593124718e-22 1.6354382149046462e-14 1.6354376451575924e-14 5.697470536484282e-21
1.0306404723013447 6.047952868917668e-22 1.6545695364942035e-14 1.6545689131955505e-14 6.2329865289164354e-21
1.03451277320114 6.095496245333978e-22 1.6738416048480496e-14 1.6738409231914793e-14 6.816565702656868e-21
1.0383996230291617 6.14311122172697e-22 1.6932548693124524e-14 1.693254124082261e-14 7.452301920158246e-21
1.0403485208654093 6.166945103961091e-22 1.7030145937048815e-14 1.7030138145951376e-14 7.791097432311953e-21
1.0423010764483396 6.190796345115276e-22 1.7128097909861702e-14 1.7128089765244094e-14 8.144617608850562e-21
1.0462171883269815 6.238550211463538e-22 1.7325068432902743e-14 1.7325059534614355e-14 8.8982883884028e-21
1.0471985131304309 6.250499259366712e-22 1.7374533709764502e-14 1.73745246128763e-14 9.096888201312939e-21
1.048180758391296 6.262452498185375e-22 1.7424088198847647e-14 1.7424078899120307e-14 9.299727337657668e-21
1.0501480137395462 6.286371466962729e-22 1.7523465125483667e-14 1.7523455407014264e-14 9.71846940176019e-21
1.0521189612883777 6.3103069566273e-22 1.7623199841844584e-14 1.7623189686621694e-14 1.0155222890767108e-20
1.0531058218030118 6.322264913873093e-22 1.7673157030025682e-14 1.7673146649427885e-14 1.0380597799837219e-20
1.0540936079674168 6.334174742007316e-22 1.7723057764970945e-14 1.772304715416619e-14 1.0610804752572962e-20
1.058054026499678 6.381852268868908e-22 1.7923549680819774e-14 1.7923538099391042e-14 1.1581428736452683e-20
1.0590464539527713 6.393781111970774e-22 1.7973895309250142e-14 1.797388347221057e-14 1.1837039573401103e-20
1.06003981227728 6.405713703508362e-22 1.8024330161735344e-14 1.8024318063693927e-14 1.2098041420657599e-20
1.0620293250338977 6.429590061406006e-22 1.8125467872265083e-14 1.812545523561285e-14 1.2636652229533201e-20
1.0660195594769086 6.477386995533718e-22 1.8328817684168143e-14 1.8328803900710915e-14 1.3783457233586575e-20
1.070024785945596 6.525242004336357e-22 1.853360462229369e-14 1.8533589592926387e-14 1.5029367301481967e-20
1.0740450607676866 6.573154079334627e-22 1.8739834359760744e-14 1.87398179772741e-14 1.6382486642142398e-20
1.07808044048254 6.621122271750959e-22 1.894751274360188e-14 1.894749489206006e-14 1.7851541820879297e-20
1.0861967418109137 6.717149751180395e-22 1.9367027056952043e-14 1.9367005881202262e-14 2.1175749772766116e-20
1.0902777775684922 6.765039721608716e-22 1.957838859597528e-14 1.9578365544086812e-14 2.3051888462952406e-20
1.0943741465085532 6.812979732060491e-22 1.9791210351354895e-14 1.9791185265327034e-14 2.508602786351362e-20
1.1026131145906286 6.909007471946091e-22 2.022126166957746e-14 2.022123199006765e-14 2.967950980509895e-20
1.1109141095355224 7.005228853457754e-22 2.0657237540353336e-14 2.0657202471999792e-14 3.5068353545839664e-20
1.1192775983109025 7.101565127027782e-22 2.1098973126394606e-14 2.109893174452519e-14 4.1381869416249057e-20
1.1277040513999907 7.197666244949394e-22 2.1545485178691522e-14 2.1545436409756097e-14 4.87689354229679e-20
1.1361939428280308 7.293944280097219e-22 2.1998058064983907e-14 2.1998000664263255e-14 5.740072065795138e-20
1.1447477501889525 7.3903999561071455e-22 2.2456763951406034e-14 2.245669647764829e-14 6.747375774584627e-20
1.1533659546722406 7.487070211624465e-22 2.292178668336608e-14 2.292170746985783e-14 7.921350824706666e-20
1.1707974979042381 7.681355029891546e-22 2.387201382036853e-14 2.3871905056538625e-14 1.0876382991055003e-19
1.1884924949847024 7.876537484362193e-22 2.4848559704713274e-14 2.4848411114956962e-14 1.4858975630967898e-19
1.2064549276569216 8.073961189427892e-22 2.5856348466326662e-14 2.585614646988243e-14 2.019964442423122e-19
1.2246888378427687 8.272348604327044e-22 2.689205682805135e-14 2.68917835749067e-14 2.732531446553302e-19
1.2431983285522175 8.471561029807298e-22 2.7955888167606317e-14 2.7955520312653503e-14 3.678549528217998e-19
1.2619875648066055 8.671913983792536e-22 2.904955406974235e-14 2.9049061230962044e-14 4.928387803076575e-19
1.3004222497298317 9.074944420875935e-22 3.132548461929443e-14 3.1324612446411024e-14 8.721728834008527e-19
1.3400274889804893 9.483035898756445e-22 3.3731102407324475e-14 3.372958722699343e-14 1.5151803310410716e-18
1.3808389325824078 9.898248019469922e-22 3.628029319978721e-14 3.627770800064797e-14 2.585199139243306e-18
1.4228933163050095 1.0324877366379213e-21 3.8996593773653585e-14 3.899225959597163e-14 4.3341776819608695e-18
1.466228494730424 1.0771453621678413e-21 4.19223292244434e-14 4.191518558268979e-14 7.143641753611951e-18
1.5108834753276823 1.1238565512448135e-21 4.507246248148958e-14 4.506088206409246e-14 1.1580417397135361e-17
1.5568984535646726 1.1727795818407593e-21 4.8466997533645184e-14 4.8448514282492025e-14 1.8483251153170283e-17
1.6043148490894465 1.224452465459686e-21 5.2143594559467224e-14 5.211449454389244e-14 2.910001557478238e-17
1.6531753430134553 1.2794996370888848e-21 5.6147253774009243e-14 5.6102114533950096e-14 4.5139240059130055e-17
1.7035239163302658 1.3386847492933271e-21 6.0533527708255e-14 6.046452552497222e-14 6.900218328278297e-17
1.755405889504358 1.4035274090472685e-21 6.539851431871519e-14 6.529451382467363e-14 1.0400049404156426e-16
1.8088679632656115 1.474656562062194e-21 7.080553161285215e-14 7.06509262080534e-14 1.5460540479872645e-16
1.8639582606462262 1.5528075188551019e-21 7.682865696065757e-14 7.660187835453733e-14 2.2677860612023437e-16
1.9207263702978936 1.639072349321818e-21 8.356666218971538e-14 8.323831768969964e-14 3.2834450001573423e-16
1.979223391128241 1.7347986153587286e-21 9.114090041929434e-14 9.067146727020825e-14 4.694331490860814e-16
2.039501978296691 1.8414630443550344e-21 9.969114211732933e-14 9.902818244968895e-14 6.62959667640358e-16
2.1016163906111602 1.9612475372991833e-21 1.0940956496329306e-13 1.0848434033897719e-13 9.252246243158513e-16
2.1656225393682647 2.0961176500575257e-21 1.2049467393318381e-13 1.192182312815629e-13 1.276442651620906e-15
2.231578038680979 2.247623412218899e-21 1.3313892900847972e-13 1.3139759333408045e-13 1.7413356743992735e-15
2.299542257339062 2.4177643919213087e-21 1.47579082140331e-13 1.452293340195679e-13 2.3497481207631116e-15
2.369576372248914 2.6089026012813994e-21 1.6409600556665745e-13 1.6095870829349703e-13 3.1372972731604206e-15
2.4417434235010123 2.823584925396766e-21 1.83008100912585e-13 1.7886225010372897e-13 4.14585080885601e-15
2.5161083711144245 3.0649008278971755e-21 2.046987554265436e-13 1.9927459309589105e-13 5.424162330652569e-15
2.5927381535095444 3.336534762982912e-21 2.2962741970522556e-13 2.2259919061834468e-13 7.0282290868808846e-15
2.6717017477616296 3.642024823984472e-21 2.582856685520733e-13 2.49264516880089e-13 9.021151671984378e-15
2.753070231689431 3.985393841009703e-21 2.912446583982052e-13 2.7977148476491754e-13 1.1473173633287531e-14
2.836916847834745 4.373559242572228e-21 3.293449838491848e-13 3.148830145945673e-13 1.4461969254617562e-14
2.9233170693905177 4.818598576185026e-21 3.7390915901785956e-13 3.5584060992675857e-13 1.8068549091100975e-14
2.967498994190263 5.069967234411753e-21 3.9936055398475907e-13 3.7926920498377723e-13 2.0091349000981838e-14
3.0123486681368425 5.3382419669451155e-21 4.2684768134410095e-13 4.0453628087703326e-13 2.2311400467067744e-14
3.0578761833420214 5.685426824069082e-21 4.614794896036132e-13 4.3672766981329293e-13 2.475181979032032e-14
3.1040917844459814 6.072209605732202e-21 5.003233155672249e-13 4.729185465633563e-13 2.7404769003868582e-14
3.127460860933648 6.35553828627743e-21 5.276107743454788e-13 4.987866445851636e-13 2.882412976031523e-14
3.1510058709225794 6.692077803378591e-21 5.597313434469996e-13 5.294285282956907e-13 3.030281515130905e-14
3.162844764501044 6.95708672523616e-21 5.840832165295298e-13 5.530154847434863e-13 3.106773178604364e-14
3.1747281389236908 7.251087186432761e-21 6.110533107098407e-13 5.792053248199705e-13 3.184798588987008e-14
3.1986289994194426 8.013164884360157e-21 6.803578225686079e-13 6.468985004074874e-13 3.345932216112046e-14
3.2227097969389145 9.642357243554506e-21 8.248478565168966e-13 7.89681915597835e-13 3.516594091906171e-14
3.2348180950136065 1.1125088306833006e-20 9.552625758431196e-13 9.191860904314843e-13 3.6076485411635286e-14
3.240889293275058 1.2219413164210486e-20 1.0511966751518845e-12 1.0146399002315978e-12 3.655677492028671e-14
3.2469718861334385 1.3483055731851336e-20 1.162080706970616e-12 1.125026974276691e-12 3.705373269392515e-14
3.2714166318528037 2.0079383836391313e-20 1.7436353776822549e-12 1.7045286227210825e-12 3.9106754961172955e-14
3.2744851364798273 2.0498894786334767e-20 1.7817341449197843e-12 1.7423856255274336e-12 3.9348519392351115e-14
3.2775565192852394 2.092929968452263e-20 1.8208506237458018e-12 1.781259148125262e-12 3.9591475620540125e-14
3.283707930232385 2.0559078398279682e-20 1.7919983171609314e-12 1.7519727175575392e-12 4.002559960339218e-14
3.2898708863219004 1.9318516735341104e-20 1.6870271253330003e-12 1.6466067798959992e-12 4.0420345437000966e-14
3.29141343181113 1.902570473230944e-20 1.6622357656905273e-12 1.6217163060571942e-12 4.051945963333305e-14
3.292184975758714 1.8881789885609506e-20 1.650048927723054e-12 1.6094798467613517e-12 4.056908096170213e-14
3.295272960557952 1.7976652358698238e-20 1.5724239415360957e-12 1.5316619055472073e-12 4.076203598888818e-14
3.3076538914384823 1.482452446893321e-20 1.3015781925753574e-12 1.2600413235351773e-12 4.153686904018009e-14
3.310756385682612 1.4178807924413386e-20 1.246052605795483e-12 1.2043204682989585e-12 4.173213749652429e-14
3.313861789986515 1.358146236245979e-20 1.1946766046386297e-12 1.1527485736777034e-12 4.1928030960926185e-14
3.3200813396944477 1.2756750084049866e-20 1.12423785386459e-12 1.0818883223927487e-12 4.2349531471841436e-14
3.345076488085796 1.1389774804004459e-20 1.0113247206302537e-12 9.670964135218927e-13 4.4228307108361096e-14
3.3482140837626964 1.1466962535402945e-20 1.0191334248156121e-12 9.746505920767065e-13 4.44828327389053e-14
3.3513546224236106 1.1544759643661039e-20 1.0270100975157968e-12 9.822716105914756e-13 4.4738486924321085e-14
3.3576445397418455 1.2008404667886689e-20 1.0702604203426215e-12 1.0249873630005302e-12 4.5273057342091574e-14
3.3702598118196083 1.3634814391957565e-20 1.2197815080122917e-12 1.1733872003404494e-12 4.639430767184209e-14
3.382922481734668 1.4074597239153872e-20 1.2638555943156388e-12 1.2163719021262028e-12 4.748369218943629e-14
3.389271646505754 1.430059383530514e-20 1.2865595223494844e-12 1.2385237496890461e-12 4.8035772660437903e-14
3.395632727569191 1.4546745140835242e-20 1.3111608520677414e-12 1.262556126985585e-12 4.8604725082156465e-14
3.421196662673239 1.5715643514104755e-20 1.4271829269102218e-12 1.3762234993115014e-12 5.09594275987205e-14
3.4276182099114902 1.5562036023143598e-20 1.4158860105012072e-12 1.364401585215095e-12 5.1484425286112237e-14
3.4340518103208963 1.4750537130988733e-20 1.3445721495681457e-12 1.2925914080133167e-12 5.198074155482934e-14
3.4469541582030403 1.3602905040304198e-20 1.244619517379924e-12 1.1916866478092693e-12 5.293286957065483e-14
3.472904465399547 1.3399993103499502e-20 1.2352840804829197e-12 1.1801572036507955e-12 5.512687683212418e-14
3.4990501388274233 1.3026665234897778e-20 1.2099094012314685e-12 1.1525384860334071e-12 5.737091519806169e-14
3.5253949054701885 1.1358719752089503e-20 1.0629347125989496e-12 1.0033855103051032e-12 5.95492022938461e-14
3.5519380250092896 9.77751295901338e-21 9.218562676843074e-13 8.60119141809872e-13 6.173712587443573e-14
3.578680990867387 9.251044225311934e-21 8.787860952993599e-13 8.146511564905407e-13 6.413493880881927e-14
3.605625307711299 9.140528082924722e-21 8.748252583869553e-13 8.081658939444848e-13 6.665936444247043e-14
3.660119384959845 9.279420218903948e-21 9.01541092149071e-13 8.295823821328875e-13 7.195871001618338e-14
3.715437065384467 9.479771830097635e-21 9.349259767625909e-13 8.573870456104396e-13 7.753893115215128e-14
3.8285932144167436 1.0118133537730015e-20 1.0282744982518283e-12 9.387648155056146e-13 8.950968274621374e-14
3.94519561050918 1.0838492470164008e-20 1.1350287298334697e-12 1.0324997183618462e-12 1.0252901147162367e-13
4.06534921144712 1.1602239048642895e-20 1.252013753127613e-12 1.1354409585027537e-12 1.1657279462485936e-13
4.189162171576248 1.2395074643670265e-20 1.3783063362751294e-12 1.2466488057172265e-12 1.3165753055790315e-13
4.316745939156006 1.3207645574077775e-20 1.51339163216813e-12 1.3656760829955571e-12 1.4771554917257322e-13
4.448215356677963 1.403147051661231e-20 1.6567555197573082e-12 1.4922448617433027e-12 1.645106580140056e-13
4.58368876423945 1.4861470936389825e-20 1.808199524090429e-12 1.6261479387934634e-12 1.820515852969654e-13
4.723288106065518 1.5693991198013178e-20 1.967647394262442e-12 1.7672109456204024e-12 2.0043644864203878e-13
4.867139040275056 1.6521611149193505e-20 2.1344971657196727e-12 1.9153413697397313e-12 2.1915579597994147e-13
4.940699165968905 1.6935672397527563e-20 2.2210599864053147e-12 1.9923649302266185e-12 2.286950561786958e-13
5.015371051989984 1.7344197728641886e-20 2.3090148071412934e-12 2.070692621180916e-12 2.3832218596037726e-13
5.091171501069577 1.7758329905240584e-20 2.399878637037978e-12 2.151630428800302e-12 2.482482082376762e-13
5.129500256944802 1.7962705243056846e-20 2.445773484830916e-12 2.192540664035767e-12 2.5323282079514897e-13
5.168117569889187 1.8166426226174314e-20 2.492133582213432e-12 2.2338518190160333e-12 2.582817631973985e-13
5.20702561229733 1.837910105560377e-20 2.540290667032853e-12 2.276485890896261e-12 2.6380477613659173e-13
5.246226572918644 1.8590011828032647e-20 2.5887859446965776e-12 2.3194297990187782e-12 2.693561456777989e-13
5.265937586045735 1.869477901993943e-20 2.613156838888363e-12 2.3410151572284928e-12 2.721416816598706e-13
5.285722656980489 1.8799073459058353e-20 2.6376079907057625e-12 2.362674628293539e-12 2.749333624122228e-13
5.305582063971359 1.8902884853343028e-20 2.662137960538443e-12 2.3844070928385464e-12 2.77730867699896e-13
5.3255160863122235 1.9007849330419976e-20 2.686978025346048e-12 2.4064209096007617e-12 2.8055711574528523e-13
5.365609099470188 1.9228987025089262e-20 2.738702569680074e-12 2.452297339495392e-12 2.8640523018468155e-13
5.406003951863644 1.9448672724901732e-20 2.7908452771744006e-12 2.4985637594514218e-12 2.9228151772298056e-13
5.446702915881641 1.9666864218527755e-20 2.8434018409876003e-12 2.5452184256142125e-12 2.9818341537338715e-13
5.487708281020852 1.9886562353939464e-20 2.8968110346083275e-12 2.5926763226876107e-12 3.0413471192071667e-13
5.529022354014368 2.0131617558169977e-20 2.954584739379756e-12 2.64424657015739e-12 3.1033816922236554e-13
5.570647458961463 2.0376857627135403e-20 3.0130914902800935e-12 2.6965212430503324e-12 3.165702472297605e-13
5.612585937458331 2.0622406883105472e-20 3.072357777771633e-12 2.7495294429654872e-12 3.2282833480614583e-13
5.654840148729818 2.0872934324219154e-20 3.133092900164849e-12 2.8039506927149363e-12 3.2914220744991344e-13
5.67608639626678 2.101840658715107e-20 3.1667823755477706e-12 2.834334214250904e-12 3.324481612968671e-13
5.686739436050992 2.1091565175751953e-20 3.183769162370836e-12 2.8496650214222923e-12 3.3410414094854533e-13
5.6974124697621304 2.1165018247699664e-20 3.2008530924715124e-12 2.8650910250861407e-12 3.357620673853713e-13
5.718818669136295 2.1312848111947226e-20 3.2353200504381085e-12 2.8962364558896344e-12 3.39083594548475e-13
5.740305295436557 2.1467589705219972e-20 3.271053973139821e-12 2.928615615799937e-12 3.4243835733988453e-13
5.7835210386641895 2.1827498441204057e-20 3.3509328011355765e-12 3.001561951741016e-12 3.4937084939455967e-13
5.827062130521658 2.2211394341735166e-20 3.435539169797704e-12 3.0791376785075516e-12 3.5640149129015184e-13
5.8489554468988025 2.245704764070839e-20 3.486586197760702e-12 3.1263792917209256e-12 3.6020690603977624e-13
5.870931020387893 2.2710987453980373e-20 3.5392596768230045e-12 3.175233621646326e-12 3.640260551766799e-13
5.892989160043636 2.2973900320688967e-20 3.5936833516180933e-12 3.2258247358941815e-12 3.678586157239116e-13
5.915130176081913 2.3262127390625557e-20 3.652440665678311e-12 3.2806064606068296e-12 3.7183420507148144e-13
5.95966208400165 2.4023267342566826e-20 3.800346040639468e-12 3.4193991950982183e-12 3.8094684554124967e-13
6.004529249263818 2.505241556470362e-20 3.992987998249839e-12 3.6017566518299564e-12 3.9123134641988437e-13
6.027089341400364 2.5742910288467625e-20 4.1184586074460826e-12 3.721257986880517e-12 3.9720062056556614e-13
6.049734195844842 2.6535389061734496e-20 4.261192818058496e-12 3.857663403245949e-12 4.035294148125471e-13
6.095279466722835 2.876421817117747e-20 4.653884811764832e-12 4.234707114469908e-12 4.191776972949245e-13
6.141167624020661 3.207616590269879e-20 5.2288096950382165e-12 4.789208605687037e-12 4.396010893511783e-13
6.164241091010745 3.417311622461613e-20 5.5915682840595446e-12 5.1390939322727754e-12 4.5247435178676796e-13
6.187401249150058 3.649601153199539e-20 5.994088059095838e-12 5.528404980072649e-12 4.656830790231875e-13
6.1990139391386085 3.7623370999995307e-20 6.1908424390707115e-12 5.718440295076451e-12 4.724021439942612e-13
6.204828454712694 3.8211618051808497e-20 6.293534831582762e-12 5.8177400376909505e-12 4.757947938918131e-13
6.210648424152782 3.86399391691625e-20 6.3700495748577646e-12 5.891376579487899e-12 4.786729953698636e-13
6.233982942956859 4.007198717293585e-20 6.63095258332106e-12 6.142297092398991e-12 4.886554909220694e-13
6.239830258556775 4.0243022548329416e-20 6.665501044643976e-12 6.175499701608437e-12 4.900013430355401e-13
6.245683058788269 4.0245378543881574e-20 6.672143705567488e-12 6.180794748476628e-12 4.913489570908603e-13
6.257405133728602 4.0176202646834056e-20 6.673176214197351e-12 6.179491503408642e-12 4.936847107887109e-13
6.269149208991335 3.985765733830119e-20 6.632691664192691e-12 6.138259980502241e-12 4.944316836904483e-13
6.280915325867298 3.910676156915374e-20 6.5199493990191306e-12 6.0267339552236585e-12 4.932154437954726e-13
6.304513850009849 3.7274532765721513e-20 6.237825831288832e-12 5.748817144187733e-12 4.890086871011004e-13
6.32820103803542 3.505516796644989e-20 5.888460322593749e-12 5.40554598598281e-12 4.829143366109385e-13
6.3519772230701035 3.304030504406304e-20 5.570862168076466e-12 5.093439646609252e-12 4.774225214672138e-13
6.375842739491607 3.133212776288852e-20 5.302698300918863e-12 4.830148547806368e-12 4.725497531124927e-13
6.399797922933955 3.000810817777342e-20 5.097700437816771e-12 4.627788486110445e-12 4.699119517063246e-13
6.42384311029221 2.8899121148246997e-20 4.927753717925988e-12 4.460033360153098e-12 4.67720357772891e-13
6.447978639727206 2.8115210747318433e-20 4.8120969264273005e-12 4.344828105630828e-12 4.672688207964735e-13
6.472204850670314 2.7461196613193925e-20 4.71781758924374e-12 4.2506559976372286e-12 4.671615916065109e-13
