Dust emission spectrum from A.P. Jones, M. Kohler, N. Ysard, M. Bocchio, and L. Verstraete (2017), A&A, 602A, 46J 
inside the DustPedia framework.

lambda    nu*dP/dnu     j_nu    j_nu(carb.) j_nu(sil)
 (um)   (erg s-1 H-1) (Jy cm2 sr-1 H-1)
0.9927057738263894 1.5161268172572878e-21 3.995080277757012e-14 3.995080103990914e-14 1.7376609759185074e-21
1.0001793341362166 1.5416375980739378e-21 4.092885576826341e-14 4.0928853676970225e-14 2.091293179995042e-21
1.0077091589558085 1.5672448225653387e-21 4.192195067906122e-14 4.1921948165512745e-14 2.5135484796523657e-21
1.0114953028030835 1.5800833434666464e-21 4.2424164524156046e-14 4.242416176988586e-14 2.7542701755378475e-21
1.0152956718711033 1.5929444854486623e-21 4.293017003982314e-14 4.293016702278298e-14 3.017040158612979e-21
1.0229392996569957 1.6187202137133446e-21 4.395325946937852e-14 4.395325585276958e-14 3.616608944150279e-21
1.0267826658714554 1.6316054741133612e-21 4.4469588947229267e-14 4.4469584989370066e-14 3.9578591925071195e-21
1.0306404723013447 1.6445108616847186e-21 4.498972847756841e-14 4.4989724147702585e-14 4.329865836474783e-21
1.03451277320114 1.6574359438620496e-21 4.551368959222268e-14 4.551368485696218e-14 4.735260508119638e-21
1.0383996230291617 1.6703802999709824e-21 4.6041484102160507e-14 4.6041478925273425e-14 5.176887088956713e-21
1.0403485208654093 1.6768595776167461e-21 4.630682265098915e-14 4.6306817238751157e-14 5.4122380089081396e-21
1.0423010764483396 1.683343521537812e-21 4.657312411121507e-14 4.657311845339737e-14 5.65781770458015e-21
1.0462171883269815 1.6963252125973256e-21 4.710862203000917e-14 4.710861584863934e-14 6.1813698324715375e-21
1.0471985131304309 1.6995734760340278e-21 4.724310079282643e-14 4.7243094473495357e-14 6.319331071607954e-21
1.048180758391296 1.7028228639433074e-21 4.7377821671237955e-14 4.737781521100072e-14 6.460237239571673e-21
1.0501480137395462 1.7093249899986283e-21 4.764799059007988e-14 4.764798383895528e-14 6.751124593369248e-21
1.0521189612883777 1.7158315449214908e-21 4.791913043046967e-14 4.791912337594573e-14 7.054523935280062e-21
1.0531058218030118 1.7190821366905293e-21 4.8054943858136544e-14 4.805493664705155e-14 7.211085017941495e-21
1.0540936079674168 1.7223196252015216e-21 4.8190603275836215e-14 4.819059590483344e-14 7.371002774115878e-21
1.058054026499678 1.735279798484288e-21 4.8735652860495505e-14 4.873564481522981e-14 8.045265682974511e-21
1.0590464539527713 1.7385223701520074e-21 4.887251929128041e-14 4.887251106844967e-14 8.222830743511883e-21
1.06003981227728 1.7417659427659442e-21 4.900962776354688e-14 4.90096193594061e-14 8.404140774658246e-21
1.0620293250338977 1.7482560704914326e-21 4.9284571699825314e-14 4.928456292152801e-14 8.778297293317041e-21
1.0660195594769086 1.7612481166923515e-21 4.983737369667333e-14 4.9837364121725555e-14 9.574947789048538e-21
1.070024785945596 1.7742556270152237e-21 5.039407315181148e-14 5.039406271136792e-14 1.0440443553121374e-20
1.0740450607676866 1.7872783061361733e-21 5.0954684779237713e-14 5.0954673398823383e-14 1.1380414332557248e-20
1.07808044048254 1.8003158737654574e-21 5.1519223721659125e-14 5.1519211320736904e-14 1.2400922206399073e-20
1.0861967418109137 1.8264145715868268e-21 5.2659568024246645e-14 5.265955331409845e-14 1.4710148189391006e-20
1.0902777775684922 1.839429611134234e-21 5.3234081696072966e-14 5.323406568262842e-14 1.601344457571232e-20
1.0943741465085532 1.8524577841068262e-21 5.381255062265531e-14 5.381253319615607e-14 1.7426499241602702e-20
1.1026131145906286 1.8785527587334636e-21 5.4981423958072654e-14 5.498140334062144e-14 2.061745119329765e-20
1.1109141095355224 1.904698121962638e-21 5.616633285096199e-14 5.616630849004524e-14 2.4360916753970122e-20
1.1192775983109025 1.930872178194987e-21 5.736681910187551e-14 5.736679035515163e-14 2.874672387043108e-20
1.1277040513999907 1.9569794294552917e-21 5.858019788277864e-14 5.858016400448507e-14 3.3878293557913864e-20
1.1361939428280308 1.983131578035035e-21 5.980994908770596e-14 5.980990921317418e-14 3.9874531769460254e-20
1.1447477501889525 2.009328435987868e-21 6.105625494671568e-14 6.105620807475195e-14 4.687196373150262e-20
1.1533659546722406 2.035579619419771e-21 6.231959964914488e-14 6.231954462193415e-14 5.502721072075108e-20
1.1707974979042381 2.088324737409668e-21 6.490068067269759e-14 6.490060511777872e-14 7.555491884814217e-20
1.1884924949847024 2.1412915408495307e-21 6.755253917553798e-14 6.755243595476147e-14 1.0322077651068477e-19
1.2064549276569216 2.1948400073890287e-21 7.028835874662779e-14 7.028821842585235e-14 1.4032077543511356e-19
1.2246888378427687 2.24861638870494e-21 7.309885330256834e-14 7.309866348193415e-14 1.898206341796953e-19
1.2431983285522175 2.302575222737428e-21 7.598426688760215e-14 7.598401134997413e-14 2.5553762800736314e-19
1.2619875648066055 2.3567930892402166e-21 7.894887841949873e-14 7.894853605941373e-14 3.4236008498401116e-19
1.3004222497298317 2.4656613647898126e-21 8.511130600583513e-14 8.511070013390621e-14 6.058719289408695e-19
1.3400274889804893 2.5755399929991388e-21 9.161180468525498e-14 9.161075213564316e-14 1.0525496118172732e-18
1.3808389325824078 2.6868290866667894e-21 9.848101083166011e-14 9.847921497258333e-14 1.7958590767946883e-18
1.4228933163050095 2.8004778727739194e-21 1.0577277976422893e-13 1.0576976894304602e-13 3.0108211829548486e-18
1.466228494730424 2.918510039645314e-21 1.1358795481476479e-13 1.1358299234448937e-13 4.962470275442149e-18
1.5108834753276823 3.0406934052531153e-21 1.2194753794350524e-13 1.2193949338036893e-13 8.044563136363985e-18
1.5568984535646726 3.1669447517221222e-21 1.3087907211855598e-13 1.3086623236712317e-13 1.2839751432770623e-17
1.6043148490894465 3.298060249439615e-21 1.4044866691898271e-13 1.4042845202477535e-13 2.0214894207390116e-17
1.6531753430134553 3.434892821230659e-21 1.5073063979834692e-13 1.5069928294356962e-13 3.1356854777357665e-17
1.7035239163302658 3.5784538051918895e-21 1.6181287841192074e-13 1.6176494469753644e-13 4.7933714384303086e-17
1.755405889504358 3.731548490814379e-21 1.7387457190676455e-13 1.7380232593221638e-13 7.224597454814999e-17
1.8088679632656115 3.8942692438236755e-21 1.869830651734392e-13 1.868756655092065e-13 1.0739966423266345e-16
1.8639582606462262 4.066663354498975e-21 2.0120734865300026e-13 2.0104981246476556e-13 1.5753618823463617e-16
1.9207263702978936 4.2493752985805914e-21 2.166506623339315e-13 2.164225714136934e-13 2.280909202381324e-16
1.979223391128241 4.4433271454737304e-21 2.334385290088716e-13 2.3311242810277996e-13 3.261009060916052e-16
2.039501978296691 4.6493606207513295e-21 2.5170207559629545e-13 2.512415377140845e-13 4.605378822109108e-16
2.1016163906111602 4.869754859412007e-21 2.7166267924540575e-13 2.710199538884193e-13 6.427253569864806e-16
2.1656225393682647 5.1057172683433345e-21 2.935005758990542e-13 2.9261387007932707e-13 8.86705819727187e-16
2.231578038680979 5.356900854724844e-21 3.173183010665377e-13 3.161086482281375e-13 1.2096528384001732e-15
2.299542257339062 5.623726159699076e-21 3.4326932253205694e-13 3.41637024104135e-13 1.6322984279219006e-15
2.369576372248914 5.90717359288223e-21 3.715522343780514e-13 3.693728495488214e-13 2.1793848292299367e-15
2.4417434235010123 6.208396412840472e-21 4.023915933985179e-13 3.995115971564123e-13 2.8799962421054703e-15
2.5161083711144245 6.529664414335956e-21 4.361035655057755e-13 4.323355651967734e-13 3.768000309002002e-15
2.5927381535095444 6.874695038986868e-21 4.731311361046815e-13 4.68248839492458e-13 4.8822966122235704e-15
2.6717017477616296 7.246777284125662e-21 5.139280499550912e-13 5.076613307428959e-13 6.266719212195366e-15
2.753070231689431 7.65070064212672e-21 5.590979922974443e-13 5.511279281363653e-13 7.970064161078916e-15
2.836916847834745 8.099156780415444e-21 6.098960848805488e-13 5.998497954632629e-13 1.0046289417285788e-14
2.9233170693905177 8.619845925464748e-21 6.688748377553766e-13 6.563231672101268e-13 1.2551670545249722e-14
2.967498994190263 8.933166251330751e-21 7.036641575817464e-13 6.897073095693048e-13 1.3956848012441473e-14
3.0123486681368425 9.268734347346674e-21 7.411312169169857e-13 7.256321667910739e-13 1.549905012591213e-14
3.0578761833420214 9.790749576042298e-21 7.947037675449453e-13 7.775094324693083e-13 1.7194335075637e-14
3.1040917844459814 1.0396975995016986e-20 8.566650098489961e-13 8.376277517841605e-13 1.9037258064835425e-14
3.127460860933648 1.093437941594405e-20 9.077274230398166e-13 8.877041783022397e-13 2.002324473757672e-14
3.1510058709225794 1.1609920953596797e-20 9.710641214286805e-13 9.500136790022334e-13 2.1050442426447403e-14
3.162844764501044 1.2206936585518225e-20 1.0248351165407465e-12 1.0032533098334568e-12 2.158180670728944e-14
3.1747281389236908 1.2881172899937766e-20 1.0855038898249823e-12 1.0633800643643717e-12 2.2123825460610733e-14
3.1986289994194426 1.469669061559824e-20 1.2478226232070508e-12 1.2245794515326355e-12 2.3243171674415134e-14
3.2227097969389145 1.8852782039386713e-20 1.612746391963783e-12 1.5883176842351094e-12 2.4428707728673897e-14
3.2348180950136065 2.2736728465123133e-20 1.9523032267976698e-12 1.927241991552276e-12 2.5061235245393658e-14
3.240889293275058 2.5633228630980854e-20 2.205143925341374e-12 2.1797490476076775e-12 2.539487773369632e-14
3.2469718861334385 2.8988189747451575e-20 2.4984407619066797e-12 2.472700662748841e-12 2.574009915783936e-14
3.2714166318528037 4.6594217123758116e-20 4.046106495815369e-12 4.018940224639522e-12 2.7166271175845936e-14
3.2744851364798273 4.769768674524184e-20 4.145813615490075e-12 4.118479397929917e-12 2.7334217560158226e-14
3.2775565192852394 4.883065037732375e-20 4.24827020195115e-12 4.220767210101609e-12 2.7502991849542463e-14
3.283707930232385 4.7760551202898884e-20 4.162970038065271e-12 4.1351654735116345e-12 2.7804564553636276e-14
3.2898708863219004 4.4332451268385405e-20 3.871417710110703e-12 3.843338927653484e-12 2.8078782457218764e-14
3.29141343181113 4.352248448788323e-20 3.802467837347181e-12 3.774320203277559e-12 2.8147634069622057e-14
3.292184975758714 4.312426599814124e-20 3.768559511580422e-12 3.740377407085834e-12 2.8182104494588802e-14
3.295272960557952 4.063645402705128e-20 3.554484557874235e-12 3.526168413401168e-12 2.8316144473066243e-14
3.3076538914384823 3.195802356781759e-20 2.805882012664247e-12 2.7770276152778795e-12 2.885439738636669e-14
3.310756385682612 3.0175058249161084e-20 2.6518244807208107e-12 2.622834436287215e-12 2.8990044433595405e-14
3.313861789986515 2.8523497654038264e-20 2.5090343307900352e-12 2.4799082051351553e-12 2.9126125654879187e-14
3.3200813396944477 2.6220250831116205e-20 2.3107608386106316e-12 2.281341909393001e-12 2.941892921763085e-14
3.345076488085796 2.2222733108511934e-20 1.973208403093703e-12 1.942484345683501e-12 3.072405741020182e-14
3.3482140837626964 2.2393185596948263e-20 1.9902082926921825e-12 1.959307424081274e-12 3.090086861090902e-14
3.3513546224236106 2.2565165660345975e-20 2.007374228706156e-12 1.9762957649218555e-12 3.107846378430091e-14
3.3576445397418455 2.3741470477050323e-20 2.115981004560162e-12 2.0845311909938135e-12 3.144981356634819e-14
3.3702598118196083 2.7985115923451924e-20 2.5035710734090956e-12 2.4713423614006907e-12 3.222871200840515e-14
3.382922481734668 2.901728538313838e-20 2.605663085072947e-12 2.572677610831304e-12 3.298547424164262e-14
3.389271646505754 2.9549219972800284e-20 2.6584092081652058e-12 2.625040220441029e-12 3.336898772417698e-14
3.395632727569191 3.0132906910517246e-20 2.7160088059261343e-12 2.6822445842893113e-12 3.376422163682276e-14
3.421196662673239 3.295327926792299e-20 2.992582360033468e-12 2.95718239830097e-12 3.5399961732497784e-14
3.4276182099114902 3.246534847948015e-20 2.953805830405539e-12 2.918041168775126e-12 3.576466163041224e-14
3.4340518103208963 3.020601678649022e-20 2.753402710683545e-12 2.717293273262911e-12 3.6109437420634844e-14
3.4469541582030403 2.697195260319703e-20 2.4678418714473776e-12 2.431071019703373e-12 3.677085174400455e-14
3.472904465399547 2.612233425027996e-20 2.408098526259496e-12 2.3698035645174962e-12 3.829496174200046e-14
3.4990501388274233 2.4808923948411293e-20 2.3042390188401036e-12 2.264385192016171e-12 3.9853826823932065e-14
3.5253949054701885 2.0006792440632657e-20 1.8722104812031054e-12 1.83084346470131e-12 4.136701650179514e-14
3.5519380250092896 1.5439837622907578e-20 1.4557189690640487e-12 1.412832068711996e-12 4.288690035205255e-14
3.578680990867387 1.369594478041479e-20 1.3010213270935398e-12 1.2564687391520294e-12 4.455258794151052e-14
3.605625307711299 1.3063364713823981e-20 1.2502736502197142e-12 1.2039674207041834e-12 4.6306229515530596e-14
3.660119384959845 1.2751570081067697e-20 1.2388774456060863e-12 1.1888899221798807e-12 4.9987523426205506e-14
3.715437065384467 1.2586551492103533e-20 1.2413267068798577e-12 1.187462773847561e-12 5.386393303229701e-14
3.8285932144167436 1.2841100125773853e-20 1.3050011387568553e-12 1.2428214893147323e-12 6.217964944212315e-14
3.94519561050918 1.3249015360945967e-20 1.3874635349957556e-12 1.3162397545586668e-12 7.122378043708879e-14
4.06534921144712 1.3714723274019594e-20 1.4799748641121457e-12 1.398995295402193e-12 8.097956870995266e-14
4.189162171576248 1.4208826686159145e-20 1.5799917641132742e-12 1.4885332889501954e-12 9.145847516307899e-14
4.316745939156006 1.4717636750169546e-20 1.6864132352788392e-12 1.5837997438379383e-12 1.0261349144090119e-13
4.448215356677963 1.5233338241291416e-20 1.7986651638336592e-12 1.6843846219925266e-12 1.1428054184113317e-13
4.58368876423945 1.5753165361671534e-20 1.9166922461318547e-12 1.7902265565434005e-12 1.2646568958845462e-13
4.723288106065518 1.6277406305063156e-20 2.0407935557886154e-12 1.901556461784392e-12 1.3923709400422388e-13
4.867139040275056 1.6805750237357602e-20 2.171206302188245e-12 2.0189654479307734e-12 1.5224085425747198e-13
4.940699165968905 1.707893712408638e-20 2.2398487031538475e-12 2.0809812154797273e-12 1.5886748767411972e-13
5.015371051989984 1.7346587453258028e-20 2.3093329486667758e-12 2.1437777872544234e-12 1.6555516141235235e-13
5.091171501069577 1.7634030622072348e-20 2.3830807063842325e-12 2.210630239724098e-12 1.7245046666013384e-13
5.129500256944802 1.7775279470602646e-20 2.4202538886208957e-12 2.2443407634895877e-12 1.7591312513130757e-13
5.168117569889187 1.7917201169559833e-20 2.4579440214608005e-12 2.278523549875305e-12 1.7942047158549522e-13
5.20702561229733 1.8077906704052462e-20 2.498660709294766e-12 2.3154035688971386e-12 1.8325714039762833e-13
5.246226572918644 1.8237516211677164e-20 2.5396985258380173e-12 2.3525850181609855e-12 1.8711350767703186e-13
5.265937586045735 1.8316907307002968e-20 2.560337918171023e-12 2.3712893835179e-12 1.8904853465312307e-13
5.285722656980489 1.8396021623374568e-20 2.5810577173753547e-12 2.3900698871614958e-12 1.9098783021385986e-13
5.305582063971359 1.8474858666681677e-20 2.6018580208119846e-12 2.408926848910213e-12 1.9293117190177153e-13
5.3255160863122235 1.8557048755559008e-20 2.6232521814902548e-12 2.4283577011825737e-12 1.948944803076805e-13
5.365609099470188 1.8748736579621674e-20 2.6703025480161154e-12 2.4713455607901084e-12 1.9895698722600593e-13
5.406003951863644 1.8940866194779454e-20 2.7179760651538037e-12 2.514937000016278e-12 2.0303906513752564e-13
5.446702915881641 1.913353766594948e-20 2.7662943934251158e-12 2.5591554598117284e-12 2.0713893361338762e-13
5.487708281020852 1.933374275506622e-20 2.816283596750445e-12 2.605010478752867e-12 2.1127311799757894e-13
5.529022354014368 1.9595974311278442e-20 2.87597191264367e-12 2.660389441869107e-12 2.1558247077456354e-13
5.570647458961463 1.9863678537737833e-20 2.9372085658592844e-12 2.7172968603757913e-12 2.1991170548349394e-13
5.612585937458331 2.0137400048743053e-20 3.000100716397942e-12 2.7758417081507395e-12 2.2425900824720252e-13
5.654840148729818 2.042808374501599e-20 3.0663194331627296e-12 2.8376743699655567e-12 2.2864506319717216e-13
5.67608639626678 2.0622017212150964e-20 3.1070595377865066e-12 2.876117929180224e-12 2.3094160860628223e-13
5.686739436050992 2.0720631888796753e-20 3.127776828446631e-12 2.8956848612320404e-12 2.3209196721459057e-13
5.6974124697621304 2.0820384348357862e-20 3.1487330106663096e-12 2.9154893324711116e-12 2.332436781951986e-13
5.718818669136295 2.1023424694585368e-20 3.1913851722679665e-12 2.9558341303556405e-12 2.35551041912327e-13
5.740305295436557 2.1244300848185382e-20 3.2370310617189244e-12 2.999149568311274e-12 2.3788149340764946e-13
5.7835210386641895 2.1809388469889394e-20 3.348152578882009e-12 3.1054552944698445e-12 2.4269728441216367e-13
5.827062130521658 2.244045465048995e-20 3.4709689879741497e-12 3.223387730854118e-12 2.475812571200319e-13
5.8489554468988025 2.2883745546814106e-20 3.552833509243657e-12 3.302608746444868e-12 2.502247627987891e-13
5.870931020387893 2.3350787952573163e-20 3.6389656059671764e-12 3.386087796629456e-12 2.5287780933771904e-13
5.892989160043636 2.384347457075306e-20 3.729706162800788e-12 3.4741659904262217e-12 2.555401723745663e-13
5.915130176081913 2.4398980208874792e-20 3.830940567881488e-12 3.572638674720681e-12 2.5830189316080694e-13
5.95966208400165 2.595234556329811e-20 4.1055153864115925e-12 3.840883219573319e-12 2.646321668382741e-13
6.004529249263818 2.8162616643119145e-20 4.488708482615188e-12 4.216931986381405e-12 2.7177649623378253e-13
6.027089341400364 2.969359736486865e-20 4.750506072662895e-12 4.474582903562746e-12 2.759231691001493e-13
6.049734195844842 3.1481770916909533e-20 5.0555089212673115e-12 4.775189331641667e-12 2.8031958962564417e-13
6.095279466722835 3.6627142876539796e-20 5.926060736887091e-12 5.634870762226227e-12 2.911899746608635e-13
6.141167624020661 4.445195678522535e-20 7.246215875895881e-12 6.940838393082601e-12 3.0537748281328156e-13
6.164241091010745 4.943516685219661e-20 8.08881780845081e-12 7.774497662478567e-12 3.1432014597224384e-13
6.187401249150058 5.502872755703304e-20 9.037892769944983e-12 8.714396923641227e-12 3.234958463037581e-13
6.1990139391386085 5.774534123083139e-20 9.50186811145911e-12 9.173704735455044e-12 3.2816337600406475e-13
6.204828454712694 5.916934023021729e-20 9.745316285632121e-12 9.414796139121198e-12 3.305201465109228e-13
6.210648424152782 6.019965860327305e-20 9.924311940904995e-12 9.591792395528375e-12 3.32519545376619e-13
6.233982942956859 6.364953178041003e-20 1.0532470610080908e-11 1.0193016529219561e-11 3.394540808613484e-13
6.239830258556775 6.406191407513951e-20 1.0610653180360107e-11 1.0270264177044935e-11 3.403890033151706e-13
6.245683058788269 6.405458748120341e-20 1.0619391049072572e-11 1.02780658993363e-11 3.4132514973627504e-13
6.257405133728602 6.386029306692083e-20 1.0607049961189635e-11 1.0264102234532249e-11 3.429477266573864e-13
6.269149208991335 6.305705500894117e-20 1.0493291152975983e-11 1.0149824527004811e-11 3.4346662597117377e-13
6.280915325867298 6.119178736177114e-20 1.0202004492976983e-11 9.859382751800807e-12 3.4262174117617795e-13
6.304513850009849 5.66540738609865e-20 9.480957081313167e-12 9.14125764582828e-12 3.3969943548488714e-13
6.32820103803542 5.112937371866408e-20 8.58855643623126e-12 8.253090560329391e-12 3.3546587590186847e-13
6.3519772230701035 4.6092376145183185e-20 7.77154672638504e-12 7.439895847120068e-12 3.3165087926497207e-13
6.375842739491607 4.184098340677219e-20 7.081233464222632e-12 6.752967548653655e-12 3.282659155689787e-13
6.399797922933955 3.8473424891207855e-20 6.535766725124269e-12 6.209333209812323e-12 3.2643351531194547e-13
6.42384311029221 3.566012125483945e-20 6.080610347760904e-12 5.755699265971467e-12 3.2491108178943555e-13
6.447978639727206 3.362059776044637e-20 5.754378887703103e-12 5.429781474889165e-12 3.245974128139391e-13
6.472204850670314 3.19135677163084e-20 5.482732352427139e-12 5.158209428461081e-12 3.245229239660584e-13
6.496522083828205 3.080302818625704e-20 5.31182508309378e-12 4.9863989921469776e-12 3.25426090946801e-13
6.520930681187647 2.9862410238204314e-20 5.168968362198951e-12 4.842492846970253e-12 3.2647551522869766e-13
