Dust emission spectrum from A.P. Jones, M. Kohler, N. Ysard, M. Bocchio, and L. Verstraete (2017), A&A, 602A, 46J 
inside the DustPedia framework.

lambda    nu*dP/dnu     j_nu    j_nu(carb.) j_nu(sil)
 (um)   (erg s-1 H-1) (Jy cm2 sr-1 H-1)
0.9927057738263894 1.9359205173273483e-24 5.101260521247774e-17 5.101260521239128e-17 8.646605636775563e-29
1.0001793341362166 1.9676995341942614e-24 5.2240351773292365e-17 5.224035177318818e-17 1.041995084472385e-28
1.0077091589558085 1.999427815183281e-24 5.3482336038128577e-17 5.3482336038003166e-17 1.2541183843135532e-28
1.0114953028030835 2.0152690256812654e-24 5.410860449826796e-17 5.4108604498130425e-17 1.3752098777332776e-28
1.0152956718711033 2.031092880502824e-24 5.473835624729971e-17 5.473835624714895e-17 1.5075153597220273e-28
1.0229392996569957 2.062666732563406e-24 5.600778029900448e-17 5.60077802988235e-17 1.8098342021019487e-28
1.0267826658714554 2.078378233757293e-24 5.664643027891292e-17 5.664643027871472e-17 1.982143326580673e-28
1.0306404723013447 2.094065442182872e-24 5.72884240859022e-17 5.72884240856852e-17 2.1701662414329927e-28
1.03451277320114 2.1097268472225333e-24 5.793373385225497e-17 5.793373385201743e-17 2.375267395442271e-28
1.0383996230291617 2.125360947039807e-24 5.858233137458937e-17 5.858233137432949e-17 2.5989232873321443e-28
1.0403485208654093 2.1331672906379622e-24 5.890785414056883e-17 5.8907854140297e-17 2.718203416448582e-28
1.0423010764483396 2.1409662488662176e-24 5.923418812060289e-17 5.923418812031862e-17 2.8427310984545585e-28
1.0462171883269815 2.1565412692817447e-24 5.988927523582461e-17 5.988927523551376e-17 3.108417943075273e-28
1.0471985131304309 2.1604301199892384e-24 6.005354834830698e-17 6.005354834798914e-17 3.178473815889558e-28
1.048180758391296 2.164316963015439e-24 6.021802107843596e-17 6.021802107811096e-17 3.250043678889744e-28
1.0501480137395462 2.172084534488753e-24 6.054756355037037e-17 6.054756355003056e-17 3.3978507767162796e-28
1.0521189612883777 2.179843801024368e-24 6.087789895721782e-17 6.087789895686259e-17 3.5520961966334895e-28
1.0531058218030118 2.183714259906667e-24 6.104319504130719e-17 6.104319504094401e-17 3.6317213905151505e-28
1.0540936079674168 2.187562906585412e-24 6.120813734550458e-17 6.120813734513328e-17 3.713074282432122e-28
1.058054026499678 2.2029347893498127e-24 6.186982944297403e-17 6.186982944256839e-17 4.056312685151747e-28
1.0590464539527713 2.206771972031844e-24 6.203573081728788e-17 6.20357308168732e-17 4.146762930926577e-28
1.06003981227728 2.2106067948501456e-24 6.220182257963219e-17 6.220182257920828e-17 4.239145512757262e-28
1.0620293250338977 2.218269271918207e-24 6.25345753557948e-17 6.25345753553518e-17 4.429865751031006e-28
1.0660195594769086 2.233564931368982e-24 6.320234446550985e-17 6.320234446502624e-17 4.836276184991675e-28
1.070024785945596 2.248820355949968e-24 6.38731058802797e-17 6.387310587975187e-17 5.278287835111467e-28
1.0740450607676866 2.264034145309181e-24 6.454682844165324e-17 6.454682844107737e-17 5.758860571662749e-28
1.07808044048254 2.279204910719065e-24 6.522348073132486e-17 6.522348073069674e-17 6.281186183973449e-28
1.0861967418109137 2.3093848662040025e-24 6.658466886320177e-17 6.658466886245524e-17 7.465126867398538e-28
1.0902777775684922 2.3243299275886178e-24 6.72673575030593e-17 6.726735750224585e-17 8.134446480100256e-28
1.0943741465085532 2.3392254650323268e-24 6.795279754002606e-17 6.795279753913998e-17 8.860963134379917e-28
1.1026131145906286 2.3688627028628108e-24 6.933180021644819e-17 6.933180021539772e-17 1.0504460722207983e-27
1.1109141095355224 2.398286180800499e-24 7.072141162395995e-17 7.072141162271628e-17 1.2437042463742371e-27
1.1192775983109025 2.4274581820198535e-24 7.212054530480577e-17 7.21205453033351e-17 1.470661175808916e-27
1.1277040513999907 2.456242290680847e-24 7.352512615637622e-17 7.352512615463939e-17 1.7368493296506586e-27
1.1361939428280308 2.4847788553930126e-24 7.493930230414539e-17 7.493930230209673e-17 2.048648679251989e-27
1.1447477501889525 2.5130584373163035e-24 7.636279559709847e-17 7.636279559468506e-17 2.4134078862773786e-27
1.1533659546722406 2.5410873951015397e-24 7.779580205335116e-17 7.779580205051156e-17 2.839584094795785e-27
1.1707974979042381 2.596485603788673e-24 8.069323703542742e-17 8.069323703151091e-17 3.916514386850115e-27
1.1884924949847024 2.6507627666852453e-24 8.36251170032271e-17 8.362511699785166e-17 5.375448955544638e-27
1.2064549276569216 2.7043486131961727e-24 8.660504859595723e-17 8.660504858861499e-17 7.342243018364e-27
1.2246888378427687 2.7566536032247243e-24 8.9614314989573e-17 8.961431497959244e-17 9.980566747689609e-27
1.2431983285522175 2.8075559359442993e-24 9.264847351438309e-17 9.26484735008805e-17 1.3502554752558557e-26
1.2619875648066055 2.857037620354432e-24 9.570628697066151e-17 9.570628695247975e-17 1.8181750922752293e-26
1.3004222497298317 2.9509152921758973e-24 1.0186161733977254e-16 1.0186161730726094e-16 3.2511608942075865e-26
1.3400274889804893 3.037928342944795e-24 1.0805893084874024e-16 1.0805893079165015e-16 5.709009603208786e-26
1.3808389325824078 3.117763937551788e-24 1.14276172469721e-16 1.142761723712289e-16 9.84920677483337e-26
1.4228933163050095 3.190828601688269e-24 1.2051614984462414e-16 1.2051614967760277e-16 1.6702136932641812e-25
1.466228494730424 3.2589136801359986e-24 1.2683641132496968e-16 1.2683641104642854e-16 2.785411353153823e-25
1.5108834753276823 3.320692475377482e-24 1.3317694935642443e-16 1.3317694889939424e-16 4.570301673168707e-25
1.5568984535646726 3.375095955861567e-24 1.3948125453532109e-16 1.394812537967591e-16 7.385619711381215e-25
1.6043148490894465 3.422238981433067e-24 1.4573684725805728e-16 1.4573684608044663e-16 1.1776106327192373e-24
1.6531753430134553 3.4622809101482035e-24 1.5193248928252283e-16 1.5193248743195035e-16 1.850572448385451e-24
1.7035239163302658 3.4957175464164355e-24 1.5807165583079766e-16 1.5807165296391815e-16 2.8668795197873892e-24
1.755405889504358 3.525345357606626e-24 1.6426636726984531e-16 1.642663628892496e-16 4.380595701909766e-24
1.8088679632656115 3.550490866991085e-24 1.704765704716522e-16 1.7047656386721094e-16 6.6044413075233554e-24
1.8639582606462262 3.570703731704601e-24 1.766686268453544e-16 1.7666861701666758e-16 9.828686926936173e-24
1.9207263702978936 3.586335389340388e-24 1.8284615569534345e-16 1.8284614125154797e-16 1.4443795434074336e-23
1.979223391128241 3.598185602198511e-24 1.8903743221647667e-16 1.8903741124798215e-16 2.0968494529515972e-23
2.039501978296691 3.6072081281177146e-24 1.9528314687027535e-16 1.9528311678766373e-16 3.0082611626481826e-23
2.1016163906111602 3.6160477644493185e-24 2.0172375249465312e-16 2.0172370982558155e-16 4.266907157004466e-23
2.1656225393682647 3.626244549901274e-24 2.084535448811032e-16 2.0845348502365365e-16 5.985744951762952e-23
2.231578038680979 3.6379220473279496e-24 2.1549386012108674e-16 2.1549377704526146e-16 8.307582523153665e-23
2.299542257339062 3.652007883794655e-24 2.2291666353452086e-16 2.2291654942416606e-16 1.1411035482896834e-22
2.369576372248914 3.6705356837903885e-24 2.3087111174792204e-16 2.3087095657339665e-16 1.551745253928933e-22
2.4417434235010123 3.6959050239190345e-24 2.3954673843771868e-16 2.395465294586259e-16 2.0897909272773535e-22
2.5161083711144245 3.732215965473862e-24 2.492674334391894e-16 2.4926715461871027e-16 2.788204791935367e-22
2.5927381535095444 3.786171541417202e-24 2.605723792428658e-16 2.6057201057464617e-16 3.686682195962413e-22
2.6717017477616296 3.865773980189088e-24 2.741535451293246e-16 2.741530618916182e-16 4.832377064496004e-22
2.753070231689431 3.983062955314158e-24 2.910743219056911e-16 2.9107369381707777e-16 6.280886133115107e-22
2.836916847834745 4.1653008206737725e-24 3.136623640897542e-16 3.1366155433897885e-16 8.097507753158962e-22
2.9233170693905177 4.472517556478758e-24 3.4705428389504653e-16 3.470532482143419e-16 1.0356807044916552e-21
2.967498994190263 4.7322406205403444e-24 3.727578795738402e-16 3.727567133053919e-16 1.1662684483938069e-21
3.0123486681368425 5.035357033440261e-24 4.02628896886379e-16 4.0262758524489816e-16 1.3116414809010025e-21
3.0578761833420214 5.711026620584983e-24 4.63557395343267e-16 4.635559217124527e-16 1.4736308142787135e-21
3.1040917844459814 6.5813772857011646e-24 5.422764888538088e-16 5.422748360801681e-16 1.6527736406931188e-21
3.127460860933648 7.500750663321986e-24 6.226816183599221e-16 6.226798685192465e-16 1.7498406756130326e-21
3.1510058709225794 8.725461886340184e-24 7.29805397864781e-16 7.298035459907126e-16 1.8518740685205804e-21
3.162844764501044 9.86484313946445e-24 8.28204324456236e-16 8.282024194458247e-16 1.905010411312825e-21
3.1747281389236908 1.1189866848700791e-23 9.429765507570365e-16 9.429745912956626e-16 1.959461373914748e-21
3.1986289994194426 1.4885617931155433e-23 1.2638634983033684e-15 1.2638614256212587e-15 2.0726821101499366e-21
3.2227097969389145 2.3595528438817157e-23 2.0184608975312325e-15 2.018458703931089e-15 2.19360014380137e-21
3.2348180950136065 3.1854799393019643e-23 2.7352320163114506e-15 2.7352297579187433e-15 2.258392706907535e-21
3.240889293275058 3.802947616487444e-23 3.27155309056667e-15 3.2715507979779175e-15 2.2925887526225726e-21
3.2469718861334385 4.5172619860190883e-23 3.893348145023027e-15 3.893345817036006e-15 2.3279870205682363e-21
3.2714166318528037 8.327404548729352e-23 7.231276265121777e-15 7.231273790064345e-15 2.475057429544501e-21
3.2744851364798273 8.56558010303736e-23 7.4450777467286e-15 7.445075254139348e-15 2.492589252875563e-21
3.2775565192852394 8.810595216995257e-23 7.665224368831289e-15 7.665221858602112e-15 2.5102291775625537e-21
3.283707930232385 8.574954508580077e-23 7.474218324101939e-15 7.474215781941387e-15 2.542160552142428e-21
3.2898708863219004 7.82768958356944e-23 6.835682489023686e-15 6.835679917444949e-15 2.5715787373108404e-21
3.29141343181113 7.651466364800427e-23 6.684925068741729e-15 6.684922489765099e-15 2.57897663183289e-21
3.292184975758714 7.564876583229388e-23 6.610822686904376e-15 6.610820104222274e-15 2.5826821021389283e-21
3.295272960557952 7.018322173996718e-23 6.138950453957182e-15 6.138947856794993e-15 2.5971621893691516e-21
3.3076538914384823 5.124905547309921e-23 4.49961502196305e-15 4.499612366435566e-15 2.6555274842313687e-21
3.310756385682612 4.739548290997195e-23 4.165178433739814e-15 4.1651757634567226e-15 2.670283092556241e-21
3.313861789986515 4.3839960564558694e-23 3.856328121154742e-15 3.8563254360499046e-15 2.6851048387165263e-21
3.3200813396944477 3.8853819125716475e-23 3.4241428216857515e-15 3.424140104855628e-15 2.716830123324687e-21
3.345076488085796 2.995988348744527e-23 2.660208065518806e-15 2.660205207601262e-15 2.857917544605011e-21
3.3482140837626964 3.0293552808939626e-23 2.692358340640761e-15 2.6923554636116524e-15 2.877029108651549e-21
3.3513546224236106 3.063090892922667e-23 2.724894561462401e-15 2.72489166521202e-15 2.8962503808496345e-21
3.3576445397418455 3.3095706168354716e-23 2.949686105266205e-15 2.9496831688799974e-15 2.9363862082517705e-21
3.3702598118196083 4.2186323289786196e-23 3.774022554370949e-15 3.7740195337109546e-15 3.0206599932298033e-21
3.382922481734668 4.425694616378558e-23 3.974137806290014e-15 3.974134702980132e-15 3.103309880905738e-21
3.389271646505754 4.532964790008299e-23 4.0781026873599516e-15 4.0780995419978634e-15 3.1453620881750842e-21
3.395632727569191 4.648551509271284e-23 4.189939879174208e-15 4.1899366904571475e-15 3.1887170602456826e-21
3.421196662673239 5.203526303003422e-23 4.72547235670597e-15 4.72546898758076e-15 3.369125210688228e-21
3.4276182099114902 5.091712227223253e-23 4.6326098341514075e-15 4.6326064239512576e-15 3.410200150397907e-21
3.4340518103208963 4.6016957952393664e-23 4.194635050994213e-15 4.194631601552951e-15 3.449441262014692e-21
3.4469541582030403 3.9038319916473684e-23 3.571873415994823e-15 3.571869890420729e-15 3.5255740923061765e-21
3.472904465399547 3.7083520559330816e-23 3.418560162037632e-15 3.4185564619904344e-15 3.70004719969362e-21
3.4990501388274233 3.4093220008751086e-23 3.1665592584919485e-15 3.166555377829101e-15 3.880662846319785e-21
3.5253949054701885 2.344861741686808e-23 2.194292134926246e-15 2.194288075647187e-15 4.0592790587367274e-21
3.5519380250092896 1.34443201183308e-23 1.2675749771737554e-15 1.2675707357009326e-15 4.24147282264638e-21
3.578680990867387 9.478633247539949e-24 9.004054999098716e-16 9.00401058009209e-16 4.441900662609985e-21
3.605625307711299 7.875550321009703e-24 7.537562690045643e-16 7.537516141471543e-16 4.654857410048731e-21
3.660119384959845 6.70802541691688e-24 6.517175015105944e-16 6.517123912869794e-16 5.110223614921979e-21
3.715437065384467 5.8823078945928715e-24 5.801323652653671e-16 5.801267630705645e-16 5.6021948026287344e-21
3.8285932144167436 5.4680730638833565e-24 5.557032890702917e-16 5.556965863369386e-16 6.702733353219438e-21
3.94519561050918 5.394146321330243e-24 5.64885851467746e-16 5.648778800214715e-16 7.971446274654296e-21
4.06534921144712 5.4603162672038285e-24 5.892303230698623e-16 5.892208946566982e-16 9.428413164333638e-21
4.189162171576248 5.607916876273899e-24 6.235886096756744e-16 6.235775092458299e-16 1.1100429844495665e-20
4.316745939156006 5.815118124322139e-24 6.663224766336036e-16 6.663094653454644e-16 1.3011288139335897e-20
4.448215356677963 6.074636062950674e-24 7.172581673385563e-16 7.172429953120389e-16 1.5172026517345027e-20
4.58368876423945 6.38742528284745e-24 7.771599060445101e-16 7.771422848682968e-16 1.762117621334982e-20
4.723288106065518 6.760550278971668e-24 8.476096980277952e-16 8.475892843935468e-16 2.0413634248436826e-20
4.867139040275056 7.208082430957209e-24 9.31242805572444e-16 9.31219257496968e-16 2.3548075476203663e-20
4.940699165968905 7.477344734782156e-24 9.806301636661118e-16 9.806048968511997e-16 2.526681491216332e-20
5.015371051989984 7.756231291031172e-24 1.0325789165231089e-15 1.0325518239963607e-15 2.7092526748454224e-20
5.091171501069577 8.095564441979577e-24 1.094042754174628e-15 1.094013694315291e-15 2.9059859336784046e-20
5.129500256944802 8.269738732548351e-24 1.125994522810752e-15 1.1259644339751778e-15 3.0088835573898116e-20
5.168117569889187 8.451262419926888e-24 1.1593735953663994e-15 1.1593424409923716e-15 3.1154374027474314e-20
5.20702561229733 8.673461702106283e-24 1.1988134646013925e-15 1.1987811662214134e-15 3.229837997908636e-20
5.246226572918644 8.901312730183867e-24 1.2395685112206508e-15 1.2395350320208393e-15 3.347919981146203e-20
5.265937586045735 9.01741383429965e-24 1.2604544084235455e-15 1.2604203246614992e-15 3.408376204637026e-20
5.285722656980489 9.13499627246393e-24 1.2816875903906977e-15 1.2816528924417378e-15 3.469794895986293e-20
5.305582063971359 9.254083879585362e-24 1.3032745095251522e-15 1.303239187619247e-15 3.5321905905371844e-20
5.3255160863122235 9.3819346220969e-24 1.3262443176284716e-15 1.3262083592913532e-15 3.595833711873143e-20
5.365609099470188 9.699714341899386e-24 1.3814889239179361e-15 1.381451642126465e-15 3.728179147069207e-20
5.406003951863644 1.0029518127890866e-23 1.4392156058917222e-15 1.4391769572681688e-15 3.8648623553182816e-20
5.446702915881641 1.03719249035065e-23 1.4995552945055737e-15 1.4995152343054224e-15 4.006020015127738e-20
5.487708281020852 1.074172135629611e-23 1.5647117084287007e-15 1.5646701871587126e-15 4.1521269987536957e-20
5.529022354014368 1.1254696326712464e-23 1.6517775542464077e-15 1.651734494441974e-15 4.305980443370423e-20
5.570647458961463 1.179771981876411e-23 1.7445088855746333e-15 1.7444642356246137e-15 4.4649950019395083e-20
5.612585937458331 1.2372949360854478e-23 1.843340955217899e-15 1.8432946618150455e-15 4.6293402853362207e-20
5.654840148729818 1.3004966395072166e-23 1.9520862398347688e-15 1.9520382433543722e-15 4.799648039713699e-20
5.67608639626678 1.343496536307732e-23 2.0242072752506806e-15 2.0241583859488482e-15 4.888930183290983e-20
5.686739436050992 1.3656573155654403e-23 2.0614580337840543e-15 2.0614086923564943e-15 4.9341427560414987e-20
5.6974124697621304 1.388272680299451e-23 2.0995289727251596e-15 2.0994791753189022e-15 4.97974062572752e-20
5.718818669136295 1.4349108792364585e-23 2.1782147152745515e-15 2.178163994221297e-15 5.0721053254043943e-20
5.740305295436557 1.4863066840780004e-23 2.2647113397529878e-15 2.2646596747975196e-15 5.16649554688392e-20
5.7835210386641895 1.619569696321541e-23 2.486345026548844e-15 2.4862913896436212e-15 5.36369052229278e-20
5.827062130521658 1.7730158708885558e-23 2.7424057127584946e-15 2.742350023278323e-15 5.56894801723151e-20
5.8489554468988025 1.8806326308682712e-23 2.919790650467212e-15 2.9197338605009297e-15 5.678996628244703e-20
5.870931020387893 1.996086608209585e-23 3.110683257695349e-15 3.1106253467393076e-15 5.791095604107851e-20
5.892989160043636 2.1200077333722252e-23 3.3162137862418035e-15 3.3161547334064588e-15 5.905283534484866e-20
5.915130176081913 2.2609179482899023e-23 3.5499197977154343e-15 3.549859560544873e-15 6.023717055953007e-20
5.95966208400165 2.6548462932677855e-23 4.199817807983723e-15 4.199754947501246e-15 6.286048247585065e-20
6.004529249263818 3.2224870798144794e-23 5.136172278869275e-15 5.136106490973693e-15 6.578789558262795e-20
6.027089341400364 3.617038536717192e-23 5.7866897441197734e-15 5.786622301789403e-15 6.744233037086348e-20
6.049734195844842 4.083208819951587e-23 6.557032217515748e-15 6.556963024678176e-15 6.919283757049232e-20
6.095279466722835 5.429739488051812e-23 8.785005726526121e-15 8.784932372338575e-15 7.335418754726726e-20
6.141167624020661 7.501794635565765e-23 1.2228848248141664e-14 1.2228769662199834e-14 7.858594182779788e-20
6.164241091010745 8.825179741376501e-23 1.444018005810647e-14 1.444009827797824e-14 8.178012823512634e-20
6.187401249150058 1.0332472998269573e-22 1.697000587737146e-14 1.6969920775851243e-14 8.510152021332014e-20
6.1990139391386085 1.106853587729071e-22 1.8213030843917902e-14 1.8212944043514595e-14 8.680040330754071e-20
6.204828454712694 1.1456243845714171e-22 1.886867747509462e-14 1.88685898122184e-14 8.766287622803652e-20
6.210648424152782 1.1739343942683808e-22 1.935308504597288e-14 1.935299662344183e-14 8.842253104800111e-20
6.233982942956859 1.2701284645507391e-22 2.1017579155272254e-14 2.101748797168922e-14 9.118358303573772e-20
6.239830258556775 1.2824334462780982e-22 2.1241102021070453e-14 2.1241010372932097e-14 9.164813835062921e-20
6.245683058788269 1.2835162099351015e-22 2.1278976396693045e-14 2.1278884281701498e-14 9.21149915558184e-20
6.257405133728602 1.280909925404396e-22 2.127562358711742e-14 2.127553060615258e-14 9.298096483315563e-20
6.269149208991335 1.2620381612990142e-22 2.1001510252578777e-14 2.100141672227513e-14 9.353030364472087e-20
6.280915325867298 1.2146583555876926e-22 2.0251001867089444e-14 2.0250908183112592e-14 9.368397685065757e-20
6.304513850009849 1.097792848458872e-22 1.837136532484808e-14 1.8371271693545297e-14 9.363130278443548e-20
6.32820103803542 9.529167778131341e-23 1.6006805736195084e-14 1.600671254270595e-14 9.31934891345866e-20
6.3519772230701035 8.20049190949418e-23 1.3826691393222212e-14 1.382659851382797e-14 9.287939424367465e-20
6.375842739491607 7.082555441410874e-23 1.1986627588636745e-14 1.1986534896408115e-14 9.269222863421484e-20
6.399797922933955 6.186750303758501e-23 1.0509892708095691e-14 1.050979972610883e-14 9.298198685725821e-20
6.42384311029221 5.441873835733452e-23 9.279248974028516e-15 9.279155601391055e-15 9.337263746339164e-20
6.447978639727206 4.899217102899704e-23 8.385321303349047e-15 8.385227154073833e-15 9.414927521382034e-20
6.472204850670314 4.4471350649226427e-23 7.640152148706543e-15 7.640057135187892e-15 9.501351865149028e-20
6.496522083828205 4.153495414353522e-23 7.162490970391481e-15 7.162394767837148e-15 9.620255433241547e-20
6.520930681187647 3.9061593054171854e-23 6.761280722605388e-15 6.761183264974384e-15 9.7457631003e-20
6.57002334288761 3.6535757927173056e-23 6.3716874871545626e-15 6.371587019341023e-15 1.0046781353883648e-19
