Dust emission spectrum from A.P. Jones, M. Kohler, N. Ysard, M. Bocchio, and L. Verstraete (2017), A&A, 602A, 46J 
inside the DustPedia framework.

lambda    nu*dP/dnu     j_nu    j_nu(carb.) j_nu(sil)
 (um)   (erg s-1 H-1) (Jy cm2 sr-1 H-1)
0.9927057738263894 3.884859140365206e-23 1.0236824490456383e-15 1.0236824489059748e-15 1.3966349501331388e-25
1.0001793341362166 3.948967966015758e-23 1.0484094349831741e-15 1.0484094348149635e-15 1.6821031341271276e-25
1.0077091589558085 4.012985673647103e-23 1.0734263406979575e-15 1.073426340495628e-15 2.023295660351001e-25
1.0114953028030835 4.0449525083432206e-23 1.0860422737566363e-15 1.0860422735348415e-15 2.2179463410460044e-25
1.0152956718711033 4.0768871690400454e-23 1.098729183589637e-15 1.0987291833465838e-15 2.4305320822822075e-25
1.0229392996569957 4.140616180354224e-23 1.1243053357610387e-15 1.1243053354694416e-15 2.9159694695526727e-25
1.0267826658714554 4.172333190909218e-23 1.1371740588909254e-15 1.1371740585716781e-15 3.1924690370460555e-25
1.0306404723013447 4.2040040629751086e-23 1.1501109887354783e-15 1.1501109883860735e-15 3.494047140596643e-25
1.03451277320114 4.2356257553990903e-23 1.1631155736302961e-15 1.1631155732480098e-15 3.822866385203616e-25
1.0383996230291617 4.267195244180447e-23 1.1761872550769544e-15 1.1761872546588281e-15 4.181265456995728e-25
1.0403485208654093 4.282959472038841e-23 1.1827480806410496e-15 1.182748080203816e-15 4.3723396988532665e-25
1.0423010764483396 4.298709523054251e-23 1.1893254678781894e-15 1.189325467421012e-15 4.571772546323321e-25
1.0462171883269815 4.33016560406236e-23 1.2025296402733059e-15 1.2025296397735937e-15 4.997119718517022e-25
1.0471985131304309 4.3380201825348986e-23 1.2058409219414544e-15 1.2058409214305305e-15 5.10924108435491e-25
1.048180758391296 4.3458708917732356e-23 1.2091562808820218e-15 1.2091562803596448e-15 5.223771616241851e-25
1.0501480137395462 4.3615605181115355e-23 1.2157991940737326e-15 1.2157991935277068e-15 5.460258293341072e-25
1.0521189612883777 4.3772341149777175e-23 1.2224583065927727e-15 1.222458306022074e-15 5.706985622353925e-25
1.0531058218030118 4.3850527480340555e-23 1.2257905490625114e-15 1.2257905484790784e-15 5.834328979209789e-25
1.0540936079674168 4.392827790753453e-23 1.2291157705324199e-15 1.229115769935978e-15 5.964420048995753e-25
1.058054026499678 4.4238839732613934e-23 1.2424559647631315e-15 1.2424559641118192e-15 6.513119057100812e-25
1.0590464539527713 4.4316367959725524e-23 1.2458007933724753e-15 1.2458007927067085e-15 6.657667686056502e-25
1.06003981227728 4.43938503948036e-23 1.2491495151092658e-15 1.249149514428737e-15 6.805285857794899e-25
1.0620293250338977 4.454867609487281e-23 1.2558586000006758e-15 1.2558585992896778e-15 7.109980051152391e-25
1.0660195594769086 4.4857758304654326e-23 1.2693230684740684e-15 1.2693230676981673e-15 7.7590118647719e-25
1.070024785945596 4.5166057892479107e-23 1.282848756828553e-15 1.282848755982099e-15 8.464537487043145e-25
1.0740450607676866 4.547354661377149e-23 1.2964350462619888e-15 1.2964350453388672e-15 9.231217033466582e-25
1.07808044048254 4.5780196453457216e-23 1.3100813126610455e-15 1.3100813116546383e-15 1.0064072265499217e-24
1.0861967418109137 4.639032643069694e-23 1.3375356221681124e-15 1.3375356209730755e-15 1.195036532836348e-24
1.0902777775684922 4.6692518840074174e-23 1.3513065938931135e-15 1.3513065925915231e-15 1.3015903187764088e-24
1.0943741465085532 4.699374116550075e-23 1.3651339842196572e-15 1.3651339828024704e-15 1.4171871123952042e-24
1.1026131145906286 4.75931692368311e-23 1.3929554031172066e-15 1.3929554014387382e-15 1.678468015032128e-24
1.1109141095355224 4.818840059911873e-23 1.420994600874967e-15 1.4209945988896012e-15 1.9853660192174532e-24
1.1192775983109025 4.877867662399839e-23 1.4492298089528013e-15 1.4492298066074292e-15 2.345371721973581e-24
1.1277040513999907 4.9361256479650945e-23 1.4775792370619814e-15 1.4775792342948581e-15 2.7671231422202117e-24
1.1361939428280308 4.993895669086553e-23 1.5061262148491964e-15 1.5061262115886294e-15 3.2605670078854716e-24
1.1447477501889525 5.051158629862263e-23 1.5348651995239843e-15 1.534865195686841e-15 3.837142662877865e-24
1.1533659546722406 5.1079270650350453e-23 1.5638001417048563e-15 1.5638001371948616e-15 4.509994712968e-24
1.1707974979042381 5.22016415476803e-23 1.6223157289603143e-15 1.6223157227532331e-15 6.2070813836200595e-24
1.1884924949847024 5.3301836300524e-23 1.6815432724264797e-15 1.68154326392604e-15 8.500439853623402e-24
1.2064549276569216 5.438846753732132e-23 1.7417561667696389e-15 1.7417561551853851e-15 1.1584253987814512e-23
1.2246888378427687 5.544969118321334e-23 1.8025790712167126e-15 1.802579055506494e-15 1.5710218657397772e-23
1.2431983285522175 5.6483039402105e-23 1.863922749698549e-15 1.863922728495101e-15 2.1203448315034388e-23
1.2619875648066055 5.748814643247448e-23 1.925762895343066e-15 1.925762866861319e-15 2.848174660521319e-23
1.3004222497298317 5.939701959604365e-23 2.0503050349350808e-15 2.0503049842613644e-15 5.067371625946219e-23
1.3400274889804893 6.116900398551942e-23 2.175777841208177e-15 2.1757777526901033e-15 8.85180739814071e-23
1.3808389325824078 6.279771089490804e-23 2.3017400241550477e-15 2.3017398722700055e-15 1.518850416407192e-22
1.4228933163050095 6.42912151292244e-23 2.4282500514465216e-15 2.428249795325665e-15 2.5612085719677848e-22
1.466228494730424 6.568547544945753e-23 2.556468443139592e-15 2.556468018483055e-15 4.246565372471832e-22
1.5108834753276823 6.695376833687435e-23 2.6851925256969413e-15 2.6851918330939474e-15 6.926029936597749e-22
1.5568984535646726 6.807452080768968e-23 2.813288774103473e-15 2.8132876617652057e-15 1.11233826656703e-21
1.6043148490894465 6.90499891859139e-23 2.9405099356749464e-15 2.9405081733215312e-15 1.7623534151798622e-21
1.6531753430134553 6.9883344039652e-23 3.0666345957690643e-15 3.0666318443732997e-15 2.751395765421202e-21
1.7035239163302658 7.058452655730125e-23 3.1917375591123817e-15 3.1917333253997096e-15 4.233712672954551e-21
1.755405889504358 7.120981827371561e-23 3.3180800673981388e-15 3.3180736432476954e-15 6.424150443561903e-21
1.8088679632656115 7.174565987282167e-23 3.4448628371517475e-15 3.44485322123896e-15 9.61591278731275e-21
1.8639582606462262 7.218293333070595e-23 3.5714135563741534e-15 3.571399352106097e-15 1.4204268057570115e-20
1.9207263702978936 7.252868966064483e-23 3.697811454412977e-15 3.6977907403504005e-15 2.0714062576187107e-20
1.979223391128241 7.279899992244039e-23 3.824632060352062e-15 3.824602227270593e-15 2.9833081468106266e-20
2.039501978296691 7.301301897571157e-23 3.952700149718335e-15 3.952657700149403e-15 4.244956893183143e-20
2.1016163906111602 7.322401851252269e-23 4.084853063143506e-15 4.084793363577113e-15 5.969956639284979e-20
2.1656225393682647 7.346296863125383e-23 4.222995999839852e-15 4.222912987530122e-15 8.301230973037066e-20
2.231578038680979 7.373221732620294e-23 4.3675592605346454e-15 4.367445097974085e-15 1.1416256056014813e-19
2.299542257339062 7.405034364551219e-23 4.519994497353184e-15 4.519839169601293e-15 1.5532775189056165e-19
2.369576372248914 7.445816002337337e-23 4.683305017089317e-15 4.683095865763145e-15 2.0915132617269585e-19
2.4417434235010123 7.500381495169535e-23 4.8613043695081755e-15 4.8610255707234265e-15 2.7879878474907707e-19
2.5161083711144245 7.576966634508617e-23 5.060508404953831e-15 5.0601403760949075e-15 3.68028858922794e-19
2.5927381535095444 7.689035233268267e-23 5.291757605005364e-15 5.291276353535834e-15 4.812514695289783e-19
2.6717017477616296 7.8526327873533e-23 5.568942023729942e-15 5.568318468408506e-15 6.235553214370678e-19
2.753070231689431 8.091900872501776e-23 5.91340027967434e-15 5.912599526017406e-15 8.00753656935936e-19
2.836916847834745 8.461545962048926e-23 6.371853137562971e-15 6.370833686883977e-15 1.0194506789941623e-18
2.9233170693905177 9.082026916741696e-23 7.047387311737871e-15 7.046100471509113e-15 1.2868402287586917e-18
2.967498994190263 9.605234670622693e-23 7.56602885552684e-15 7.564589995521623e-15 1.4388600052170314e-18
3.0123486681368425 1.0215436083552816e-22 8.168298164795825e-15 8.166691468751347e-15 1.6066960444777215e-18
3.0578761833420214 1.1573574141184896e-22 9.394135660937116e-15 9.392343441125254e-15 1.7922198118649374e-18
3.1040917844459814 1.3321819807324148e-22 1.097659252259267e-14 1.0974597138169744e-14 1.9953844229244377e-18
3.127460860933648 1.5167848198375603e-22 1.2591726731280515e-14 1.2589622060903153e-14 2.1046703773591976e-18
3.1510058709225794 1.7626235321077302e-22 1.474274009665367e-14 1.4740521138355316e-14 2.2189582983502523e-18
3.162844764501044 1.9913476522389044e-22 1.671838785233405e-14 1.6716109605853108e-14 2.2782464809399854e-18
3.1747281389236908 2.2572809305037545e-22 1.9022236946306497e-14 1.9019898105071647e-14 2.3388412348475025e-18
3.1986289994194426 2.998860678286403e-22 2.5461828761913352e-14 2.5459364422300164e-14 2.4643396131853436e-18
3.2227097969389145 4.746525758181861e-22 4.06037807835388e-14 4.060118306761137e-14 2.597715927428107e-18
3.2348180950136065 6.403683192133665e-22 5.498562107811516e-14 5.4982952082246785e-14 2.668995868373657e-18
3.240889293275058 7.642596492726425e-22 6.574679090328111e-14 6.574408430607147e-14 2.706597209639346e-18
3.2469718861334385 9.075842626492257e-22 7.822308106932373e-14 7.822033556279642e-14 2.7455065273029467e-18
3.2714166318528037 1.6720208927629306e-21 1.4519343843417817e-13 1.451905318105996e-13 2.9066235785600596e-18
3.2744851364798273 1.7198098244610662e-21 1.49483370637792e-13 1.4948044493728483e-13 2.9257005071426994e-18
3.2775565192852394 1.7689707507281298e-21 1.5390058642207559e-13 1.5389764154074057e-13 2.944881335063026e-18
3.283707930232385 1.721702774073283e-21 1.5006939581731435e-13 1.500664164544539e-13 2.979362860438446e-18
3.2898708863219004 1.5717856689750952e-21 1.3725924692343321e-13 1.3725623601405973e-13 3.0109093734624105e-18
3.29141343181113 1.5364310383574293e-21 1.342347450151323e-13 1.3423172617974382e-13 3.0188353884710803e-18
3.292184975758714 1.5190589596378351e-21 1.3274809341082745e-13 1.3274507060651146e-13 3.022804316003891e-18
3.295272960557952 1.4094113381392012e-21 1.2328169268346407e-13 1.2327865440946456e-13 3.03827399949657e-18
3.3076538914384823 1.0295412106310295e-21 9.039267269066138e-14 9.038957219529039e-14 3.100495371031448e-18
3.310756385682612 9.52223146854498e-22 8.368264382747192e-14 8.3679527630412e-14 3.1161970599019918e-18
3.313861789986515 8.808833000489573e-22 7.748581425916206e-14 7.748268230165581e-14 3.131957506262236e-18
3.3200813396944477 7.808412314030148e-22 6.881464827778605e-14 6.881148249688204e-14 3.1657809040300917e-18
3.345076488085796 6.024115542966739e-22 5.348952962962217e-14 5.348621330207198e-14 3.316327550209801e-18
3.3482140837626964 6.091094638177399e-22 5.413498230517771e-14 5.4131645589990806e-14 3.3367151869182944e-18
3.3513546224236106 6.158813262130597e-22 5.478817752949346e-14 5.478482032511926e-14 3.357204374218286e-18
3.3576445397418455 6.653440749572078e-22 5.929941978391806e-14 5.929601976992604e-14 3.4000139920248925e-18
3.3702598118196083 8.477537180070958e-22 7.584073232296193e-14 7.58372424912399e-14 3.489831722000597e-18
3.382922481734668 8.893210991541355e-22 7.985830267186086e-14 7.98547252084828e-14 3.577463378087477e-18
3.389271646505754 9.108550976972793e-22 8.194549911136605e-14 8.194187716407633e-14 3.621947289728141e-18
3.395632727569191 9.340618990114745e-22 8.419102579545004e-14 8.418735800129813e-14 3.6677941519002006e-18
3.421196662673239 1.0454964109701453e-21 9.494454532156668e-14 9.494068736265678e-14 3.8579589098851684e-18
3.4276182099114902 1.0230676174052259e-21 9.308210860883539e-14 9.307820785062969e-14 3.900758205699376e-18
3.4340518103208963 9.247400611321377e-22 8.429386135207628e-14 8.42899199381072e-14 3.941413969089181e-18
3.4469541582030403 7.846996777150942e-22 7.179734999782825e-14 7.179333019186192e-14 4.019805966336271e-18
3.472904465399547 7.454780744852441e-22 6.872221430622893e-14 6.871801440838481e-14 4.199897844129905e-18
3.4990501388274233 6.854801172526326e-22 6.366701095529593e-14 6.366262592070359e-14 4.385034592357991e-18
3.5253949054701885 4.718929599048384e-22 4.415914985680021e-14 4.4154583630422877e-14 4.5662263773467445e-18
3.5519380250092896 2.7112807464107053e-22 2.556285182139717e-14 2.5558102387478242e-14 4.7494339189247295e-18
3.578680990867387 1.9154669055466284e-22 1.8195628964725992e-14 1.81906785214322e-14 4.950443293790929e-18
3.605625307711299 1.5938261314083482e-22 1.5254253852552518e-14 1.524909101047501e-14 5.162842077511226e-18
3.660119384959845 1.3597041801778288e-22 1.3210191614126164e-14 1.3204579465644261e-14 5.612148481902678e-18
3.715437065384467 1.1941121813886944e-22 1.1776723296276158e-14 1.1770632958961144e-14 6.0903373150182815e-18
3.8285932144167436 1.1112805299162376e-22 1.1293599012659483e-14 1.1286464873089877e-14 7.134139569602661e-18
3.94519561050918 1.0967209368574248e-22 1.1485082223102003e-14 1.1476785146901009e-14 8.297076200991922e-18
4.06534921144712 1.1102450237589669e-22 1.1980808473777416e-14 1.1971224003117298e-14 9.584470660122466e-18
4.189162171576248 1.140072988670061e-22 1.2677372821651486e-14 1.2666367154672157e-14 1.1005666979332393e-17
4.316745939156006 1.1818158689703837e-22 1.354177954603519e-14 1.3529215857047719e-14 1.2563688987467724e-17
4.448215356677963 1.2340022625261624e-22 1.4570390590300198e-14 1.455614371980849e-14 1.424687049170638e-17
4.58368876423945 1.296814976314802e-22 1.5778385820908468e-14 1.57623201111592e-14 1.6065709749268817e-17
4.723288106065518 1.3716610287802248e-22 1.719731593472812e-14 1.7179275828308895e-14 1.804010641922536e-17
4.867139040275056 1.4613465229515201e-22 1.8879756842156295e-14 1.8859621693875946e-14 2.013514828035011e-17
4.940699165968905 1.5152794830063831e-22 1.9872412201465012e-14 1.9851175646581484e-14 2.123655488352542e-17
5.015371051989984 1.5711127824726555e-22 2.091605927916496e-14 2.0893686673802824e-14 2.2372605362124672e-17
5.091171501069577 1.6390419569406996e-22 2.2150178528388013e-14 2.2126612921182156e-14 2.3565607205858247e-17
5.129500256944802 1.6738972575463422e-22 2.2791519837583938e-14 2.2767344561392108e-14 2.417527619182514e-17
5.168117569889187 1.7102176312401265e-22 2.3461360746706346e-14 2.3436562358368335e-14 2.479838833801009e-17
5.20702561229733 1.7546882099763295e-22 2.42526447287605e-14 2.4227173019437257e-14 2.5471709323244554e-17
5.246226572918644 1.8002816849086845e-22 2.5070150387739122e-14 2.5043994245151006e-14 2.615614258810589e-17
5.265937586045735 1.8235106915110242e-22 2.5489038566466668e-14 2.5462536040786763e-14 2.6502525679911163e-17
5.285722656980489 1.847034036849888e-22 2.591485024679942e-14 2.5887998561133156e-14 2.6851685666256676e-17
5.305582063971359 1.8708564662855993e-22 2.6347713887369375e-14 2.6320510265625804e-14 2.7203621743576153e-17
5.3255160863122235 1.8964328612494174e-22 2.680825871534161e-14 2.6780698233428275e-14 2.7560481913345855e-17
5.365609099470188 1.9600207827901656e-22 2.7915739645827022e-14 2.788744031713986e-14 2.8299328687159984e-17
5.406003951863644 2.026006483824498e-22 2.9072784075731234e-14 2.904373364451235e-14 2.905043121888091e-17
5.446702915881641 2.0945056670026522e-22 3.0282007356839965e-14 3.02521935515123e-14 2.981380532767048e-17
5.487708281020852 2.1684803390638444e-22 3.1587549737006055e-14 3.155695770974552e-14 3.059202726053347e-17
5.529022354014368 2.2711260529612582e-22 3.333181925346038e-14 3.3300414039720215e-14 3.140521374015832e-17
5.570647458961463 2.3797781120947196e-22 3.518937664244484e-14 3.515714457384283e-14 3.2232068602002606e-17
5.612585937458331 2.4948684775443762e-22 3.716893287456302e-14 3.713586024152294e-14 3.307263304007673e-17
5.654840148729818 2.621319418678969e-22 3.934682652739371e-14 3.931289631170907e-14 3.393021568463386e-17
5.67608639626678 2.707367108581081e-22 4.079111519725534e-14 4.075673673710664e-14 3.4378460148700826e-17
5.686739436050992 2.751713356494993e-22 4.153707918350524e-14 4.150247515205941e-14 3.460403144582857e-17
5.6974124697621304 2.796969317096961e-22 4.2299457450979376e-14 4.226462688060044e-14 3.4830570378949334e-17
5.718818669136295 2.89029795148215e-22 4.3875125769457974e-14 4.3839839213562037e-14 3.528655589593782e-17
5.740305295436557 2.993149327687754e-22 4.560713678142047e-14 4.557138753496029e-14 3.574924646017663e-17
5.7835210386641895 3.2598498681970777e-22 5.0044845402433124e-14 5.000813687008419e-14 3.670853234894447e-17
5.827062130521658 3.566955922885236e-22 5.5171758249269935e-14 5.5134066506320017e-14 3.769174294991406e-17
5.8489554468988025 3.7823441204986804e-22 5.872307445172277e-14 5.868485460471496e-14 3.82198470078273e-17
5.870931020387893 4.013427581506514e-22 6.254489125080188e-14 6.250613809787014e-14 3.875315293174549e-17
5.892989160043636 4.261468783930803e-22 6.665985839792772e-14 6.662056671148504e-14 3.9291686442673536e-17
5.915130176081913 4.543521630886152e-22 7.133888870682244e-14 7.129903937812336e-14 3.984932869909046e-17
5.95966208400165 5.33203160418303e-22 8.434974687900376e-14 8.430864521632984e-14 4.110166267392811e-17
6.004529249263818 6.468282731932438e-22 1.0309495007053011e-13 1.0305244803225526e-13 4.250203827483599e-17
6.027089341400364 7.258049056556703e-22 1.161173087086154e-13 1.1607400679030085e-13 4.3301918314581465e-17
6.049734195844842 8.1912045717257255e-22 1.315386859830125e-13 1.3149453828210649e-13 4.4147700905956757e-17
6.095279466722835 1.0886537628464608e-21 1.7613790793933406e-13 1.7609171405117702e-13 4.61938881570467e-17
6.141167624020661 1.5034041078548237e-21 2.450733668904668e-13 2.450245575910699e-13 4.8809299396875533e-17
6.164241091010745 1.7682698422666538e-21 2.893327463228226e-13 2.8928231534893294e-13 5.043097388969883e-17
6.187401249150058 2.0699477728151025e-21 3.3996726511075453e-13 3.399151629703449e-13 5.210214040961947e-17
6.1990139391386085 2.2172532235500342e-21 3.648441112446198e-13 3.6479115747650515e-13 5.295376811468916e-17
6.204828454712694 2.2948443813714138e-21 3.779657544896726e-13 3.7791236994557154e-13 5.338454410101941e-17
6.210648424152782 2.351489498703542e-21 3.8765859894141383e-13 3.876048425333227e-13 5.375640809111316e-17
6.233982942956859 2.54393519658426e-21 4.2096024813525353e-13 4.209051743712278e-13 5.507376402581593e-17
6.239830258556775 2.5685360596298517e-21 4.2542976905146043e-13 4.253744969571949e-13 5.527209426548593e-17
6.245683058788269 2.570672192644053e-21 4.261829534172679e-13 4.2612748243838094e-13 5.547097888702576e-17
6.257405133728602 2.5653920813207982e-21 4.2610581113517006e-13 4.2604998285396856e-13 5.582828120140904e-17
6.269149208991335 2.527553428950442e-21 4.2060882847952605e-13 4.20552824822344e-13 5.60036571818881e-17
6.280915325867298 2.4326545185669208e-21 4.0557652257409316e-13 4.0552056924116353e-13 5.59533329298066e-17
6.304513850009849 2.198625819638394e-21 3.6793606555120245e-13 3.678804178138675e-13 5.564773733496933e-17
6.32820103803542 1.9085559456610633e-21 3.205934135084307e-13 3.205382894537526e-13 5.5124054678051486e-17
6.3519772230701035 1.6425483096446688e-21 2.7694690546090037e-13 2.7689223598085834e-13 5.4669480042001535e-17
6.375842739491607 1.418750428182163e-21 2.4011154115937054e-13 2.400572560152628e-13 5.4285144107705806e-17
6.399797922933955 1.2394149225082611e-21 2.1054862758015438e-13 2.1049446459150313e-13 5.4162988651239606e-17
6.42384311029221 1.0903081917680768e-21 1.8591465872297683e-13 1.8586056563660598e-13 5.409308637083934e-17
6.447978639727206 9.816724336082124e-22 1.680194732659097e-13 1.6796524364203839e-13 5.422962387130874e-17
6.472204850670314 8.91175302755583e-22 1.5310339813888042e-13 1.5304898987466528e-13 5.440826421514204e-17
6.496522083828205 8.323818188039055e-22 1.4353999863579872e-13 1.4348524263294386e-13 5.4756002854833444e-17
