Dust emission spectrum from A.P. Jones, M. Kohler, N. Ysard, M. Bocchio, and L. Verstraete (2017), A&A, 602A, 46J 
inside the DustPedia framework.

lambda    nu*dP/dnu     j_nu    j_nu(carb.) j_nu(sil)
 (um)   (erg s-1 H-1) (Jy cm2 sr-1 H-1)
0.9927057738263894 4.3501861668570606e-26 1.1462987635309881e-18 1.1462987635267187e-18 4.269355594843102e-30
1.0001793341362166 4.422015672529044e-26 1.1739986225819936e-18 1.1739986225768508e-18 5.1429906993761486e-30
1.0077091589558085 4.493741707713194e-26 1.2020229100315884e-18 1.2020229100254011e-18 6.187437781961033e-30
1.0114953028030835 4.529557090306441e-26 1.2161553124097868e-18 1.2161553124030037e-18 6.783415199948875e-30
1.0152956718711033 4.56533603307714e-26 1.2303671218883144e-18 1.2303671218808795e-18 7.434395789216296e-30
1.0229392996569957 4.636735498131443e-26 1.2590170723372448e-18 1.2590170723283237e-18 8.921221293802671e-30
1.0267826658714554 4.67226938725823e-26 1.2734322261023525e-18 1.2734322260925841e-18 9.768276897967123e-30
1.0306404723013447 4.707751126385003e-26 1.2879236607719895e-18 1.2879236607612971e-18 1.069229517599034e-29
1.03451277320114 4.7431772917163963e-26 1.3024907522702274e-18 1.3024907522585273e-18 1.1699927473085568e-29
1.0383996230291617 4.778544478513429e-26 1.317132868741118e-18 1.3171328687283193e-18 1.2798368158077768e-29
1.0403485208654093 4.7962048963522997e-26 1.3244818617957827e-18 1.3244818617823986e-18 1.338404853093508e-29
1.0423010764483396 4.813849301746307e-26 1.3318493706982834e-18 1.3318493706842879e-18 1.3995396157105288e-29
1.0462171883269815 4.849088396732845e-26 1.3466396111747028e-18 1.346639611159403e-18 1.5299419431764238e-29
1.0471985131304309 4.857887508130323e-26 1.3503486164208545e-18 1.3503486164052114e-18 1.5643192283993992e-29
1.048180758391296 4.866682250388191e-26 1.3540621791718393e-18 1.3540621791558452e-18 1.5994365437144756e-29
1.0501480137395462 4.8842584197623667e-26 1.361502935872613e-18 1.3615029358558934e-18 1.6719522592327516e-29
1.0521189612883777 4.9018164902683377e-26 1.3689617983689837e-18 1.3689617983515076e-18 1.7476140558289868e-29
1.0531058218030118 4.9105751202162797e-26 1.3726942225543953e-18 1.3726942225365286e-18 1.786667643574447e-29
1.0540936079674168 4.9192848762804455e-26 1.3764187692276579e-18 1.3764187692093922e-18 1.8265654024702382e-29
1.058054026499678 4.9540742520414193e-26 1.3913608814180841e-18 1.3913608813981355e-18 1.9948632536079007e-29
1.0590464539527713 4.9627589294691606e-26 1.3951073376021558e-18 1.3951073375817643e-18 2.0392038021726532e-29
1.06003981227728 4.9714384388617035e-26 1.398858143655538e-18 1.3988581436346934e-18 2.0844877468227625e-29
1.0620293250338977 4.988781751432215e-26 1.4063727623958851e-18 1.4063727623741056e-18 2.177962601565639e-29
1.0660195594769086 5.0234041422808966e-26 1.4214537241830346e-18 1.4214537241592636e-18 2.3770984610108126e-29
1.070024785945596 5.0579382169127367e-26 1.4366030724064111e-18 1.4366030723804756e-18 2.5936029158847304e-29
1.0740450607676866 5.0923807926776736e-26 1.4518201064482994e-18 1.45182010642001e-18 2.8289122428664296e-29
1.07808044048254 5.126728712463233e-26 1.467104119596607e-18 1.467104119565761e-18 3.0845745172545345e-29
1.0861967418109137 5.195067348585721e-26 1.4978527147629418e-18 1.4978527147263045e-18 3.663758943284594e-29
1.0902777775684922 5.228913765251525e-26 1.5132757506794696e-18 1.5132757506395597e-18 3.991013315171917e-29
1.0943741465085532 5.262650749276002e-26 1.5287617471472624e-18 1.5287617471038013e-18 4.346101903118227e-29
1.1026131145906286 5.329784429474948e-26 1.5599196560210855e-18 1.559919655969596e-18 5.148912026541503e-29
1.1109141095355224 5.396444699814066e-26 1.591320460321806e-18 1.5913204602608842e-18 6.092215583290817e-29
1.1192775983109025 5.462546412452598e-26 1.6229397026773158e-18 1.6229397026053243e-18 7.199148492280143e-29
1.1277040513999907 5.527782355614285e-26 1.6546856822861399e-18 1.654685682201176e-18 8.49640321639832e-29
1.1361939428280308 5.592467882364326e-26 1.686651672655338e-18 1.68665167255519e-18 1.0014730212293227e-28
1.1447477501889525 5.656581429023727e-26 1.718831385012138e-18 1.7188313848942428e-18 1.1789511328440589e-28
1.1533659546722406 5.72013690152366e-26 1.7512291744346795e-18 1.7512291742960653e-18 1.3861422241443192e-28
1.1707974979042381 5.845779137953399e-26 1.8167435280493197e-18 1.816743527858416e-18 1.909032346059896e-28
1.1884924949847024 5.968918497817201e-26 1.883048585245048e-18 1.883048584983429e-18 2.616189809521798e-28
1.2064549276569216 6.090518771966938e-26 1.9504499961541158e-18 1.9504499957973323e-18 3.5678409142523875e-28
1.2246888378427687 6.209251046184428e-26 2.018526297432466e-18 2.018526296948253e-18 4.842128940384275e-28
1.2431983285522175 6.324837536625544e-26 2.087176734371049e-18 2.087176733717039e-18 6.540097802220522e-28
1.2619875648066055 6.437235135592272e-26 2.1563729815646962e-18 2.1563729806855223e-18 8.79173501998804e-28
1.3004222497298317 6.650594698657193e-26 2.295695623905961e-18 2.2956956223393167e-18 1.5666439366915959e-27
1.3400274889804893 6.848495682173583e-26 2.4360058493695005e-18 2.436005846628409e-18 2.7410913298574514e-27
1.3808389325824078 7.030205237060345e-26 2.5767985077109412e-18 2.576798502999712e-18 4.711229134898168e-27
1.4228933163050095 7.196610038911037e-26 2.7181269885942355e-18 2.7181269806360302e-18 7.958204776833023e-27
1.466228494730424 7.35171968471891e-26 2.861277816471565e-18 2.861277803253069e-18 1.3218497460470246e-26
1.5108834753276823 7.492517552723476e-26 3.004887197685315e-18 3.0048871760866927e-18 2.1598622271255012e-26
1.5568984535646726 7.616563376128567e-26 3.1476669962676677e-18 3.1476669615142226e-18 3.4753445123482146e-26
1.6043148490894465 7.724085735103369e-26 3.2893199717850132e-18 3.2893199166164765e-18 5.516853734718101e-26
1.6531753430134553 7.815413647276683e-26 3.4295751298600436e-18 3.4295750435597996e-18 8.630024443556967e-26
1.7035239163302658 7.891635064524553e-26 3.5684914621908515e-18 3.568491329125451e-18 1.330653994344389e-25
1.755405889504358 7.959027547514852e-26 3.708574365373643e-18 3.7085741630393915e-18 2.0233425187507906e-25
1.8088679632656115 8.016043158062427e-26 3.848897511732894e-18 3.848897208217782e-18 3.035151131646284e-25
1.8639582606462262 8.061634116075864e-26 3.988675444481291e-18 3.9886749951445766e-18 4.493367146726335e-25
1.9207263702978936 8.09656321865285e-26 4.127961548926062e-18 4.127960892161076e-18 6.56764986875956e-25
1.979223391128241 8.122603774771445e-26 4.267362304925211e-18 4.267361356803351e-18 9.481218601257385e-25
2.039501978296691 8.141877524308235e-26 4.407761925311877e-18 4.4077605729532955e-18 1.3523585830021283e-24
2.1016163906111602 8.160324290677925e-26 4.552293953836933e-18 4.552292047169025e-18 1.9066679074564653e-24
2.1656225393682647 8.181388802531293e-26 4.703046014876859e-18 4.7030433568082055e-18 2.6580686540647226e-24
2.231578038680979 8.205318840312486e-26 4.860455522190078e-18 4.860451856940596e-18 3.665249481857711e-24
2.299542257339062 8.234177360369737e-26 5.026099073526311e-18 5.0260940729124086e-18 5.000613903348306e-24
2.369576372248914 8.272524141272233e-26 5.203291862523985e-18 5.2032851099438235e-18 6.752580163610199e-24
2.4417434235010123 8.325743222840622e-26 5.396255101779104e-18 5.396246074069448e-18 9.02770965738009e-24
2.5161083711144245 8.403054296504313e-26 5.6122362610220506e-18 5.612224307624931e-18 1.1953397120572565e-23
2.5927381535095444 8.51954423314854e-26 5.8633315649121355e-18 5.86331588468982e-18 1.5680222313971228e-23
2.6717017477616296 8.693224741809661e-26 6.165074300222028e-18 6.16505391683223e-18 2.0383389795814187e-23
2.753070231689431 8.951213075424043e-26 6.541368553279387e-18 6.541342288410211e-18 2.62648691749286e-23
2.836916847834745 9.354945611064273e-26 7.04461570154456e-18 7.044582145239395e-18 3.3556305164959103e-23
2.9233170693905177 1.0039729661477266e-25 7.79053663661208e-18 7.790494123013967e-18 4.25135981127997e-23
2.967498994190263 1.0621099734086122e-25 8.366224233052962e-18 8.366176602941973e-18 4.7630110988145406e-23
3.0123486681368425 1.1300038164943712e-25 9.035549755280818e-18 9.035496463574286e-18 5.329170653324704e-23
3.0578761833420214 1.2818821184509691e-25 1.0404888217897568e-17 1.040482865437118e-17 5.95635263846706e-23
3.1040917844459814 1.4775883045307033e-25 1.2174676560378921e-17 1.2174610110023621e-17 6.645035530179246e-23
3.127460860933648 1.684600600509044e-25 1.3984864652873194e-17 1.3984794490527186e-17 7.016234600854372e-23
3.1510058709225794 1.9604122009781725e-25 1.6397062126346058e-17 1.63969880766067e-17 7.404973935654052e-23
3.162844764501044 2.217141688960339e-25 1.861404493481731e-17 1.861396886629851e-17 7.606851879864785e-23
3.1747281389236908 2.5156970374136193e-25 2.1199924424171515e-17 2.119984629088354e-17 7.81332879748477e-23
3.1986289994194426 3.348451441125756e-25 2.843002938710831e-17 2.842994697280768e-17 8.241430062869336e-23
3.2227097969389145 5.311429867149315e-25 4.5436208494416934e-17 4.54361215242862e-17 8.697013071435755e-23
3.2348180950136065 7.17294058084726e-25 6.159089713850886e-17 6.159080773189304e-17 8.940661583273266e-23
3.240889293275058 8.56465809345036e-25 7.367898924980334e-17 7.367889855774969e-17 9.069205365580465e-23
3.2469718861334385 1.0174659333745204e-24 8.769358776595591e-17 8.769349574363332e-17 9.202232257220922e-23
3.2714166318528037 1.876265483986825e-24 1.629294455676639e-16 1.6292934803184062e-16 9.753582322006794e-23
3.2744851364798273 1.9299512037724178e-24 1.677485539407071e-16 1.6774845575082013e-16 9.818988695481865e-23
3.2775565192852394 1.985178891361429e-24 1.727107106816175e-16 1.7271061183397506e-16 9.884764247570748e-23
3.283707930232385 1.932065255064179e-24 1.6840529612503567e-16 1.684051960926098e-16 1.0003242579240302e-22
3.2898708863219004 1.7636285921649712e-24 1.540123040891743e-16 1.5401220297065153e-16 1.0111852277162726e-22
3.29141343181113 1.723907053655997e-24 1.5061412975924711e-16 1.5061402836777718e-16 1.0139146997239465e-22
3.292184975758714 1.7043893009104366e-24 1.4894381069949762e-16 1.4894370917134016e-16 1.0152815752150002e-22
3.295272960557952 1.581191685399296e-24 1.3830737851903955e-16 1.3830727645772176e-16 1.0206131782294243e-22
3.3076538914384823 1.1543982253518465e-24 1.0135499177828137e-16 1.0135488757125217e-16 1.0420702923912633e-22
3.310756385682612 1.06753501721222e-24 9.381640523423948e-17 9.38163004854639e-17 1.0474877556143968e-22
3.313861789986515 9.873902317843743e-25 8.685456529497475e-17 8.685446000231587e-17 1.0529265889454004e-22
3.3200813396944477 8.749960951841444e-25 7.711240917227597e-17 7.711230271329476e-17 1.0645898119290803e-22
3.345076488085796 6.744957726807776e-25 5.989005582734149e-17 5.988994417863185e-17 1.116487096498908e-22
3.3482140837626964 6.820140717738296e-25 6.061442466506491e-17 6.061431231351608e-17 1.1235154882637698e-22
3.3513546224236106 6.896154878211144e-25 6.134749369030353e-17 6.134738063226832e-17 1.1305803520861193e-22
3.3576445397418455 7.4516906002503345e-25 6.6413897055075e-17 6.64137825211977e-17 1.1453387729421788e-22
3.3702598118196083 9.500743033983075e-25 8.499441453390644e-17 8.499429690297883e-17 1.1763092760255937e-22
3.382922481734668 9.967421662275057e-25 8.950438449296998e-17 8.950426383600646e-17 1.206569635181928e-22
3.389271646505754 1.020919298803792e-24 9.184747574493644e-17 9.184735355090993e-17 1.2219402653200378e-22
3.395632727569191 1.0469712673359188e-24 9.436803392650804e-17 9.436791014820284e-17 1.2377830518016078e-22
3.421196662673239 1.1720624657176666e-24 1.0643837389434697e-16 1.0643824353898552e-16 1.3035536150125103e-22
3.4276182099114902 1.146852146403539e-24 1.0434443846493788e-16 1.043443066244877e-16 1.318404501771871e-22
3.4340518103208963 1.0363841689187044e-24 9.447068112888528e-17 9.447054787544084e-17 1.332534444392227e-22
3.4469541582030403 8.79057541713687e-25 8.043077343223183e-17 8.043063744950809e-17 1.3598272373028162e-22
3.472904465399547 8.349644433010246e-25 7.697155338905934e-17 7.697141114108688e-17 1.422479724842074e-22
3.4990501388274233 7.6752697999210265e-25 7.128747780387168e-17 7.128732910280026e-17 1.4870107144873577e-22
3.5253949054701885 5.275356857206987e-25 4.9366126176682007e-17 4.936597114170479e-17 1.550349772284934e-22
3.5519380250092896 3.0197358307672026e-25 2.8471068399632435e-17 2.847090694471174e-17 1.6145492070130762e-22
3.578680990867387 2.1253648884679667e-25 2.0189516620326683e-17 2.0189348116912116e-17 1.6850341456267562e-22
3.605625307711299 1.763600017773541e-25 1.687913244446057e-17 1.687895648203119e-17 1.7596242938287438e-22
3.660119384959845 1.4996592240740404e-25 1.456992336621256e-17 1.4569731578287588e-17 1.9178792497160433e-22
3.715437065384467 1.3127298141407489e-25 1.2946569028320941e-17 1.2946360328166807e-17 2.087001541325938e-22
3.8285932144167436 1.2177585062981874e-25 1.2375701629023875e-17 1.2375455763168814e-17 2.458658550609813e-22
3.94519561050918 1.199412947329263e-25 1.2560493610163035e-17 1.2560205946577075e-17 2.8766358596094836e-22
4.06534921144712 1.2125483050548931e-25 1.3084777411459017e-17 1.3084443006675287e-17 3.344047837292695e-22
4.189162171576248 1.2439303711420757e-25 1.383224515961863e-17 1.3831858599402038e-17 3.8656021658433186e-22
4.316745939156006 1.2886310254781736e-25 1.4765715811896912e-17 1.4765271410849976e-17 4.444010469354132e-22
4.448215356677963 1.3449997828585687e-25 1.5880985615050936e-17 1.5880477925271708e-17 5.0768977923033e-22
4.58368876423945 1.4132427601550063e-25 1.7194966078891344e-17 1.7194389075467783e-17 5.770034235634737e-22
4.723288106065518 1.4949395072100487e-25 1.8742930264381814e-17 1.874227696866713e-17 6.532957146860313e-22
4.867139040275056 1.593245878891237e-25 2.0583820682366695e-17 2.0583085117846414e-17 7.355645202805919e-22
4.940699165968905 1.6525818833694131e-25 2.1673089849954774e-17 2.1672310505990638e-17 7.793439641331479e-22
5.015371051989984 1.7140451020101575e-25 2.2818902220618123e-17 2.281807733372901e-17 8.248868891163617e-22
5.091171501069577 1.789065221037432e-25 2.4177608069823693e-17 2.4176735001830988e-17 8.730679927027327e-22
5.129500256944802 1.8275750923509845e-25 2.488397288675203e-17 2.4883075028571042e-17 8.978581809878751e-22
5.168117569889187 1.8677277425296586e-25 2.562213927846428e-17 2.5621215988522535e-17 9.232899417338013e-22
5.20702561229733 1.9170133362749943e-25 2.6496241965175394e-17 2.6495291269986096e-17 9.506951892978655e-22
5.246226572918644 1.9675612945433846e-25 2.7399633048979965e-17 2.739865437169292e-17 9.786772870427984e-22
5.265937586045735 1.9933213013683086e-25 2.786265184101291e-17 2.786165895428341e-17 9.928867294954523e-22
5.285722656980489 2.0194122883510629e-25 2.8333406962233206e-17 2.8332399719351796e-17 1.0072428814090416e-21
5.305582063971359 2.0458396186586963e-25 2.8812042988462755e-17 2.881102124187978e-17 1.0217465829690403e-21
5.3255160863122235 2.0742332580330587e-25 2.9321671730936553e-17 2.932063525331359e-17 1.036477622958649e-21
5.365609099470188 2.1449588303606844e-25 3.054973334217798e-17 3.05486663344946e-17 1.0670076833830728e-21
5.406003951863644 2.21838215857977e-25 3.1833336175754835e-17 3.183223798720205e-17 1.0981885527806403e-21
5.446702915881641 2.294633749628696e-25 3.317542520042342e-17 3.317429517173585e-17 1.1300286875697939e-21
5.487708281020852 2.3770325880958715e-25 3.462546270323917e-17 3.462430006997262e-17 1.162633266555166e-21
5.529022354014368 2.4915710873595038e-25 3.6567145638054734e-17 3.6565948866367736e-17 1.19677168698925e-21
5.570647458961463 2.6128686917551234e-25 3.863604763995895e-17 3.863481598746225e-17 1.2316524967008669e-21
5.612585937458331 2.7414121399061102e-25 4.08419781350458e-17 4.084071084846554e-17 1.2672865802728547e-21
5.654840148729818 2.8827193756452106e-25 4.327052185720673e-17 4.326921804637e-17 1.3038108367330861e-21
5.67608639626678 2.978961633570701e-25 4.48831511537687e-17 4.488182823972207e-17 1.322914046643344e-21
5.686739436050992 3.0285708207692863e-25 4.571623919265451e-17 4.571490664712902e-17 1.3325455254782496e-21
5.6974124697621304 3.079203707946462e-25 4.656777799849709e-17 4.656643576795377e-17 1.3422305433242793e-21
5.718818669136295 3.1836392184021923e-25 4.832808708885724e-17 4.8326725326785444e-17 1.3617620718089643e-21
5.740305295436557 3.298762646252904e-25 5.0263820059161257e-17 5.02624384358618e-17 1.3816232994391889e-21
5.7835210386641895 3.597432421084264e-25 5.5227374461399156e-17 5.522595156403744e-17 1.4228973617261622e-21
5.827062130521658 3.941512774307609e-25 6.096520243642642e-17 6.096373703697807e-17 1.4653994483425832e-21
5.8489554468988025 4.18289919327083e-25 6.494192303108286e-17 6.494043481670476e-17 1.4882143780998053e-21
5.870931020387893 4.44194106888581e-25 6.922280655470268e-17 6.922129523907859e-17 1.5113156241030499e-21
5.892989160043636 4.720059635967165e-25 7.383334782359266e-17 7.383181311739129e-17 1.5347062013883777e-21
5.915130176081913 5.036368775546666e-25 7.90771962265677e-17 7.907563728967931e-17 1.5589368883889608e-21
5.95966208400165 5.9207916567092665e-25 9.366360041357337e-17 9.366198730249937e-17 1.6131110739854371e-21
6.004529249263818 7.195591533973527e-25 1.1468718679545167e-16 1.1468551312461512e-16 1.673670836548824e-21
6.027089341400364 8.081753314413494e-25 1.2929527441935332e-16 1.2929356625508618e-16 1.708164267170509e-21
6.049734195844842 9.128979587201641e-25 1.4659797209939047e-16 1.4659622744427299e-16 1.7446551175243567e-21
6.095279466722835 1.215402310368951e-24 1.9664509282848355e-16 1.9664326029758346e-16 1.832530900104308e-21
6.141167624020661 1.6809552531641925e-24 2.740163880973952e-16 2.7401444368135054e-16 1.944416044748409e-21
6.164241091010745 1.9782590671012607e-24 3.2369218494883945e-16 3.2369017144219606e-16 2.0135066434565187e-21
6.187401249150058 2.3169373641032702e-24 3.8053272138159836e-16 3.80530636424214e-16 2.084957384204618e-21
6.1990139391386085 2.4823084440788225e-24 4.0845836122628865e-16 4.0845623981642134e-16 2.121409867474854e-21
6.204828454712694 2.5694202500117327e-24 4.231889845255478e-16 4.231868446501146e-16 2.139875433123182e-21
6.210648424152782 2.633012333394728e-24 4.340695005110659e-16 4.3406734460961764e-16 2.155901448292373e-21
6.233982942956859 2.8490671168472586e-24 4.714522610766075e-16 4.714500479632835e-16 2.2131133238535408e-21
6.239830258556775 2.8766886124321725e-24 4.7646945326372e-16 4.764672312401429e-16 2.2220235771544154e-21
6.245683058788269 2.879088550579609e-24 4.773142468911273e-16 4.773120159261201e-16 2.230965007037703e-21
6.257405133728602 2.8731640569546383e-24 4.772260388294145e-16 4.772237916369942e-16 2.247192420427377e-21
6.269149208991335 2.830685288855961e-24 4.710528408629256e-16 4.710505849617836e-16 2.2559011419932657e-21
6.280915325867298 2.7241442122906325e-24 4.541742068915091e-16 4.541719516270487e-16 2.255264460339204e-21
6.304513850009849 2.4614040939225934e-24 4.1191153581488064e-16 4.1190929032538175e-16 2.2454894987544418e-21
6.32820103803542 2.135728464783895e-24 3.587531612100742e-16 3.587509345903086e-16 2.226619765594369e-21
6.3519772230701035 1.8370620050539735e-24 3.0974348483519275e-16 3.097412742455515e-16 2.2105896412665395e-21
6.375842739491607 1.5858038443209176e-24 2.683839225509368e-16 2.6838172506043667e-16 2.1974905002018057e-21
6.399797922933955 1.3844325267215475e-24 2.3518384617206706e-16 2.351816508843415e-16 2.1952877256043583e-21
6.42384311029221 1.2170167566137236e-24 2.0752045767818402e-16 2.0751826237669267e-16 2.1953014913516274e-21
6.447978639727206 1.0950235192858525e-24 1.8742023166316253e-16 1.874180276832465e-16 2.2039799159835594e-21
6.472204850670314 9.934036599026913e-25 1.706661703757026e-16 1.7066395590089715e-16 2.214474805443419e-21
6.496522083828205 9.273683555585527e-25 1.599199423685598e-16 1.59917710245025e-16 2.2321235348572224e-21
