Dust emission spectrum from A.P. Jones, M. Kohler, N. Ysard, M. Bocchio, and L. Verstraete (2017), A&A, 602A, 46J 
inside the DustPedia framework.

lambda    nu*dP/dnu     j_nu    j_nu(carb.) j_nu(sil)
 (um)   (erg s-1 H-1) (Jy cm2 sr-1 H-1)
0.9927057738263894 2.3553686833274634e-23 6.206530262838286e-16 6.206530026438408e-16 2.363998800167219e-23
1.0001793341362166 2.3950202814770478e-23 6.358526788987822e-16 6.358526504453112e-16 2.845347113996947e-23
1.0077091589558085 2.4348108397053318e-23 6.51283184766847e-16 6.512831505651817e-16 3.4201665519032846e-23
1.0114953028030835 2.4547560931327743e-23 6.590853374433894e-16 6.590852999644836e-16 3.747890580875929e-23
1.0152956718711033 2.4747335525989113e-23 6.669456041112665e-16 6.669455630547421e-16 4.105652430720968e-23
1.0229392996569957 2.514762410511801e-23 6.828357599829098e-16 6.828357107625144e-16 4.9220395398014726e-23
1.0267826658714554 2.534768142716798e-23 6.908538808648061e-16 6.908538269974616e-16 5.386734451408818e-23
1.0306404723013447 2.5548019030514143e-23 6.989302813999543e-16 6.9893022246653155e-16 5.893342271629093e-23
1.03451277320114 2.5748629423609888e-23 7.070651094247611e-16 7.070650449702368e-16 6.445452427195427e-23
1.0383996230291617 2.594950529282681e-23 7.1525851653026e-16 7.152584460608184e-16 7.046944155466598e-23
1.0403485208654093 2.6050040545294206e-23 7.193772356874833e-16 7.193771620124336e-16 7.367504966866276e-23
1.0423010764483396 2.6150639507218447e-23 7.235106582670097e-16 7.235105812469258e-16 7.702008372423383e-23
1.0462171883269815 2.6352025123255786e-23 7.31821694353044e-16 7.318216102013335e-16 8.415171065066997e-23
1.0471985131304309 2.6402410013303472e-23 7.339086747474354e-16 7.339085887163962e-16 8.603103925125709e-23
1.048180758391296 2.6452810089444287e-23 7.359993488803317e-16 7.359992609298171e-16 8.795051452459264e-23
1.0501480137395462 2.655365538953225e-23 7.401917888848462e-16 7.40191696971663e-16 9.191318304802328e-23
1.0521189612883777 2.6654560210379583e-23 7.443990355978845e-16 7.443989395514543e-16 9.604643030323725e-23
1.0531058218030118 2.6704966989896205e-23 7.465063256973822e-16 7.465062275180501e-16 9.817933213438509e-23
1.0540936079674168 2.6755166550998767e-23 7.486111160622949e-16 7.486110157042982e-16 1.0035799698337095e-22
1.058054026499678 2.6956099621961706e-23 7.570670244627725e-16 7.570669149184749e-16 1.0954429767193205e-22
1.0590464539527713 2.700636612132051e-23 7.591902019277532e-16 7.591900899641751e-16 1.119635783130365e-22
1.06003981227728 2.705664572621224e-23 7.613170650621763e-16 7.61316950628253e-16 1.1443392331023369e-22
1.0620293250338977 2.71572438850448e-23 7.655818595532755e-16 7.655817400213533e-16 1.1953192196163303e-22
1.0660195594769086 2.735859347339204e-23 7.741558011198575e-16 7.741556707327902e-16 1.303870673549764e-22
1.070024785945596 2.7560142737661565e-23 7.827890344823272e-16 7.82788892301255e-16 1.4218107187318188e-22
1.0740450607676866 2.776188625047788e-23 7.914817507231439e-16 7.914815957323581e-16 1.5499078577353693e-22
1.07808044048254 2.796381881083985e-23 8.002341469190906e-16 8.002339780201227e-16 1.688989679808075e-22
1.0861967418109137 2.8367918492304114e-23 8.179097762310842e-16 8.179095758571812e-16 2.0037390309951014e-22
1.0902777775684922 2.8569364822597463e-23 8.268127748760485e-16 8.268125567363277e-16 2.1813972091448205e-22
1.0943741465085532 2.8770969376264175e-23 8.357757241790934e-16 8.357754867760726e-16 2.374030205591677e-22
1.1026131145906286 2.9174637632444204e-23 8.538823905984036e-16 8.538821096905503e-16 2.809078533630607e-22
1.1109141095355224 2.957889478102088e-23 8.722316835817143e-16 8.722313516290538e-16 3.3195266050584697e-22
1.1192775983109025 2.998339529613561e-23 8.90816095150002e-16 8.908157033853261e-16 3.917646756772938e-22
1.1277040513999907 3.0386642584003504e-23 9.09593380886817e-16 9.095929191297195e-16 4.617570973224561e-22
1.1361939428280308 3.079037110864414e-23 9.28617419437332e-16 9.286168758823333e-16 5.435549988208451e-22
1.1447477501889525 3.119457035582307e-23 9.478906516654167e-16 9.478900126408206e-16 6.390245963291595e-22
1.1533659546722406 3.159938472073795e-23 9.674202797908832e-16 9.674195294836863e-16 7.503071970682314e-22
1.1707974979042381 3.2412089337762046e-23 1.0072986362524625e-15 1.0072976057699395e-15 1.0304825228928673e-21
1.1884924949847024 3.3227221587009653e-23 1.0482380120271897e-15 1.0482366038294194e-15 1.4081977704385366e-21
1.2064549276569216 3.4050353710433134e-23 1.0904409747367428e-15 1.0904390598663216e-15 1.91487042118495e-21
1.2246888378427687 3.487587559028777e-23 1.1337578638930734e-15 1.1337552727952322e-15 2.5910978414338954e-21
1.2431983285522175 3.570302773646832e-23 1.1781888215569627e-15 1.1781853324021755e-15 3.489154787236847e-21
1.2619875648066055 3.6532911244852273e-23 1.2237953265171871e-15 1.2237906505078182e-15 4.676009369159394e-21
1.3004222497298317 3.819521278342908e-23 1.3184472489171435e-15 1.318438968881534e-15 8.280035609619222e-21
1.3400274889804893 3.9867159709280166e-23 1.4180725046282218e-15 1.4180581113474921e-15 1.4393280730261813e-20
1.3808389325824078 4.1554382481697917e-23 1.5231030554161013e-15 1.5230784822192761e-15 2.4573196825479256e-20
1.4228933163050095 4.3271111640939886e-23 1.6343302713607936e-15 1.6342890471250232e-15 4.1224235770950457e-20
1.466228494730424 4.5048371071207546e-23 1.753275564656595e-15 1.7532075739297688e-15 6.799072682675268e-20
1.5108834753276823 4.688194090918315e-23 1.880208395233414e-15 1.8800981032155594e-15 1.1029201785395352e-19
1.5568984535646726 4.8770021078212603e-23 2.015499355474372e-15 2.0153232012271433e-15 1.761542472285208e-19
1.6043148490894465 5.0724618974812163e-23 2.1601197601518054e-15 2.1598422324516432e-15 2.775277001623513e-19
1.6531753430134553 5.2758675920924683e-23 2.3151665540543533e-15 2.314735758955788e-15 4.307950985649981e-19
1.7035239163302658 5.488778152047491e-23 2.4819518152188124e-15 2.4812928112910265e-15 6.590039277865295e-19
1.755405889504358 5.715557624680329e-23 2.6632110976074976e-15 2.662217124687371e-15 9.939729201262833e-19
1.8088679632656115 5.956348511399936e-23 2.8599365687649912e-15 2.8584578580743892e-15 1.4787106906024085e-18
1.8639582606462262 6.211249320321423e-23 3.0731558002754718e-15 3.0709851718098085e-15 2.17062846566324e-18
1.9207263702978936 6.481297548801108e-23 3.3044325531804192e-15 3.301287386498473e-15 3.1451666819471607e-18
1.979223391128241 6.767974389811959e-23 3.555682339385738e-15 3.551182220929981e-15 4.500118455757474e-18
2.039501978296691 7.07265852038323e-23 3.8289196618106274e-15 3.822559333577733e-15 6.360328232894208e-18
2.1016163906111602 7.398965689263329e-23 4.127564735430653e-15 4.11868115606946e-15 8.883579361194008e-18
2.1656225393682647 7.748859891369515e-23 4.45440810986383e-15 4.442142281661147e-15 1.2265828202684116e-17
2.231578038680979 8.121917067231312e-23 4.811052127096976e-15 4.794305033645469e-15 1.6747093451507924e-17
2.299542257339062 8.518894450239668e-23 5.199888905707933e-15 5.177271307196861e-15 2.2617598511070727e-17
2.369576372248914 8.941451252232064e-23 5.624036841159211e-15 5.593812542968773e-15 3.0224298190436996e-17
2.4417434235010123 9.39152326872857e-23 6.087030790635261e-15 6.047055002228662e-15 3.9975788406601747e-17
2.5161083711144245 9.872813073224183e-23 6.593859514973192e-15 6.541510728098547e-15 5.234878687464429e-17
2.5927381535095444 1.0391346664032758e-22 7.151545813930327e-15 7.083653821461833e-15 6.789199246849306e-17
2.6717017477616296 1.0952608193577416e-22 7.767387281485258e-15 7.680162120637625e-15 8.722516084763436e-17
2.753070231689431 1.1564583774294823e-22 8.451167902664806e-15 8.340127932217024e-15 1.1103997044778462e-16
2.836916847834745 1.2248014981432788e-22 9.223202596593014e-15 9.083099295431348e-15 1.401033011616658e-16
2.9233170693905177 1.3048176324686958e-22 1.0125003274589246e-14 9.949784645995804e-15 1.7521862859343987e-16
2.967498994190263 1.3534725785393104e-22 1.0661283076937951e-14 1.0466342721725017e-14 1.949403552129314e-16
3.0123486681368425 1.4057505061182777e-22 1.1240429860624421e-14 1.1023832713022796e-14 2.165971476016292e-16
3.0578761833420214 1.488258452120795e-22 1.208002094012393e-14 1.1839605254638778e-14 2.404156854851523e-16
3.1040917844459814 1.5846141703603813e-22 1.3056522536064747e-14 1.2790195925339226e-14 2.663266107255213e-16
3.127460860933648 1.6708850196934362e-22 1.3871003514937082e-14 1.359080708329038e-14 2.801964316467027e-16
3.1510058709225794 1.7797412033071009e-22 1.4885913822043864e-14 1.4591262639483824e-14 2.9465118256003966e-16
3.162844764501044 1.8762672793191262e-22 1.575222892649257e-14 1.5450098370413454e-14 3.02130556079116e-16
3.1747281389236908 1.9855041705394573e-22 1.6731958472467356e-14 1.6422197168133373e-14 3.0976130433398406e-16
3.1986289994194426 2.2803936757182754e-22 1.9361684156019886e-14 1.9036159975975734e-14 3.255241800441587e-16
3.2227097969389145 2.9568890740168917e-22 2.529447471251305e-14 2.4952250208060182e-14 3.422245044528606e-16
3.2348180950136065 3.589790186167141e-22 3.0823955059018915e-14 3.047281896841047e-14 3.511360906084398e-16
3.240889293275058 4.061881497245379e-22 3.494305550835494e-14 3.458721877624391e-14 3.5583673211103115e-16
3.2469718861334385 4.608670718887721e-22 3.9721317138429125e-14 3.9360616616364274e-14 3.607005220648604e-16
3.2714166318528037 7.481896189434322e-22 6.497061361215717e-14 6.458981550650026e-14 3.8079810565690463e-16
3.2744851364798273 7.662021565310092e-22 6.659717796651839e-14 6.621401191268934e-14 3.8316605382905396e-16
3.2775565192852394 7.846991235142496e-22 6.826888190436338e-14 6.788333611448925e-14 3.855457898741581e-16
3.283707930232385 7.672360749904542e-22 6.687487292052439e-14 6.64850723795702e-14 3.8980054095419436e-16
3.2898708863219004 7.112849299109202e-22 6.211434278518469e-14 6.172067108823686e-14 3.9367169694785233e-16
3.29141343181113 6.980668120631694e-22 6.098862765816287e-14 6.059398391758484e-14 3.946437405780236e-16
3.292184975758714 6.915683931822e-22 6.043503780788993e-14 6.00399074065513e-14 3.951304013386275e-16
3.295272960557952 6.509329949112499e-22 5.693733210783198e-14 5.6540308859160175e-14 3.9702324867181087e-16
3.3076538914384823 5.092471608559297e-22 4.471138353139303e-14 4.430675816306297e-14 4.046253683300574e-16
3.310756385682612 4.801570149241453e-22 4.2196840723615703e-14 4.179029927663021e-14 4.0654144698547985e-16
3.313861789986515 4.532181243907634e-22 3.986677395686434e-14 3.9458310201069195e-14 4.0846375579514655e-16
3.3200813396944477 4.1563512723215794e-22 3.6629450318577736e-14 3.621685145864364e-14 4.12598859934101e-16
3.345076488085796 3.502802894976933e-22 3.110220544430708e-14 3.0671177894495634e-14 4.3102754981145635e-16
3.3482140837626964 3.530461192907762e-22 3.137719335524336e-14 3.094366931771535e-14 4.3352403752799594e-16
3.3513546224236106 3.558371982022114e-22 3.165491590169747e-14 3.1218884179483366e-14 4.360317222140984e-16
3.3576445397418455 3.7500111961476907e-22 3.3422329360798284e-14 3.2981054515560324e-14 4.412748452379643e-16
3.3702598118196083 4.442430249622947e-22 3.974233981740707e-14 3.929006741193464e-14 4.522724054724302e-16
3.382922481734668 4.61024417648077e-22 4.139857641820949e-14 4.093561469873235e-14 4.629617194771447e-16
3.389271646505754 4.696766205940083e-22 4.225467386944029e-14 4.1786294158717245e-14 4.683797107230386e-16
3.395632727569191 4.791583892798834e-22 4.318861132721717e-14 4.271464803891361e-14 4.739632883035712e-16
3.421196662673239 5.249555773583233e-22 4.7672730468827774e-14 4.7175653942236235e-14 4.9707652659154e-16
3.4276182099114902 5.16969009347503e-22 4.70355670112333e-14 4.653333251181625e-14 5.022344994170573e-16
3.4340518103208963 4.80081814347414e-22 4.376143264163355e-14 4.3254319664951895e-14 5.071129766816491e-16
3.4469541582030403 4.27302436918458e-22 3.909671876977416e-14 3.858024231817587e-14 5.164764515982916e-16
3.472904465399547 4.1340586268248167e-22 3.810999580414796e-14 3.757194989942963e-14 5.380459047183343e-16
3.4990501388274233 3.9191226179509166e-22 3.6400592281551086e-14 3.5840474594655276e-14 5.601176868957982e-16
3.5253949054701885 3.133562562225031e-22 2.9323484461149555e-14 2.874192489440022e-14 5.815595667493347e-16
3.5519380250092896 2.386883491889823e-22 2.25043271888731e-14 2.1901217317988107e-14 6.031098708849901e-16
3.578680990867387 2.1009771171136044e-22 1.9957849428606693e-14 1.9331120044942322e-14 6.267293836643694e-16
3.605625307711299 1.9964243328748437e-22 1.9107456560632326e-14 1.845585227361689e-14 6.516042870154281e-16
3.660119384959845 1.9430120628865185e-22 1.8877313193177456e-14 1.817345367410842e-14 7.038595190690336e-16
3.715437065384467 1.9137237901377817e-22 1.8873767384018832e-14 1.811482893840473e-14 7.589384456141129e-16
3.8285932144167436 1.9507443734701783e-22 1.9824809431183337e-14 1.8947525778625168e-14 8.772836525581704e-16
3.94519561050918 2.0131343312214632e-22 2.1081947597790533e-14 2.0075667431683562e-14 1.0062801661069705e-15
4.06534921144712 2.085341246849963e-22 2.2503207441893132e-14 2.1357449894454382e-14 1.1457575474387593e-15
4.189162171576248 2.1626163542604047e-22 2.4047840853717657e-14 2.275189319360408e-14 1.2959476601135645e-15
4.316745939156006 2.24279730127239e-22 2.569898358763236e-14 2.424272739534145e-14 1.4562561922909089e-15
4.448215356677963 2.3247000742568004e-22 2.744872446010068e-14 2.5824307111847373e-14 1.6244173482533108e-15
4.58368876423945 2.4079363971983696e-22 2.929743271100325e-14 2.749684283259999e-14 1.8005898784032583e-15
4.723288106065518 2.4926125912177806e-22 3.1251340771978554e-14 2.926551515942124e-14 1.9858256125573145e-15
4.867139040275056 2.578813222434834e-22 3.331678408661898e-14 3.1141638971432584e-14 2.175145115186398e-15
4.940699165968905 2.6237331721373617e-22 3.4409432509389666e-14 3.213753589636891e-14 2.2718966130207546e-15
5.015371051989984 2.667985310713657e-22 3.551860791750603e-14 3.3148873812735084e-14 2.369734104770947e-15
5.091171501069577 2.715730979087554e-22 3.6700662705512214e-14 3.422988835594809e-14 2.4707743495641205e-15
5.129500256944802 2.7392988802252714e-22 3.729785952409166e-14 3.4776263549340446e-14 2.521595974751215e-15
5.168117569889187 2.763041603845957e-22 3.790436646298745e-14 3.53312527854303e-14 2.573113677557147e-15
5.20702561229733 2.789906779532481e-22 3.856104894628223e-14 3.593166388401685e-14 2.629385062265388e-15
5.246226572918644 2.816668176198251e-22 3.9224025529777455e-14 3.6538022675491266e-14 2.686002854286194e-15
5.265937586045735 2.830009824637765e-22 3.9557886827577996e-14 3.6843452597951644e-14 2.7144342296263385e-15
5.285722656980489 2.8433254327495544e-22 3.9893337817579866e-14 3.7150394576271187e-14 2.7429432413086798e-15
5.305582063971359 2.8566150362683115e-22 4.023038486292138e-14 3.745885802052395e-14 2.771526842397444e-15
5.3255160863122235 2.8704769938816113e-22 4.057749233353616e-14 3.7777079591241485e-14 2.8004127422946705e-15
5.365609099470188 2.902768298503573e-22 4.1342890230904864e-14 3.84827108996774e-14 2.8601793312274664e-15
5.406003951863644 2.935227048251273e-22 4.211991564112258e-14 3.919961875023126e-14 2.9202968908912944e-15
5.446702915881641 2.9678714210216994e-22 4.290898116028845e-14 3.992824005859068e-14 2.9807411016977626e-15
5.487708281020852 3.001860737686905e-22 4.3727131690844016e-14 4.068538132752472e-14 3.0417503633192992e-15
5.529022354014368 3.0462359400576943e-22 4.4707595875185926e-14 4.1602246941996415e-14 3.1053489331895193e-15
5.570647458961463 3.091649586461398e-22 4.5715699792148856e-14 4.254638954090476e-14 3.169310251244088e-15
5.612585937458331 3.138196226633686e-22 4.6753328259517324e-14 4.351971869620958e-14 3.233609563307751e-15
5.654840148729818 3.1876999850736644e-22 4.784837644749076e-14 4.454983043714324e-14 3.298546010347521e-15
5.67608639626678 3.220591726672432e-22 4.852372170350916e-14 4.5191186425239e-14 3.332535278270162e-15
5.686739436050992 3.237329868506662e-22 4.8867454443935465e-14 4.5517886601583036e-14 3.3495678423524133e-15
5.6974124697621304 3.2542695974877063e-22 4.921535518159387e-14 4.584873000797283e-14 3.3666251736210444e-15
5.718818669136295 3.28877482925474e-22 4.9924060315990755e-14 4.6523247747426576e-14 3.4008125685641746e-15
5.740305295436557 3.3263019709898096e-22 5.0683441538960345e-14 4.7248086005370456e-14 3.435355533589901e-15
5.7835210386641895 3.4221021759072704e-22 5.253572442565497e-14 4.9028973008857225e-14 3.506751416797735e-15
5.827062130521658 3.529199257301879e-22 5.4587758426760614e-14 5.1008534354446477e-14 3.579224072314124e-15
5.8489554468988025 3.604199533504594e-22 5.5957276969539714e-14 5.233886370505161e-14 3.618413264488105e-15
5.870931020387893 3.683285360477895e-22 5.739998483547738e-14 5.374221944409386e-14 3.6577653913835046e-15
5.892989160043636 3.766780772364269e-22 5.892172056936419e-14 5.5224443092157033e-14 3.697277477207154e-15
5.915130176081913 3.8609035203548093e-22 6.06209431631233e-14 5.688269081770897e-14 3.738252345414347e-15
5.95966208400165 4.1236304661166364e-22 6.523351920243923e-14 6.140155726002846e-14 3.831961942410767e-15
6.004529249263818 4.497304904419436e-22 7.168045117819919e-14 6.774284540492067e-14 3.9376057732785e-15
6.027089341400364 4.755990708238421e-22 7.608833131059351e-14 7.208951250983975e-14 3.998818800753731e-15
6.049734195844842 5.0582643575820785e-22 8.122827859137153e-14 7.716458191551178e-14 4.0636966758597684e-15
6.095279466722835 5.927853146186113e-22 9.590924932926354e-14 9.168548982683123e-14 4.22375950243233e-15
6.141167624020661 7.250937432920839e-22 1.1819920143318019e-13 1.1376696707456265e-13 4.4322343586175385e-15
6.164241091010745 8.093832491471164e-22 1.32435148022001e-13 1.2787171397797184e-13 4.563434044029162e-15
6.187401249150058 9.040907676161707e-22 1.4848744964243464e-13 1.4378935133561087e-13 4.6980983068237556e-15
6.1990139391386085 9.501215213476498e-22 1.5634039375775749e-13 1.5157378531586256e-13 4.7666084418948934e-15
6.204828454712694 9.742576756599824e-22 1.6046231301667593e-13 1.5566110696682422e-13 4.8012060498516954e-15
6.210648424152782 9.917492361970326e-22 1.6349642199862053e-13 1.5866581882399508e-13 4.8306031746253915e-15
6.233982942956859 1.0504249022154883e-21 1.7382012249282357e-13 1.6888736609441426e-13 4.932756398409346e-15
6.239830258556775 1.057504728544615e-21 1.7515580158932885e-13 1.7020912491625855e-13 4.946676673070266e-15
6.245683058788269 1.0574886990207971e-21 1.7531743574450816e-13 1.7035681879956505e-13 4.960616944943128e-15
6.257405133728602 1.0544222191529642e-21 1.7513714111871703e-13 1.7015227317385346e-13 4.98486794486359e-15
6.269149208991335 1.0410651679099649e-21 1.7324310363926913e-13 1.6825004512972877e-13 4.993058509540306e-15
6.280915325867298 1.0097471700061671e-21 1.6834685844802466e-13 1.633654608290524e-13 4.981397618972233e-15
6.304513850009849 9.334241154582567e-22 1.5620684223057463e-13 1.5126671656560755e-13 4.940125664967001e-15
6.32820103803542 8.403130627068589e-22 1.4115322833547044e-13 1.3627347215998691e-13 4.8797561754835395e-15
6.3519772230701035 7.553719375784839e-22 1.2736180686802514e-13 1.2253633354219177e-13 4.8254733258333875e-15
6.375842739491607 6.8368912910091e-22 1.157086173871093e-13 1.1093117914034161e-13 4.777438246767675e-15
6.399797922933955 6.2687812330762285e-22 1.0649244746491508e-13 1.0174041441192439e-13 4.752033052990715e-15
6.42384311029221 5.794334868571019e-22 9.880250352610132e-14 9.407136266118582e-14 4.7311408649155466e-15
6.447978639727206 5.450520797068104e-22 9.32891259849479e-14 8.856124428674229e-14 4.7278816982056005e-15
6.472204850670314 5.162919400260066e-22 8.869865469260665e-14 8.397053900957034e-14 4.728115683036341e-15
6.496522083828205 4.976193254152356e-22 8.581191428939329e-14 8.10692900649267e-14 4.742624224466553e-15
6.520930681187647 4.8182069883299105e-22 8.339969642952971e-14 7.86404161515554e-14 4.7592802779742985e-15
6.57002334288761 4.652942456888959e-22 8.114542276666414e-14 7.633311484840132e-14 4.812307918262836e-15
