Dust emission spectrum from A.P. Jones, M. Kohler, N. Ysard, M. Bocchio, and L. Verstraete (2017), A&A, 602A, 46J 
inside the DustPedia framework.

lambda    nu*dP/dnu     j_nu    j_nu(carb.) j_nu(sil)
 (um)   (erg s-1 H-1) (Jy cm2 sr-1 H-1)
0.9927057738263894 5.243657034119284e-24 1.381733411867798e-16 1.3817333675706428e-16 4.42971551743587e-24
1.0001793341362166 5.3319264366220276e-24 1.4155703543046778e-16 1.4155703009831524e-16 5.332152560886159e-24
1.0077091589558085 5.4204696998775135e-24 1.4499117186021995e-16 1.4499116545026625e-16 6.409953691988043e-24
1.0114953028030835 5.464838718559441e-24 1.467272076835469e-16 1.4672720065904924e-16 7.024497707090397e-24
1.0152956718711033 5.509269890133523e-24 1.4847591698218805e-16 1.4847590928677996e-16 7.695408104464967e-24
1.0229392996569957 5.5982673594135246e-24 1.520102706710437e-16 1.5201026144452566e-16 9.226518008060174e-24
1.0267826658714554 5.642731684947261e-24 1.5379328063695677e-16 1.5379327053883954e-16 1.0098117223852228e-23
1.0306404723013447 5.687247939077349e-24 1.5558896357885822e-16 1.555889525304696e-16 1.1048388651098585e-23
1.03451277320114 5.73181421897779e-24 1.5739734264177175e-16 1.5739733055769583e-16 1.2084075954054727e-23
1.0383996230291617 5.776428659465341e-24 1.59218441630722e-16 1.592184284182541e-16 1.3212467883516691e-23
1.0403485208654093 5.798753367608886e-24 1.6013376872757008e-16 1.6013375491370514e-16 1.381386494218805e-23
1.0423010764483396 5.821089434040996e-24 1.6105228505373987e-16 1.6105227061230038e-16 1.4441439462195193e-23
1.0462171883269815 5.8657947559249404e-24 1.6289889816550946e-16 1.6289888238601344e-16 1.577949604585821e-23
1.0471985131304309 5.876977841389708e-24 1.6336254974152266e-16 1.633625336094074e-16 1.6132115243364188e-23
1.048180758391296 5.8881635748526716e-24 1.6382700146181304e-16 1.6382698496953995e-16 1.6492273024950674e-23
1.0501480137395462 5.9105428790844946e-24 1.6475830701165124e-16 1.6475828977583078e-16 1.723582044283137e-23
1.0521189612883777 5.932932456900523e-24 1.6569281820167927e-16 1.6569280019027895e-16 1.8011400265841177e-23
1.0531058218030118 5.944115842776248e-24 1.6616085236088666e-16 1.6616083394925004e-16 1.8411636625242842e-23
1.0540936079674168 5.955251952448106e-24 1.6662829596132394e-16 1.666282771408571e-16 1.8820466809584615e-23
1.058054026499678 5.999818746119748e-24 1.6850601493326434e-16 1.6850599438890072e-16 2.0544363653409126e-23
1.0590464539527713 6.0109659081217084e-24 1.6897743298995989e-16 1.6897741199157662e-16 2.099838330927743e-23
1.06003981227728 6.022115206108302e-24 1.6944964725391e-16 1.6944962579191623e-16 2.1461993776153712e-23
1.0620293250338977 6.0444201125591284e-24 1.7039646619819727e-16 1.7039644377943639e-16 2.2418760876275754e-23
1.0660195594769086 6.089054495116025e-24 1.722996785384292e-16 1.722996540823255e-16 2.445610373697587e-23
1.070024785945596 6.133720383461008e-24 1.7421568177122598e-16 1.7421565510142088e-16 2.666980507932986e-23
1.0740450607676866 6.178416314556792e-24 1.7614450679689209e-16 1.7614447772257673e-16 2.9074315401230696e-23
1.07808044048254 6.223140873619965e-24 1.7808618564743986e-16 1.7808615396224224e-16 3.168519759073815e-23
1.0861967418109137 6.3126004131120586e-24 1.82006219198826e-16 1.8200618160444716e-16 3.759437884657773e-23
1.0902777775684922 6.3571735247092304e-24 1.839800189808878e-16 1.8397997805076707e-16 4.093012069203637e-23
1.0943741465085532 6.401767326824792e-24 1.8596668237453002e-16 1.859666378272436e-16 4.4547286418534637e-23
1.1026131145906286 6.491012475265323e-24 1.899787520795085e-16 1.8997869936222346e-16 5.2717285000863684e-23
1.1109141095355224 6.580327351756258e-24 1.940427472707305e-16 1.9404268496610443e-16 6.230462607086273e-23
1.1192775983109025 6.669632480752197e-24 1.9815687662814646e-16 1.9815680308787794e-16 7.35402685524435e-23
1.1277040513999907 6.758590835323532e-24 2.0231157394034917e-16 2.023114872501307e-16 8.669021852018793e-23
1.1361939428280308 6.847588186212224e-24 2.0651877330133184e-16 2.065186712409142e-16 1.0206041771236422e-22
1.1447477501889525 6.936619884872585e-24 2.1077889735383972e-16 2.10778777351567e-16 1.2000227263414926e-22
1.1533659546722406 7.025716560915892e-24 2.1509345011493522e-16 2.1509330919587033e-16 1.4091906494670148e-22
1.1707974979042381 7.204376123593101e-24 2.238966506824458e-16 2.23896457088949e-16 1.9359349685397429e-22
1.1884924949847024 7.383257457728858e-24 2.3292381216732197e-16 2.3292354753932876e-16 2.6462799324575398e-22
1.2064549276569216 7.563594428552953e-24 2.4221931294233733e-16 2.422189529975497e-16 3.5994478759622916e-22
1.2246888378427687 7.744103381212146e-24 2.5174817717537815e-16 2.517476899758088e-16 4.871995692361438e-22
1.2431983285522175 7.924598973644307e-24 2.6150930377629284e-16 2.61508647522189e-16 6.562541038884809e-22
1.2619875648066055 8.105298748803587e-24 2.7151481748416955e-16 2.715139377369865e-16 8.797471830375183e-22
1.3004222497298317 8.465956195015443e-24 2.9223339369937307e-16 2.922318349299403e-16 1.5587694327565142e-21
1.3400274889804893 8.826870089679572e-24 3.1397124518971294e-16 3.1396853385078356e-16 2.7113389294754663e-21
1.3808389325824078 9.189105965462756e-24 3.3681057295708784e-16 3.368059409757974e-16 4.6319812904139356e-21
1.4228933163050095 9.555659808871945e-24 3.609129392850953e-16 3.6090516347963184e-16 7.77580546346637e-21
1.466228494730424 9.933288709602831e-24 3.866020448041707e-16 3.8658921156099735e-16 1.2833243173271014e-20
1.5108834753276823 1.0320843511885248e-23 4.13919224345421e-16 4.1389839234391803e-16 2.083200150286875e-20
1.5568984535646726 1.0717741091802684e-23 4.4292784348046435e-16 4.4289454796763113e-16 3.329551283320087e-20
1.6043148490894465 1.1126508123765312e-23 4.738249501996194e-16 4.737724563398409e-16 5.249385977848535e-20
1.6531753430134553 1.1549888601483232e-23 5.068344746423446e-16 5.067529313880101e-16 8.15432543347082e-20
1.7035239163302658 1.1991266492804429e-23 5.422289772722257e-16 5.421041451933543e-16 1.248320788714978e-19
1.755405889504358 1.2460311087380021e-23 5.805984463223433e-16 5.804100208814207e-16 1.8842544092240476e-19
1.8088679632656115 1.2957278866291505e-23 6.221428378555919e-16 6.218623067774111e-16 2.805310781807193e-19
1.8639582606462262 1.3482405858143004e-23 6.670724620417597e-16 6.666603435200435e-16 4.121185217163147e-19
1.9207263702978936 1.40380472092966e-23 7.157174907062232e-16 7.15119870252601e-16 5.976204536219191e-19
1.979223391128241 1.4627581146344492e-23 7.68487422592537e-16 7.676316520870937e-16 8.557705054432678e-19
2.039501978296691 1.5254226243316277e-23 8.258168639191783e-16 8.246063462203479e-16 1.2105176988303477e-18
2.1016163906111602 1.5926181749328405e-23 8.884531827736072e-16 8.867610098313938e-16 1.6921729422132798e-18
2.1656225393682647 1.664801932261697e-23 9.570062347678925e-16 9.546677962867747e-16 2.338438481117552e-18
2.231578038680979 1.7419095335886492e-23 1.0318275226662685e-15 1.028631953209636e-15 3.1955694566324835e-18
2.299542257339062 1.8241361472045356e-23 1.1134432254977432e-15 1.1091236329789617e-15 4.319592518781517e-18
2.369576372248914 1.911887720710224e-23 1.2025482971514326e-15 1.1967706895362168e-15 5.777607615215689e-18
2.4417434235010123 2.0056346997022378e-23 1.2999339747690155e-15 1.2922851838183203e-15 7.64879095069511e-18
2.5161083711144245 2.1062499069223556e-23 1.4067232800484734e-15 1.396697571137385e-15 1.002570891108819e-17
2.5927381535095444 2.2151449425032675e-23 1.5245098689316747e-15 1.5114947259672915e-15 1.301514296438331e-17
2.6717017477616296 2.3336507774390094e-23 1.6549819958626123e-15 1.6382439917744093e-15 1.6738004088202392e-17
2.753070231689431 2.4637074766151503e-23 1.8004284420685852e-15 1.779098839764292e-15 2.1329602304292897e-17
2.836916847834745 2.610234846325573e-23 1.9656021689100926e-15 1.938661785594844e-15 2.6940383315248092e-17
2.9233170693905177 2.783974147564608e-23 2.1602825298377254e-15 2.126553803278164e-15 3.3728726559561736e-17
2.967498994190263 2.8912734214851495e-23 2.277451711104972e-15 2.2399049730075202e-15 3.7546738097451495e-17
3.0123486681368425 3.007110852684888e-23 2.4044962797888545e-15 2.3627544222714465e-15 4.174185751740761e-17
3.0578761833420214 3.193949108844637e-23 2.592491382229474e-15 2.5461331256842142e-15 4.6358256545259903e-17
3.1040917844459814 3.4138960168914943e-23 2.8128998915987422e-15 2.7615159395842102e-15 5.1383952014531424e-17
3.127460860933648 3.6136629969682406e-23 2.999915107380709e-15 2.945839470688237e-15 5.4075636692472364e-17
3.1510058709225794 3.8670639524937794e-23 3.2344467068688597e-15 3.1775647831307198e-15 5.688192373813984e-17
3.162844764501044 4.092829784545337e-23 3.4361411315940643e-15 3.377806723351947e-15 5.833440824211685e-17
3.1747281389236908 4.3490572958064846e-23 3.6649757350066065e-15 3.6051591526922605e-15 5.981658231434583e-17
3.1986289994194426 5.0431798022247005e-23 4.28191217649898e-15 4.2190329645457326e-15 6.287921195324714e-17
3.2227097969389145 6.640211540650732e-23 5.680316667157051e-15 5.614191565891033e-15 6.612510126601672e-17
3.2348180950136065 8.136597271452637e-23 6.986539480636786e-15 6.918682032811792e-15 6.785744782499498e-17
3.240889293275058 9.253081610063052e-23 7.960127456772013e-15 7.891356236990086e-15 6.877121978192678e-17
3.2469718861334385 1.0546112948889223e-22 9.089508072332484e-15 9.019791361668018e-15 6.97167106644657e-17
3.2714166318528037 1.7352707431107426e-22 1.5068587174777802e-14 1.499496269922772e-14 7.362447555007823e-17
3.2744851364798273 1.7779473908981778e-22 1.5453660342440048e-14 1.5379575184228702e-14 7.408515821134406e-17
3.2775565192852394 1.8217811767207154e-22 1.5849509739751887e-14 1.57749615815262e-14 7.454815822567928e-17
3.283707930232385 1.7803869617745937e-22 1.551845066976495e-14 1.544307418317006e-14 7.537648659488776e-17
3.2898708863219004 1.647793048060327e-22 1.4389673943897804e-14 1.4313543323463472e-14 7.613062043432842e-17
3.29141343181113 1.616474138066295e-22 1.4122794211373245e-14 1.4046474216084705e-14 7.631999528854027e-17
3.292184975758714 1.601077668313466e-22 1.3991557504913326e-14 1.3915142695827556e-14 7.641480908577097e-17
3.295272960557952 1.504685904815138e-22 1.3161539167654893e-14 1.3084755492595905e-14 7.678367505898512e-17
3.3076538914384823 1.16881557659783e-22 1.0262082057540713e-14 1.0183816684640313e-14 7.826537290039738e-17
3.310756385682612 1.099920174019711e-22 9.66624561324668e-15 9.587606734769912e-15 7.86388784767698e-17
3.313861789986515 1.036144265973625e-22 9.114315384849049e-15 9.035301765946107e-15 7.901361890294066e-17
3.3200813396944477 9.47120962962423e-23 8.346869161310726e-15 8.267049658494088e-15 7.981950281663554e-17
3.345076488085796 7.918928670410457e-23 7.031401817073737e-15 6.947991366958295e-15 8.341045011544166e-17
3.3482140837626964 7.983888058713905e-23 7.095730151293853e-15 7.011833268970171e-15 8.389688232368352e-17
3.3513546224236106 8.049454874687938e-23 7.160713337450394e-15 7.076327814451857e-15 8.438552299853728e-17
3.3576445397418455 8.502228805732726e-23 7.577691814306633e-15 7.492284716858931e-15 8.540709744769965e-17
3.3702598118196083 1.0141696789705391e-22 9.072843860087333e-15 8.985293939617131e-15 8.754992047020125e-17
3.382922481734668 1.0536860143375552e-22 9.461776711933296e-15 9.372143131241905e-15 8.963358069139054e-17
3.389271646505754 1.074071752920755e-22 9.662936080285602e-15 9.572246198303291e-15 9.068988198231331e-17
3.395632727569191 1.096372327154656e-22 9.882076442105397e-15 9.79029797246553e-15 9.17784696398668e-17
3.421196662673239 1.2040220486618324e-22 1.0934071582442119e-14 1.0837785911708132e-14 9.628567073398525e-17
3.4276182099114902 1.1850118361299196e-22 1.0781633447959154e-14 1.0684340964384215e-14 9.729248357493919e-17
3.4340518103208963 1.0975860869740816e-22 1.0004948777074866e-14 9.906703560018151e-15 9.824521705671281e-17
3.4469541582030403 9.725638723556879e-23 8.898628446247074e-15 8.798553636569904e-15 1.0007480967717026e-16
3.472904465399547 9.395032472680696e-23 8.660850762745303e-15 8.556562779747985e-15 1.0428798299731777e-16
3.4990501388274233 8.88365000956622e-23 8.251084579213521e-15 8.142483099373185e-15 1.0860147984033562e-16
3.5253949054701885 7.017063968748427e-23 6.5664802334241795e-15 6.45368483715618e-15 1.127953962679991e-16
3.5519380250092896 5.244486767812688e-23 4.9446756224840564e-15 4.827662251945046e-15 1.170133705390122e-16
3.578680990867387 4.5631565739471284e-23 4.3346874689958454e-15 4.213050700278299e-15 1.2163676871754545e-16
3.605625307711299 4.3111660769188984e-23 4.126147792527615e-15 3.999640145881486e-15 1.265076466461288e-16
3.660119384959845 4.176097364108827e-23 4.057282987238429e-15 3.920535134901609e-15 1.3674785233681946e-16
3.715437065384467 4.0986943839092693e-23 4.042265909988946e-15 3.894713047225081e-15 1.4755286276386495e-16
3.8285932144167436 4.1705970744992644e-23 4.238448324683205e-15 4.0676391045511714e-15 1.7080922013203476e-16
3.94519561050918 4.303377345495057e-23 4.506583305655489e-15 4.3103639002550894e-15 1.9621940540039887e-16
4.06534921144712 4.4603296303086387e-23 4.8132037421537365e-15 4.589438932188025e-15 2.237648099657124e-16
4.189162171576248 4.630341259297029e-23 5.1488424880638685e-15 4.895336268117853e-15 2.535062199460153e-16
4.316745939156006 4.808494466648621e-23 5.509789953355033e-15 5.22444643151157e-15 2.853435218434635e-16
4.448215356677963 4.992244043200674e-23 5.894555288952816e-15 5.575708091031267e-15 3.1884719792154987e-16
4.58368876423945 5.18085526995879e-23 6.303561789824129e-15 5.949496729454501e-15 3.5406506036962966e-16
4.723288106065518 5.374756234199115e-23 6.7386459987033445e-15 6.347423305640969e-15 3.9122269306237577e-16
4.867139040275056 5.574538873662275e-23 7.20198370399675e-15 6.7726283240957e-15 4.293553799010471e-16
4.940699165968905 5.67966651481417e-23 7.448703385418301e-15 6.999799977080662e-15 4.48903408337638e-16
5.015371051989984 5.783863604796058e-23 7.699996802910908e-15 7.231283151445108e-15 4.68713651465799e-16
5.091171501069577 5.897030576878488e-23 7.969306674066262e-15 7.480097701716656e-15 4.892089723496093e-16
5.129500256944802 5.953170076196469e-23 8.105742050562295e-15 7.606206280127041e-15 4.995357704352531e-16
5.168117569889187 6.009904628499415e-23 8.244596358200421e-15 7.734583361386599e-15 5.100129968138218e-16
5.20702561229733 6.074169998854396e-23 8.395490786724921e-15 7.874051134189107e-15 5.214396525358139e-16
5.246226572918644 6.13840530410967e-23 8.54814807065766e-15 8.01519869292041e-15 5.329493777372485e-16
5.265937586045735 6.170512462052772e-23 8.625144390560074e-15 8.086410377379508e-15 5.387340131805649e-16
5.285722656980489 6.202613186066208e-23 8.702589592223784e-15 8.158051842156352e-15 5.445377500674341e-16
5.305582063971359 6.234707992609755e-23 8.78048665522264e-15 8.230126634464924e-15 5.503600207577173e-16
5.3255160863122235 6.268224672989208e-23 8.86085619760212e-15 8.304610365721543e-15 5.562458318805766e-16
5.365609099470188 6.34634910491912e-23 9.038834224107107e-15 8.47041090927263e-15 5.684233148344745e-16
5.406003951863644 6.42515028347343e-23 9.219960959499455e-15 8.639274634229018e-15 5.806863252704391e-16
5.446702915881641 6.50467774235311e-23 9.404352652322553e-15 8.811322300086096e-15 5.93030352236455e-16
5.487708281020852 6.587718200452237e-23 9.596115425238289e-15 8.990612422843465e-15 6.055030023948221e-16
5.529022354014368 6.69601745634935e-23 9.827303212960827e-15 9.208796725033838e-15 6.185064879269884e-16
5.570647458961463 6.807212067036565e-23 1.0065709407718555e-14 9.434109784306784e-15 6.315996234117716e-16
5.612585937458331 6.921544647869566e-23 1.0311823277280511e-14 9.667045448385472e-15 6.447778288950373e-16
5.654840148729818 7.04342896625311e-23 1.057240776222708e-14 9.914306761776871e-15 6.581010004502118e-16
5.67608639626678 7.124186305946924e-23 1.0733804934377512e-14 1.0068732526372538e-14 6.650724080049767e-16
5.686739436050992 7.165327901504478e-23 1.0816053631388203e-14 1.0147486157799276e-14 6.685674735889222e-16
5.6974124697621304 7.206995192354115e-23 1.0899368277833267e-14 1.02272995929436e-14 6.720686848896708e-16
5.718818669136295 7.291960097580886e-23 1.106929706756242e-14 1.039020781160542e-14 6.790892559570036e-16
5.740305295436557 7.38438946489454e-23 1.125172263399545e-14 1.0565536716026323e-14 6.86185917969126e-16
5.7835210386641895 7.620026548832485e-23 1.1698178321619048e-14 1.099732097351354e-14 7.008573481055093e-16
5.827062130521658 7.883970201372753e-23 1.2194501625429261e-14 1.1478736614858156e-14 7.157650105711072e-16
5.8489554468988025 8.068328172770068e-23 1.2526544938699064e-14 1.1802726545903495e-14 7.238183927955682e-16
5.870931020387893 8.262994639979756e-23 1.2876975868329964e-14 1.2145065763282228e-14 7.319101050477376e-16
5.892989160043636 8.468784014792899e-23 1.324726219648627e-14 1.2507222576542965e-14 7.400396199433046e-16
5.915130176081913 8.700801308012991e-23 1.3661330276344558e-14 1.2912862547695776e-14 7.484677286487802e-16
5.95966208400165 9.347465865719325e-23 1.4787166286017533e-14 1.401946872036604e-14 7.676975656514931e-16
6.004529249263818 1.0267323105389241e-22 1.6364608765205724e-14 1.5575257032501048e-14 7.893517327046759e-16
6.027089341400364 1.0903905347079299e-22 1.7444524464498396e-14 1.664264819660196e-14 8.01876267896432e-16
6.049734195844842 1.1648341606200603e-22 1.870552170128593e-14 1.7890375646065427e-14 8.151460552205038e-16
6.095279466722835 1.378991386801187e-22 2.231128630855416e-14 2.146347834896156e-14 8.478079595926038e-16
6.141167624020661 1.7051228242660351e-22 2.7795599953556312e-14 2.6905345481173204e-14 8.902544723830987e-16
6.164241091010745 1.9129839365687765e-22 3.1301155672564074e-14 3.0384233533044844e-14 9.169221395192391e-16
6.187401249150058 2.1468639232489927e-22 3.52599938093752e-14 3.4315689370651533e-14 9.443044387236656e-16
6.1990139391386085 2.2606370667990667e-22 3.719828266445805e-14 3.6240045515805093e-14 9.582371486529548e-16
6.204828454712694 2.3203210124103386e-22 3.821618098521402e-14 3.725090671274966e-14 9.652742724643557e-16
6.210648424152782 2.363651768122302e-22 3.8966362950839023e-14 3.799509912396478e-14 9.71263826874222e-16
6.233982942956859 2.509322555815596e-22 4.1523268641663854e-14 4.053114800979069e-14 9.921206318731772e-16
6.239830258556775 2.5270900084225186e-22 4.1856500889863945e-14 4.0861505285558916e-14 9.949956043050252e-16
6.245683058788269 2.5273626319129e-22 4.19002809423637e-14 4.090240583103588e-14 9.978751113278107e-16
6.257405133728602 2.5204340586455073e-22 4.186383854505841e-14 4.086093454318761e-14 1.0029040018708032e-15
6.269149208991335 2.4881439635384058e-22 4.1405072019659096e-14 4.040037424154012e-14 1.004697778118972e-15
6.280915325867298 2.4115502600219524e-22 4.020579827539731e-14 3.9203306846460396e-14 1.0024914289369153e-15
6.304513850009849 2.2244949589773935e-22 3.722652193629015e-14 3.6232062177489016e-14 9.944597588011401e-16
6.32820103803542 1.9957295692546984e-22 3.352365732331001e-14 3.2541079701385957e-14 9.825776219240618e-16
6.3519772230701035 1.7868801450326323e-22 3.0128241811247996e-14 2.915632097697793e-14 9.719208342700728e-16
6.375842739491607 1.6106672056102851e-22 2.7259183669778332e-14 2.629666311851747e-14 9.62520551260865e-16
6.399797922933955 1.4708881539809697e-22 2.498707063473619e-14 2.402938318573639e-14 9.576874489997976e-16
6.42384311029221 1.3542053305556468e-22 2.3091326266458354e-14 2.213756204319148e-14 9.53764223266877e-16
6.447978639727206 1.269665373078874e-22 2.1731129438418868e-14 2.077772643644052e-14 9.534030019783436e-16
6.472204850670314 1.198992757890666e-22 2.0598625770861993e-14 1.9644877220260054e-14 9.537485506019398e-16
6.496522083828205 1.153194657422339e-22 1.9886253617489062e-14 1.8929272964135524e-14 9.569806533535383e-16
