Dust emission spectrum from A.P. Jones, M. Kohler, N. Ysard, M. Bocchio, and L. Verstraete (2017), A&A, 602A, 46J 
inside the DustPedia framework.

lambda    nu*dP/dnu     j_nu    j_nu(carb.) j_nu(sil)
 (um)   (erg s-1 H-1) (Jy cm2 sr-1 H-1)
0.9927057738263894 1.505028843287451e-25 3.9658364859941544e-18 3.965836475001471e-18 1.0992684754582364e-26
1.0001793341362166 1.5298277343682197e-25 4.061531631589272e-18 4.061531618349713e-18 1.3239558036543633e-26
1.0077091589558085 1.554594130323058e-25 4.158355958112875e-18 4.158355942187846e-18 1.5925028481801017e-26
1.0114953028030835 1.566962164495132e-25 4.2071869781135e-18 4.207186960656407e-18 1.7457092082199475e-26
1.0152956718711033 1.579318511357197e-25 4.256294733366581e-18 4.256294714236262e-18 1.913031960418282e-26
1.0229392996569957 1.6039792762516634e-25 4.3552997432995564e-18 4.3552997203484396e-18 2.2951117705961463e-26
1.0267826658714554 1.6162537707254522e-25 4.405117656131158e-18 4.405117631003758e-18 2.5127400477590077e-26
1.0306404723013447 1.628511272984044e-25 4.455201951001637e-18 4.4552019235005656e-18 2.750107229562351e-26
1.03451277320114 1.6407506314447911e-25 4.505550589413126e-18 4.505550559323972e-18 3.0089154669513655e-26
1.0383996230291617 1.6529707013886132e-25 4.556161508289043e-18 4.556161475378987e-18 3.29100550144198e-26
1.0403485208654093 1.6590731473751567e-25 4.581564671605364e-18 4.581564637191395e-18 3.4413969050980665e-26
1.0423010764483396 1.6651703451889357e-25 4.607032620528437e-18 4.607032584544764e-18 3.598367230216565e-26
1.0462171883269815 1.6773484325359064e-25 4.658161815562166e-18 4.658161776230656e-18 3.933151017112526e-26
1.0471985131304309 1.6803894544330953e-25 4.670984190235497e-18 4.670984150021498e-18 4.021399906257737e-26
1.048180758391296 1.6834290413723314e-25 4.6838225282942145e-18 4.683822487178763e-18 4.1115450105088376e-26
1.0501480137395462 1.6895038406558616e-25 4.7095469599107024e-18 4.709546916933903e-18 4.2976797975379215e-26
1.0521189612883777 1.6955726912525508e-25 4.735334840238709e-18 4.7353347953199605e-18 4.49187483382231e-26
1.0531058218030118 1.6986001889006375e-25 4.748239480411439e-18 4.7482394344903926e-18 4.5921047025771806e-26
1.0540936079674168 1.7016109010952203e-25 4.761117197101162e-18 4.761117150156191e-18 4.694497251138511e-26
1.058054026499678 1.7136373866125978e-25 4.812782173553001e-18 4.81278212228931e-18 5.1263692460831194e-26
1.0590464539527713 1.7166398318865504e-25 4.8257367716654876e-18 4.825736719264077e-18 5.240141102477e-26
1.06003981227728 1.7196405727188033e-25 4.838706641731965e-18 4.838706588168675e-18 5.35632894567885e-26
1.0620293250338977 1.725636873328288e-25 4.864692057811858e-18 4.8646920018503696e-18 5.596148750689502e-26
1.0660195594769086 1.7376082781264337e-25 4.916844610062786e-18 4.916844548992875e-18 6.106991052187799e-26
1.070024785945596 1.7495505266652391e-25 4.96923757101895e-18 4.969237504395963e-18 6.662298704422908e-26
1.0740450607676866 1.7614625535647248e-25 5.0218686624892775e-18 5.021868589831882e-18 7.265739607916075e-26
1.07808044048254 1.7733433025897003e-25 5.074735587946442e-18 5.0747355087337796e-18 7.921266308792773e-26
1.0861967418109137 1.7969858209595798e-25 5.181107211338797e-18 5.181107117279432e-18 9.405936658245323e-26
1.0902777775684922 1.8086978459197975e-25 5.234468789150057e-18 5.234468686704016e-18 1.0244604040962635e-25
1.0943741465085532 1.8203736325552126e-25 5.288052936723511e-18 5.288052825179038e-18 1.1154447454778805e-25
1.1026131145906286 1.84361249343787e-25 5.3958793355608364e-18 5.39587920345137e-18 1.321094660997082e-25
1.1109141095355224 1.866694512781188e-25 5.504567055901636e-18 5.50456689963673e-18 1.562649049384016e-25
1.1192775983109025 1.8895905870206647e-25 5.61403300572466e-18 5.614032821124297e-18 1.8460036367681467e-25
1.1277040513999907 1.912194953310128e-25 5.723961993128198e-18 5.723961775332473e-18 2.1779572662455685e-25
1.1361939428280308 1.9346167977883904e-25 5.83467751013242e-18 5.8346772534985374e-18 2.5663388443203253e-25
1.1447477501889525 1.9568489888203686e-25 5.9461593542271734e-18 5.946159052211967e-18 3.020152091067373e-25
1.1533659546722406 1.9788965752132398e-25 6.0584239072655756e-18 6.058423552291283e-18 3.549742910220347e-25
1.1707974979042381 2.0225095873498397e-25 6.285528612225193e-18 6.2855281236759945e-18 4.885492009832734e-25
1.1884924949847024 2.0652949574879247e-25 6.515503184092013e-18 6.515502515036323e-18 6.690556868539267e-25
1.2064549276569216 2.107587423155896e-25 6.7494150092920774e-18 6.749414097514435e-18 9.117776423252148e-25
1.2246888378427687 2.1489320381481583e-25 6.985827756252014e-18 6.985826519726458e-18 1.2365255581256435e-24
1.2431983285522175 2.1892353916151635e-25 7.224408767784267e-18 7.224407098895607e-18 1.6688886598878786e-24
1.2619875648066055 2.2284866732964953e-25 7.465081437686863e-18 7.465079195935276e-18 2.2417515875926645e-24
1.3004222497298317 2.30320192101941e-25 7.950342504142735e-18 7.950338515697593e-18 3.988445141531041e-24
1.3400274889804893 2.372820303547854e-25 8.440107736347085e-18 8.440100769234581e-18 6.967112502290501e-24
1.3808389325824078 2.437123372681098e-25 8.932848555724471e-18 8.932836601101816e-18 1.195462265314117e-23
1.4228933163050095 2.496454842612659e-25 9.42899677323495e-18 9.428976614382125e-18 2.015885282631088e-23
1.466228494730424 2.5522405661964043e-25 9.933280412657372e-18 9.933246988637448e-18 3.3424019925265914e-23
1.5108834753276823 2.603489797857855e-25 1.0441341121775182e-17 1.0441286608128927e-17 5.451364625798244e-23
1.5568984535646726 2.6494148180475137e-25 1.0949131741393783e-17 1.0949044191072303e-17 8.755032147906556e-23
1.6043148490894465 2.6901547586536138e-25 1.1456086944526135e-17 1.1455948232577998e-17 1.3871194813761428e-22
1.6531753430134553 2.7258917003184852e-25 1.1961811369205984e-17 1.1961594811356116e-17 2.16557849869362e-22
1.7035239163302658 2.757074764134991e-25 1.246712205518124e-17 1.2466788826598321e-17 3.332285829203049e-22
1.755405889504358 2.7859561147919833e-25 1.298139171989619e-17 1.2980886085548926e-17 5.056343472662754e-22
1.8088679632656115 2.812095292911641e-25 1.350225586642121e-17 1.3501499013696074e-17 7.568527251353295e-22
1.8639582606462262 2.835228882326572e-25 1.402793485736225e-17 1.4026816862723882e-17 1.1179946383705974e-21
1.9207263702978936 2.855731294063065e-25 1.4559694845337856e-17 1.4558064475461726e-17 1.6303698761296961e-21
1.979223391128241 2.8743385644355924e-25 1.51008769867153e-17 1.5098528873845657e-17 2.348112869644228e-21
2.039501978296691 2.891915363741607e-25 1.565593979210308e-17 1.5652598656255113e-17 3.3411358479687982e-21
2.1016163906111602 2.9106691046113934e-25 1.6237371083008317e-17 1.623267222826745e-17 4.6988547408630265e-21
2.1656225393682647 2.931956272438052e-25 1.6854259827642812e-17 1.684772606533206e-17 6.5337623107497426e-21
2.231578038680979 2.9560279266952794e-25 1.7510157179348546e-17 1.750117163230158e-17 8.985547046967835e-21
2.299542257339062 2.9837878805637054e-25 1.8212886176436304e-17 1.8200660585454178e-17 1.2225590982120508e-20
2.369576372248914 3.0170121821878885e-25 1.8976547748459894e-17 1.8960085793572464e-17 1.646195488743165e-20
2.4417434235010123 3.057777762480887e-25 1.9818709764705468e-17 1.9796765974932158e-17 2.1943789773311727e-20
2.5161083711144245 3.1095048214933774e-25 2.0767776926382347e-17 2.0738809987825988e-17 2.8966938556358833e-20
2.5927381535095444 3.1776436840025337e-25 2.1869219766431244e-17 2.183134126860567e-17 3.7878497825574176e-20
2.6717017477616296 3.2686146943117486e-25 2.318041123717063e-17 2.3131332247607078e-17 4.907898956354898e-20
2.753070231689431 3.3919364970972566e-25 2.47875975578668e-17 2.4724571595827396e-17 6.302596203940685e-20
2.836916847834745 3.5688688324625985e-25 2.687488571198524e-17 2.679464649452935e-17 8.023921745589212e-20
2.9233170693905177 3.845817909240385e-25 2.984242238577127e-17 2.974113742015855e-17 1.0128496561272622e-19
2.967498994190263 4.067224708600945e-25 3.203746765428225e-17 3.1924217492352365e-17 1.132501619298833e-19
3.0123486681368425 4.323039928805971e-25 3.4567177385269096e-17 3.444071716236238e-17 1.2646022290671385e-19
3.0578761833420214 4.866525946197062e-25 3.9501025680011e-17 3.935996323345337e-17 1.4106244655761904e-19
3.1040917844459814 5.560107714301008e-25 4.5812837618515344e-17 4.5655784477667714e-17 1.5705314084762756e-19
3.127460860933648 6.279400305917199e-25 5.212901108602632e-17 5.196335626197525e-17 1.6565482405107364e-19
3.1510058709225794 7.233047166916646e-25 6.049785024779291e-17 6.032320004810006e-17 1.7465019969285284e-19
3.162844764501044 8.115257482314954e-25 6.813176089988948e-17 6.795244424669794e-17 1.7931665319152925e-19
3.1747281389236908 9.139443252820876e-25 7.701861685141797e-17 7.683453090787904e-17 1.8408594353892612e-19
3.1986289994194426 1.1989281311253511e-24 1.0179500166042409e-16 1.0160103799707564e-16 1.939636633484101e-19
3.2227097969389145 1.8687691322723744e-24 1.5986238366248053e-16 1.596579222342016e-16 2.0446142827894335e-19
3.2348180950136065 2.503254534386625e-24 2.1494349604761575e-16 2.1473342433472637e-16 2.1007171288936692e-19
3.240889293275058 2.977459648850153e-24 2.561412435449314e-16 2.5592821231837284e-16 2.130312265585541e-19
3.2469718861334385 3.5260438666873626e-24 3.0390347936704896e-16 3.0368738568168645e-16 2.1609368536247613e-19
3.2714166318528037 6.450269137456017e-24 5.601226389854016e-16 5.598938641782979e-16 2.287748071036034e-19
3.2744851364798273 6.633178662884149e-24 5.765462497467273e-16 5.763159734403214e-16 2.3027630640583924e-19
3.2775565192852394 6.821325926350742e-24 5.934558611607196e-16 5.932240751775258e-16 2.31785983193945e-19
3.283707930232385 6.640987434187926e-24 5.788507673256142e-16 5.786162673749109e-16 2.34499950703434e-19
3.2898708863219004 6.0681467432934146e-24 5.299127410599487e-16 5.296757581416795e-16 2.3698291826914695e-19
3.29141343181113 5.933049371853443e-24 5.183580321602832e-16 5.181204254000618e-16 2.376067602215368e-19
3.292184975758714 5.866666232101987e-24 5.12678426369241e-16 5.1244050722208865e-16 2.3791914715259945e-19
3.295272960557952 5.447723791577813e-24 4.76514266718181e-16 4.762751299787948e-16 2.3913673938620726e-19
3.3076538914384823 3.996039303561156e-24 3.5084819247247674e-16 3.506041583945179e-16 2.4403407795894946e-19
3.310756385682612 3.700495388971546e-24 3.252044845196626e-16 3.249592145884074e-16 2.452699312552067e-19
3.313861789986515 3.427775637072917e-24 3.0152006096783915e-16 3.0127355055858197e-16 2.46510409257196e-19
3.3200813396944477 3.045483713131227e-24 2.6839501056865176e-16 2.6814583798309417e-16 2.491725855576874e-19
3.345076488085796 2.3648841474159973e-24 2.0998358974292707e-16 2.0972256794663667e-16 2.610217962903726e-19
3.3482140837626964 2.3907365369248906e-24 2.12478196138317e-16 2.1221556967763533e-16 2.6262646068163864e-19
3.3513546224236106 2.4168718342240655e-24 2.1500246473407801e-16 2.1473822561630087e-16 2.64239117777237e-19
3.3576445397418455 2.6065490259222832e-24 2.3231114650787154e-16 2.320435379480174e-16 2.676085598542095e-19
3.3702598118196083 3.305051247243932e-24 2.956725539879029e-16 2.953978761010026e-16 2.7467788690029733e-19
3.382922481734668 3.4650826663787695e-24 3.1115377855972206e-16 3.1087220339374963e-16 2.8157516597238855e-19
3.389271646505754 3.5479677723712996e-24 3.1919455758992135e-16 3.189094812020542e-16 2.850763878670817e-19
3.395632727569191 3.637331776021649e-24 3.278483938866741e-16 3.2755970900402923e-16 2.8868488264486733e-19
3.421196662673239 4.066343362592176e-24 3.692763720962302e-16 3.6897271981800004e-16 3.0365227823023305e-19
3.4276182099114902 3.981046651156787e-24 3.622089199731165e-16 3.619018990610439e-16 3.0702091207250043e-19
3.4340518103208963 3.605284350691937e-24 3.286365022620244e-16 3.2832628142295285e-16 3.102208390717131e-19
3.4469541582030403 3.0701902089091607e-24 2.8091195555325547e-16 2.805955646413154e-16 3.1639091194008993e-19
3.472904465399547 2.9218017834395e-24 2.6934754380334985e-16 2.6901697828932134e-16 3.3056551402852445e-19
3.4990501388274233 2.694025622328784e-24 2.502195971753343e-16 2.49874459992304e-16 3.451371830302592e-19
3.5253949054701885 1.878874561099337e-24 1.75822719038756e-16 1.7546332065495254e-16 3.593983838034799e-19
3.5519380250092896 1.1123676186369361e-24 1.048776990128379e-16 1.0450388076525503e-16 3.7381824758286416e-19
3.578680990867387 8.097336994143477e-25 7.691917783655896e-17 7.652953862681008e-17 3.896392097488858e-19
3.605625307711299 6.886780762332057e-25 6.591227230203643e-17 6.55059157233627e-17 4.063565786737311e-19
3.660119384959845 6.033083706581232e-25 5.8614361086672e-17 5.817264079186577e-17 4.417202948062432e-19
3.715437065384467 5.4425696286194855e-25 5.367639450962477e-17 5.3197037293357015e-17 4.793572162677576e-19
3.8285932144167436 5.218158915217588e-25 5.303052900354836e-17 5.246901722872135e-17 5.615117748270242e-19
3.94519561050918 5.262641683183715e-25 5.511144212791337e-17 5.445839947037309e-17 6.530426575402671e-19
4.06534921144712 5.422693347721976e-25 5.851703814993942e-17 5.776266946953629e-17 7.54368680403129e-19
4.189162171576248 5.653769534946519e-25 6.286873292719946e-17 6.200250786913616e-17 8.662250580632819e-19
4.316745939156006 5.939555487970237e-25 6.805810713102891e-17 6.706925764770666e-17 9.888494833222315e-19
4.448215356677963 6.274873479568159e-25 7.409010524410265e-17 7.29687819073113e-17 1.1213233367913298e-18
4.58368876423945 6.661083016623882e-25 8.104559227104358e-17 7.978111985028854e-17 1.2644724207550527e-18
4.723288106065518 7.104354826560457e-25 8.907144833984087e-17 8.765158596620308e-17 1.4198623736377966e-18
4.867139040275056 7.615981837122187e-25 9.839410635386705e-17 9.68093618419875e-17 1.5847445118795729e-18
4.940699165968905 7.911380920778432e-25 1.0375526396528957e-16 1.0208383879922858e-16 1.6714251660610085e-18
5.015371051989984 8.217117075995766e-25 1.0939361564793161e-16 1.0763278434739047e-16 1.7608313005411523e-18
5.091171501069577 8.573010590060928e-25 1.158565308785936e-16 1.1400181240418936e-16 1.854718474404248e-18
5.129500256944802 8.755561813430995e-25 1.1921434237398546e-16 1.1731164447493616e-16 1.9026978990493168e-18
5.168117569889187 8.944616554803088e-25 1.2270536328234831e-16 1.2075362830810717e-16 1.951734974241117e-18
5.20702561229733 9.166403409019308e-25 1.2669460252567792e-16 1.2468987915023697e-16 2.0047233754409503e-18
5.246226572918644 9.39332876683571e-25 1.3080851002380338e-16 1.2874992411022077e-16 2.0585859135826477e-18
5.265937586045735 9.508764746977464e-25 1.3291354554896066e-16 1.3082770062456903e-16 2.085844924391659e-18
5.285722656980489 9.62554175846353e-25 1.3505136788942103e-16 1.3293804552324378e-16 2.1133223661772385e-18
5.305582063971359 9.74367942093653e-25 1.3722254070232555e-16 1.350815225304025e-16 2.1410181719230038e-18
5.3255160863122235 9.868867055684126e-25 1.3950778151027623e-16 1.3733868012531356e-16 2.1691013849626293e-18
5.365609099470188 1.0168390114237398e-24 1.448240414278513e-16 1.4259679654862293e-16 2.2272448792283517e-18
5.406003951863644 1.0477969942176496e-24 1.503567536002453e-16 1.4807040123550952e-16 2.2863523647357883e-18
5.446702915881641 1.0798058479420078e-24 1.5611649634795333e-16 1.5377007129794943e-16 2.3464250500039047e-18
5.487708281020852 1.1140243000599886e-24 1.6227630637209207e-16 1.598686407529308e-16 2.4076656191612795e-18
5.529022354014368 1.1595123924860703e-24 1.701739867679304e-16 1.677023297917129e-16 2.471656976217467e-18
5.570647458961463 1.2073881056067698e-24 1.7853443808845955e-16 1.7599771480315215e-16 2.5367232853073375e-18
5.612585937458331 1.2578165232176164e-24 1.8739143301857784e-16 1.8478856528001336e-16 2.6028677385644587e-18
5.654840148729818 1.31271813859176e-24 1.9704310932302612e-16 1.9437275872175916e-16 2.670350601266988e-18
5.67608639626678 1.349094625425501e-24 2.03264175380232e-16 2.0055855304626782e-16 2.7056223339641422e-18
5.686739436050992 1.3677966820568421e-24 2.064687404864663e-16 2.0374536834294876e-16 2.7233721435175403e-18
5.6974124697621304 1.386851965579236e-24 2.0973803806226156e-16 2.0699684002316053e-16 2.7411980391009827e-18
5.718818669136295 1.4260554951430982e-24 2.164772118789515e-16 2.1370013342175505e-16 2.777078457196511e-18
5.740305295436557 1.4689724647760705e-24 2.238298888379805e-16 2.2101640268265337e-16 2.813486155327128e-18
5.7835210386641895 1.5785802010999367e-24 2.423418418440247e-16 2.394528739360864e-16 2.8889679079383223e-18
5.827062130521658 1.703811177655175e-24 2.635363610547751e-16 2.6057003024174416e-16 2.9663308130309633e-18
5.8489554468988025 1.790532114175636e-24 2.7799044005301567e-16 2.749825571550468e-16 3.0078828979688582e-18
5.870931020387893 1.883268415828862e-24 2.934868410404254e-16 2.904369971954116e-16 3.0498438450137346e-18
5.892989160043636 1.9824993114331735e-24 3.101116776273221e-16 3.0701946196959947e-16 3.0922156577226713e-18
5.915130176081913 2.094891701850964e-24 3.289238130952709e-16 3.257877227612065e-16 3.1360903340643406e-18
5.95966208400165 2.406795075481115e-24 3.8074147056292664e-16 3.775068511546492e-16 3.234619408277376e-18
6.004529249263818 2.853274948477796e-24 4.547702234761949e-16 4.514254336392883e-16 3.3447898369066363e-18
6.027089341400364 3.1623973884692492e-24 5.059335793335225e-16 5.02525864707303e-16 3.407714626219617e-18
6.049734195844842 3.526759324601408e-24 5.663456250838942e-16 5.628713766823807e-16 3.474248401513439e-18
6.095279466722835 4.5763400821488746e-24 7.404254645490141e-16 7.367902629642428e-16 3.635201584771544e-18
6.141167624020661 6.1868875830882954e-24 1.0085387971460082e-15 1.0046978847653122e-15 3.8409123806958585e-18
6.164241091010745 7.214960784526199e-24 1.18054629926988e-15 1.1765778423236133e-15 3.968456946266509e-18
6.187401249150058 8.384018229237743e-24 1.3769872773921763e-15 1.3728873904181755e-15 4.099886974000724e-18
6.1990139391386085 8.954974880868032e-24 1.473521299654327e-15 1.4693544364149412e-15 4.166863239385876e-18
6.204828454712694 9.255544870589608e-24 1.5244079418295134e-15 1.5202072009905902e-15 4.200740838923108e-18
6.210648424152782 9.475299006897769e-24 1.5620657202977565e-15 1.557835733983718e-15 4.229986314038299e-18
6.233982942956859 1.0222201744928305e-23 1.691529166627933e-15 1.6871955762814638e-15 4.333590346469756e-18
6.239830258556775 1.0317993411319921e-23 1.7089818683273229e-15 1.7046326791868098e-15 4.349189140513149e-18
6.245683058788269 1.0327012456747142e-23 1.7120800860519606e-15 1.7077152545855896e-15 4.3648314663714375e-18
6.257405133728602 1.030813712579995e-23 1.7121582167744636e-15 1.7077652828359055e-15 4.392933938557925e-18
6.269149208991335 1.0163482280632083e-23 1.6912997076007207e-15 1.6868929765694805e-15 4.4067310312398495e-18
6.280915325867298 9.798357500747399e-24 1.6335997289216354e-15 1.6291969482008712e-15 4.4027807207645806e-18
6.304513850009849 8.897082399593009e-24 1.4889106931026136e-15 1.4845319281270102e-15 4.378764975603684e-18
6.32820103803542 7.77982312279227e-24 1.306830987636516e-15 1.3024933837406745e-15 4.3376038958417446e-18
6.3519772230701035 6.755668348224347e-24 1.1390602226887493e-15 1.1347583435326905e-15 4.301879156058198e-18
6.375842739491607 5.893818706337522e-24 9.97479094829867e-16 9.932074185890458e-16 4.271676240821395e-18
6.399797922933955 5.2049614953743886e-24 8.84205506611787e-16 8.799434128413712e-16 4.262093770415601e-18
6.42384311029221 4.632270204827583e-24 7.898747718721389e-16 7.856181527356405e-16 4.2566191364981895e-18
6.447978639727206 4.2165406907411645e-24 7.216877255670744e-16 7.174203468966275e-16 4.267378670446855e-18
6.472204850670314 3.8705955266435624e-24 6.649660578765028e-16 6.606846094203971e-16 4.2814484561055155e-18
6.496522083828205 3.647582050932837e-24 6.290069182039743e-16 6.24698103050054e-16 4.308815153920251e-18
6.520930681187647 3.460286947536005e-24 5.989507750135014e-16 5.946124080825631e-16 4.3383669309382745e-18
6.57002334288761 3.273195571543327e-24 5.708319862361768e-16 5.664155571914124e-16 4.41642904476439e-18
