Dust emission spectrum from A.P. Jones, M. Kohler, N. Ysard, M. Bocchio, and L. Verstraete (2017), A&A, 602A, 46J 
inside the DustPedia framework.

lambda    nu*dP/dnu     j_nu    j_nu(carb.) j_nu(sil)
 (um)   (erg s-1 H-1) (Jy cm2 sr-1 H-1)
0.9927057738263894 2.077287892171749e-25 5.4737715834693625e-18 5.4737715377985154e-18 4.5670847649640406e-26
1.0001793341362166 2.111620946791688e-25 5.606131381101394e-18 5.606131326100816e-18 5.500057941324254e-26
1.0077091589558085 2.1459220605359124e-25 5.740088433384854e-18 5.740088367234779e-18 6.615007143963543e-26
1.0114953028030835 2.16305667596191e-25 5.807660252575734e-18 5.807660180065487e-18 7.251024784432387e-26
1.0152956718711033 2.180178564473734e-25 5.87562450198465e-18 5.875624422528668e-18 7.94559822074904e-26
1.0229392996569957 2.2143610909472486e-25 6.012675122282507e-18 6.012675026967657e-18 9.53148484850576e-26
1.0267826658714554 2.231380482788896e-25 6.081652361972765e-18 6.081652257625805e-18 1.0434696111194052e-25
1.0306404723013447 2.248380061636252e-25 6.15100884063279e-18 6.151008726435201e-18 1.1419759107429748e-25
1.03451277320114 2.2653582985186647e-25 6.220742032038722e-18 6.220741907101473e-18 1.249372470589885e-25
1.0383996230291617 2.282313674248646e-25 6.2908493802811264e-18 6.290849243638954e-18 1.3664217118496518e-25
1.0403485208654093 2.2907823171907304e-25 6.326042556582991e-18 6.326042413700882e-18 1.428821089666213e-25
1.0423010764483396 2.299244679747531e-25 6.361328300601853e-18 6.36132815120708e-18 1.493947753825354e-25
1.0462171883269815 2.3161498163651618e-25 6.432176180235921e-18 6.432176016951813e-18 1.6328410851999365e-25
1.0471985131304309 2.3203718839022005e-25 6.449945491255559e-18 6.449945324310395e-18 1.6694516315788704e-25
1.048180758391296 2.324592218444194e-25 6.467737655856565e-18 6.46773748517175e-18 1.7068481330562308e-25
1.0501480137395462 2.3330275961935526e-25 6.503390379258205e-18 6.503390200851847e-18 1.784063562526564e-25
1.0521189612883777 2.3414557653536844e-25 6.539134016346122e-18 6.539133829884158e-18 1.8646196340194172e-25
1.0531058218030118 2.3456606943206595e-25 6.557021946189238e-18 6.557021755569652e-18 1.9061958652935274e-25
1.0540936079674168 2.349842800456905e-25 6.574873821352925e-18 6.574873626486081e-18 1.9486684214968526e-25
1.058054026499678 2.3665511961307964e-25 6.6465026373246964e-18 6.646502424544614e-18 2.1278008244042454e-25
1.0590464539527713 2.37072317499681e-25 6.664464955615537e-18 6.664464738116636e-18 2.1749890180756693e-25
1.06003981227728 2.374893060873973e-25 6.682449233496381e-18 6.682449011178547e-18 2.223178341820466e-25
1.0620293250338977 2.383226464109548e-25 6.71848349505867e-18 6.718483262794515e-18 2.3226415707367074e-25
1.0660195594769086 2.3998671723608813e-25 6.79081362573402e-18 6.790813372284354e-18 2.5344966446416404e-25
1.070024785945596 2.416471901359585e-25 6.863490238510429e-18 6.863489962033008e-18 2.7647742300312637e-25
1.0740450607676866 2.4330392443607704e-25 6.93651052140461e-18 6.9365102199053925e-18 3.014992170465151e-25
1.07808044048254 2.449567807667062e-25 7.009871642170199e-18 7.009871313491605e-18 3.286785930850826e-25
1.0861967418109137 2.4824742210229187e-25 7.15752174473825e-18 7.15752135450996e-18 3.902282904138879e-25
1.0902777775684922 2.498783710284678e-25 7.231614374854361e-18 7.231613949861788e-18 4.249925739186343e-25
1.0943741465085532 2.5150478345804536e-25 7.306030943210715e-18 7.306030480506584e-18 4.627041295560842e-25
1.1026131145906286 2.547434736483255e-25 7.455824096552799e-18 7.455823548620836e-18 5.479319630812177e-25
1.1109141095355224 2.579624572017747e-25 7.60687747164751e-18 7.606876823624606e-18 6.480229027212527e-25
1.1192775983109025 2.6115777783843444e-25 7.759079636390278e-18 7.75907887097606e-18 7.654142181124082e-25
1.1277040513999907 2.6431492024068005e-25 7.911999532554932e-18 7.911998629639038e-18 9.029158942249097e-25
1.1361939428280308 2.674489764821619e-25 8.06608590379401e-18 8.066084840031063e-18 1.0637629474289015e-24
1.1447477501889525 2.705590195677964e-25 8.221314236636104e-18 8.221312984961109e-18 1.2516749955061691e-24
1.1533659546722406 2.73645783548865e-25 8.377709972014167e-18 8.377708501089e-18 1.4709251668750317e-24
1.1707974979042381 2.79759427809893e-25 8.694326588300463e-18 8.694324564531338e-18 2.023769126754321e-24
1.1884924949847024 2.8576842588359207e-25 9.015298672022214e-18 9.015295901444599e-18 2.7705776139600054e-24
1.2064549276569216 2.9171921257484483e-25 9.342122704942159e-18 9.34211893053305e-18 3.7744091107522296e-24
1.2246888378427687 2.975498438578533e-25 9.672860384555977e-18 9.67285526759761e-18 5.11695836732863e-24
1.2431983285522175 3.0324783802940726e-25 1.0007084428938291e-17 1.0007077525240256e-17 6.903698033538733e-24
1.2619875648066055 3.0881247855314617e-25 1.0344734518708283e-17 1.0344725248604792e-17 9.270103491166603e-24
1.3004222497298317 3.1945714453035174e-25 1.1027229923842704e-17 1.1027213443072842e-17 1.6480769866711413e-23
1.3400274889804893 3.294537289635578e-25 1.1718649585205059e-17 1.1718620818337993e-17 2.876686707124674e-23
1.3808389325824078 3.3877827628744017e-25 1.2417323923638214e-17 1.2417274602740952e-17 4.9320897261985226e-23
1.4228933163050095 3.4748493555790946e-25 1.3124348496904265e-17 1.312426539595752e-17 8.3100946743602e-23
1.466228494730424 3.5577809366368396e-25 1.3846827825908377e-17 1.3846690157688841e-17 1.3766821953017626e-22
1.5108834753276823 3.635305003225934e-25 1.4579453951234726e-17 1.4579229612176348e-17 2.243390583797039e-22
1.5568984535646726 3.7064350435300974e-25 1.5317437385073854e-17 1.5317077409893594e-17 3.5997518026344726e-22
1.6043148490894465 3.7714749886064007e-25 1.6060914428657192e-17 1.6060344610680015e-17 5.698179771758597e-22
1.6531753430134553 3.830805120399274e-25 1.681041408836993e-17 1.6809525309405765e-17 8.887789641633154e-22
1.7035239163302658 3.885184699343316e-25 1.7568283778054343e-17 1.7566917468181263e-17 1.366309873076211e-21
1.755405889504358 3.9378887830356926e-25 1.8348916758076256e-17 1.834684556828065e-17 2.0711897956012695e-21
1.8088679632656115 3.9884914039008416e-25 1.9150713559472125e-17 1.9147616425911873e-17 3.097133560252262e-21
1.8639582606462262 4.036819067730231e-25 1.997307352012043e-17 1.996850324879529e-17 4.5702713251437775e-21
1.9207263702978936 4.0836079774036094e-25 2.081991612536879e-17 2.081325833535966e-17 6.657790009128088e-21
1.979223391128241 4.130121567562626e-25 2.1698368627701903e-17 2.1688790246790928e-17 9.578380910973131e-21
2.039501978296691 4.177819706059285e-25 2.2617430164242574e-17 2.2603816239229405e-17 1.361392501316927e-20
2.1016163906111602 4.230072461694945e-25 2.359775494910663e-17 2.357863073446776e-17 1.9124214638867554e-20
2.1656225393682647 4.2890952335646855e-25 2.4655731114260992e-17 2.4629170207724275e-17 2.6560906536718414e-20
2.231578038680979 4.355571285640411e-25 2.580041180554204e-17 2.576392826682623e-17 3.6483538715800113e-20
2.299542257339062 4.431141769748975e-25 2.7047459107194913e-17 2.6997882213905973e-17 4.9576893288931326e-20
2.369576372248914 4.518674213573078e-25 2.8421773528080457e-17 2.83551034175874e-17 6.667011049305728e-20
2.4417434235010123 4.621482860088222e-25 2.995372280173089e-17 2.986496957609021e-17 8.875322564067952e-20
2.5161083711144245 4.744773479067732e-25 3.1689417716409744e-17 3.157241947601817e-17 1.1699824039157154e-19
2.5927381535095444 4.896555858661533e-25 3.369913899118909e-17 3.3546363345931786e-17 1.527756452573046e-19
2.6717017477616296 5.086085248401381e-25 3.606957646321054e-17 3.587191543520191e-17 1.9766102800862449e-19
2.753070231689431 5.326788256050655e-25 3.8927109537560667e-17 3.867366248665578e-17 2.5344705090487996e-19
2.836916847834745 5.648064225663195e-25 4.253198637561346e-17 4.2209824702006185e-17 3.2216167360727265e-19
2.9233170693905177 6.1132583758852335e-25 4.743709736443427e-17 4.703109763408365e-17 4.0599973035061695e-19
2.967498994190263 6.4609718611228465e-25 5.089297785249565e-17 5.0439413620140615e-17 4.535642323550336e-19
3.0123486681368425 6.8575490219452785e-25 5.483320010306578e-17 5.4327174033869955e-17 5.060260691958231e-19
3.0578761833420214 7.646527620396898e-25 6.206597627045309e-17 6.150201350779479e-17 5.6396276265833415e-19
3.1040917844459814 8.639901491023728e-25 7.118898129080563e-17 7.056164797991008e-17 6.2733331089554e-19
3.127460860933648 9.6417785501509e-25 8.004209899728833e-17 7.938070735776353e-17 6.613916395248007e-19
3.1510058709225794 1.0960487632489307e-24 9.167449404533461e-17 9.09775072364595e-17 6.969868088751151e-19
3.162844764501044 1.2169448702291799e-24 1.0216878159132657e-16 1.0145333788026275e-16 7.154437110638232e-19
3.1747281389236908 1.3569349902985046e-24 1.1434969638640345e-16 1.1361539499283838e-16 7.34301393565089e-19
3.1986289994194426 1.7450355096230572e-24 1.4816225258877157e-16 1.4738891323434612e-16 7.73339354425449e-19
3.2227097969389145 2.6533318648470426e-24 2.2697718473457755e-16 2.261623803194973e-16 8.148044150802062e-19
3.2348180950136065 3.512185055523116e-24 3.0157593813579453e-16 3.007389799257236e-16 8.369582100709005e-19
3.240889293275058 4.153763684703339e-24 3.573348831117057e-16 3.56486238696891e-16 8.486444148146197e-19
3.2469718861334385 4.8959623865771564e-24 4.219743316831864e-16 4.211135947989008e-16 8.607368842856951e-19
3.2714166318528037 8.848324637399142e-24 7.683628141529386e-16 7.674520235776028e-16 9.107905753356916e-19
3.2744851364798273 9.095767034599005e-24 7.905908522728957e-16 7.896741402607851e-16 9.167120121103374e-19
3.2775565192852394 9.350264430746536e-24 8.1347369847752e-16 8.125510332796453e-16 9.226651978746434e-19
3.283707930232385 9.107569016402604e-24 7.938463016020296e-16 7.929129444270939e-16 9.333571749356248e-19
3.2898708863219004 8.33472768534844e-24 7.27846339347775e-16 7.26903209608344e-16 9.4312973943089e-19
3.29141343181113 8.152449267151507e-24 7.122623282817991e-16 7.113167434635351e-16 9.455848182638788e-19
3.292184975758714 8.062880680751472e-24 7.046020373191665e-16 7.036552231674557e-16 9.468141517107556e-19
3.295272960557952 7.497740503867755e-24 6.558299309827841e-16 6.548783269979323e-16 9.516039848516483e-19
3.3076538914384823 5.5388163471722855e-24 4.863024500561351e-16 4.853315857130005e-16 9.708643431346479e-19
3.310756385682612 5.139839016524657e-24 4.516959277572562e-16 4.507202040907165e-16 9.757236665396848e-19
3.313861789986515 4.771610501209428e-24 4.1972883921540134e-16 4.18748238471915e-16 9.80600743486167e-19
3.3200813396944477 4.255773816787449e-24 3.750564987786692e-16 3.740654272594058e-16 9.910715192632876e-19
3.345076488085796 3.340156770036438e-24 2.9658032493589846e-16 2.9554263924962307e-16 1.037685686275464e-18
3.3482140837626964 3.3756077325882184e-24 3.000092359877764e-16 2.989652373968817e-16 1.0439985908947739e-18
3.3513546224236106 3.411440779450922e-24 3.0347830840263482e-16 3.024279660297112e-16 1.050342372923658e-18
3.3576445397418455 3.6688406297781356e-24 3.2698889013102064e-16 3.259252917146391e-16 1.0635984163814804e-18
3.3702598118196083 4.6145339322598485e-24 4.12819932626724e-16 4.117285236661426e-16 1.0914089605813342e-18
3.382922481734668 4.833095488506518e-24 4.339971273933134e-16 4.328786029332231e-16 1.1185244600903582e-18
3.389271646505754 4.946251042300901e-24 4.449917571040152e-16 4.4385947192734104e-16 1.1322851766742915e-18
3.395632727569191 5.068347945488007e-24 4.568320504995302e-16 4.556855832897007e-16 1.1464672098296094e-18
3.421196662673239 5.6543107260982575e-24 5.134842696380969e-16 5.122789995361457e-16 1.2052701019511023e-18
3.4276182099114902 5.540098416410516e-24 5.040566563995778e-16 5.028381715621742e-16 1.2184848374034433e-18
3.4340518103208963 5.03297903645072e-24 4.5877674702130355e-16 4.575457187447265e-16 1.2310282765771587e-18
3.4469541582030403 4.310969230531045e-24 3.944390133758711e-16 3.931838183969072e-16 1.2551949789638314e-18
3.472904465399547 4.1138785293159094e-24 3.792396471440929e-16 3.7792890921772264e-16 1.310737926370249e-18
3.4990501388274233 3.809677772714302e-24 3.538407466341685e-16 3.524729574435075e-16 1.3677891906609342e-18
3.5253949054701885 2.7119290056291115e-24 2.53778906523058e-16 2.5235535516180634e-16 1.4235513612517523e-18
3.5519380250092896 1.6790070554106154e-24 1.5830233966497691e-16 1.5682246649747072e-16 1.4798731675062044e-18
3.578680990867387 1.2737398122774503e-24 1.2099659333548341e-16 1.194549397156467e-16 1.541653619836678e-18
3.605625307711299 1.114313481521901e-24 1.0664915315095728e-16 1.0504225894047929e-16 1.606894210477974e-18
3.660119384959845 1.0077652125504325e-24 9.790932288007446e-17 9.616459416887784e-17 1.744728711196637e-18
3.715437065384467 9.369224764336115e-25 9.240234650473627e-17 9.051118209320397e-17 1.8911644115323017e-18
3.8285932144167436 9.257027312079683e-25 9.407629459659932e-17 9.186640772957696e-17 2.209886867022378e-18
3.94519561050918 9.520517120648685e-25 9.970077005224105e-17 9.713720587833748e-17 2.563564173903581e-18
4.06534921144712 9.952300368597324e-25 1.0739665752877544e-16 1.0444325389593934e-16 2.9534036328361143e-18
4.189162171576248 1.0492106118051211e-24 1.1667002223956704e-16 1.1328822602040017e-16 3.3817962191669134e-18
4.316745939156006 1.1117537569083892e-24 1.2738976249020972e-16 1.235406336091883e-16 3.849128881021419e-18
4.448215356677963 1.1820960528581772e-24 1.3957511852641863e-16 1.3522384281667586e-16 4.351275709742742e-18
4.58368876423945 1.2603891691369953e-24 1.5335191957491877e-16 1.484611090014397e-16 4.890810573479084e-18
4.723288106065518 1.3474402765396714e-24 1.6893646208959224e-16 1.6346340338596574e-16 5.4730587036265316e-18
4.867139040275056 1.4446569219656628e-24 1.86641367934842e-16 1.805546990764927e-16 6.086668858349329e-18
4.940699165968905 1.4989794548317903e-24 1.9658642476200647e-16 1.9017882945537924e-16 6.407595306627201e-18
5.015371051989984 1.554877898725647e-24 2.0699925978850035e-16 2.0026183751513429e-16 6.737422273366021e-18
5.091171501069577 1.6178496687237248e-24 2.1863783805273535e-16 2.1155512581180026e-16 7.082712240935114e-18
5.129500256944802 1.6500105371715277e-24 2.2466282037699236e-16 2.1740416017080237e-16 7.258660206189996e-18
5.168117569889187 1.683099094911603e-24 2.3089339226109113e-16 2.2345518256440257e-16 7.438209696688574e-18
5.20702561229733 1.7207791859398116e-24 2.378396686999278e-16 2.3020715233008096e-16 7.632516369846827e-18
5.246226572918644 1.7591813757266394e-24 2.4497800548925583e-16 2.371483464934634e-16 7.829658995792425e-18
5.265937586045735 1.7786587934788577e-24 2.486209858522982e-16 2.40691697780479e-16 7.92928807181917e-18
5.285722656980489 1.798323477605412e-24 2.5231415711715623e-16 2.442845380022353e-16 8.029619114920828e-18
5.305582063971359 1.818177780202713e-24 2.5605827497960733e-16 2.4792762535770055e-16 8.130649621906873e-18
5.3255160863122235 1.839009895877482e-24 2.5996519083874373e-16 2.517321650289851e-16 8.233025809758534e-18
5.365609099470188 1.8874759350887384e-24 2.688251433573804e-16 2.6038021795782673e-16 8.444925399553618e-18
5.406003951863644 1.937313300276272e-24 2.7800054795309965e-16 2.6934062722792635e-16 8.659920725173327e-18
5.446702915881641 1.9885797537932605e-24 2.875054848631941e-16 2.786274884457547e-16 8.877996417439332e-18
5.487708281020852 2.042874413915277e-24 2.975788896654877e-16 2.884789867413419e-16 9.099902924145823e-18
5.529022354014368 2.1127063812547193e-24 3.1006798210867933e-16 3.007363515286425e-16 9.331630580036768e-18
5.570647458961463 2.1857474390354645e-24 3.232027788077111e-16 3.1363600118780575e-16 9.566777619905368e-18
5.612585937458331 2.262214251231586e-24 3.370281456065696e-16 3.272228123508321e-16 9.805333255737531e-18
5.654840148729818 2.3447475271154958e-24 3.5195395701315553e-16 3.419056997159043e-16 1.0048257297251325e-17
5.67608639626678 2.398282190996758e-24 3.613422236622583e-16 3.511669922086244e-16 1.0175231453633915e-17
5.686739436050992 2.42573721540069e-24 3.6616473353465473e-16 3.5592565418115724e-16 1.0239079353497604e-17
5.6974124697621304 2.453664841940018e-24 3.7107554575654233e-16 3.607723780322191e-16 1.0303167724323296e-17
5.718818669136295 2.510981951094527e-24 3.8117056012379667e-16 3.7073849449849535e-16 1.0432065625301307e-17
5.740305295436557 2.573362353512518e-24 3.92107696596175e-16 3.815449448300636e-16 1.0562751766111244e-17
5.7835210386641895 2.7306619063856042e-24 4.1920811840013004e-16 4.0837461019953554e-16 1.0833508200594515e-17
5.827062130521658 2.9090394095782445e-24 4.499545901678183e-16 4.388440812575645e-16 1.1110508910253701e-17
5.8489554468988025 3.0312750173635118e-24 4.706229334437599e-16 4.593635136064689e-16 1.1259419837291073e-17
5.870931020387893 3.1615619166599097e-24 4.926949402833017e-16 4.812853013869541e-16 1.1409638896347439e-17
5.892989160043636 3.3005378584478776e-24 5.162853406571091e-16 5.047241714526409e-16 1.1561169204468281e-17
5.915130176081913 3.4573874226159994e-24 5.428524316506125e-16 5.311343410490785e-16 1.1718090601533916e-17
5.95966208400165 3.890002682225694e-24 6.153765880662994e-16 6.033051181854355e-16 1.2071469880863761e-17
6.004529249263818 4.5056135079219774e-24 7.181287814510057e-16 7.056617345334094e-16 1.2467046917596402e-17
6.027089341400364 4.9303927230808074e-24 7.887848778915352e-16 7.760913818723128e-16 1.2693496019221983e-17
6.049734195844842 5.429911768907893e-24 8.71963888621771e-16 8.590308841932688e-16 1.2933004428502093e-17
6.095279466722835 6.865382093010934e-24 1.1107792765124173e-15 1.0972649849021429e-15 1.3514291610274206e-17
6.141167624020661 9.062133519694854e-24 1.4772392607410877e-15 1.4629796817316838e-15 1.425957900940437e-17
6.164241091010745 1.0463632732891097e-23 1.712109499780873e-15 1.6973866348869306e-15 1.472286489394279e-17
6.187401249150058 1.2054546563275894e-23 1.979833153806445e-15 1.964633268066921e-15 1.5199885739523857e-17
6.1990139391386085 1.2831467459710335e-23 2.1113895749835785e-15 2.0959466878564786e-15 1.544288712710021e-17
6.204828454712694 1.3240218266087138e-23 2.1806921319688512e-15 2.165126370619629e-15 1.5565761349222233e-17
6.210648424152782 1.3539281054952475e-23 2.2320400441212475e-15 2.2163685156685013e-15 1.5671528452745738e-17
6.233982942956859 1.4555491282544392e-23 2.408584633074579e-15 2.392539726193253e-15 1.6044906881325696e-17
6.239830258556775 1.4685817815110803e-23 2.432429966474666e-15 2.4163297956533456e-15 1.6100170821320217e-17
6.245683058788269 1.4698337518692857e-23 2.4367871220473915e-15 2.4206315471365652e-15 1.6155574910826278e-17
6.257405133728602 1.4673215172723475e-23 2.437187788431617e-15 2.420933198337488e-15 1.6254590094129803e-17
6.269149208991335 1.4477265624168777e-23 2.409154110857744e-15 2.3928533365512757e-15 1.630077430646792e-17
6.280915325867298 1.3981934940376988e-23 2.3310932599323437e-15 2.3148117942029435e-15 1.6281465729401323e-17
6.304513850009849 1.2759058016049081e-23 2.135205347191244e-15 2.119021931447774e-15 1.6183415743469316e-17
6.32820103803542 1.124407086315612e-23 1.8887447695442466e-15 1.8727226398880966e-15 1.602212965615037e-17
6.3519772230701035 9.856081768836251e-24 1.6618149553478226e-15 1.6459340741219378e-15 1.5880881225885462e-17
6.375842739491607 8.687690803772902e-24 1.470318377759224e-15 1.4545583506635823e-15 1.5760027095641696e-17
6.399797922933955 7.756020103120177e-24 1.3175727986970048e-15 1.3018578532858118e-15 1.5714945411193464e-17
6.42384311029221 6.981366783947481e-24 1.1904326069060765e-15 1.1747476696908559e-15 1.5684937215220697e-17
6.447978639727206 6.420638848786102e-24 1.0989331272535523e-15 1.0832186751282794e-15 1.5714452125272988e-17
6.472204850670314 5.954305453581984e-24 1.0229462101131576e-15 1.0071901999139744e-15 1.5756010199183243e-17
6.496522083828205 5.6553735672406455e-24 9.752403233568148e-16 9.593941236643025e-16 1.5846199692512334e-17
6.520930681187647 5.404787203248633e-24 9.355297792496555e-16 9.195855597606306e-16 1.5944219489024733e-17
6.57002334288761 5.158339587286186e-24 8.995934303133948e-16 8.833843245637657e-16 1.6209105749628828e-17
