Dust emission spectrum from A.P. Jones, M. Kohler, N. Ysard, M. Bocchio, and L. Verstraete (2017), A&A, 602A, 46J 
inside the DustPedia framework.

lambda    nu*dP/dnu     j_nu    j_nu(carb.) j_nu(sil)
 (um)   (erg s-1 H-1) (Jy cm2 sr-1 H-1)
0.9927057738263894 2.7545660635590565e-25 7.258438033707074e-18 7.258438029481377e-18 4.225698033323738e-27
1.0001793341362166 2.8000336654723584e-25 7.433794698804673e-18 7.433794693715741e-18 5.088932047882314e-27
1.0077091589558085 2.8454513156267994e-25 7.611246692021116e-18 7.611246685900577e-18 6.120539494495128e-27
1.0114953028030835 2.86813606338492e-25 7.70075051634614e-18 7.700750509637124e-18 6.709015213865677e-27
1.0152956718711033 2.8908019277077556e-25 7.790768569878203e-18 7.790768562526532e-18 7.351669719943234e-27
1.0229392996569957 2.9360462848801653e-25 7.97227359491637e-18 7.972273586097353e-18 8.819012313493505e-27
1.0267826658714554 2.958570047620843e-25 8.06361562134244e-18 8.063615611687728e-18 9.654709098825232e-27
1.0306404723013447 2.9810653856784404e-25 8.155453721853461e-18 8.155453711287324e-18 1.0566139251781056e-26
1.03451277320114 3.003530234317754e-25 8.247784372713711e-18 8.247784361153886e-18 1.1559826593019674e-26
1.0383996230291617 3.0259625415143684e-25 8.340604008038603e-18 8.340603995395776e-18 1.2642825429362401e-26
1.0403485208654093 3.037165854393715e-25 8.387196069270027e-18 8.387196056049852e-18 1.3220176062621696e-26
1.0423010764483396 3.048360268376878e-25 8.43390902084653e-18 8.433909007023769e-18 1.3822760929811922e-26
1.0462171883269815 3.070721389560661e-25 8.527695764115051e-18 8.527695749007177e-18 1.5107872346472967e-26
1.0471985131304309 3.0763057141969736e-25 8.551217289204488e-18 8.551217273757877e-18 1.544661165566904e-26
1.048180758391296 3.0818875939069556e-25 8.574768634289705e-18 8.57476861849708e-18 1.579262301932572e-26
1.0501480137395462 3.0930438936731803e-25 8.621960551841109e-18 8.621960535334048e-18 1.650705926311554e-26
1.0521189612883777 3.104190039680383e-25 8.669271050102722e-18 8.669271032850318e-18 1.7252404818098584e-26
1.0531058218030118 3.1097507311844497e-25 8.692946870331534e-18 8.692946852694445e-18 1.763708915782403e-26
1.0540936079674168 3.1152809551538533e-25 8.716574229653898e-18 8.716574211623833e-18 1.8030066749559305e-26
1.058054026499678 3.1373737728166217e-25 8.811372046120111e-18 8.811372026432622e-18 1.9687490427081878e-26
1.0590464539527713 3.1428898049994737e-25 8.83514329538223e-18 8.835143275258133e-18 2.0124099483964645e-26
1.06003981227728 3.1484029074331196e-25 8.858943142379538e-18 8.858943121809569e-18 2.0569971503108597e-26
1.0620293250338977 3.15942020183864e-25 8.906628387889593e-18 8.906628366399339e-18 2.149025565032595e-26
1.0660195594769086 3.181418303835204e-25 9.002339385971209e-18 9.002339362520765e-18 2.3450446045778125e-26
1.070024785945596 3.203366156655969e-25 9.098501138876362e-18 9.098501113295272e-18 2.558109084388767e-26
1.0740450607676866 3.2252618547332576e-25 9.195109713702947e-18 9.19510968580671e-18 2.789623390167648e-26
1.07808044048254 3.247103509421758e-25 9.292161147220884e-18 9.292161116809879e-18 3.041100736842345e-26
1.0861967418109137 3.290578899807817e-25 9.48746610486308e-18 9.487466068757182e-18 3.6105896960780257e-26
1.0902777775684922 3.312121806169758e-25 9.585458543763693e-18 9.585458504441227e-18 3.932246446491113e-26
1.0943741465085532 3.333601770430008e-25 9.68387056191577e-18 9.683870519104041e-18 4.28117285073323e-26
1.1026131145906286 3.3763657379624702e-25 9.881936784228713e-18 9.881936733531276e-18 5.069743913119724e-26
1.1109141095355224 3.41885672555452e-25 1.0081631446109646e-17 1.0081631386151286e-17 5.995835957732498e-26
1.1192775983109025 3.461021881363863e-25 1.0282804756213307e-17 1.0282804685393308e-17 7.081999837114235e-26
1.1277040513999907 3.5026682071967526e-25 1.0484882651649297e-17 1.0484882568106948e-17 8.354234954765071e-26
1.1361939428280308 3.5439956580772575e-25 1.0688458709667475e-17 1.0688458611242742e-17 9.842473319869461e-26
1.1447477501889525 3.584991560027132e-25 1.0893498282834344e-17 1.0893498167023038e-17 1.1581130719201968e-25
1.1533659546722406 3.6256653776872786e-25 1.1100033260484421e-17 1.1100033124386981e-17 1.3609744300161277e-25
1.1707974979042381 3.706178141457105e-25 1.1518011531731131e-17 1.1518011344481767e-17 1.8724936494359396e-25
1.1884924949847024 3.7852443528423734e-25 1.19415251289379e-17 1.1941524872590033e-17 2.5634786689974086e-25
1.2064549276569216 3.8634777642561906e-25 1.2372542426302048e-17 1.237254207707461e-17 3.49227438882506e-25
1.2246888378427687 3.940051297546016e-25 1.280846449624018e-17 1.2808464022793282e-17 4.734468927600858e-25
1.2431983285522175 4.014796165928955e-25 1.324870259867532e-17 1.3248701959910227e-17 6.387650920521715e-25
1.2619875648066055 4.0876973066479093e-25 1.3693145959720059e-17 1.369314510200315e-17 8.577169049259834e-25
1.3004222497298317 4.226827154302874e-25 1.459043745832115e-17 1.4590435933436887e-17 1.5248842620105085e-24
1.3400274889804893 4.356997159862825e-25 1.5497813037597723e-17 1.5497810375941546e-17 2.6616561737793675e-24
1.3808389325824078 4.477835967180073e-25 1.641272288492785e-17 1.641271832150875e-17 4.563419101876322e-24
1.4228933163050095 4.589998495661516e-25 1.7336216247938246e-17 1.7336208559017955e-17 7.68892029155541e-24
1.466228494730424 4.6961183301540115e-25 1.827721917842535e-17 1.8277206440664734e-17 1.2737760616865886e-23
1.5108834753276823 4.794409757615447e-25 1.9228063731234762e-17 1.9228042974249366e-17 2.0756985398916724e-23
1.5568984535646726 4.883449524436725e-25 2.0181638538169298e-17 2.0181605231443244e-17 3.3306726054666085e-23
1.6043148490894465 4.96350191018531e-25 2.1137188947770157e-17 2.11371362253262e-17 5.272244395671299e-23
1.6531753430134553 5.034902079482177e-25 2.2094255956739612e-17 2.2094173722410396e-17 8.223432921823697e-23
1.7035239163302658 5.098456304378633e-25 2.30545351422993e-17 2.305440872439288e-17 1.2641790642267306e-22
1.755405889504358 5.158259834817456e-25 2.4035336074836977e-17 2.4035144437871635e-17 1.916369653337181e-22
1.8088679632656115 5.213456501583585e-25 2.5032374902186712e-17 2.5032088339710383e-17 2.8656247633027814e-22
1.8639582606462262 5.263479065971902e-25 2.6042250740601444e-17 2.6041827875961254e-17 4.2286464020166835e-22
1.9207263702978936 5.308901823999664e-25 2.7066969039414705e-17 2.7066353026977594e-17 6.160124371152687e-22
1.979223391128241 5.350926849165059e-25 2.811209824546898e-17 2.811121200517573e-17 8.862402932548343e-22
2.039501978296691 5.390946190781056e-25 2.9184923612749556e-17 2.918366398348523e-17 1.259629264322138e-21
2.1016163906111602 5.43278205855581e-25 3.0307154515819844e-17 3.0305385046662015e-17 1.7694691578283115e-21
2.1656225393682647 5.478640567942039e-25 3.149379562798738e-17 3.1491338078444136e-17 2.4575495432461647e-21
2.231578038680979 5.528629012314889e-25 3.274906915381098e-17 3.274569351210015e-17 3.3756417108350876e-21
2.299542257339062 5.584009499455214e-25 3.4084503822873374e-17 3.4079916717703286e-17 4.587105170081221e-21
2.369576372248914 5.647571986250594e-25 3.552236881663166e-17 3.5516200160455604e-17 6.168656176065865e-21
2.4417434235010123 5.722598293661942e-25 3.7090502806870915e-17 3.708229090905831e-17 8.211897812604018e-21
2.5161083711144245 5.814761786301383e-25 3.883566117127401e-17 3.8824835901659997e-17 1.0825269614006855e-20
2.5927381535095444 5.933369714727154e-25 4.083471249470403e-17 4.082057691839164e-17 1.4135576312389417e-20
2.6717017477616296 6.089363258183957e-25 4.318463866140798e-17 4.316635006212478e-17 1.828859928320043e-20
2.753070231689431 6.299217466066171e-25 4.603342887225541e-17 4.60099786675131e-17 2.3450204742299643e-20
2.836916847834745 6.6006299149673845e-25 4.970515390711502e-17 4.9675345877288133e-17 2.9808029826879543e-20
2.9233170693905177 7.07674563929067e-25 5.4913476786551804e-17 5.4875911634776336e-17 3.756515177547988e-20
2.967498994190263 7.462530666677937e-25 5.878224145009763e-17 5.874027538945e-17 4.196606064763562e-20
3.0123486681368425 7.908511333461987e-25 6.323673123988425e-17 6.318991114406834e-17 4.682009581590655e-20
3.0578761833420214 8.87303065128675e-25 7.202135886892687e-17 7.196917817638522e-17 5.2180692541653827e-20
3.1040917844459814 1.010613030438997e-24 8.327006064931602e-17 8.321201659216883e-17 5.804405714717952e-20
3.127460860933648 1.1395869281589624e-24 9.460384227377617e-17 9.454264696724694e-17 6.119530652922308e-20
3.1510058709225794 1.3108366777532768e-24 1.0963954637646566e-16 1.095750576242237e-16 6.448875224193309e-20
3.162844764501044 1.469832681843102e-24 1.2340001418366705e-16 1.233338177051461e-16 6.619647852099685e-20
3.1747281389236908 1.6544102337952e-24 1.3941810719423115e-16 1.3935016590719365e-16 6.794128703751844e-20
3.1986289994194426 2.168259849238578e-24 1.8409611821043783e-16 1.8402456493304612e-16 7.155327739169403e-20
3.2227097969389145 3.37787112624028e-24 2.8895732523622095e-16 2.888819354007534e-16 7.538983546751127e-20
3.2348180950136065 4.524144165058911e-24 3.8846843183666123e-16 3.8839099221944537e-16 7.743961721596428e-20
3.240889293275058 5.381068972196344e-24 4.629159957454672e-16 4.628374748611302e-16 7.852088433691442e-20
3.2469718861334385 6.372529837829082e-24 5.492370666125654e-16 5.491574268713983e-16 7.963974116714917e-20
3.2714166318528037 1.165619538509909e-23 1.0121901552477165e-15 1.0121058842841065e-15 8.427096360991806e-20
3.2744851364798273 1.1986594319096458e-23 1.0418573587622343e-15 1.0417725399171527e-15 8.481884508107523e-20
3.2775565192852394 1.2326446090745828e-23 1.0724017234796202e-15 1.0723163538154882e-15 8.536966413242855e-20
3.283707930232385 1.200010126823785e-23 1.0459691267212823e-15 1.0458827677811138e-15 8.635894016846979e-20
3.2898708863219004 1.0964298787405619e-23 9.57478760818663e-16 9.573914976712772e-16 8.726314738580898e-20
3.29141343181113 1.0719996917121493e-23 9.36583560737755e-16 9.364960704340278e-16 8.74903037274972e-20
3.292184975758714 1.0599950568042351e-23 9.263124510269946e-16 9.262248469791035e-16 8.760404789112452e-20
3.295272960557952 9.842671770108663e-24 8.609418723342919e-16 8.608538251067766e-16 8.804722751551118e-20
3.3076538914384823 7.217968667158039e-24 6.337303184026636e-16 6.336404891092532e-16 8.982929341056523e-20
3.310756385682612 6.683427628307758e-24 5.873485596457823e-16 5.872582807431596e-16 9.02789026226097e-20
3.313861789986515 6.1900943688592726e-24 5.445040250910162e-16 5.444132949365341e-16 9.073015448218677e-20
3.3200813396944477 5.498459140238339e-24 4.845729408082307e-16 4.844812418444759e-16 9.169896375482572e-20
3.345076488085796 4.266508521755801e-24 3.788332616825981e-16 3.787372497393467e-16 9.601194325132701e-20
3.3482140837626964 4.313039998875011e-24 3.833241114941651e-16 3.832275154488714e-16 9.659604529353421e-20
3.3513546224236106 4.3600804347558815e-24 3.8786832906772875e-16 3.877711460634569e-16 9.71830042719841e-20
3.3576445397418455 4.702584390932513e-24 4.1912228028053435e-16 4.190238707596428e-16 9.840952089161604e-20
3.3702598118196083 5.964275017723004e-24 5.335688602852854e-16 5.334678775911583e-16 1.0098269412708637e-19
3.382922481734668 6.252821628513026e-24 5.614841733069088e-16 5.613806817487611e-16 1.034915581475752e-19
3.389271646505754 6.402266093720764e-24 5.759828229759611e-16 5.758780582062689e-16 1.0476476969228632e-19
3.395632727569191 6.563507556707251e-24 5.915972320465915e-16 5.914911550829819e-16 1.0607696360980252e-19
3.421196662673239 7.3382024395336e-24 6.664033341373413e-16 6.662918164306461e-16 1.1151770669532665e-19
3.4276182099114902 7.183606534968324e-24 6.53588513911696e-16 6.534757735104539e-16 1.1274040124199914e-19
3.4340518103208963 6.503765194117875e-24 5.928449567419514e-16 5.927310557579725e-16 1.139009839786393e-19
3.4469541582030403 5.535159645167811e-24 5.064482701141852e-16 5.063321331041874e-16 1.1613700999795026e-19
3.472904465399547 5.2646248380640785e-24 4.853216865072222e-16 4.852004103810247e-16 1.212761261975248e-19
3.4990501388274233 4.8506084101220834e-24 4.505218036444911e-16 4.503952488449055e-16 1.265547995855084e-19
3.5253949054701885 3.3750470149522776e-24 3.158326560690352e-16 3.15700941869913e-16 1.3171419912213386e-19
3.5519380250092896 1.9868158125030266e-24 1.8732356757469564e-16 1.871866421957807e-16 1.3692537891487683e-19
3.578680990867387 1.4372241377822678e-24 1.3652648904822212e-16 1.3638384742732706e-16 1.4264162089508417e-19
3.605625307711299 1.2159369724004782e-24 1.1637537420290215e-16 1.1622669619011855e-16 1.4867801278357003e-19
3.660119384959845 1.0565642817050208e-24 1.0265039129422609e-16 1.0248896013050993e-16 1.6143116371616004e-19
3.715437065384467 9.443265864420198e-25 9.313256395149916e-17 9.295758380937591e-17 1.7498014212328175e-19
3.8285932144167436 8.918441041906032e-25 9.063534745175783e-17 9.043087747861922e-17 2.0446997313860405e-19
3.94519561050918 8.86443786928175e-25 9.283017618137742e-17 9.259298217121909e-17 2.371940101583067e-19
4.06534921144712 9.002918494327116e-25 9.71517456753569e-17 9.687848171451977e-17 2.732639608371392e-19
4.189162171576248 9.252193635657169e-25 1.0288245516119492e-16 1.0256955410816988e-16 3.12901053025009e-19
4.316745939156006 9.581544641831446e-25 1.097896623805004e-16 1.0943352128788952e-16 3.5614109261089294e-19
4.448215356677963 9.980456335202175e-25 1.1784350117449536e-16 1.1744089884040603e-16 4.026023340893354e-19
4.58368876423945 1.0449852701208215e-24 1.2714366405597453e-16 1.2669114112554941e-16 4.525229304251086e-19
4.723288106065518 1.0999165430637961e-24 1.3790296506217103e-16 1.3739656945602243e-16 5.063956061486189e-19
4.867139040275056 1.164737105940941e-24 1.50477337167013e-16 1.499141670710327e-16 5.63170095980335e-19
4.940699165968905 1.2033049158673426e-24 1.578096421177787e-16 1.572167781772366e-16 5.928639405421171e-19
5.015371051989984 1.2430450535662302e-24 1.6548528098756377e-16 1.6486189966688286e-16 6.233813206808761e-19
5.091171501069577 1.291094606846879e-24 1.7447982900984376e-16 1.7382449957678158e-16 6.553294330621874e-19
5.129500256944802 1.3156690177297319e-24 1.7913940883824873e-16 1.784677997336299e-16 6.716091046188128e-19
5.168117569889187 1.3412208525861112e-24 1.8399334499148104e-16 1.833051229789794e-16 6.882220125016355e-19
5.20702561229733 1.3724439934985368e-24 1.8969408009466428e-16 1.8898787975902518e-16 7.062003356390513e-19
5.246226572918644 1.4043891220202815e-24 1.9557076421481918e-16 1.948463231537439e-16 7.244410610752155e-19
5.265937586045735 1.420639634883742e-24 1.9857705584713278e-16 1.9784339655155042e-16 7.336592955823701e-19
5.285722656980489 1.437079419109033e-24 2.0162973283634616e-16 2.0088679035518944e-16 7.429424811567133e-19
5.305582063971359 1.4537115382128617e-24 2.047296325176934e-16 2.0397734213146008e-16 7.5229038623326115e-19
5.3255160863122235 1.4715586427514636e-24 2.0802173183018773e-16 2.0725996902785628e-16 7.617628023314345e-19
5.365609099470188 1.515926525148432e-24 2.1590694634372838e-16 2.1512557740605176e-16 7.81368937676677e-19
5.406003951863644 1.5618778365073568e-24 2.241263167516205e-16 2.233250552381873e-16 8.012615134331682e-19
5.446702915881641 1.6094894799988232e-24 2.326972566459004e-16 2.3187581753791753e-16 8.21439107982907e-19
5.487708281020852 1.6608396478535205e-24 2.419291244504114e-16 2.4108715329285817e-16 8.419711575532442e-19
5.529022354014368 1.7321997718701183e-24 2.5422353652091635e-16 2.5336012459758176e-16 8.634119233346415e-19
5.570647458961463 1.807594324461644e-24 2.6728591702290057e-16 2.6640074794525697e-16 8.851690776436793e-19
5.612585937458331 1.887314190149813e-24 2.811749600361085e-16 2.802677184132189e-16 9.07241622889538e-19
5.654840148729818 1.9748010967915017e-24 2.964238376592829e-16 2.9549411929203865e-16 9.297183672441494e-19
5.67608639626678 2.034463702058807e-24 3.0652674686148865e-16 3.0558528010204154e-16 9.414667594471342e-19
5.686739436050992 2.065190421922759e-24 3.117402395200328e-16 3.1079286517818346e-16 9.473743418492699e-19
5.6974124697621304 2.096533111295085e-24 3.1706537713413734e-16 3.1611207295944343e-16 9.533041746939999e-19
5.718818669136295 2.1611256688059157e-24 3.280618888230531e-16 3.2709665825475173e-16 9.65230568301326e-19
5.740305295436557 2.2323071765974576e-24 3.4014052623253407e-16 3.391632038083696e-16 9.77322424164435e-19
5.7835210386641895 2.4170873332412222e-24 3.710685056276444e-16 3.700661311971379e-16 1.002374430506616e-18
5.827062130521658 2.629570975807577e-24 4.0672791397770306e-16 4.0569990976709546e-16 1.028004210607683e-18
5.8489554468988025 2.77888821483338e-24 4.314384263670873e-16 4.3039664400352517e-16 1.041782363562124e-18
5.870931020387893 2.938911722354452e-24 4.579973360360675e-16 4.569416544781085e-16 1.055681557958795e-18
5.892989160043636 3.1104997713041112e-24 4.865587073728649e-16 4.854890052904254e-16 1.069702082439674e-18
5.915130176081913 3.3055817604640336e-24 5.190170719514172e-16 5.179328505205781e-16 1.0842214308391025e-18
5.95966208400165 3.8515034430952825e-24 6.092862245486923e-16 6.081693062235971e-16 1.1169183250947668e-18
6.004529249263818 4.638087160165841e-24 7.392431407481316e-16 7.380896210568499e-16 1.1535196912818202e-18
6.027089341400364 5.1849873328553344e-24 8.295159898864753e-16 8.283415176101979e-16 1.174472276277464e-18
6.049734195844842 5.830762670240714e-24 9.363346418787816e-16 9.35138008659789e-16 1.1966332189927282e-18
6.095279466722835 7.696384375631785e-24 1.2452306590814149e-15 1.243980241110045e-15 1.2504179713696499e-18
6.141167624020661 1.0566026490640281e-23 1.7223923183301076e-15 1.721072940966011e-15 1.3193773640965032e-18
6.164241091010745 1.2399034024897895e-23 2.0287890911351335e-15 2.0274268471427632e-15 1.3622439923701865e-18
6.187401249150058 1.448499464326087e-23 2.379008822679701e-15 2.377602441118116e-15 1.4063815615858806e-18
6.1990139391386085 1.5503475483119737e-23 2.5510625821913176e-15 2.5496337163004263e-15 1.4288658908918274e-18
6.204828454712694 1.6039788071157993e-23 2.6417872381162057e-15 2.6403470029624864e-15 1.4402351537193293e-18
6.210648424152782 1.6431280706490517e-23 2.708805317226826e-15 2.707355295701128e-15 1.4500215256973871e-18
6.233982942956859 1.7760636563892663e-23 2.938959288355707e-15 2.9374747190290313e-15 1.484569326675869e-18
6.239830258556775 1.7930184200002964e-23 2.9697983388859534e-15 2.9683086561299913e-15 1.4896827559622906e-18
6.245683058788269 1.7944306917594527e-23 2.974925290377256e-15 2.9734304812235006e-15 1.4948091537547264e-18
6.257405133728602 1.7906459255951253e-23 2.974222303628392e-15 2.972718332859585e-15 1.5039707688080894e-18
6.269149208991335 1.764338279224766e-23 2.9360259932248575e-15 2.9345177491853455e-15 1.5082440395118881e-18
6.280915325867298 1.6985585647571946e-23 2.831867290750742e-15 2.8303608333582976e-15 1.5064573924438944e-18
6.304513850009849 1.5364128614481892e-23 2.5711592134239836e-15 2.569661828532297e-15 1.4973848916865678e-18
6.32820103803542 1.3355732848811428e-23 2.24345531690666e-15 2.2419728556654857e-15 1.4824612411742495e-18
6.3519772230701035 1.1514153905009963e-23 1.941379303286905e-15 1.9399099116763724e-15 1.4693916105322634e-18
6.375842739491607 9.964130895539881e-24 1.686345095033579e-15 1.684886885995768e-15 1.4582090378108546e-18
6.399797922933955 8.722721766823763e-24 1.4817935974593221e-15 1.4803395599701897e-15 1.454037489132424e-18
6.42384311029221 7.689942131687811e-24 1.3112558245515695e-15 1.3098045638799527e-15 1.4512606716168309e-18
6.447978639727206 6.937573183070637e-24 1.1874097224863517e-15 1.1859557310905237e-15 1.4539913958282008e-18
6.472204850670314 6.310418287382887e-24 1.0841261876183668e-15 1.0826683511631681e-15 1.4578364551989302e-18
6.496522083828205 5.9028093516888826e-24 1.0179093622038959e-15 1.0164431809223001e-15 1.4661812815960722e-18
6.520930681187647 5.5592176707332995e-24 9.622605820957901e-16 9.607853314622922e-16 1.4752506334981e-18
6.57002334288761 5.206992102805017e-24 9.080782310110523e-16 9.065784714090264e-16 1.4997596020259122e-18
