Dust emission spectrum from A.P. Jones, M. Kohler, N. Ysard, M. Bocchio, and L. Verstraete (2017), A&A, 602A, 46J 
inside the DustPedia framework.

lambda    nu*dP/dnu     j_nu    j_nu(carb.) j_nu(sil)
 (um)   (erg s-1 H-1) (Jy cm2 sr-1 H-1)
0.9927057738263894 1.827040231658043e-21 4.814354784232391e-14 4.814354696808262e-14 8.742412872927636e-22
1.0001793341362166 1.857757946378256e-21 4.932151832224202e-14 4.932151727017434e-14 1.0520676675024469e-21
1.0077091589558085 1.888597595458421e-21 5.0517758367710776e-14 5.051775710333245e-14 1.2643783444335098e-21
1.0114953028030835 1.9040617288707738e-21 5.112276411479547e-14 5.1122762729391845e-14 1.3854036099971658e-21
1.0152956718711033 1.9195546699848378e-21 5.173237933648095e-14 5.1732377818974584e-14 1.5175063718977629e-21
1.0229392996569957 1.9506097509639074e-21 5.2965086727952086e-14 5.296508490904993e-14 1.8189021625020114e-21
1.0267826658714554 1.9661366107269104e-21 5.3587272340230856e-14 5.3587270349801046e-14 1.9904298313768087e-21
1.0306404723013447 1.9816894370341805e-21 5.421409598213155e-14 5.4214093804725546e-14 2.1774060015930815e-21
1.03451277320114 1.997267749859032e-21 5.4845573209800634e-14 5.4845570828649286e-14 2.3811513544516172e-21
1.0383996230291617 2.0128710837123747e-21 5.548171994248965e-14 5.548171733939668e-14 2.6030929766740182e-21
1.0403485208654093 2.0206819921241417e-21 5.5801549451343654e-14 5.580154672997925e-14 2.72136440815834e-21
1.0423010764483396 2.0284989880066963e-21 5.6122552479130385e-14 5.612254963435803e-14 2.8447723686898887e-21
1.0462171883269815 2.044151027417226e-21 5.6768087515133843e-14 5.676808440727984e-14 3.1078540094036095e-21
1.0471985131304309 2.0480677588494e-21 5.693020803527949e-14 5.693020485810347e-14 3.177176021224359e-21
1.048180758391296 2.0519859660136842e-21 5.709262380030858e-14 5.709262055233189e-14 3.247976690206072e-21
1.0501480137395462 2.0598267822400594e-21 5.741834215940856e-14 5.741833876527406e-14 3.394134512554906e-21
1.0521189612883777 2.067673426132348e-21 5.774524479848375e-14 5.774524125190946e-14 3.546574304474808e-21
1.0531058218030118 2.0715937204889085e-21 5.790899562635841e-14 5.790899200112346e-14 3.6252349453598286e-21
1.0540936079674168 2.0754984254306278e-21 5.807256664560576e-14 5.807256294002489e-14 3.705580865178156e-21
1.058054026499678 2.0911308252618113e-21 5.872979451201964e-14 5.872979046768888e-14 4.044330780574381e-21
1.0590464539527713 2.0950422916577875e-21 5.889483884302339e-14 5.889483470948735e-14 4.1335360517533525e-21
1.06003981227728 2.0989550934316083e-21 5.906017869319842e-14 5.906017446857711e-14 4.224621284166682e-21
1.0620293250338977 2.1067846812570497e-21 5.939174611321079e-14 5.939174170062792e-14 4.412582867384313e-21
1.0660195594769086 2.1224596448464496e-21 6.005844007655963e-14 6.005843526378998e-14 4.812769639541889e-21
1.070024785945596 2.138155384996368e-21 6.072989553524018e-14 6.072989028772811e-14 5.247512072431446e-21
1.0740450607676866 2.1538715885429907e-21 6.14061321464964e-14 6.14061264268632e-14 5.719633192854412e-21
1.07808044048254 2.169607960521453e-21 6.208717011010447e-14 6.20871638779319e-14 6.23217256941862e-21
1.0861967418109137 2.2011160305010515e-21 6.346303908248225e-14 6.346303169064067e-14 7.3918415834333e-21
1.0902777775684922 2.216832455525946e-21 6.415632287837642e-14 6.415631483209712e-14 8.046279312550562e-21
1.0943741465085532 2.2325671122722488e-21 6.48544500060238e-14 6.485444125023993e-14 8.755783838888139e-21
1.1026131145906286 2.264090362605281e-21 6.626532660691139e-14 6.626531624909203e-14 1.035781936670519e-20
1.1109141095355224 2.2956844688377202e-21 6.769586031022112e-14 6.769584807322845e-14 1.2236992669252776e-20
1.1192775983109025 2.327323701749074e-21 6.914551843330976e-14 6.914550399499813e-14 1.4438311620880425e-20
1.1277040513999907 2.3588936633246488e-21 7.061109355679483e-14 7.061107654320907e-14 1.7013585738756168e-20
1.1361939428280308 2.390528895266681e-21 7.2096785257314e-14 7.209676523494214e-14 2.002237185052675e-20
1.1447477501889525 2.422229501854474e-21 7.360283135194522e-14 7.360280781890558e-14 2.3533039635719363e-20
1.1533659546722406 2.4540072390595537e-21 7.512982897612587e-14 7.512980135211715e-14 2.762400868588259e-20
1.1707974979042381 2.5178901930787577e-21 7.825065923062163e-14 7.825062131145413e-14 3.791916751343064e-20
1.1884924949847024 2.5820909805121407e-21 8.145868920149377e-14 8.145863741127143e-14 5.179022235466356e-20
1.2064549276569216 2.647042936283545e-21 8.476987064973203e-14 8.47698002639222e-14 7.038580981508506e-20
1.2246888378427687 2.7123246202962354e-21 8.817325201572891e-14 8.817315682666442e-14 9.518906449426784e-20
1.2431983285522175 2.7778821180878463e-21 9.166924674545337e-14 9.16691186372012e-14 1.2810825217602245e-19
1.2619875648066055 2.8438101117181434e-21 9.526318614187561e-14 9.52630145557361e-14 1.715861394946077e-19
1.3004222497298317 2.9763667905003987e-21 1.0274016874717079e-13 1.0273986526826923e-13 3.0347890154541196e-19
1.3400274889804893 3.1103782042591394e-21 1.1063596811558333e-13 1.1063544121032147e-13 5.269052618464507e-19
1.3808389325824078 3.2463134286320437e-21 1.1898792875012672e-13 1.1898703029047805e-13 8.984596486692217e-19
1.4228933163050095 3.38528167652564e-21 1.2786055433330435e-13 1.278590489676557e-13 1.505365648613371e-18
1.466228494730424 3.529658117731252e-21 1.373737425406115e-13 1.373712629486306e-13 2.479591980926126e-18
1.5108834753276823 3.679084048385954e-21 1.4755030573381462e-13 1.475462887070222e-13 4.017026792409214e-18
1.5568984535646726 3.8333395296577085e-21 1.5841890531376208e-13 1.5841249802599154e-13 6.407287770486918e-18
1.6043148490894465 3.993211795373206e-21 1.7005185805220477e-13 1.7004177710483782e-13 1.0080947366931028e-17
1.6531753430134553 4.159502927845789e-21 1.8252812247360407e-13 1.825124956737078e-13 1.5626799896304253e-17
1.7035239163302658 4.3331330708864005e-21 1.9593846194820878e-13 1.9591459034776572e-13 2.3871600443016394e-17
1.755405889504358 4.5170988615052216e-21 2.1047793770819922e-13 2.10441983296632e-13 3.595441156719849e-17
1.8088679632656115 4.711053144904404e-21 2.262008870152689e-13 2.2614747553088308e-13 5.3411484385855835e-17
1.8639582606462262 4.9144876385113884e-21 2.4315536879610926e-13 2.4307707987365425e-13 7.828892245494646e-17
1.9207263702978936 5.127504512866496e-21 2.614213080223376e-13 2.613080389934465e-13 1.1326902889108786e-16
1.979223391128241 5.350419443824064e-21 2.8109432496300956e-13 2.8093250458147763e-13 1.6182038153204382e-16
2.039501978296691 5.5833219476210144e-21 3.022638675662591e-13 3.0203550796000343e-13 2.28359606255776e-16
2.1016163906111602 5.827899812976376e-21 3.251134653127336e-13 3.247950114062698e-13 3.184539064638565e-16
2.1656225393682647 6.084414282941501e-21 3.497606706748175e-13 3.493216729782484e-13 4.3899769656908926e-16
2.231578038680979 6.351129854833373e-21 3.7621187885363787e-13 3.7561346850994656e-13 5.984103436913817e-16
2.299542257339062 6.6271228762759304e-21 4.0451613671702384e-13 4.0370929660583294e-13 8.068401111909373e-16
2.369576372248914 6.912015905738886e-21 4.3475528752505297e-13 4.3367890884036143e-13 1.076378684691515e-15
2.4417434235010123 7.205553449146893e-21 4.670214240385212e-13 4.656002091512101e-13 1.421214887310986e-15
2.5161083711144245 7.508715948186711e-21 5.014925101181203e-13 4.996346690513455e-13 1.8578410667748093e-15
2.5927381535095444 7.824146744021207e-21 5.3847442207328e-13 5.360692596206949e-13 2.4051624525851116e-15
2.6717017477616296 8.153908950938373e-21 5.782601510117636e-13 5.751757156722674e-13 3.084435339495963e-15
2.753070231689431 8.501837571498254e-21 6.212973869204125e-13 6.173781216587551e-13 3.9192652616574145e-15
2.836916847834745 8.881023377185084e-21 6.687734951094468e-13 6.638378053104421e-13 4.93568979900468e-15
2.9233170693905177 9.322204610046703e-21 7.233758178492298e-13 7.172150711711514e-13 6.1607466780785e-15
2.967498994190263 9.597312324722742e-21 7.559788435616453e-13 7.491318911981356e-13 6.84695236350971e-15
3.0123486681368425 9.891838795367098e-21 7.909548649493583e-13 7.833551771878404e-13 7.599687761517893e-15
3.0578761833420214 1.0395880379005704e-20 8.43821531740372e-13 8.353947766830805e-13 8.42675505729163e-15
3.1040917844459814 1.0990635500830822e-20 9.055799372893117e-13 8.962546749087569e-13 9.325262380554702e-15
3.127460860933648 1.1557476800801386e-20 9.59454417498657e-13 9.496486744649086e-13 9.805743033748422e-15
3.1510058709225794 1.2282396380742574e-20 1.0273105646606116e-12 1.0170044272420966e-12 1.0306137418514974e-14
3.162844764501044 1.2945303208851523e-20 1.08682479258865e-12 1.07625986833937e-12 1.0564924249279842e-14
3.1747281389236908 1.369668540674494e-20 1.15422760040761e-12 1.143398745722106e-12 1.0828854685504025e-14
3.1986289994194426 1.5737884042195227e-20 1.3362251586365755e-12 1.3248513882820225e-12 1.1373770354553008e-14
3.2227097969389145 2.0488223679466634e-20 1.7526489590648038e-12 1.7406982228693007e-12 1.1950736195503238e-14
3.2348180950136065 2.4953145865454382e-20 2.142617275242888e-12 2.1303587492242604e-12 1.225852601862731e-14
3.240889293275058 2.829081212647315e-20 2.4337672558448668e-12 2.4213463782154553e-12 1.24208776294117e-14
3.2469718861334385 3.2159716528209125e-20 2.771789041173409e-12 2.759200177904469e-12 1.258886326894066e-14
3.2714166318528037 5.2468453814026056e-20 4.55620815000393e-12 4.542925448943224e-12 1.3282701060706165e-14
3.2744851364798273 5.3736464246524694e-20 4.670695380080704e-12 4.6573310130334435e-12 1.336436704726104e-14
3.2775565192852394 5.50384432185197e-20 4.788348639230893e-12 4.774902207311262e-12 1.3446431919631898e-14
3.283707930232385 5.3781011323111634e-20 4.68773356077544e-12 4.674140574554453e-12 1.3592986220988114e-14
3.2898708863219004 4.979428020447589e-20 4.348382566954855e-12 4.334656395872321e-12 1.3726171082534075e-14
3.29141343181113 4.885202817177387e-20 4.268098848172696e-12 4.254339238479993e-12 1.3759609692704255e-14
3.292184975758714 4.8388727041868275e-20 4.228612205359308e-12 4.2148358549810254e-12 1.3776350378282653e-14
3.295272960557952 4.550079447577397e-20 3.9799700836958995e-12 3.96612865067857e-12 1.3841433017330632e-14
3.3076538914384823 3.541949516321914e-20 3.1097957032676315e-12 3.0956929611529754e-12 1.4102742114657584e-14
3.310756385682612 3.3346002110611685e-20 2.9304912686803614e-12 2.9163226808470903e-12 1.4168587833271209e-14
3.313861789986515 3.1424392256784065e-20 2.7642079506796105e-12 2.7499733094841994e-12 1.423464119541113e-14
3.3200813396944477 2.8739122334751734e-20 2.5327461150133243e-12 2.518369312339519e-12 1.4376802673804472e-14
3.345076488085796 2.4037522243710225e-20 2.134347771232215e-12 2.119337208358236e-12 1.5010562873978896e-14
3.3482140837626964 2.4225088716728606e-20 2.1530198214320852e-12 2.1379233961562987e-12 1.5096425275786378e-14
3.3513546224236106 2.4414372384428457e-20 2.1718777815427532e-12 2.156695117243072e-12 1.5182664299681002e-14
3.3576445397418455 2.575584344719021e-20 2.2955139001756907e-12 2.2801508971337047e-12 1.5363003041985843e-14
3.3702598118196083 3.062400952862446e-20 2.7396486266979748e-12 2.7239073734123774e-12 1.5741253285596964e-14
3.382922481734668 3.1778363355271e-20 2.8535994048216806e-12 2.8374907896552077e-12 1.6108615166473333e-14
3.389271646505754 3.237353917759826e-20 2.912500388499034e-12 2.8962056277820816e-12 1.6294760716952814e-14
3.395632727569191 3.302859007181636e-20 2.977009212843909e-12 2.960522617908111e-12 1.648659493579701e-14
3.421196662673239 3.6209776994246465e-20 3.288314313507698e-12 3.2710339307209414e-12 1.7280382786757187e-14
3.4276182099114902 3.562657294278566e-20 3.2414245897370247e-12 3.223967378071996e-12 1.7457211665029117e-14
3.4340518103208963 3.299583576884237e-20 3.0077061894447837e-12 2.990081883188181e-12 1.7624306256602224e-14
3.4469541582030403 2.921879386046671e-20 2.6734201999710728e-12 2.6554754908911975e-12 1.79447090798753e-14
3.472904465399547 2.81553048204931e-20 2.5955087855094608e-12 2.576825537332233e-12 1.868324817722779e-14
3.4990501388274233 2.6556081622343416e-20 2.466514049095824e-12 2.447075753976763e-12 1.9438295119061544e-14
3.5253949054701885 2.0931458755197414e-20 1.9587395922977796e-12 1.938568910942759e-12 2.017068135502031e-14
3.5519380250092896 1.5577094672292654e-20 1.4686600177530042e-12 1.447754142504564e-12 2.0905875248439903e-14
3.578680990867387 1.3480113598053059e-20 1.280518837064085e-12 1.2588072951733315e-12 2.1711541890753607e-14
3.605625307711299 1.2664986207809741e-20 1.2121454834116314e-12 1.1895859910477489e-12 2.255949236388248e-14
3.660119384959845 1.2131631314378628e-20 1.1786473601479638e-12 1.1543090013162762e-12 2.433835883168801e-14
3.715437065384467 1.176222929436338e-20 1.160029366637718e-12 1.1338195636604563e-12 2.6209802977261924e-14
3.8285932144167436 1.1683492060874837e-20 1.1873570250803959e-12 1.1571385349730858e-12 3.021849010730997e-14
3.94519561050918 1.1762973544592984e-20 1.2318422472624595e-12 1.1972728481998183e-12 3.4569399062641733e-14
4.06534921144712 1.1892423130705886e-20 1.2833279210359253e-12 1.2440755468093824e-12 3.92523742265432e-14
4.189162171576248 1.2040220020179405e-20 1.3388472454608806e-12 1.2945763799691995e-12 4.427086549168097e-14
4.316745939156006 1.2193417661971618e-20 1.3971768210813335e-12 1.3475768445027788e-12 4.9599976578554636e-14
4.448215356677963 1.2346694000257035e-20 1.4578267767061487e-12 1.402668199647332e-12 5.5158577058817165e-14
4.58368876423945 1.2499574166328596e-20 1.5208268519064125e-12 1.4598793743988452e-12 6.094747750756762e-14
4.723288106065518 1.2654897633382117e-20 1.5866184731984932e-12 1.5196213081010393e-12 6.699716509745357e-14
4.867139040275056 1.281698198851422e-20 1.6558803787667618e-12 1.5827449148185406e-12 7.31354639482215e-14
4.940699165968905 1.2909547158672658e-20 1.6930463676733742e-12 1.6167910914909052e-12 7.625527618246935e-14
5.015371051989984 1.299750044690508e-20 1.7303435683375026e-12 1.6509455279977702e-12 7.939804033973257e-14
5.091171501069577 1.3108634629969898e-20 1.7715141219398808e-12 1.6888806058890598e-12 8.263351605082104e-14
5.129500256944802 1.3162305050624037e-20 1.7921586006381502e-12 1.7079027157048276e-12 8.425588493332226e-14
5.168117569889187 1.3217187785703506e-20 1.8131798259645678e-12 1.7272818020441712e-12 8.589802392039668e-14
5.20702561229733 1.3292096305398356e-20 1.83718388009027e-12 1.7494869255442114e-12 8.769695454605823e-14
5.246226572918644 1.3366458160476655e-20 1.8613704679863453e-12 1.7718670354993873e-12 8.950343248695828e-14
5.265937586045735 1.3403448179302733e-20 1.8735344363832017e-12 1.7831252047529064e-12 9.040923163029529e-14
5.285722656980489 1.3440318823290402e-20 1.885746784443894e-12 1.7944301925696431e-12 9.131659187425082e-14
5.305582063971359 1.3477076259688395e-20 1.8980085096187226e-12 1.8057831066370038e-12 9.222540298171912e-14
5.3255160863122235 1.351766324595605e-20 1.910877104743407e-12 1.8177337983819654e-12 9.3143306361441e-14
5.365609099470188 1.3629040078322114e-20 1.941126021670932e-12 1.8460831906000423e-12 9.504283107088937e-14
5.406003951863644 1.374172882536005e-20 1.971910347556183e-12 1.874960680038101e-12 9.69496675180821e-14
5.446702915881641 1.385589299294118e-20 2.0032614862688787e-12 1.904398554344205e-12 9.886293192467363e-14
5.487708281020852 1.3979198898452042e-20 2.036304561004155e-12 1.9355140620673975e-12 1.0079049893675665e-13
5.529022354014368 1.4171037843297012e-20 2.079789765129257e-12 1.9769900852707342e-12 1.0279967985852289e-13
5.570647458961463 1.436990374970539e-20 2.1248533751702014e-12 2.020037252688081e-12 1.0481612248212125e-13
5.612585937458331 1.4576452352525617e-20 2.171622207410146e-12 2.0647832809277357e-12 1.0683892648241082e-13
5.654840148729818 1.4802658373794376e-20 2.2219254434527566e-12 2.1130475181404173e-12 1.0887792531233891e-13
5.67608639626678 1.4969137362248362e-20 2.255356521883095e-12 2.1454105985261574e-12 1.0994592335693757e-13
5.686739436050992 1.5054306682729558e-20 2.2724457373343692e-12 2.1619650481217393e-12 1.1048068921262993e-13
5.6974124697621304 1.514080716335639e-20 2.289792470961437e-12 2.1787765236967573e-12 1.1101594726468031e-13
5.718818669136295 1.5317940537982444e-20 2.3252847246714343e-12 2.21319684208178e-12 1.12087882589655e-13
5.740305295436557 1.5514876486819743e-20 2.364028708944682e-12 2.2508585467956408e-12 1.1317016214904098e-13
5.7835210386641895 1.604441395917858e-20 2.4631202313737637e-12 2.3477139391877095e-12 1.1540629218605437e-13
5.827062130521658 1.664778983453697e-20 2.5749907091444555e-12 2.4573185016869967e-12 1.176722074574589e-13
5.8489554468988025 1.7089084421557253e-20 2.65317894096472e-12 2.534279138124744e-12 1.1889980283997606e-13
5.870931020387893 1.7557111515625514e-20 2.7360843272293562e-12 2.6159531127868977e-12 1.20131214442458e-13
5.892989160043636 1.8053988572312365e-20 2.824088085042956e-12 2.7027217563765554e-12 1.2136632866640056e-13
5.915130176081913 1.861992819081709e-20 2.923558184259495e-12 2.800910275647128e-12 1.226479086123668e-13
5.95966208400165 2.0235059105528196e-20 3.201072762385664e-12 3.0754809762090625e-12 1.2559178617660093e-13
6.004529249263818 2.2570687946863927e-20 3.597436975740035e-12 3.468519200285838e-12 1.2891777545419624e-13
6.027089341400364 2.4204315325875932e-20 3.872307741205537e-12 3.7414564055193025e-12 1.3085133568623342e-13
6.049734195844842 2.612141705445102e-20 4.1947150083603e-12 4.06181298563578e-12 1.3290202272452017e-13
6.095279466722835 3.1673336886106085e-20 5.124563462665668e-12 4.9865805961535955e-12 1.3798286651207252e-13
6.141167624020661 4.016598328412719e-20 6.547549462235344e-12 6.402922525010142e-12 1.446269372252001e-13
6.164241091010745 4.5580914489456416e-20 7.458166651892386e-12 7.30934573569483e-12 1.488209161975567e-13
6.187401249150058 5.167618826699433e-20 8.487273267086337e-12 8.334150382817228e-12 1.531228842691111e-13
6.1990139391386085 5.463525667815922e-20 8.99011058080659e-12 8.83479959331256e-12 1.5531098749403047e-13
6.204828454712694 5.618786338046228e-20 9.25426070201224e-12 9.097845017052378e-12 1.5641568495986482e-13
6.210648424152782 5.730799726660981e-20 9.447602441244477e-12 9.290250905483213e-12 1.573515357612633e-13
6.233982942956859 6.105499737613856e-20 1.0103137406906523e-11 9.942545723248785e-12 1.6059168365773893e-13
6.239830258556775 6.149993839435628e-20 1.0186310014880803e-11 1.0025285803267755e-11 1.610242116130472e-13
6.245683058788269 6.14831414383219e-20 1.0193079801670315e-11 1.003162254579081e-11 1.614572558795034e-13
6.257405133728602 6.125300270909445e-20 1.0173984941274815e-11 1.0011779702742339e-11 1.6220523853247595e-13
6.269149208991335 6.0356096484318e-20 1.004382607429502e-11 9.88139431736226e-12 1.6243175693276035e-13
6.280915325867298 5.829515140191539e-20 9.719072152689942e-12 9.557058063198599e-12 1.6201408949134463e-13
6.304513850009849 5.3291761050746394e-20 8.918280096670269e-12 8.75768325231288e-12 1.60596844357386e-13
6.32820103803542 4.720117879274739e-20 7.928710219467656e-12 7.770149662736937e-12 1.5856055673071783e-13
6.3519772230701035 4.164503323328871e-20 7.0216888076008466e-12 6.864966626441235e-12 1.567221811596136e-13
6.375842739491607 3.6960849543286114e-20 6.255311977434384e-12 6.1002246722495606e-12 1.5508730518482342e-13
6.399797922933955 3.3231989029412776e-20 5.645365046712169e-12 5.4911801123950394e-12 1.541849343171295e-13
6.42384311029221 3.011864617286449e-20 5.135701874665251e-12 4.982272899690071e-12 1.5342897497518147e-13
6.447978639727206 2.784743898373282e-20 4.766266088020471e-12 4.6130231792028185e-12 1.5324290881765293e-13
6.472204850670314 2.594471267646275e-20 4.45728653186518e-12 4.304117017308059e-12 1.5316951455712196e-13
6.496522083828205 2.4691243248902626e-20 4.257878947135683e-12 4.104322257346218e-12 1.5355668978946517e-13
6.520930681187647 2.362595916208524e-20 4.0894835500982815e-12 3.935471105156609e-12 1.540124449416742e-13
6.57002334288761 2.2467350611749007e-20 3.918214507763794e-12 3.762657059660159e-12 1.5555744810363502e-13
