Dust emission spectrum from A.P. Jones, M. Kohler, N. Ysard, M. Bocchio, and L. Verstraete (2017), A&A, 602A, 46J 
inside the DustPedia framework.

lambda    nu*dP/dnu     j_nu    j_nu(carb.) j_nu(sil)
 (um)   (erg s-1 H-1) (Jy cm2 sr-1 H-1)
0.9927057738263894 1.1504309591326213e-24 3.031450920488443e-17 3.0314509106321274e-17 9.856315087752282e-26
1.0001793341362166 1.1695904668070407e-24 3.105139598546906e-17 3.1051395866793635e-17 1.1867542236362455e-25
1.0077091589558085 1.1887551653746174e-24 3.1797798719629424e-17 3.179779857692486e-17 1.4270456537458443e-25
1.0114953028030835 1.1983375453747183e-24 3.217454914049823e-17 3.2174548984088947e-17 1.5640928184894304e-25
1.0152956718711033 1.2079189332917072e-24 3.255365499189331e-17 3.2553654820519515e-17 1.7137378701297065e-25
1.0229392996569957 1.2270663605202742e-24 3.331864622013336e-17 3.331864601459871e-17 2.055346451913268e-25
1.0267826658714554 1.2366096715105387e-24 3.3703934347318284e-17 3.37039341223318e-17 2.2498648130607935e-25
1.0306404723013447 1.246148517545118e-24 3.409152517827984e-17 3.409152493208164e-17 2.461981979178457e-25
1.03451277320114 1.2556821672294201e-24 3.448141003422453e-17 3.448140976490344e-17 2.693210850314193e-25
1.0383996230291617 1.2652098952072223e-24 3.4873580152430825e-17 3.4873579857912114e-17 2.94518704202899e-25
1.0403485208654093 1.2699713135807921e-24 3.507051942501437e-17 3.5070519117064136e-17 3.079502346301988e-25
1.0423010764483396 1.274730982352687e-24 3.5268026692072446e-17 3.526802637010463e-17 3.219678197037262e-25
1.0462171883269815 1.2842447159595945e-24 3.566474074009905e-17 3.566474038823965e-17 3.5185939504698552e-25
1.0471985131304309 1.286621917477018e-24 3.5764272499395827e-17 3.5764272139658096e-17 3.5973773929141103e-25
1.048180758391296 1.2889986042666926e-24 3.5863945276139537e-17 3.5863944908354624e-17 3.6778492471833606e-25
1.0501480137395462 1.2937503899277494e-24 3.606371331717267e-17 3.6063712932773016e-17 3.8439965905412375e-25
1.0521189612883777 1.2984999857425487e-24 3.626404373140677e-17 3.626404332967483e-17 4.0173194888247425e-25
1.0531058218030118 1.3008704498309962e-24 3.636432204087934e-17 3.63643216302024e-17 4.1067692610387903e-25
1.0540936079674168 1.3032289144172045e-24 3.646442081557877e-17 3.6464420395764346e-17 4.198144229793958e-25
1.058054026499678 1.3126562865734498e-24 3.686619366137338e-17 3.68661932030242e-17 4.58349177091823e-25
1.0590464539527713 1.3150114549041365e-24 3.6966980581583124e-17 3.696698011308382e-17 4.684993175714392e-25
1.06003981227728 1.317365932188449e-24 3.7067904693558346e-17 3.706790421469393e-17 4.78864415135791e-25
1.0620293250338977 1.322072771526302e-24 3.7270163908173373e-17 3.72701634079165e-17 5.002568763949515e-25
1.0660195594769086 1.3314776962999466e-24 3.7676322200364484e-17 3.7676321654547174e-17 5.458173181419342e-25
1.070024785945596 1.3408703955617179e-24 3.808465915067143e-17 3.808465855533929e-17 5.9533213579073875e-25
1.0740450607676866 1.3502502117888665e-24 3.849516534643075e-17 3.8495164697304356e-17 6.491263876254617e-25
1.07808044048254 1.3596164954323011e-24 3.890783135591037e-17 3.8907830648360115e-17 7.075502518009377e-25
1.0861967418109137 1.3782900795320847e-24 3.973914867378931e-17 3.973914783396512e-17 8.398241999425727e-25
1.0902777775684922 1.3875601281714976e-24 4.01567359654213e-17 4.0156735050903917e-17 9.145173831301453e-25
1.0943741465085532 1.3968134980761993e-24 4.0576415678954594e-17 4.0576414683424464e-17 9.955301426104714e-25
1.1026131145906286 1.4152677974380458e-24 4.1422014060233995e-17 4.1422012881660075e-17 1.1785739218864931e-24
1.1109141095355224 1.4336482600926108e-24 4.2275867466384577e-17 4.2275866072914845e-17 1.3934697312465934e-24
1.1192775983109025 1.4519341427244745e-24 4.313741958381483e-17 4.3137417938387816e-17 1.6454270124957187e-24
1.1277040513999907 1.4700467095374575e-24 4.400435990561301e-17 4.4004357965163726e-17 1.940449285346429e-24
1.1361939428280308 1.4880698451025917e-24 4.487921157643135e-17 4.4879209290986045e-17 2.28544531032733e-24
1.1447477501889525 1.505999487265385e-24 4.576190084071135e-17 4.5761898152356026e-17 2.6883553187288445e-24
1.1533659546722406 1.5238403708783784e-24 4.665261969434249e-17 4.6652616536045316e-17 3.158297163257254e-24
1.1707974979042381 1.5593119513988604e-24 4.846009110268267e-17 4.846008676005277e-17 4.342629893130136e-24
1.1884924949847024 1.5943790836131167e-24 5.02987815772639e-17 5.029877563591462e-17 5.9413492749191026e-24
1.2064549276569216 1.6293023255512012e-24 5.2177373284393244e-17 5.217736519566143e-17 8.088731825998047e-24
1.2246888378427687 1.6637545415247637e-24 5.408594804045039e-17 5.408593708187245e-17 1.0958577924508153e-23
1.2431983285522175 1.69767353934366e-24 5.602269929238217e-17 5.602268451732012e-17 1.4775062070665607e-23
1.2619875648066055 1.7310687974313784e-24 5.798809435080963e-17 5.798807452495277e-17 1.982585685404696e-23
1.3004222497298317 1.7958622554858316e-24 6.199074380354478e-17 6.199070860626082e-17 3.519728397995978e-23
1.3400274889804893 1.8580528018661764e-24 6.609082788158898e-17 6.609076653521032e-17 6.134637864872383e-23
1.3808389325824078 1.917597279727472e-24 7.028616721947198e-17 7.02860621991719e-17 1.050203000890823e-22
1.4228933163050095 1.9748805025380524e-24 7.459034134367919e-17 7.459016466836194e-17 1.7667531721197326e-22
1.466228494730424 2.0311157812980224e-24 7.905070890819123e-17 7.90504166860169e-17 2.922221743451845e-22
1.5108834753276823 2.0856990404783546e-24 8.364732282381959e-17 8.364684740546657e-17 4.754183530123146e-22
1.5568984535646726 2.1381679674477784e-24 8.836322119639497e-17 8.83624596109358e-17 7.615854591633181e-22
1.6043148490894465 2.188758592552692e-24 9.320879646869011e-17 9.320759297385466e-17 1.2034948354727898e-21
1.6531753430134553 2.2377397486508444e-24 9.819693410273191e-17 9.819506020133122e-17 1.873901400700774e-21
1.7035239163302658 2.285557190449198e-24 1.0334982869558535e-16 1.0334695309176725e-16 2.8756038181240897e-21
1.755405889504358 2.3340329929471856e-24 1.0875618753553635e-16 1.087518363446661e-16 4.351190870257801e-21
1.8088679632656115 2.3829074560920577e-24 1.1441513471915187e-16 1.1440864034244456e-16 6.4943767072933245e-21
1.8639582606462262 2.431994774075201e-24 1.2032843089612248e-16 1.2031886580342624e-16 9.565092696219592e-21
1.9207263702978936 2.481573865640448e-24 1.2652086103130567e-16 1.2650695425381163e-16 1.390677749404497e-20
1.979223391128241 2.532162444468974e-24 1.330319053483343e-16 1.3301193817733186e-16 1.99671710024526e-20
2.039501978296691 2.5843088544853315e-24 1.3990652816918442e-16 1.398782068377496e-16 2.832133143481435e-20
2.1016163906111602 2.6395903319600864e-24 1.4725139198836998e-16 1.4721169142372312e-16 3.9700564646877733e-20
2.1656225393682647 2.69884973921341e-24 1.5514254140851936e-16 1.5508752217615731e-16 5.501923236209649e-20
2.231578038680979 2.7619459919322504e-24 1.6360504582131044e-16 1.6352964052848842e-16 7.540529282199019e-20
2.299542257339062 2.8292280809976347e-24 1.7269461191273537e-16 1.7259237895912358e-16 1.0223295361174182e-19
2.369576372248914 2.901612427325428e-24 1.825070084229329e-16 1.823698502608478e-16 1.371581620850542e-19
2.4417434235010123 2.9801822943060925e-24 1.931578176199641e-16 1.9297566968161273e-16 1.8214793835133682e-19
2.5161083711144245 3.0669716842235712e-24 2.0483706388625691e-16 2.0459754579509052e-16 2.395180911663501e-19
2.5927381535095444 3.1654268205851517e-24 2.1785140713680227e-16 2.1753944666419537e-16 3.119604726068791e-19
2.6717017477616296 3.2793987280522375e-24 2.3256889611123695e-16 2.321663469540203e-16 4.0254915721665703e-19
2.753070231689431 3.414759362195372e-24 2.495438251850911e-16 2.490290688408665e-16 5.147563442245539e-19
2.836916847834745 3.585588833004433e-24 2.700079342245608e-16 2.693554540982473e-16 6.524801263134876e-19
2.9233170693905177 3.8232168399214795e-24 2.9667044696836925e-16 2.958505575688006e-16 8.198893995687903e-19
2.967498994190263 3.9982576593590255e-24 3.1494215248132476e-16 3.1402764612546044e-16 9.1450635586432e-19
3.0123486681368425 4.195847710593994e-24 3.355014399178535e-16 3.3448275353311493e-16 1.0186863847386384e-18
3.0578761833420214 4.592113515668269e-24 3.7273651864465503e-16 3.716029664215435e-16 1.1335522231114716e-18
3.1040917844459814 5.088316666905802e-24 4.192548727301883e-16 4.1799594489957636e-16 1.2589278306120127e-18
3.127460860933648 5.593679362852954e-24 4.643643649267983e-16 4.630381587412628e-16 1.3262061855356203e-18
3.1510058709225794 6.258567063812168e-24 5.23472119363605e-16 5.2207567569418e-16 1.3964436694250228e-18
3.162844764501044 6.872623701364482e-24 5.769921112135896e-16 5.755592774101954e-16 1.4328338033940508e-18
3.1747281389236908 7.581799163025245e-24 6.389226002373947e-16 6.374526068737368e-16 1.469993363657898e-18
3.1986289994194426 9.545299030363636e-24 8.104436833366126e-16 8.088968284139638e-16 1.5468549226491636e-18
3.2227097969389145 1.4152771042760552e-23 1.210687652772762e-15 1.209059238411984e-15 1.6284143607779282e-18
3.2348180950136065 1.8510712748097178e-23 1.5894337782090923e-15 1.5877618098033727e-15 1.6719684057200416e-18
3.240889293275058 2.1768289968639229e-23 1.8726557266921066e-15 1.8709607840851953e-15 1.6949426069113188e-18
3.2469718861334385 2.5538823040149828e-23 2.2011459511796956e-15 2.199427236343863e-15 1.7187148358329904e-18
3.2714166318528037 4.557462883130011e-23 3.957568409592902e-15 3.955751361874356e-15 1.8170477185465617e-18
3.2744851364798273 4.68281811241533e-23 4.07023745050942e-15 4.0684087878613235e-15 1.828662648097214e-18
3.2775565192852394 4.8117167554764056e-23 4.186197143508089e-15 4.18435680538316e-15 1.8403381249284585e-18
3.283707930232385 4.6882579643794945e-23 4.0864430884642105e-15 4.084581816939349e-15 1.861271524861315e-18
3.2898708863219004 4.2957784967385614e-23 3.751372296177588e-15 3.749491924381376e-15 1.8803717962129632e-18
3.29141343181113 4.2031694145601474e-23 3.672220623856131e-15 3.670335454567871e-15 1.885169288260328e-18
3.292184975758714 4.157656713340455e-23 3.6333086234141846e-15 3.631421052010835e-15 1.887571403348624e-18
3.295272960557952 3.871143111743367e-23 3.3861021443586513e-15 3.38420521981373e-15 1.896924544920919e-18
3.3076538914384823 2.876627605730634e-23 2.5256498227822682e-15 2.5237153059272007e-15 1.934516855067984e-18
3.310756385682612 2.673679841446324e-23 2.349665607473753e-15 2.3477216098730746e-15 1.9439976006792207e-18
3.313861789986515 2.486218534941074e-23 2.1869715045730032e-15 2.1850179930683137e-15 1.9535115046901007e-18
3.3200813396944477 2.223615597401375e-23 1.9596470970831465e-15 1.9576731450320076e-15 1.9739520511386755e-18
3.345076488085796 1.757756308158365e-23 1.5607529015054164e-15 1.5586879165609807e-15 2.0649849444361794e-18
3.3482140837626964 1.7756578459881903e-23 1.5781269506162795e-15 1.5760496360990823e-15 2.077314517197131e-18
3.3513546224236106 1.7937488873224793e-23 1.5957007997991711e-15 1.5936110973495688e-15 2.0897024496019086e-18
3.3576445397418455 1.924327249497655e-23 1.7150748562228208e-15 1.7129592622839472e-15 2.115593938873617e-18
3.3702598118196083 2.4036746961886415e-23 2.150346797105922e-15 2.148176888929611e-15 2.169908176311148e-18
3.382922481734668 2.514453018144915e-23 2.257901565229686e-15 2.255678763573289e-15 2.222801656397068e-18
3.389271646505754 2.571778266478537e-23 2.313712183014957e-15 2.311462551555311e-15 2.24963145964613e-18
3.395632727569191 2.6338767314962807e-23 2.374026647250226e-15 2.3717493653287125e-15 2.2772819215131614e-18
3.421196662673239 2.9328495061854357e-23 2.6634052488326433e-15 2.6610133936036566e-15 2.391855228986365e-18
3.4276182099114902 2.874647455676255e-23 2.6154502608539178e-15 2.613032726331251e-15 2.4175345226666964e-18
3.4340518103208963 2.616500521047679e-23 2.3850478790635298e-15 2.382606002822416e-15 2.4418762411140305e-18
3.4469541582030403 2.2481976791143832e-23 2.0570243650627105e-15 2.0545356587544585e-15 2.4887063082526926e-18
3.472904465399547 2.1458489542073995e-23 1.97816001230707e-15 1.9755635860722393e-15 2.5964262348299623e-18
3.4990501388274233 1.9892921169970608e-23 1.84764342274071e-15 1.8449365135070466e-15 2.7069092336634394e-18
3.5253949054701885 1.4305454777328195e-23 1.338686471205474e-15 1.335871828249426e-15 2.8146429560480675e-18
3.5519380250092896 9.033686171134085e-24 8.51725817399821e-16 8.488025669882305e-16 2.9232504115903742e-18
3.578680990867387 6.953534185489003e-24 6.605383140075143e-16 6.574959726692757e-16 3.0423413382385487e-18
3.605625307711299 6.124623085919965e-24 5.861778362315624e-16 5.830098685994718e-16 3.1679676320904565e-18
3.660119384959845 5.5447978911117344e-24 5.387042539915481e-16 5.352714630739825e-16 3.4327909175657627e-18
3.715437065384467 5.140499833371923e-24 5.069728379436831e-16 5.032595668353436e-16 3.713271108339491e-18
3.8285932144167436 4.9868835406272974e-24 5.068014917432357e-16 5.024808181877927e-16 4.320673555443151e-18
3.94519561050918 5.00918569804402e-24 5.245720007650521e-16 5.195820186755704e-16 4.989982089481695e-18
4.06534921144712 5.1013354274249565e-24 5.504922013480022e-16 5.447700220113467e-16 5.7221793366554876e-18
4.189162171576248 5.232182318824985e-24 5.818077139427203e-16 5.752873199148407e-16 6.520394027879594e-18
4.316745939156006 5.3897724573857906e-24 6.175844506538756e-16 6.102007188422572e-16 7.383731811618306e-18
4.448215356677963 5.5698478450750086e-24 6.5765567127203e-16 6.493530110923676e-16 8.302660179662707e-18
4.58368876423945 5.772554040082903e-24 7.023483417449516e-16 6.930680993330533e-16 9.280242411898197e-18
4.723288106065518 6.00131659041058e-24 7.52420133430447e-16 7.420956701390939e-16 1.032446329135294e-17
4.867139040275056 6.2629190853329384e-24 8.091331357491346e-16 7.977213370721332e-16 1.1411798677001278e-17
4.940699165968905 6.415421938573797e-24 8.413623403434097e-16 8.293869780437228e-16 1.1975362299686868e-17
5.015371051989984 6.5708018349321945e-24 8.747639394467193e-16 8.622130440653321e-16 1.2550895381387278e-17
5.091171501069577 6.756809969852227e-24 9.13122122840408e-16 8.999719478550696e-16 1.3150174985338499e-17
5.129500256944802 6.851184003302086e-24 9.32846358509995e-16 9.19392357075018e-16 1.3454001434976871e-17
5.168117569889187 6.948864201386196e-24 9.532693782976474e-16 9.395061566696782e-16 1.3763221627969064e-17
5.20702561229733 7.068219950930365e-24 9.769429483826278e-16 9.628440551911786e-16 1.4098893191449233e-17
5.246226572918644 7.189721124866107e-24 1.0012177058582964e-15 9.867793590775222e-16 1.4438346780774477e-17
5.265937586045735 7.251299969088153e-24 1.0135869530655237e-15 9.989774862112125e-16 1.4609466854311287e-17
5.285722656980489 7.313444107905035e-24 1.0261143274215675e-15 1.0113328253110815e-15 1.478150211048584e-17
5.305582063971359 7.376163687164026e-24 1.0388025694010307e-15 1.0238481273164826e-15 1.495444208454832e-17
5.3255160863122235 7.44345176516436e-24 1.0522174801602337e-15 1.0370879899668444e-15 1.5129490193389117e-17
5.365609099470188 7.611217983796573e-24 1.0840332994879693e-15 1.068541613049615e-15 1.54916864383541e-17
5.406003951863644 7.784146272450156e-24 1.1170092771156957e-15 1.1011513519599684e-15 1.5857925155727418e-17
5.446702915881641 7.96250012383232e-24 1.1512047502539613e-15 1.134976623649037e-15 1.6228126604924415e-17
5.487708281020852 8.154335634950834e-24 1.1878156227713293e-15 1.1712120001597773e-15 1.660362261155193e-17
5.529022354014368 8.422621541718307e-24 1.236132615813225e-15 1.2191372357423696e-15 1.6995380070855405e-17
5.570647458961463 8.704754948245813e-24 1.2871573988231367e-15 1.269765881220503e-15 1.7391517602633397e-17
5.612585937458331 9.001751451927957e-24 1.3410947249593411e-15 1.3233027675475168e-15 1.779195741182415e-17
5.654840148729818 9.326803006106752e-24 1.3999823803289052e-15 1.3817839897178945e-15 1.8198390611010688e-17
5.67608639626678 9.549930120594479e-24 1.4388602803077952e-15 1.4204493907772261e-15 1.8410889530568748e-17
5.686739436050992 9.66463890717075e-24 1.4588760512413043e-15 1.440358453190775e-15 1.8517598050528977e-17
5.6974124697621304 9.781511555738422e-24 1.4792891338817545e-15 1.4606645227818296e-15 1.8624611099924916e-17
5.718818669136295 1.0021957304919051e-23 1.5213470880535856e-15 1.502507541860535e-15 1.8839546193050418e-17
5.740305295436557 1.0286940393824023e-23 1.5674389956543933e-15 1.5483818351851535e-15 1.90571604692398e-17
5.7835210386641895 1.0976884664147601e-23 1.6851588822445583e-15 1.665651355028527e-15 1.9507527216031426e-17
5.827062130521658 1.176751029709188e-23 1.8201352843793926e-15 1.8001684490336274e-15 1.9966835345764684e-17
5.8489554468988025 1.2325860465026721e-23 1.9136609433461064e-15 1.8934467183623558e-15 2.021422498375043e-17
5.870931020387893 1.2922592652280394e-23 2.01384511293935e-15 1.9933817801139897e-15 2.0463332825360098e-17
5.892989160043636 1.356076317349653e-23 2.121237063431672e-15 2.100522910019827e-15 2.0714153411844622e-17
5.915130176081913 1.428595753065714e-23 2.243071381947336e-15 2.222097391517009e-15 2.0973990430326605e-17
5.95966208400165 1.6320209289133973e-23 2.5817654971715773e-15 2.560203161496801e-15 2.1562335674775904e-17
6.004529249263818 1.924971065198343e-23 3.068121850551031e-15 3.0458993491815806e-15 2.2222501369450603e-17
6.027089341400364 2.1287708183071023e-23 3.40569671482113e-15 3.383094644205263e-15 2.2602070615866575e-17
6.049734195844842 2.3690067541315346e-23 3.8042760719098026e-15 3.7812722724426435e-15 2.3003799467159573e-17
6.095279466722835 3.063169896756219e-23 4.956032447512707e-15 4.932047688373149e-15 2.3984759139557918e-17
6.141167624020661 4.1294641596010174e-23 6.73153465365321e-15 6.7062847350397055e-15 2.5249918613503977e-17
6.164241091010745 4.8105959185701336e-23 7.871326509675138e-15 7.845286430279199e-15 2.6040079395938274e-17
6.187401249150058 5.583906586624933e-23 9.170982359168809e-15 9.144129761503096e-15 2.6852597665711778e-17
6.1990139391386085 5.961239885291863e-23 9.809088311451542e-15 9.781822041727571e-15 2.7266269723969548e-17
6.204828454712694 6.159780000532557e-23 1.014528877988818e-14 1.0117813447879027e-14 2.7475332009152266e-17
6.210648424152782 6.304544848188466e-23 1.0393459227266451e-14 1.0365804856974403e-14 2.765437029204599e-17
6.233982942956859 6.79509130608428e-23 1.1244246025416387e-14 1.1215963518799312e-14 2.8282506617076694e-17
6.239830258556775 6.857083026665652e-23 1.1357470483873419e-14 1.1329097874294807e-14 2.837260957860865e-17
6.245683058788269 6.861333161418484e-23 1.1375169652049312e-14 1.1346706750758375e-14 2.8462901290938115e-17
6.257405133728602 6.845275540509263e-23 1.1369847548335428e-14 1.134122487364183e-14 2.86226746935986e-17
6.269149208991335 6.745595060722155e-23 1.1225309041501782e-14 1.1196619312541182e-14 2.868972896059996e-17
6.280915325867298 6.49941551420706e-23 1.0835942066155322e-14 1.080730008102663e-14 2.864198512869098e-17
6.304513850009849 5.893842310109982e-23 9.863238806673057e-15 9.834796354191889e-15 2.844245248116803e-17
6.32820103803542 5.145719956348006e-23 8.643623622951547e-15 8.615491411755171e-15 2.813221119637583e-17
6.3519772230701035 4.460232083271876e-23 7.520311371339763e-15 7.492454298020065e-15 2.785707331969871e-17
6.375842739491607 3.8828657653147427e-23 6.571422742893964e-15 6.543804952677853e-15 2.7617790216113335e-17
6.399797922933955 3.4211701070068217e-23 5.811796014935709e-15 5.784285569529022e-15 2.7510445406687554e-17
6.42384311029221 3.036653919825149e-23 5.177971526092795e-15 5.150542194084573e-15 2.742933200822226e-17
6.447978639727206 2.7566467982810785e-23 4.7181761162929395e-15 4.690724617206282e-15 2.7451499086658476e-17
6.472204850670314 2.5229668926272417e-23 4.3344424319068415e-15 4.30694809505959e-15 2.7494336847252714e-17
6.496522083828205 2.3709239052891823e-23 4.0885373327810026e-15 4.0609161133271215e-15 2.7621219453880117e-17
