Dust emission spectrum from A.P. Jones, M. Kohler, N. Ysard, M. Bocchio, and L. Verstraete (2017), A&A, 602A, 46J 
inside the DustPedia framework.

lambda    nu*dP/dnu     j_nu    j_nu(carb.) j_nu(sil)
 (um)   (erg s-1 H-1) (Jy cm2 sr-1 H-1)
0.9927057738263894 2.1790601913434027e-20 5.741947372337862e-13 5.741947111117743e-13 2.6122011759619828e-20
1.0001793341362166 2.2156318956974963e-20 5.882269504056144e-13 5.882269189755065e-13 3.143010793770034e-20
1.0077091589558085 2.252358379964848e-20 6.024793035328091e-13 6.024792657665985e-13 3.7766210459248215e-20
1.0114953028030835 2.270778159964149e-20 6.096885120301436e-13 6.096884706526883e-13 4.137745531180479e-20
1.0152956718711033 2.289234859621285e-20 6.169533381883803e-13 6.169532928695742e-13 4.531880624702297e-20
1.0229392996569957 2.326238766606115e-20 6.316457608311061e-13 6.316457065215274e-13 5.430957875928377e-20
1.0267826658714554 2.3447440222213487e-20 6.390625951492234e-13 6.390625357237377e-13 5.942548553448062e-20
1.0306404723013447 2.363283122554841e-20 6.465355047301986e-13 6.465354397286819e-13 6.500151661436209e-20
1.03451277320114 2.3818555747839056e-20 6.540647057020905e-13 6.540646346251487e-13 7.107694176934766e-20
1.0383996230291617 2.4004609043083043e-20 6.616504191619632e-13 6.616503414677749e-13 7.769418830176104e-20
1.0403485208654093 2.409775754835352e-20 6.654645385775908e-13 6.654644573574162e-13 8.122017451151366e-20
1.0423010764483396 2.419098655192798e-20 6.692928713839878e-13 6.692927864849098e-13 8.489907810896687e-20
1.0462171883269815 2.437768390606417e-20 6.769922940303677e-13 6.769922012892864e-13 9.274108117008152e-20
1.0471985131304309 2.442440772705682e-20 6.789260789989706e-13 6.789259841916735e-13 9.480729723932965e-20
1.048180758391296 2.447115121333108e-20 6.808634431829535e-13 6.808633462654299e-13 9.691752336361364e-20
1.0501480137395462 2.4564696932582028e-20 6.847489243650336e-13 6.847488230914474e-13 1.0127358648862097e-19
1.0521189612883777 2.4658320573443292e-20 6.886487681453763e-13 6.886486623287723e-13 1.058166040088362e-19
1.0531058218030118 2.470509988444973e-20 6.90602364260742e-13 6.906022560999945e-13 1.0816074743776942e-19
1.0540936079674168 2.475169675672151e-20 6.925539147052357e-13 6.925538041501917e-13 1.10555044055432e-19
1.058054026499678 2.493826802712158e-20 7.00395852342308e-13 7.00395731693337e-13 1.2064897098477316e-19
1.0590464539527713 2.4984956516341463e-20 7.023652903758356e-13 7.023651670689631e-13 1.2330687248102547e-19
1.06003981227728 2.5031663167641634e-20 7.043383178111994e-13 7.043381917904939e-13 1.260207054269739e-19
1.0620293250338977 2.5125130750071328e-20 7.08295156996822e-13 7.082950253761646e-13 1.316206571322149e-19
1.0660195594769086 2.5312281636966616e-20 7.162520868587545e-13 7.162519433164106e-13 1.4354234395069267e-19
1.070024785945596 2.5499717617835143e-20 7.242669068749099e-13 7.242667503830522e-13 1.56491857698689e-19
1.0740450607676866 2.5687435845406163e-20 7.323398889785649e-13 7.323397184255536e-13 1.705530111011582e-19
1.07808044048254 2.5875433699127417e-20 7.404713123214815e-13 7.404711265054501e-13 1.8581603153621004e-19
1.0861967418109137 2.6251973072029255e-20 7.569023940474492e-13 7.569021737040011e-13 2.2034344780977414e-19
1.0902777775684922 2.6439860566462913e-20 7.651837770296455e-13 7.651835372049552e-13 2.3982469038746044e-19
1.0943741465085532 2.662800840886065e-20 7.73524267476463e-13 7.735240065340117e-13 2.6094245128363744e-19
1.1026131145906286 2.70050798896406e-20 7.903838417798827e-13 7.903835331636466e-13 3.086162360949769e-19
1.1109141095355224 2.7383179553937207e-20 8.074837474818819e-13 8.074833829592924e-13 3.6452258950775595e-19
1.1192775983109025 2.7762009769673145e-20 8.248180331906526e-13 8.248176031949605e-13 4.299956920642518e-19
1.1277040513999907 2.814022057016066e-20 8.423490122856756e-13 8.423485057148449e-13 5.065708307993492e-19
1.1361939428280308 2.8519417385918665e-20 8.601269430407389e-13 8.601263470284331e-13 5.96012305461444e-19
1.1447477501889525 2.889960982580428e-20 8.781550660320069e-13 8.781543656872106e-13 7.003447960508575e-19
1.1533659546722406 2.9280943930183693e-20 8.964408395866369e-13 8.964400176968245e-13 8.218898122163226e-19
1.1707974979042381 3.004819561489698e-20 9.338338590061049e-13 9.338327313715362e-13 1.127634568750765e-18
1.1884924949847024 3.082023739447239e-20 9.723035160188762e-13 9.723019766741053e-13 1.5393447712494288e-18
1.2064549276569216 3.1602263982850004e-20 1.0120424543721568e-12 1.0120403634018908e-12 2.090970266067561e-18
1.2246888378427687 3.23893771888831e-20 1.052925854131714e-12 1.052923027815328e-12 2.8263163860629002e-18
1.2431983285522175 3.318100169537909e-20 1.0949627458521345e-12 1.0949589441480542e-12 3.8017040805361086e-18
1.2619875648066055 3.397836894558748e-20 1.1382221591810844e-12 1.138217070003228e-12 5.089177856403127e-18
1.3004222497298317 3.558582023938818e-20 1.2283745363878855e-12 1.2283655452823151e-12 8.991105570772514e-18
1.3400274889804893 3.721706046460693e-20 1.3238086317862259e-12 1.3237930389614136e-12 1.5592824812508493e-17
1.3808389325824078 3.887851781329873e-20 1.4250239261181547e-12 1.4249973685831163e-12 2.6557535038872265e-17
1.4228933163050095 4.058426933684174e-20 1.5328494555130727e-12 1.5328050110237491e-12 4.4444489323540945e-17
1.466228494730424 4.2363488065205616e-20 1.6487803374941283e-12 1.64870721801393e-12 7.311948019802684e-17
1.5108834753276823 4.421314293512856e-20 1.7731757882489944e-12 1.7730574772603317e-12 1.1831098866275323e-16
1.5568984535646726 4.6131971637866664e-20 1.9064777305257192e-12 1.90628925543223e-12 1.8847509348934956e-16
1.6043148490894465 4.813083938067669e-20 2.0496630496232807e-12 2.0493668835533323e-12 2.961660699479667e-16
1.6531753430134553 5.0221065481738964e-20 2.2038106355542854e-12 2.2033521240228827e-12 4.5851153140299055e-16
1.7035239163302658 5.241560824656743e-20 2.3701634576875242e-12 2.3694639383946194e-12 6.995192929044773e-16
1.755405889504358 5.475245775015057e-20 2.5512358141895588e-12 2.5501836101316858e-12 1.0522040578723519e-15
1.8088679632656115 5.72304589325415e-20 2.747916479956097e-12 2.746355477229867e-12 1.5610027262297484e-15
1.8639582606462262 5.984697205622072e-20 2.961064027840074e-12 2.958779049346019e-12 2.284978494054798e-15
1.9207263702978936 6.260727794511219e-20 3.1919770038348515e-12 3.188675611485323e-12 3.301392349528263e-15
1.979223391128241 6.551994578427943e-20 3.442213292848264e-12 3.4375033613926594e-12 4.7099314556049705e-15
2.039501978296691 6.859154607606795e-20 3.71333521401816e-12 3.706697981305633e-12 6.637232712526212e-15
2.1016163906111602 7.184860270085121e-20 4.008124530545401e-12 3.998881987703071e-12 9.24254284233047e-15
2.1656225393682647 7.530158570231175e-20 4.328688332738736e-12 4.315965767112528e-12 1.2722565626207883e-14
2.231578038680979 7.893792615402828e-20 4.675921637567563e-12 4.658604773153521e-12 1.7316864414042455e-14
2.299542257339062 8.275580091314976e-20 5.051371085354336e-12 5.028057709502782e-12 2.3313375851555388e-14
2.369576372248914 8.67604882537097e-20 5.457102751346078e-12 5.426048595981145e-12 3.105415536493482e-14
2.4417434235010123 9.09593636429895e-20 5.89544881430532e-12 5.854509520621349e-12 4.093929368396928e-14
2.5161083711144245 9.537491479515936e-20 6.3699047550835625e-12 6.316472475595087e-12 5.343227948847585e-14
2.5927381535095444 1.0004898428517977e-19 6.885583917907513e-12 6.816521436823456e-12 6.906248108405555e-14
2.6717017477616296 1.0501547530387849e-19 7.447503396613759e-12 7.35908071171479e-12 8.842268489897257e-14
2.753070231689431 1.103273230519086e-19 8.062501422971237e-12 7.950333137358493e-12 1.1216828561274437e-13
2.836916847834745 1.1614255729145726e-19 8.745958733798108e-12 8.604939828454355e-12 1.4101890534375221e-13
2.9233170693905177 1.2281469279369866e-19 9.530061027388089e-12 9.354345310230107e-12 1.7571571715798258e-13
2.967498994190263 1.2680636957118423e-19 9.988518595745907e-12 9.793413963835327e-12 1.9510463191057846e-13
3.0123486681368425 1.3106036712805682e-19 1.0479632465354834e-11 1.0263278659541402e-11 2.1635380581343103e-13
3.0578761833420214 1.377352821663088e-19 1.1179812823450652e-11 1.0940130972510948e-11 2.3968185093970914e-13
3.1040917844459814 1.454612524658119e-19 1.1985366258034577e-11 1.1720371409373466e-11 2.6499484866111386e-13
3.127460860933648 1.523780153242798e-19 1.2649799125914833e-11 1.2371279907825635e-11 2.785192180892005e-13
3.1510058709225794 1.6107623665924461e-19 1.3472559792587522e-11 1.3179964297701296e-11 2.925954948862272e-13
3.162844764501044 1.6881997477355151e-19 1.4173305260446194e-11 1.3873433296216167e-11 2.99871964230024e-13
3.1747281389236908 1.775499961549074e-19 1.496224085816702e-11 1.4654950111010763e-11 3.072907471562587e-13
3.1986289994194426 2.0104466716926663e-19 1.7069698922741518e-11 1.674709826347801e-11 3.2260065926351135e-13
3.2227097969389145 2.549884941060754e-19 2.1812789910938205e-11 2.147398758647059e-11 3.388023244676073e-13
3.2348180950136065 3.0542434663043776e-19 2.6225450085478886e-11 2.5878006927124947e-11 3.474431583539412e-13
3.240889293275058 3.4305845844672415e-19 2.9512211925050135e-11 2.916021091417615e-11 3.520010108739897e-13
3.2469718861334385 3.8666246527762637e-19 3.332575344529322e-11 3.29690364185793e-11 3.5671702671391557e-13
3.2714166318528037 6.150418503062358e-19 5.3408448072271186e-11 5.303225945961635e-11 3.7618861265483933e-13
3.2744851364798273 6.293234884137752e-19 5.469988305195557e-11 5.432140467303025e-11 3.7847837892530975e-13
3.2775565192852394 6.439834735119975e-19 5.602660992491082e-11 5.564583078294606e-11 3.8077914196475237e-13
3.283707930232385 6.2998528485212805e-19 5.4911633119976254e-11 5.4526749435176614e-11 3.848836847996696e-13
3.2898708863219004 5.8536763434562705e-19 5.1118369539546606e-11 5.072975964765175e-11 3.8860989189485803e-13
3.29141343181113 5.748228337428362e-19 5.0221060750528086e-11 4.9831515420154805e-11 3.8954533037328233e-13
3.292184975758714 5.696380735752306e-19 4.977974536245583e-11 4.938973172935002e-11 3.9001363310581777e-13
3.295272960557952 5.373224545194876e-19 4.6999779210981224e-11 4.66079456990905e-11 3.918335118907268e-13
3.3076538914384823 4.244948648582568e-19 3.727021801728591e-11 3.687107954024468e-11 3.991384770412296e-13
3.310756385682612 4.0128455704533957e-19 3.526542362640254e-11 3.486444480501844e-11 4.0097882138409784e-13
3.313861789986515 3.7977303009758025e-19 3.340626672017143e-11 3.3003441908159066e-11 4.028248120123618e-13
3.3200813396944477 3.4976613952622124e-19 3.0824491462532965e-11 3.0417691827037105e-11 4.067996354958625e-13
3.345076488085796 2.976515261877762e-19 2.642917456640029e-11 2.6004649944422206e-11 4.245246219780747e-13
3.3482140837626964 2.9983971331561243e-19 2.6648440943592345e-11 2.6221514691536792e-11 4.269262520555508e-13
3.3513546224236106 3.020470773165481e-19 2.6869801356111918e-11 2.6440463146037577e-11 4.293382100743401e-13
3.3576445397418455 3.1726856178567733e-19 2.8276860556365294e-11 2.7842477863521277e-11 4.3438269284402115e-13
3.3702598118196083 3.721841502072462e-19 3.32958946816209e-11 3.285093176797004e-11 4.449629136508616e-13
3.382922481734668 3.854704448204448e-19 3.461406176330094e-11 3.4158830240481364e-11 4.5523152281957e-13
3.389271646505754 3.9231385047809206e-19 3.529469656260684e-11 3.483426319727797e-11 4.604333653288653e-13
3.395632727569191 3.998456701071461e-19 3.6039814022835124e-11 3.557401983272265e-11 4.657941901124849e-13
3.421196662673239 4.363271987838967e-19 3.962413171894942e-11 3.913616254633463e-11 4.879691726147885e-13
3.4276182099114902 4.299310810082858e-19 3.911656560709635e-11 3.862366433800243e-11 4.929012690939036e-13
3.4340518103208963 4.0054793790240824e-19 3.651159256696364e-11 3.601403447740846e-11 4.975580895551709e-13
3.4469541582030403 3.5841413608155096e-19 3.2793673685895745e-11 3.228719379742161e-11 5.064798884741429e-13
3.472904465399547 3.470533972361134e-19 3.1993265472004265e-11 3.146620862393618e-11 5.270568480680818e-13
3.4990501388274233 3.2971495625839246e-19 3.062374123462933e-11 3.0075664241996204e-11 5.480769926331254e-13
3.5253949054701885 2.673232050681908e-19 2.5015769413442646e-11 2.444733030457911e-11 5.684391088635359e-13
3.5519380250092896 2.0793951541552821e-19 1.960522541760817e-11 1.9016367893458284e-11 5.888575241498823e-13
3.578680990867387 1.8513476131239482e-19 1.758653942576008e-11 1.6975308709478797e-11 6.112307162812889e-13
3.605625307711299 1.7672768043096187e-19 1.6914322377714724e-11 1.627955703525949e-11 6.347653424552338e-13
3.660119384959845 1.7223720291074111e-19 1.6733687273318862e-11 1.604960863806597e-11 6.840786352528915e-13
3.715437065384467 1.6960755934086106e-19 1.6727249972369895e-11 1.5991376437116642e-11 7.358735352532543e-13
3.8285932144167436 1.7182714395611904e-19 1.7462259178401993e-11 1.661573475480833e-11 8.465244235936636e-13
3.94519561050918 1.7590458439968134e-19 1.8421081857340028e-11 1.745490017813299e-11 9.661816792070371e-13
4.06534921144712 1.8060391040520962e-19 1.9489219171225285e-11 1.8394753125664087e-11 1.0944660455611964e-12
4.189162171576248 1.8554734439428148e-19 2.0632476028553795e-11 1.9401100445691254e-11 1.2313755828625398e-12
4.316745939156006 1.9056002712663843e-19 2.1835227850541673e-11 2.0459108222402576e-11 1.3761196281390983e-12
4.448215356677963 1.9554385409166962e-19 2.308869617317976e-11 2.1562329184623344e-11 1.526366988556419e-12
4.58368876423945 2.004665629870087e-19 2.439082546678305e-11 2.2708779515074822e-11 1.6820459517082269e-12
4.723288106065518 2.0533525024458114e-19 2.5744080329618465e-11 2.3900186885211986e-11 1.8438934444064844e-12
4.867139040275056 2.101472417836397e-19 2.7149815349145406e-11 2.5142722550277473e-11 2.0070927988679356e-12
4.940699165968905 2.126264060002351e-19 2.7885282103664084e-11 2.5795631076543403e-11 2.089651027120678e-12
5.015371051989984 2.1501009635239637e-19 2.86240680560688e-11 2.6451523419123485e-11 2.1725446369453174e-12
5.091171501069577 2.1761468867367572e-19 2.9408668790385866e-11 2.7151011161692894e-11 2.2576576286929787e-12
5.129500256944802 2.1887617031793485e-19 2.9801832551467124e-11 2.7501609386443444e-11 2.300223165023681e-12
5.168117569889187 2.2013966730840286e-19 3.019952580910556e-11 2.785627186192151e-11 2.3432539471840466e-12
5.20702561229733 2.216311061664564e-19 3.063302328092679e-11 2.8242498877447217e-11 2.3905244034795743e-12
5.246226572918644 2.2310176377157166e-19 3.106844232438465e-11 2.8630527666377958e-11 2.437914658006694e-12
5.265937586045735 2.2382931094404217e-19 3.128686859648094e-11 2.8825221631091144e-11 2.461646965389793e-12
5.285722656980489 2.2455168175777885e-19 3.1505771357329557e-11 2.9020371465164095e-11 2.485399892165455e-12
5.305582063971359 2.252688881756499e-19 3.172515006007822e-11 2.921597976891758e-11 2.5091702911606406e-12
5.3255160863122235 2.260257526267174e-19 3.195133862400373e-11 2.941817103366273e-11 2.5331675903410003e-12
5.365609099470188 2.2787049807748387e-19 3.245462269150325e-11 2.9871782618851405e-11 2.58284007265184e-12
5.406003951863644 2.2971233234236605e-19 3.296325599667099e-11 3.033063719101279e-11 2.632618805658199e-12
5.446702915881641 2.315525690407057e-19 3.3477477333447415e-11 3.0794998815927674e-11 2.682478517519735e-12
5.487708281020852 2.3347691747637787e-19 3.4009825269671546e-11 3.127719265278021e-11 2.732632616891334e-12
5.529022354014368 2.361510430212683e-19 3.465833114915765e-11 3.1873419218957175e-11 2.7849119302004845e-12
5.570647458961463 2.3888088555761966e-19 3.532291271965974e-11 3.248562465538043e-11 2.8372880642793124e-12
5.612585937458331 2.4167296941916743e-19 3.6004809306736616e-11 3.311507399029509e-11 2.8897353164415175e-12
5.654840148729818 2.446602207051048e-19 3.672426638905763e-11 3.3781747328573296e-11 2.942519060484334e-12
5.67608639626678 2.4673964634762907e-19 3.717554706931151e-11 3.420536077425827e-11 2.9701862950532283e-12
5.686739436050992 2.4779789611033587e-19 3.7405061860627546e-11 3.442103135420459e-11 2.984030506422961e-12
5.6974124697621304 2.4886896649404473e-19 3.7637246124710084e-11 3.463936488881506e-11 2.9978812358950273e-12
5.718818669136295 2.5105101105955077e-19 3.8109893407836775e-11 3.508429279879968e-11 3.0256006090370935e-12
5.740305295436557 2.534450536746312e-19 3.8617863541217824e-11 3.556429307374904e-11 3.053570467468788e-12
5.7835210386641895 2.5971098133526284e-19 3.9870535256968064e-11 3.6759188873352135e-11 3.1113463836159173e-12
5.827062130521658 2.6675156659933033e-19 4.1259699483832916e-11 3.8089891647409556e-11 3.1698078364233765e-12
5.8489554468988025 2.718031461704833e-19 4.219900643698541e-11 3.899746971910973e-11 3.2015367178756806e-12
5.870931020387893 2.771326135260431e-19 4.318809502109049e-11 3.9954758586205634e-11 3.23333643488486e-12
5.892989160043636 2.8276230223438323e-19 4.4230982280784646e-11 4.0965778618586084e-11 3.2652036621985532e-12
5.915130176081913 2.8913875730390873e-19 4.539834803011492e-11 4.210005915201918e-11 3.2982888780957358e-12
5.95966208400165 3.07173762776915e-19 4.859316497257303e-11 4.521857350361058e-11 3.374591468962456e-12
6.004529249263818 3.330283296675195e-19 5.3079836553291193e-11 4.961886546403398e-11 3.4609710892572218e-12
6.027089341400364 3.5102649115332e-19 5.615868826531357e-11 5.264735189096964e-11 3.511336374343925e-12
6.049734195844842 3.720770857528077e-19 5.975010209518154e-11 5.6185316381502296e-11 3.5647857136792374e-12
6.095279466722835 4.328330008141372e-19 7.002988631681102e-11 6.633218008149733e-11 3.6977062353136755e-12
6.141167624020661 5.253817186348937e-19 8.564368423355855e-11 8.177155694291444e-11 3.872127290644132e-12
6.164241091010745 5.843110727825258e-19 9.56077649202529e-11 9.16252505482449e-11 3.982514372007999e-12
6.187401249150058 6.504318118643413e-19 1.0682662003584035e-10 1.0273093445324016e-10 4.095685582600206e-12
6.1990139391386085 6.824962821965867e-19 1.1230325289913913e-10 1.0815001537472772e-10 4.153237524411397e-12
6.204828454712694 6.993024342285556e-19 1.1517659947456036e-10 1.1099431220617857e-10 4.182287268381789e-12
6.210648424152782 7.114121609549018e-19 1.1728100071793248e-10 1.1307416530725702e-10 4.206835410675459e-12
6.233982942956859 7.51811998548503e-19 1.2440685041229827e-10 1.2011528450099188e-10 4.291565911306434e-12
6.239830258556775 7.565461924584904e-19 1.2530767116454645e-10 1.210049940604772e-10 4.302677104069259e-12
6.245683058788269 7.562880882167444e-19 1.2538241631617512e-10 1.2106861697927478e-10 4.313799336900345e-12
6.257405133728602 7.536357961322991e-19 1.251771978831864e-10 1.2084430832656072e-10 4.332889556625696e-12
6.269149208991335 7.437450643383128e-19 1.2376622255168998e-10 1.1942814620344075e-10 4.338076348249231e-12
6.280915325867298 7.212437675198287e-19 1.2024705395949665e-10 1.1592095850438011e-10 4.326095455116561e-12
6.304513850009849 6.667149826721466e-19 1.115735498861618e-10 1.0728691066067991e-10 4.2866392254818876e-12
6.32820103803542 6.005587032931992e-19 1.0088002143121637e-10 9.664931983585107e-11 4.230701595365314e-12
6.3519772230701035 5.402884114393921e-19 9.109698797041468e-11 8.691693866569911e-11 4.180049304715553e-12
6.375842739491607 4.894316060846046e-19 8.283217040480877e-11 7.86973313993953e-11 4.134839005413478e-12
6.399797922933955 4.490988067247861e-19 7.62917532188729e-11 7.21826396437833e-11 4.1091135750896026e-12
6.42384311029221 4.153947354666814e-19 7.083132188007695e-11 6.67440301242937e-11 4.087291755783232e-12
6.447978639727206 3.908781781423395e-19 6.690128331425206e-11 6.282067202369811e-11 4.080611290553953e-12
6.472204850670314 3.7033155162502203e-19 6.362274494874056e-11 5.954582334853255e-11 4.076921600207993e-12
6.496522083828205 3.5684706694196453e-19 6.153645640127243e-11 5.745100367348592e-11 4.0854527277865026e-12
