Dust emission spectrum from A.P. Jones, M. Kohler, N. Ysard, M. Bocchio, and L. Verstraete (2017), A&A, 602A, 46J 
inside the DustPedia framework.

lambda    nu*dP/dnu     j_nu    j_nu(carb.) j_nu(sil)
 (um)   (erg s-1 H-1) (Jy cm2 sr-1 H-1)
0.9927057738263894 1.3821234155778998e-24 3.6419737030905576e-17 3.6419737030905576e-17 1.5101698859767205e-38
1.0001793341362166 1.4047990882262763e-24 3.729593734431199e-17 3.729593734431199e-17 2.0227001943944772e-38
1.0077091589558085 1.427437654823623e-24 3.818227382305229e-17 3.818227382305229e-17 2.7047733494769764e-38
1.0114953028030835 1.4387402271281232e-24 3.862919785565954e-17 3.862919785565954e-17 3.125860354266694e-38
1.0152956718711033 1.4500301768405748e-24 3.9078601058157765e-17 3.9078601058157765e-17 3.6110733314425895e-38
1.0229392996569957 1.472556637056629e-24 3.998446637262247e-17 3.998446637262247e-17 4.813482050263176e-38
1.0267826658714554 1.4837656568565404e-24 4.0440198259497634e-17 4.0440198259497634e-17 5.554148013954666e-38
1.0306404723013447 1.4949570875332696e-24 4.089830904785641e-17 4.089830904785641e-17 6.40633172952477e-38
1.03451277320114 1.5061298470710178e-24 4.135877865991156e-17 4.135877865991156e-17 7.38646550143792e-38
1.0383996230291617 1.517282859734637e-24 4.1821586776476276e-17 4.1821586776476276e-17 8.513351547368592e-38
1.0403485208654093 1.522851626589567e-24 4.2053861359386136e-17 4.2053861359386136e-17 9.138431790145592e-38
1.0423010764483396 1.52841505627562e-24 4.228671284180022e-17 4.228671284180022e-17 9.808496512456644e-38
1.0462171883269815 1.5395253741334281e-24 4.275413606840974e-17 4.275413606840974e-17 1.1296492175818105e-37
1.0471985131304309 1.5422994111875758e-24 4.287134834880928e-17 4.287134834880928e-17 1.170183408509911e-37
1.048180758391296 1.5450719983832194e-24 4.29887025589413e-17 4.29887025589413e-17 1.2121442946876587e-37
1.0501480137395462 1.550612757632166e-24 4.3223835441951e-17 4.3223835441951e-17 1.3005448583732033e-37
1.0521189612883777 1.5561475210280226e-24 4.34595320559897e-17 4.34595320559897e-17 1.3952653366686341e-37
1.0531058218030118 1.5589083279436991e-24 4.357747112859561e-17 4.357747112859561e-17 1.4451321765442952e-37
1.0540936079674168 1.5616535464352105e-24 4.3695157048307086e-17 4.3695157048307086e-17 1.4967452857966322e-37
1.058054026499678 1.5726180423043977e-24 4.4167267468245764e-17 4.4167267468245764e-17 1.7219133470101376e-37
1.0590464539527713 1.5753549915055727e-24 4.42856350512414e-17 4.42856350512414e-17 1.7832110772435625e-37
1.06003981227728 1.5780902388097959e-24 4.4404137939759866e-17 4.4404137939759866e-17 1.8466495974540584e-37
1.0620293250338977 1.5835555639917358e-24 4.4641548255725334e-17 4.4641548255725334e-17 1.9802448691938993e-37
1.0660195594769086 1.5944650922397482e-24 4.5117977356584774e-17 4.5117977356584774e-17 2.27652203814842e-37
1.070024785945596 1.6053456157857155e-24 4.5596532519916895e-17 4.5596532519916895e-17 2.616202109364595e-37
1.0740450607676866 1.6161961315273336e-24 4.6077191302921925e-17 4.6077191302921925e-17 3.0055106545161814e-37
1.07808044048254 1.6270156446838117e-24 4.655993107575356e-17 4.655993107575356e-17 3.4515473995292915e-37
1.0861967418109137 1.648538445799124e-24 4.753100625545346e-17 4.753100625545346e-17 4.547303382505191e-37
1.0902777775684922 1.6591959464109176e-24 4.801802255785599e-17 4.801802255785599e-17 5.216732141334692e-37
1.0943741465085532 1.6698177914997326e-24 4.850699174179292e-17 4.850699174179292e-17 5.982676751171026e-37
1.1026131145906286 1.6909507434231427e-24 4.9490693984579755e-17 4.9490693984579755e-17 7.860498759456897e-37
1.1109141095355224 1.7119298524156114e-24 5.0481921937947675e-17 5.0481921937947675e-17 1.0313926231751396e-36
1.1192775983109025 1.7327281692149792e-24 5.147989833744539e-17 5.147989833744539e-17 1.3515186106752637e-36
1.1277040513999907 1.7532482916530785e-24 5.248171253965002e-17 5.248171253965002e-17 1.768661027436763e-36
1.1361939428280308 1.7735903829551673e-24 5.349032393105256e-17 5.349032393105256e-17 2.3115433902103124e-36
1.1447477501889525 1.7937476815876473e-24 5.450553219451717e-17 5.450553219451717e-17 3.0171598105393426e-36
1.1533659546722406 1.813724704053816e-24 5.552747549251659e-17 5.552747549251659e-17 3.933123996005411e-36
1.1707974979042381 1.8532036260514646e-24 5.759361779386762e-17 5.759361779386762e-17 6.658296395229917e-36
1.1884924949847024 1.891876548166363e-24 5.968410288707641e-17 5.968410288707641e-17 1.1214645727913305e-35
1.2064549276569216 1.930050028518714e-24 6.180862766614278e-17 6.180862766614278e-17 1.8794669563157233e-35
1.2246888378427687 1.9673030931988995e-24 6.395381663755431e-17 6.395381663755431e-17 3.1339080022186574e-35
1.2431983285522175 2.0035486855888973e-24 6.611648407607816e-17 6.611648407607816e-17 5.199160090854414e-35
1.2619875648066055 2.038773794762045e-24 6.829572998256656e-17 6.829572998256656e-17 8.581521369609558e-35
1.3004222497298317 2.10557413708269e-24 7.268158038989018e-17 7.268158038989018e-17 2.3019339653304804e-34
1.3400274889804893 2.167447559185877e-24 7.709598103597985e-17 7.709598103597985e-17 6.046650015696598e-34
1.3808389325824078 2.2241699599869387e-24 8.152305146906843e-17 8.152305146906843e-17 1.5548123531496626e-33
1.4228933163050095 2.2760305723614838e-24 8.596464296594645e-17 8.596464296594642e-17 3.912452411889521e-33
1.466228494730424 2.324306572145646e-24 9.046164868585685e-17 9.046164868585681e-17 9.633165195093492e-33
1.5108834753276823 2.3680500638751943e-24 9.497105973185142e-17 9.497105973185137e-17 2.3201621948694184e-32
1.5568984535646726 2.406497109528033e-24 9.94523534329883e-17 9.945235343298825e-17 5.465486192619237e-32
1.6043148490894465 2.439728269956958e-24 1.0389639886604036e-16 1.0389639886604021e-16 1.259267787716745e-31
1.6531753430134553 2.4678554489834558e-24 1.0829491635253962e-16 1.0829491635253939e-16 2.838065636668097e-31
1.7035239163302658 2.491230280659686e-24 1.1265008980012937e-16 1.1265008980012878e-16 6.257932464381143e-31
1.755405889504358 2.511844190282941e-24 1.170414465622082e-16 1.170414465622069e-16 1.3506351430362935e-30
1.8088679632656115 2.529213504136247e-24 1.214400093757008e-16 1.2144000937569795e-16 2.8538778904875057e-30
1.8639582606462262 2.5430136036399226e-24 1.258213380782635e-16 1.2582133807825757e-16 5.9053034588254165e-30
1.9207263702978936 2.553491011821965e-24 1.3018749347927897e-16 1.3018749347926696e-16 1.1970231618624946e-29
1.979223391128241 2.5612113417243584e-24 1.3455804367275062e-16 1.3455804367272683e-16 2.3779412733436714e-29
2.039501978296691 2.5668496144649344e-24 1.389613386453058e-16 1.3896133864525954e-16 4.6315405187734905e-29
2.1016163906111602 2.5722847374980336e-24 1.434967023484127e-16 1.4349670234832425e-16 8.849410000659804e-29
2.1656225393682647 2.5786076932517438e-24 1.4823046463610525e-16 1.4823046463593935e-16 1.6595277121369035e-28
2.231578038680979 2.5859004237873502e-24 1.5317691169880527e-16 1.5317691169849971e-16 3.0555322194927414e-28
2.299542257339062 2.5948170848492415e-24 1.5838628651478797e-16 1.5838628651423537e-16 5.525875036878966e-28
2.369576372248914 2.6067996921481314e-24 1.639637357806296e-16 1.6396373577964753e-16 9.820574640037726e-28
2.4417434235010123 2.6235507223552545e-24 1.700430651217648e-16 1.700430651200489e-16 1.71592594828974e-27
2.5161083711144245 2.6479833131491905e-24 1.7685364683195547e-16 1.7685364682900612e-16 2.9493387140622864e-27
2.5927381535095444 2.6848651726600623e-24 1.8477813229890585e-16 1.8477813229391616e-16 4.989707140783384e-27
2.6717017477616296 2.7398928995377213e-24 1.9430813998240772e-16 1.9430813997409508e-16 8.312678212114245e-27
2.753070231689431 2.8216424660976924e-24 2.0620002161500071e-16 2.0620002160135904e-16 1.36416781930393e-26
2.836916847834745 2.94954158603263e-24 2.2211125358921506e-16 2.2211125356714874e-16 2.206630511800787e-26
2.9233170693905177 3.1663811158428302e-24 2.457019154918215e-16 2.4570191545661816e-16 3.5203367065511684e-26
2.967498994190263 3.3503935162467146e-24 2.639099916925749e-16 2.6390999164832647e-16 4.4248476722554057e-26
3.0123486681368425 3.565297804044832e-24 2.850824504361397e-16 2.850824503807032e-16 5.543648087419345e-26
3.0578761833420214 4.045768703435983e-24 3.283903450154096e-16 3.283903449460855e-16 6.932407016205281e-26
3.1040917844459814 4.665037593084567e-24 3.843785421396655e-16 3.8437854205323485e-16 8.643061455198345e-26
3.127460860933648 5.3198656136070334e-24 4.4163346822556927e-16 4.4163346812900703e-16 9.65622034628712e-26
3.1510058709225794 6.1924179306114055e-24 5.179393469897356e-16 5.179393468818569e-16 1.0787870176974846e-25
3.162844764501044 7.004391272455601e-24 5.88054676594298e-16 5.880546764800376e-16 1.142603413052183e-25
3.1747281389236908 7.948791074572602e-24 6.698492208653104e-16 6.698492207443158e-16 1.2099466827038405e-25
3.1986289994194426 1.0583326072068978e-23 8.985773768339693e-16 8.98577376698074e-16 1.358955138576077e-25
3.2227097969389145 1.6793053990964133e-23 1.436548578209809e-15 1.4365485780549249e-15 1.5488423225161796e-25
3.2348180950136065 2.26818597884066e-23 1.9475918939967297e-15 1.9475918938295977e-15 1.6713182888303327e-25
3.240889293275058 2.7084389954553224e-23 2.3299826502415358e-15 2.3299826500668737e-15 1.7466125393057782e-25
3.2469718861334385 3.2177361406438176e-23 2.7733098219945095e-15 2.773309821811307e-15 1.8320297826780732e-25
3.2714166318528037 5.934480811144255e-23 5.153330786841159e-15 5.153330786618671e-15 2.2248816018080216e-25
3.2744851364798273 6.104290773851826e-23 5.305760830355136e-15 5.30576083012851e-15 2.2662663641063174e-25
3.2775565192852394 6.278978185558195e-23 5.4627156751521726e-15 5.4627156749213345e-15 2.308388904656411e-25
3.283707930232385 6.110904481570267e-23 5.326469569872079e-15 5.32646956963643e-15 2.3564726316906154e-25
3.2898708863219004 5.578022036953854e-23 4.871116458351756e-15 4.871116458114178e-15 2.3757737358979193e-25
3.29141343181113 5.452357076793851e-23 4.763609583918138e-15 4.763609583680077e-15 2.3806160883388294e-25
3.292184975758714 5.390610061257031e-23 4.7107665137876025e-15 4.710766513549298e-15 2.3830398352280174e-25
3.295272960557952 5.0008538798548283e-23 4.374264024192783e-15 4.374264023954138e-15 2.3864581644520544e-25
3.3076538914384823 3.650691387404544e-23 3.205269961695011e-15 3.2052699614553377e-15 2.396736637508852e-25
3.310756385682612 3.375915563127617e-23 2.9667997527053938e-15 2.9667997524654625e-15 2.3993105627906833e-25
3.313861789986515 3.12239802848697e-23 2.746578958473485e-15 2.7465789582332966e-15 2.4018865301618826e-25
3.3200813396944477 2.7668620799001876e-23 2.4384040340616133e-15 2.438404033819165e-15 2.424479753362594e-25
3.345076488085796 2.1325827711394504e-23 1.8935700769827554e-15 1.893570076720578e-15 2.6217759607541387e-25
3.3482140837626964 2.1563549642492658e-23 1.9164738814211864e-15 1.916473881155274e-15 2.6591207487935108e-25
3.3513546224236106 2.1803899754512043e-23 1.9396527865698318e-15 1.9396527863001352e-15 2.6969643394741525e-25
3.3576445397418455 2.3560853411380973e-23 2.0998833378033718e-15 2.0998833375243217e-15 2.790499662780251e-25
3.3702598118196083 3.0041661215403206e-23 2.687551276248641e-15 2.687551275946984e-15 3.016574165001394e-25
3.382922481734668 3.15170043034067e-23 2.8301301648703725e-15 2.8301301645501955e-15 3.201765872378794e-25
3.389271646505754 3.228132702611671e-23 2.9042044797464882e-15 2.904204479416655e-15 3.298334816629667e-25
3.395632727569191 3.31048255541618e-23 2.98388064552676e-15 2.9838806451864975e-15 3.402634723832231e-25
3.421196662673239 3.7058573842149904e-23 3.365396004031907e-15 3.3653960036458384e-15 3.860680811424515e-25
3.4276182099114902 3.626091070615313e-23 3.299138757969828e-15 3.2991387575756254e-15 3.942024151630844e-25
3.4340518103208963 3.276713188274951e-23 2.9868588892408854e-15 2.986858888840564e-15 4.0032230757374458e-25
3.4469541582030403 2.7791528317429904e-23 2.542830260095425e-15 2.542830259685779e-15 4.0964678654504936e-25
3.472904465399547 2.639673840230589e-23 2.4333945900707177e-15 2.433394589622834e-15 4.478834450670765e-25
3.4990501388274233 2.42636905958411e-23 2.2535980491641215e-15 2.2535980486761543e-15 4.879672986709699e-25
3.5253949054701885 1.667388124720973e-23 1.5603208423336256e-15 1.5603208418150371e-15 5.185885195321818e-25
3.5519380250092896 9.541538691504139e-24 8.996078330949088e-16 8.996078325474185e-16 5.474903315680238e-25
3.578680990867387 6.713765198753859e-24 6.377618958545941e-16 6.377618952626938e-16 5.919002279962595e-25
3.605625307711299 5.570006735822047e-24 5.330963963652574e-16 5.330963957190681e-16 6.461891533103583e-25
3.660119384959845 4.735552991809433e-24 4.600821511960747e-16 4.600821504209732e-16 7.751014569778499e-25
3.715437065384467 4.144847982323761e-24 4.0877840921268087e-16 4.0877840828521267e-16 9.274681007493274e-25
3.8285932144167436 3.844872285362989e-24 3.9074243340743323e-16 3.907424320823052e-16 1.3251281223220264e-24
3.94519561050918 3.7870629779492586e-24 3.9658885158556187e-16 3.965888497090398e-16 1.8765220096986078e-24
4.06534921144712 3.8286511981397946e-24 4.131550760075256e-16 4.1315507337441163e-16 2.6331139996440883e-24
4.189162171576248 3.927751518524998e-24 4.367577413550975e-16 4.367577376934399e-16 3.66165756285545e-24
4.316745939156006 4.0687300099607124e-24 4.66213445544843e-16 4.662134404966371e-16 5.048205953824871e-24
4.448215356677963 4.246304970276194e-24 5.013793236958953e-16 5.013793167933577e-16 6.902537647918858e-24
4.58368876423945 4.461050932978369e-24 5.42777374358219e-16 5.427773649940653e-16 9.364153594916684e-24
4.723288106065518 4.717871276974575e-24 5.915070938602195e-16 5.915070812502953e-16 1.2609924199675865e-23
4.867139040275056 5.0266356712630485e-24 6.494124269436113e-16 6.494124100793432e-16 1.6864268109683808e-23
4.940699165968905 5.212946138231538e-24 6.836614341100792e-16 6.836614146511558e-16 1.9458923411108303e-23
5.015371051989984 5.405813094208622e-24 7.196702133159662e-16 7.196701909026804e-16 2.241328571050679e-23
5.091171501069577 5.641298141297526e-24 7.623707278051366e-16 7.623707020142422e-16 2.5790894381018117e-23
5.129500256944802 5.762127589738965e-24 7.845621627980326e-16 7.845621351501504e-16 2.7647881956006325e-23
5.168117569889187 5.88809379318923e-24 8.077492014410116e-16 8.077491718129985e-16 2.9628013310974236e-23
5.20702561229733 6.042838947915938e-24 8.352186178928e-16 8.352185861363067e-16 3.175649317474858e-23
5.246226572918644 6.2015166444541914e-24 8.636034916748036e-16 8.636034576514951e-16 3.4023308617136295e-23
5.265937586045735 6.282369405874113e-24 8.781498064177786e-16 8.781497712066935e-16 3.521108496016085e-23
5.285722656980489 6.3642530420446136e-24 8.929378735142815e-16 8.929378370777942e-16 3.6436487128544027e-23
5.305582063971359 6.447184196267502e-24 9.079721915796293e-16 9.079721538790464e-16 3.770058278294601e-23
5.3255160863122235 6.536308605802891e-24 9.239823656727491e-16 9.239823266632e-16 3.900954920894547e-23
5.365609099470188 6.758517878983958e-24 9.625868621291122e-16 9.625868203359783e-16 4.179313398744899e-23
5.406003951863644 6.989183088085146e-24 1.002933664862119e-15 1.0029336201056465e-15 4.475647239214664e-23
5.446702915881641 7.228713975649496e-24 1.045115194672007e-15 1.0451151467620772e-15 4.790992962674521e-23
5.487708281020852 7.487588310855147e-24 1.0906927027130345e-15 1.0906926514349988e-15 5.1278035382403827e-23
5.529022354014368 7.847877990124345e-24 1.1517812952256106e-15 1.1517812402408009e-15 5.498480952127499e-23
5.570647458961463 8.229437805663067e-24 1.2168730564722762e-15 1.2168729975379091e-15 5.893436716541679e-23
5.612585937458331 8.633802484670226e-24 1.286277123998153e-15 1.2862770608572415e-15 6.31409118224865e-23
5.654840148729818 9.078394976384422e-24 1.362695556053129e-15 1.3626954884066182e-15 6.764651066077147e-23
5.67608639626678 9.381467248240386e-24 1.4134784678048803e-15 1.4134783976769523e-15 7.012792800553501e-23
5.686739436050992 9.537694431178831e-24 1.4397137982444971e-15 1.4397137268449098e-15 7.139958699261459e-23
5.6974124697621304 9.697148915540331e-24 1.4665307032200439e-15 1.4665306305277531e-15 7.269229030473434e-23
5.718818669136295 1.0026051137658708e-23 1.5219685375696797e-15 1.5219684622275932e-15 7.534208663121316e-23
5.740305295436557 1.0388684265163917e-23 1.5829418862517512e-15 1.5829418081308096e-15 7.812094142032577e-23
5.7835210386641895 1.132996519510368e-23 1.7393634048475531e-15 1.739363320550544e-15 8.429700912876202e-23
5.827062130521658 1.2414554658516738e-23 1.920216630650163e-15 1.920216539641226e-15 9.10089369579469e-23
5.8489554468988025 1.317581801619309e-23 2.0456217564499283e-15 2.0456216614988026e-15 9.495112584618928e-23
5.870931020387893 1.3992807248283755e-23 2.180626384465184e-15 2.1806262854138305e-15 9.905135275292058e-23
5.892989160043636 1.4870010020070405e-23 2.326035488166455e-15 2.3260353848510412e-15 1.0331541445109429e-22
5.915130176081913 1.5867792580507773e-23 2.491438978145697e-15 2.491438870247269e-15 1.0789842834421948e-22
5.95966208400165 1.8658494882539847e-23 2.951669152243454e-15 2.9516690331931345e-15 1.1905031981498934e-22
6.004529249263818 2.2681899187817807e-23 3.615162418192976e-15 3.615162285032332e-15 1.3316064455175394e-22
6.027089341400364 2.5479155947028087e-23 4.076262083215504e-15 4.076261941067382e-15 1.4214812189056226e-22
6.049734195844842 2.878501101985863e-23 4.622448984644308e-15 4.622448832430906e-15 1.5221340244857688e-22
6.095279466722835 3.833543884156632e-23 6.20245318386145e-15 6.2024530043651175e-15 1.7949633324544152e-22
6.141167624020661 5.303477792960856e-23 8.64532132218471e-15 8.645321103060949e-15 2.191237590397747e-22
6.164241091010745 6.242213996818852e-23 1.0213808298168141e-14 1.0213808052981668e-14 2.451864729988794e-22
6.187401249150058 7.311610440651813e-23 1.2008555180516e-14 1.2008554906550096e-14 2.739659057358855e-22
6.1990139391386085 7.833775960592285e-23 1.2890304984902254e-14 1.2890304696114008e-14 2.887882506426034e-22
6.204828454712694 8.108836995368294e-23 1.3355427138621769e-14 1.3355426842124337e-14 2.964974296757781e-22
6.210648424152782 8.309622070801155e-23 1.369896166440649e-14 1.3698961361496217e-14 3.0291027221179538e-22
6.233982942956859 8.991767084383866e-23 1.4879217474167545e-14 1.4879217148461055e-14 3.257064872234979e-22
6.239830258556775 9.078956803538537e-23 1.503758719554126e-14 1.5037586866672426e-14 3.2886883137242405e-22
6.245683058788269 9.086496901455901e-23 1.506419253594632e-14 1.5064192203886882e-14 3.3205943210376188e-22
6.257405133728602 9.067709250390953e-23 1.5061259576689865e-14 1.5061259239043732e-14 3.37646131308182e-22
6.269149208991335 8.933482074109904e-23 1.4866160241742162e-14 1.4866159902267405e-14 3.3947476065361143e-22
6.280915325867298 8.596945673793078e-23 1.4332981952527405e-14 1.4332981615897753e-14 3.366296514852822e-22
6.304513850009849 7.767054058290912e-23 1.299802488265636e-14 1.2998024556068941e-14 3.26587421717127e-22
6.32820103803542 6.738404323395625e-23 1.1318966303024014e-14 1.131896599191608e-14 3.1110793576171385e-22
6.3519772230701035 5.795045546412094e-23 9.770914631004018e-15 9.770914334532945e-15 2.9647107702395876e-22
6.375842739491607 5.0014082065787265e-23 8.46446146266502e-15 8.464461179042346e-15 2.836226750977242e-22
6.399797922933955 4.365297526018258e-23 7.415655454770123e-15 7.415655179772289e-15 2.7499783571713714e-22
6.42384311029221 3.8364203134663557e-23 6.541698747941815e-15 6.541698480222097e-15 2.6771971879224652e-22
6.447978639727206 3.4509788060893396e-23 5.906569456368792e-15 5.90656919198234e-15 2.643864532719664e-22
6.472204850670314 3.1298751604930306e-23 5.3771073024605834e-15 5.377107040420771e-15 2.620398122371619e-22
6.496522083828205 2.921141045920388e-23 5.037358724976766e-15 5.037358461842456e-15 2.631343105066179e-22
6.520930681187647 2.745289354397718e-23 4.751898358093375e-15 4.751898093225447e-15 2.6486792871998444e-22
6.57002334288761 2.565314586996637e-23 4.473804235062781e-15 4.473803961327372e-15 2.737354088807177e-22
