Dust emission spectrum from A.P. Jones, M. Kohler, N. Ysard, M. Bocchio, and L. Verstraete (2017), A&A, 602A, 46J 
inside the DustPedia framework.

lambda    nu*dP/dnu     j_nu    j_nu(carb.) j_nu(sil)
 (um)   (erg s-1 H-1) (Jy cm2 sr-1 H-1)
0.9927057738263894 9.843347641840218e-25 2.5937780127233494e-17 2.5937780127136886e-17 9.660448935921836e-29
1.0001793341362166 1.0005879259603531e-24 2.6564556388779122e-17 2.656455638866275e-17 1.1637259517397982e-28
1.0077091589558085 1.0168176750379321e-24 2.719867362698579e-17 2.7198673626845783e-17 1.4000573484445187e-28
1.0114953028030835 1.0249217710068998e-24 2.7518453388787296e-17 2.75184533886338e-17 1.5349116440292757e-28
1.0152956718711033 1.033017621585266e-24 2.784002992816059e-17 2.7840029927992364e-17 1.68221173654184e-28
1.0229392996569957 1.0491734762777721e-24 2.848830430395372e-17 2.8488304303751857e-17 2.01864194350404e-28
1.0267826658714554 1.0572138775462598e-24 2.881448199929372e-17 2.8814481999072685e-17 2.210308747267146e-28
1.0306404723013447 1.0652424786167801e-24 2.914238573446952e-17 2.914238573422758e-17 2.4193902161774386e-28
1.03451277320114 1.0732585047728778e-24 2.9472001388254855e-17 2.947200138799012e-17 2.647391377852325e-28
1.0383996230291617 1.081261185610066e-24 2.9803314663381687e-17 2.9803314663092095e-17 2.8959401321262384e-28
1.0403485208654093 1.085257281998138e-24 2.996960339374837e-17 2.996960339344553e-17 3.0284644723707917e-28
1.0423010764483396 1.0892497551835387e-24 3.0136311089925115e-17 3.013631108960843e-17 3.1667966490545046e-28
1.0462171883269815 1.0972234521526256e-24 3.047097602869254e-17 3.047097602834636e-17 3.4618634331685437e-28
1.0471985131304309 1.0992144637806916e-24 3.055490123704669e-17 3.055490123669273e-17 3.539650349970066e-28
1.048180758391296 1.1012044867853193e-24 3.063892956996316e-17 3.063892956960126e-17 3.619111763720128e-28
1.0501480137395462 1.1051815199219696e-24 3.080729467461565e-17 3.080729467423733e-17 3.7831960971174905e-28
1.0521189612883777 1.109154457752239e-24 3.0976069466655196e-17 3.097606946625975e-17 3.9543991993610506e-28
1.0531058218030118 1.1111363094739115e-24 3.1060524585113636e-17 3.106052458470936e-17 4.042767380881291e-28
1.0540936079674168 1.1131071022980988e-24 3.1144801455819773e-17 3.114480145540647e-17 4.133045703665198e-28
1.058054026499678 1.1209790394226951e-24 3.14829028591903e-17 3.148290285873892e-17 4.513860269428841e-28
1.0590464539527713 1.1229441575992417e-24 3.156767548553376e-17 3.1567675485072333e-17 4.61419147766035e-28
1.06003981227728 1.1249081063829125e-24 3.165254653818397e-17 3.1652546537712306e-17 4.716657347553665e-28
1.0620293250338977 1.1288324500395885e-24 3.182258295000624e-17 3.1822582949513425e-17 4.928166799267408e-28
1.0660195594769086 1.1366666027917553e-24 3.2163826161101887e-17 3.2163826160564013e-17 5.3787598123686515e-28
1.070024785945596 1.1444807718652614e-24 3.25066167806071e-17 3.250661678002024e-17 5.868653470614269e-28
1.0740450607676866 1.1522742371086035e-24 3.285093895535265e-17 3.285093895471254e-17 6.40109769713843e-28
1.07808044048254 1.1600462841487786e-24 3.319677669426933e-17 3.3196776693571375e-17 6.9795953864738375e-28
1.0861967418109137 1.1755095523152731e-24 3.3892537979214794e-17 3.389253797838578e-17 8.29014013915336e-28
1.0902777775684922 1.1831681221532806e-24 3.4241521444280275e-17 3.424152144337721e-17 9.030632252879679e-28
1.0943741465085532 1.1908019302112026e-24 3.4591929543993674e-17 3.459192954301026e-17 9.834106007965189e-28
1.1026131145906286 1.2059925479762295e-24 3.529695254088165e-17 3.529695253971658e-17 1.1650657951293467e-27
1.1109141095355224 1.2210760453181617e-24 3.600747163388105e-17 3.6007471632502553e-17 1.3785110244763076e-27
1.1192775983109025 1.2360331554800055e-24 3.672293341583451e-17 3.672293341420554e-17 1.6289813496864933e-27
1.1277040513999907 1.2507943643720778e-24 3.744126293446794e-17 3.7441262932545443e-17 1.9225165856449212e-27
1.1361939428280308 1.2654310282474594e-24 3.8164570728320506e-17 3.816457072605442e-17 2.266074766406237e-27
1.1447477501889525 1.279938267802584e-24 3.88927144987083e-17 3.889271449604064e-17 2.6676618903668023e-27
1.1533659546722406 1.294319229590484e-24 3.96257927898004e-17 3.962579278666392e-17 3.136481812488478e-27
1.1707974979042381 1.3227488223536308e-24 4.1108213388423353e-17 4.1108213384103705e-17 4.319647095784354e-27
1.1884924949847024 1.3506120787992464e-24 4.2608525566697766e-17 4.2608525560778e-17 5.919761776716846e-27
1.2064549276569216 1.3781270799023768e-24 4.413364539762172e-17 4.413364538954862e-17 8.073102415095157e-27
1.2246888378427687 1.404993126701322e-24 4.5674036254359675e-17 4.5674036243403174e-17 1.095648706943809e-26
1.2431983285522175 1.4311473638873166e-24 4.722741831809537e-17 4.7227418303296815e-17 1.479855201815483e-26
1.2619875648066055 1.4565800373017738e-24 4.8793150658074485e-17 4.8793150638181046e-17 1.9893425443722375e-26
1.3004222497298317 1.5048577953425634e-24 5.194566218365741e-17 5.1945662148208314e-17 3.5449105643627975e-26
1.3400274889804893 1.5496376761268686e-24 5.512052016436873e-17 5.512052010234491e-17 6.202381655154477e-26
1.3808389325824078 1.5907538548371398e-24 5.830629435498206e-17 5.830629424837912e-17 1.0660294621062959e-25
1.4228933163050095 1.6284069632573552e-24 6.150419282568708e-17 6.150419264561345e-17 1.8007361804452834e-25
1.466228494730424 1.6635042696191354e-24 6.474332630174205e-17 6.474332600264157e-17 2.9910045413113004e-25
1.5108834753276823 1.6953631903374676e-24 6.79928356553562e-17 6.799283516663517e-17 4.887210327238886e-25
1.5568984535646726 1.7234315560685092e-24 7.122357369683506e-17 7.122357291045439e-17 7.863806949420885e-25
1.6043148490894465 1.7477610886003184e-24 7.442881464293854e-17 7.442881339461705e-17 1.2483214997497179e-24
1.6531753430134553 1.76842623612376e-24 7.7602426590887e-17 7.760242463813538e-17 1.952751617912567e-24
1.7035239163302658 1.785673174046571e-24 8.074574437043268e-17 8.07457413595064e-17 3.010926281069545e-24
1.755405889504358 1.8009223521984014e-24 8.391545863510446e-17 8.391545405680295e-17 4.578301490248628e-24
1.8088679632656115 1.813823512151219e-24 8.709060898231103e-17 8.709060211454798e-17 6.867763030910486e-24
1.8639582606462262 1.8241395683345114e-24 9.025342255379156e-17 9.025341238646236e-17 1.016732921561522e-23
1.9207263702978936 1.832043122028425e-24 9.340510732115428e-17 9.340509246025908e-17 1.486089522802964e-23
1.979223391128241 1.837935427250098e-24 9.655938635704747e-17 9.655936490349878e-17 2.1453548694419598e-23
2.039501978296691 1.8422965789290253e-24 9.973626711396183e-17 9.97362365135803e-17 3.060038158903414e-23
2.1016163906111602 1.846470605678226e-24 1.0300665359303143e-16 1.0300661045006164e-16 4.314296981959646e-23
2.1656225393682647 1.851236960613979e-24 1.0641778334155905e-16 1.0641772319633121e-16 6.014522784605484e-23
2.231578038680979 1.8566517100506173e-24 1.0997955390305714e-16 1.0997947096792872e-16 8.29351284293798e-23
2.299542257339062 1.863181647723556e-24 1.1372763961224773e-16 1.137275264612717e-16 1.1315097603935332e-22
2.369576372248914 1.8718585337438485e-24 1.1773705473801806e-16 1.1773690194457088e-16 1.5279344717752977e-22
2.4417434235010123 1.8839006372530782e-24 1.2210331441801705e-16 1.221031101442661e-16 2.0427375095855373e-22
2.5161083711144245 1.901394136276947e-24 1.2699041017201772e-16 1.2699013969751655e-16 2.704745011953732e-22
2.5927381535095444 1.927752800002676e-24 1.326720483194934e-16 1.3267169351656446e-16 3.54802928926767e-22
2.6717017477616296 1.967052212942473e-24 1.3949970701760596e-16 1.3949924579414522e-16 4.612234607520195e-22
2.753070231689431 2.025428308996774e-24 1.4801427399565842e-16 1.4801367968951117e-16 5.943061472310782e-22
2.836916847834745 2.1167825533945415e-24 1.594014570727398e-16 1.5940069778022988e-16 7.592925098950697e-22
2.9233170693905177 2.2717314960204262e-24 1.76279721118393e-16 1.7627875914548036e-16 9.619729126032137e-22
2.967498994190263 2.4032805266538757e-24 1.893060444239013e-16 1.893049666775183e-16 1.077746383011645e-21
3.0123486681368425 2.556906756566816e-24 2.0445115212306223e-16 2.0444994626939598e-16 1.2058536662872772e-21
3.0578761833420214 2.9005681237057954e-24 2.3543574452872e-16 2.354343967599707e-16 1.3477687494046502e-21
3.1040917844459814 3.343400671866209e-24 2.754814833530571e-16 2.7547997975315797e-16 1.5035998991094117e-21
3.127460860933648 3.81181602635724e-24 3.1644136416756983e-16 3.164397765749091e-16 1.5875926607254766e-21
3.1510058709225794 4.4359064360399714e-24 3.710231622824692e-16 3.710214867281382e-16 1.6755543310476357e-21
3.162844764501044 5.016818954077302e-24 4.2118775676816285e-16 4.211860355340675e-16 1.7212340953121146e-21
3.1747281389236908 5.692372590734562e-24 4.796995302815425e-16 4.796977623270538e-16 1.7679544884675525e-21
3.1986289994194426 7.576680705744309e-24 6.432981302205401e-16 6.432962653977934e-16 1.8648227469617972e-21
3.2227097969389145 1.2018393846205668e-23 1.028104036432092e-15 1.0281020685226778e-15 1.9679094140842464e-21
3.2348180950136065 1.6230511762799887e-23 1.393642912862229e-15 1.39364088982145e-15 2.023040778868258e-21
3.240889293275058 1.937960901297272e-23 1.6671652137802695e-15 1.6671631616533535e-15 2.0521269165165e-21
3.2469718861334385 2.302262595619147e-23 1.9842793784712373e-15 1.984277296243771e-15 2.0822274660080734e-21
3.2714166318528037 4.245504150598519e-23 3.68667250618724e-15 3.686670299203496e-15 2.2069837442884472e-21
3.2744851364798273 4.3669810674436205e-23 3.795716480904854e-15 3.795714259121337e-15 2.2217835171582207e-21
3.2775565192852394 4.4919470591373365e-23 3.907997270693147e-15 3.907995034026322e-15 2.2366668256124102e-21
3.283707930232385 4.3717646194571005e-23 3.810576860170135e-15 3.810574596694722e-15 2.2634754117720972e-21
3.2898708863219004 3.990635958532179e-23 3.4849006275192022e-15 3.4848983394682216e-15 2.288050981021771e-21
3.29141343181113 3.900756376965888e-23 3.4080087199224824e-15 3.4080064256954107e-15 2.2942270711520974e-21
3.292184975758714 3.856592743941228e-23 3.3702137140370557e-15 3.3702114167170987e-15 2.2973199573242016e-21
3.295272960557952 3.5778283620025895e-23 3.1295387277140044e-15 3.129536418330006e-15 2.309383997791964e-21
3.3076538914384823 2.612105002731716e-23 2.293401663842546e-15 2.2933993059066413e-15 2.3579359047643096e-21
3.310756385682612 2.4155559994917884e-23 2.1228229225315378e-15 2.122820552337313e-15 2.3701942247066756e-21
3.313861789986515 2.2342090514790016e-23 1.9652944671492697e-15 1.96529208464837e-15 2.3825008996832486e-21
3.3200813396944477 1.9798901517754867e-23 1.744854638096875e-15 1.744852229205114e-15 2.4088917606830227e-21
3.345076488085796 1.5262097112145693e-23 1.3551572672662394e-15 1.3551547409443287e-15 2.5263219105879404e-21
3.3482140837626964 1.5432216800843315e-23 1.3715478630180958e-15 1.3715453207927498e-15 2.5422253457171465e-21
3.3513546224236106 1.5604217211523997e-23 1.3881353215408234e-15 1.3881327633295159e-15 2.5582113076917093e-21
3.3576445397418455 1.6861251055536073e-23 1.5027749431579024e-15 1.5027723515521007e-15 2.5916058019865903e-21
3.3702598118196083 2.149772744251385e-23 1.923204060198576e-15 1.923201398514525e-15 2.661684050778639e-21
3.382922481734668 2.2553700635177004e-23 2.025253031112829e-15 2.0252503009574017e-15 2.7301554272939908e-21
3.389271646505754 2.3100766695807665e-23 2.0782711339365164e-15 2.0782683690013234e-15 2.7649351930603993e-21
3.395632727569191 2.3690255451414822e-23 2.135304854979814e-15 2.1353020541964866e-15 2.800783326674002e-21
3.421196662673239 2.652074616003557e-23 2.408425470745271e-15 2.408422521140147e-15 2.949605122673661e-21
3.4276182099114902 2.5950301752250515e-23 2.3610451206161837e-15 2.36104213740734e-15 2.983208843423756e-21
3.4340518103208963 2.345069676072478e-23 2.1376274960317287e-15 2.137624480850475e-15 3.015181253807265e-21
3.4469541582030403 1.9890801561995763e-23 1.819940649959678e-15 1.8199375730218837e-15 3.076937794431313e-21
3.472904465399547 1.889308863745837e-23 1.741667435553388e-15 1.7416642168491977e-15 3.2187041905854676e-21
3.4990501388274233 1.7367153033849123e-23 1.6130514870365872e-15 1.6130481223154357e-15 3.3647211517881742e-21
3.5253949054701885 1.1936769942370206e-23 1.117027922598321e-15 1.117024414557242e-15 3.5080410790956986e-21
3.5519380250092896 6.832882186795717e-24 6.442267370701289e-16 6.442230837623117e-16 3.6533078171616004e-21
3.578680990867387 4.809151760524776e-24 4.568366115654482e-16 4.568327987684212e-16 3.812797026973851e-21
3.605625307711299 3.990571302065142e-24 3.8193116839302606e-16 3.819271868177605e-16 3.981575265708175e-21
3.660119384959845 3.393341461870861e-24 3.296797316428815e-16 3.2967539197752786e-16 4.3396653536016376e-21
3.715437065384467 2.9703684910872153e-24 2.9294741610315056e-16 2.9294269375773546e-16 4.722345415200843e-21
3.8285932144167436 2.7554729525429518e-24 2.8003016140843025e-16 2.80024598099202e-16 5.5633092281474784e-21
3.94519561050918 2.713961691256985e-24 2.842115266236373e-16 2.8420501753972255e-16 6.5090839148104014e-21
4.06534921144712 2.7436836129251607e-24 2.960747148210987e-16 2.96067148104611e-16 7.566716487721642e-21
4.189162171576248 2.814693122487947e-24 3.1298797925160525e-16 3.1297923239238956e-16 8.746859215668261e-21
4.316745939156006 2.915839157064634e-24 3.341100089565294e-16 3.3409995330872586e-16 1.0055647803559296e-20
4.448215356677963 3.0433870949577498e-24 3.593456838582847e-16 3.5933419614994423e-16 1.1487708340500213e-20
4.58368876423945 3.1978033254080353e-24 3.8907766774142997e-16 3.8906461164435547e-16 1.305609707450912e-20
4.723288106065518 3.382661961711241e-24 4.2410409886520286e-16 4.2408931647064324e-16 1.4782394559507053e-20
4.867139040275056 3.605103888274815e-24 4.657586940014137e-16 4.657420500762843e-16 1.664392512966032e-20
4.940699165968905 3.7393659399098265e-24 4.904060416799935e-16 4.903884071391318e-16 1.7634540861672728e-20
5.015371051989984 3.878441327734984e-24 5.163328159929859e-16 5.163141509333693e-16 1.866505961659744e-20
5.091171501069577 4.048192479385399e-24 5.470768198212054e-16 5.470570645476665e-16 1.9755273538892202e-20
5.129500256944802 4.135330371062274e-24 5.63060031086883e-16 5.630397148754164e-16 2.031621146669043e-20
5.168117569889187 4.226185446980884e-24 5.797628298464039e-16 5.797419381798817e-16 2.0891666522093534e-20
5.20702561229733 4.337706015150119e-24 5.995415158380896e-16 5.995200040616027e-16 2.1511776486671614e-20
5.246226572918644 4.452082988166078e-24 6.199829226040254e-16 6.199607776649445e-16 2.2144939080837844e-20
5.265937586045735 4.510371229797146e-24 6.304598418894776e-16 6.304373754274169e-16 2.2466462060529645e-20
5.285722656980489 4.569408394033161e-24 6.411118143214889e-16 6.410890230167927e-16 2.279130469637166e-20
5.305582063971359 4.629206616335845e-24 6.519421112774705e-16 6.519189917914709e-16 2.3119485999590943e-20
5.3255160863122235 4.6934540881586e-24 6.634736933478252e-16 6.634502405364412e-16 2.34528113842568e-20
5.365609099470188 4.853487789909785e-24 6.912615555251844e-16 6.912374118973919e-16 2.4143627792468376e-20
5.406003951863644 5.019625816412582e-24 7.203061721009311e-16 7.202813229306044e-16 2.4849170326701634e-20
5.446702915881641 5.192163471158583e-24 7.506741801111624e-16 7.506486104808284e-16 2.5569630333862942e-20
5.487708281020852 5.3786107589771254e-24 7.834847833507785e-16 7.834584759630397e-16 2.6307387738624158e-20
5.529022354014368 5.637781797498711e-24 8.274200527956412e-16 8.273929729436278e-16 2.7079852013454873e-20
5.570647458961463 5.912246945056093e-24 8.742339611216745e-16 8.742060920070346e-16 2.786911464004353e-20
5.612585937458331 6.2031075654293114e-24 9.241484703036218e-16 9.241197948817132e-16 2.867542190838483e-20
5.654840148729818 6.5228493402261224e-24 9.791001418039467e-16 9.79070639932457e-16 2.950187148986913e-20
5.67608639626678 6.740620710521454e-24 1.0155897773611858e-15 1.0155598432333992e-15 2.993412778651763e-20
5.686739436050992 6.852873487091157e-24 1.0344404078134837e-15 1.0344102557502086e-15 3.0152063274426885e-20
5.6974124697621304 6.967442632290543e-24 1.0537085314636533e-15 1.0536781602534416e-15 3.037121021186651e-20
5.718818669136295 7.203753216743415e-24 1.0935397792974102e-15 1.0935089661391586e-15 3.0813158251506756e-20
5.740305295436557 7.464247797570417e-24 1.137340416414144e-15 1.1373091538476128e-15 3.126256653119717e-20
5.7835210386641895 8.14006035156492e-24 1.2496528316681176e-15 1.249620635176168e-15 3.2196491949784875e-20
5.827062130521658 8.918625314901087e-24 1.3794850579244825e-15 1.3794518997200954e-15 3.3158204386959243e-20
5.8489554468988025 9.464820430865638e-24 1.4694679731061335e-15 1.4694342986588173e-15 3.3674447316366466e-20
5.870931020387893 1.0050965284825944e-23 1.5663333097169107e-15 1.5662991125480679e-15 3.4197168842865856e-20
5.892989160043636 1.068027576406231e-23 1.6706579495966885e-15 1.6706232231594995e-15 3.4726437188935645e-20
5.915130176081913 1.139600164423122e-23 1.7893126940875074e-15 1.789277419372459e-15 3.527471504785699e-20
5.95966208400165 1.339722217773568e-23 2.119365344134951e-15 2.119328843598015e-15 3.650053693590036e-20
6.004529249263818 1.6281765018979947e-23 2.595074800000833e-15 2.5950369291528965e-15 3.787084793674977e-20
6.027089341400364 1.8286920232391142e-23 2.9256180902168834e-15 2.925579438871708e-15 3.8651345175134035e-20
6.049734195844842 2.0656522789003065e-23 3.317133445821351e-15 3.3170939687824884e-15 3.947703886271892e-20
6.095279466722835 2.7501414897608603e-23 4.449570516130755e-15 4.449529050689915e-15 4.146544083922139e-20
6.141167624020661 3.8035675469096214e-23 6.20028307789131e-15 6.200239080778648e-15 4.399711266301636e-20
6.164241091010745 4.4762892842282507e-23 7.324318047979671e-15 7.32427248752522e-15 4.556045445065793e-20
6.187401249150058 5.2426307896874875e-23 8.610472568259799e-15 8.61042539105964e-15 4.717720015641396e-20
6.1990139391386085 5.616822828296718e-23 9.242357665974388e-15 9.242309663948693e-15 4.800202569599893e-20
6.204828454712694 5.813934344129998e-23 9.575673622013938e-15 9.575625202160187e-15 4.841985375003607e-20
6.210648424152782 5.957826802980779e-23 9.821871594376656e-15 9.821822811895577e-15 4.878248107809299e-20
6.233982942956859 6.446702970949993e-23 1.0667746906246706e-14 1.0667696829208665e-14 5.007703804367947e-20
6.239830258556775 6.509203280822087e-23 1.0781273006025913e-14 1.0781222727371853e-14 5.0278654060680266e-20
6.245683058788269 6.514633720945341e-23 1.0800388503710895e-14 1.0800338022735373e-14 5.048097552321188e-20
6.257405133728602 6.501228122169648e-23 1.07983925831159e-14 1.0798341734955926e-14 5.084815997278642e-20
6.269149208991335 6.40510964223469e-23 1.0658709058514117e-14 1.0658658013298269e-14 5.104521584718123e-20
6.280915325867298 6.164034705543848e-23 1.0276789169278522e-14 1.0276738138469132e-14 5.103080938589952e-20
6.304513850009849 5.56952168349004e-23 9.320494087358939e-15 9.320443277731682e-15 5.08096272539772e-20
6.32820103803542 4.832601856814363e-23 8.117657378215698e-15 8.117606995561761e-15 5.0382653933114575e-20
6.3519772230701035 4.156796804038126e-23 7.0086949939217334e-15 7.008644973988108e-15 5.0019933625411614e-20
6.375842739491607 3.588264486320859e-23 6.072834931242144e-15 6.0727852077082446e-15 4.972353389821828e-20
6.399797922933955 3.1326132088358543e-23 5.321602958636772e-15 5.321553284945973e-15 4.9673690798848217e-20
6.42384311029221 2.753794564601068e-23 4.695651931595312e-15 4.695602257593029e-15 4.9674002282151976e-20
6.447978639727206 2.4777553794000976e-23 4.2408357357901464e-15 4.2407858654175314e-15 4.987037261518839e-20
6.472204850670314 2.2478158860413428e-23 3.861734604621054e-15 3.861684496776199e-15 5.010784485534935e-20
6.496522083828205 2.098395049239846e-23 3.618575222342916e-15 3.618524715152901e-15 5.050719001528845e-20
