Dust emission spectrum from A.P. Jones, M. Kohler, N. Ysard, M. Bocchio, and L. Verstraete (2017), A&A, 602A, 46J 
inside the DustPedia framework.

lambda    nu*dP/dnu     j_nu    j_nu(carb.) j_nu(sil)
 (um)   (erg s-1 H-1) (Jy cm2 sr-1 H-1)
0.9927057738263894 1.9208622617301323e-24 5.061581162457268e-17 5.061581162456835e-17 4.319012235695221e-30
1.0001793341362166 1.9525968798254544e-24 5.183939219423753e-17 5.183939219423231e-17 5.20381294411111e-30
1.0077091589558085 1.9842862431499197e-24 5.3077316843394855e-17 5.3077316843388594e-17 6.261896108807307e-30
1.0114953028030835 2.000110051489779e-24 5.370159633773252e-17 5.3701596337725664e-17 6.865779272544564e-30
1.0152956718711033 2.0159178751439674e-24 5.432938684104482e-17 5.432938684103728e-17 7.525489535883833e-30
1.0229392996569957 2.0474638826577143e-24 5.559497591136668e-17 5.559497591135763e-17 9.03258726035404e-30
1.0267826658714554 2.0631638086392805e-24 5.623175942753319e-17 5.623175942752329e-17 9.891378046569589e-30
1.0306404723013447 2.0788408084389257e-24 5.687191595921897e-17 5.687191595920815e-17 1.0828339648588579e-29
1.03451277320114 2.0944933691744487e-24 5.751541796266777e-17 5.751541796265592e-17 1.1850243400400164e-29
1.0383996230291617 2.110119986354074e-24 5.816223754977232e-17 5.816223754975937e-17 1.296441503435716e-29
1.0403485208654093 2.1179230983221245e-24 5.848688262962673e-17 5.848688262961317e-17 1.3558552602615862e-29
1.0423010764483396 2.1257191641649353e-24 5.881234649467123e-17 5.881234649465706e-17 1.4178777234476055e-29
1.0462171883269815 2.1412894157552035e-24 5.946571624035419e-17 5.946571624033869e-17 1.5501895219795716e-29
1.0471985131304309 2.1451772855659547e-24 5.962956479937741e-17 5.962956479936156e-17 1.5850736639205857e-29
1.048180758391296 2.1490632320946893e-24 5.979361490050224e-17 5.979361490048604e-17 1.6207101898523175e-29
1.0501480137395462 2.1568292635098103e-24 6.012231790527257e-17 6.012231790525561e-17 1.6943025555091313e-29
1.0521189612883777 2.1645873267861227e-24 6.045182159484772e-17 6.045182159483e-17 1.7710939853957884e-29
1.0531058218030118 2.1684573568087516e-24 6.061670604106035e-17 6.061670604104225e-17 1.8107330543104177e-29
1.0540936079674168 2.172305811066754e-24 6.078124292560553e-17 6.0781242925587e-17 1.8512305451163805e-29
1.058054026499678 2.1876777627833234e-24 6.144133304079308e-17 6.144133304077285e-17 2.0220760614189416e-29
1.0590464539527713 2.1915151719584233e-24 6.160683886357301e-17 6.160683886355234e-17 2.0670924625695174e-29
1.06003981227728 2.195350304805137e-24 6.177253705984716e-17 6.177253705982606e-17 2.1130685625062874e-29
1.0620293250338977 2.2030136521909737e-24 6.210450867565408e-17 6.210450867563199e-17 2.2079781573476745e-29
1.0660195594769086 2.2183120508233884e-24 6.277073945739264e-17 6.277073945736853e-17 2.4101963436968198e-29
1.070024785945596 2.2335715410092182e-24 6.343999472994602e-17 6.343999472991972e-17 2.6300894361707913e-29
1.0740450607676866 2.248790716105206e-24 6.41122435606213e-17 6.411224356059261e-17 2.8691228710805916e-29
1.07808044048254 2.2639681807229176e-24 6.478745474672019e-17 6.47874547466889e-17 3.1288765188888603e-29
1.0861967418109137 2.2941656326236444e-24 6.614586472833034e-17 6.614586472829317e-17 3.717487232970478e-29
1.0902777775684922 2.3091218938137393e-24 6.682722883082962e-17 6.68272288307891e-17 4.050155457872798e-29
1.0943741465085532 2.3240299133582086e-24 6.751137782146718e-17 6.751137782142306e-17 4.411183476486133e-29
1.1026131145906286 2.353695927431622e-24 6.888789950288969e-17 6.888789950283742e-17 5.227648328031934e-29
1.1109141095355224 2.383153202754089e-24 7.027516564294058e-17 7.027516564287872e-17 6.187351221375721e-29
1.1192775983109025 2.4123641259433088e-24 7.167209615615928e-17 7.167209615608615e-17 7.313951635651874e-29
1.1277040513999907 2.4411930149618007e-24 7.307464132432074e-17 7.307464132423439e-17 8.634759777046756e-29
1.1361939428280308 2.4697791215230858e-24 7.448692015813649e-17 7.448692015803468e-17 1.0181253030207892e-28
1.1447477501889525 2.4981129108976418e-24 7.590865487277131e-17 7.590865487265142e-17 1.1989668209970073e-28
1.1533659546722406 2.5262005112821616e-24 7.734003769473991e-17 7.734003769459888e-17 1.4101685228981953e-28
1.1707974979042381 2.581727850254234e-24 8.023459751810168e-17 8.023459751790732e-17 1.9435128665985688e-28
1.1884924949847024 2.6361507968246376e-24 8.316414489942435e-17 8.31641448991578e-17 2.6654059908132763e-28
1.2064549276569216 2.6898948926313796e-24 8.614217736485996e-17 8.614217736449617e-17 3.6377116484278373e-28
1.2246888378427687 2.742373146693186e-24 8.915008062646143e-17 8.915008062596737e-17 4.940786061150083e-28
1.2431983285522175 2.793462753902043e-24 9.218340288606228e-17 9.21834028853944e-17 6.678652385467533e-28
1.2619875648066055 2.843144566073573e-24 9.524089140483837e-17 9.524089140393985e-17 8.98528238621104e-28
1.3004222497298317 2.937458831944311e-24 1.0139711847513481e-16 1.0139711847353102e-16 1.6038168251717272e-27
1.3400274889804893 3.0249465163205446e-24 1.0759716804622453e-16 1.0759716804341351e-16 2.8110193719743517e-27
1.3808389325824078 3.1052828232555022e-24 1.1381869910146572e-16 1.1381869909662556e-16 4.840143716558252e-27
1.4228933163050095 3.1788582387102464e-24 1.2006403466125434e-16 1.2006403465306308e-16 8.191253468203044e-27
1.466228494730424 3.247442730108691e-24 1.2638996374189315e-16 1.2638996372826129e-16 1.3631892853986782e-26
1.5108834753276823 3.3097027265684345e-24 1.3273620356878086e-16 1.3273620354646226e-16 2.2318595342698103e-26
1.5568984535646726 3.364559061609456e-24 1.390458004775963e-16 1.3904580044161043e-16 3.59858723938144e-26
1.6043148490894465 3.412111429383456e-24 1.453055630858648e-16 1.4530556302861924e-16 5.72455657703001e-26
1.6531753430134553 3.452503880013067e-24 1.515034517304665e-16 1.515034516407221e-16 8.974432950591743e-26
1.7035239163302658 3.486215746238254e-24 1.5764199717914882e-16 1.5764199704046211e-16 1.3868672736028753e-25
1.755405889504358 3.5160189618898e-24 1.6383179618851324e-16 1.6383179597714222e-16 2.113710070314235e-25
1.8088679632656115 3.541228551685427e-24 1.700318410505416e-16 1.70031840732711e-16 3.17830561409127e-25
1.8639582606462262 3.5613804169005544e-24 1.7620733480102916e-16 1.7620733432933412e-16 4.716950053807532e-25
1.9207263702978936 3.576810373267125e-24 1.8236053112796218e-16 1.8236053043675195e-16 6.912102698981944e-25
1.979223391128241 3.588300668237782e-24 1.8851810866284344e-16 1.8851810766235029e-16 1.0004931267791457e-24
2.039501978296691 3.596787585071503e-24 1.9471901073898337e-16 1.9471900930800485e-16 1.4309785054037374e-24
2.1016163906111602 3.604894338607323e-24 2.0110155083677178e-16 2.0110154881351042e-16 2.0232613277195778e-24
2.1656225393682647 3.614141876099855e-24 2.0775782642590015e-16 2.0775782359694286e-16 2.828957323203159e-24
2.231578038680979 3.624638821696686e-24 2.1470702259985873e-16 2.1470701868696396e-16 3.912894719573684e-24
2.299542257339062 3.637295765758621e-24 2.2201864349445704e-16 2.2201863813886505e-16 5.355591996635802e-24
2.369576372248914 3.654126589173239e-24 2.2983900465418964e-16 2.2983899739809267e-16 7.256096937435477e-24
2.4417434235010123 3.677509389279038e-24 2.3835444203102407e-16 2.3835443229627535e-16 9.734748757626851e-24
2.5161083711144245 3.71151706022959e-24 2.4788499388237627e-16 2.478849809457007e-16 1.293667558514534e-23
2.5927381535095444 3.762814853239651e-24 2.5896492227925973e-16 2.5896490524416564e-16 1.7035094099880567e-23
2.6717017477616296 3.839360532096679e-24 2.722803522135637e-16 2.7228032997977484e-16 2.223378891397075e-23
2.753070231689431 3.953135423369581e-24 2.888872773711687e-16 2.8888724860058185e-16 2.8770586859572294e-23
2.836916847834745 4.131284552272942e-24 3.1110081484674165e-16 3.1110077792480527e-16 3.6921936367624535e-23
2.9233170693905177 4.433592983973663e-24 3.440338508914671e-16 3.4403380389237534e-16 4.6999091693322923e-23
2.967498994190263 4.690331523889447e-24 3.694567063548292e-16 3.694566535641815e-16 5.2790647720909593e-23
3.0123486681368425 4.990173882782389e-24 3.9901603647024266e-16 3.990159772505651e-16 5.921967737175842e-23
3.0578761833420214 5.66109741521174e-24 4.595046997541842e-16 4.595046333899077e-16 6.636427639198087e-23
3.1040917844459814 6.525659208498228e-24 5.37685564802556e-16 5.376854905629573e-16 7.423959875934794e-23
3.127460860933648 7.440260161459231e-24 6.176599444920666e-16 6.176598659951878e-16 7.849687889354142e-23
3.1510058709225794 8.658841855471185e-24 7.2423323919084e-16 7.242331562261518e-16 8.296468790131453e-23
3.162844764501044 9.79315943527566e-24 8.221861087620914e-16 8.221860234729521e-16 8.528913914522769e-23
3.1747281389236908 1.1112277967138419e-23 9.36438090835927e-16 9.364380031667861e-16 8.766914093241606e-23
3.1986289994194426 1.479168193815421e-23 1.255887862136956e-15 1.2558877695243782e-15 9.261257770186624e-23
3.2227097969389145 2.3464952133114115e-23 2.0072908502958384e-15 2.007290752405924e-15 9.788991422561429e-23
3.2348180950136065 3.1689933319982757e-23 2.7210756891655686e-15 2.7210755884454325e-15 1.007201353817302e-22
3.240889293275058 3.7839176587473383e-23 3.255182232133573e-15 3.2551821299172574e-15 1.0221631524253777e-22
3.2469718861334385 4.495290293384975e-23 3.874411132065887e-15 3.874411028299078e-15 1.0376680727139942e-22
3.2714166318528037 8.289877211688928e-23 7.1986886155071e-15 7.198688505296858e-15 1.102102436324429e-22
3.2744851364798273 8.527088706976977e-23 7.411621584647053e-15 7.411621473672092e-15 1.1097496212179073e-22
3.2775565192852394 8.771113583812067e-23 7.630875318699777e-15 7.630875206955467e-15 1.1174430872289889e-22
3.283707930232385 8.536437400400877e-23 7.440645519085152e-15 7.440645405959151e-15 1.1312600075005465e-22
3.2898708863219004 7.792207798072922e-23 6.804697328305645e-15 6.804697213916582e-15 1.1438906527089825e-22
3.29141343181113 7.616699910530722e-23 6.6545503496201784e-15 6.654550234913601e-15 1.1470657700545347e-22
3.292184975758714 7.530461554967617e-23 6.5807479530868094e-15 6.580747838221211e-15 1.1486559543464547e-22
3.295272960557952 6.986116391727469e-23 6.110779945852785e-15 6.1107798303679716e-15 1.1548481279633207e-22
3.3076538914384823 5.1003383621357006e-23 4.478045282884582e-15 4.478045164906887e-15 1.1797769606800163e-22
3.310756385682612 4.716534549797033e-23 4.144953650144157e-15 4.144953531536689e-15 1.1860746791164746e-22
3.313861789986515 4.362415839317069e-23 3.837345349012319e-15 3.837345229772445e-15 1.1923987444839404e-22
3.3200813396944477 3.865803479531295e-23 3.4068885716625905e-15 3.406888451063305e-15 1.2059928555600392e-22
3.345076488085796 2.979890791282994e-23 2.6459146680787703e-15 2.6459145414071366e-15 1.2667163345693115e-22
3.3482140837626964 3.0131103809904865e-23 2.67792058485033e-15 2.677920457353488e-15 1.2749684182811812e-22
3.3513546224236106 3.046697249015787e-23 2.7103109422731625e-15 2.7103108139465456e-15 1.2832661683224907e-22
3.3576445397418455 3.292161896243987e-23 2.934170418434219e-15 2.9341702883707794e-15 1.3006343896505351e-22
3.3702598118196083 4.19754271624819e-23 3.755155616486636e-15 3.755155482769762e-15 1.3371687357690751e-22
3.382922481734668 4.4037491352355974e-23 3.9544314383981355e-15 3.954431301114887e-15 1.372832479901194e-22
3.389271646505754 4.5105783830311315e-23 4.0579626530373485e-15 4.057962513940552e-15 1.3909679697695303e-22
3.395632727569191 4.625691979974332e-23 4.169335599920891e-15 4.1693354589533915e-15 1.4096749940317838e-22
3.421196662673239 5.1784239366921153e-23 4.7026761736591944e-15 4.7026760249108564e-15 1.4874833811211917e-22
3.4276182099114902 5.0670320547488455e-23 4.610154988981212e-15 4.610154838475113e-15 1.505060989620504e-22
3.4340518103208963 4.57892185396462e-23 4.173875666504007e-15 4.173875514326592e-15 1.5217741445344202e-22
3.4469541582030403 3.8837628029605744e-23 3.55351079134696e-15 3.553510635941306e-15 1.554056528541947e-22
3.472904465399547 3.6889334638784605e-23 3.4006590501152677e-15 3.400658887260942e-15 1.6285432657326753e-22
3.4990501388274233 3.3909533030989195e-23 3.1494985144511385e-15 3.1494983439055205e-15 1.705456181785547e-22
3.5253949054701885 2.330520711456277e-23 2.180871979152389e-15 2.180871801054822e-15 1.7809756735898293e-22
3.5519380250092896 1.3338369166774868e-23 1.2575855709547724e-15 1.2575853851863874e-15 1.8576838463908054e-22
3.578680990867387 9.386354932091828e-24 8.916396894198972e-16 8.916394951891457e-16 1.9423075153665595e-22
3.605625307711299 7.787729843040328e-24 7.453511121433603e-16 7.453509089221047e-16 2.0322125554755e-22
3.660119384959845 6.621241993660308e-24 6.432860671819949e-16 6.432858447828815e-16 2.2239911310277876e-22
3.715437065384467 5.7950163218367656e-24 5.715233860214748e-16 5.715231429890011e-16 2.4303247375437816e-22
3.8285932144167436 5.374876962227537e-24 5.462320585995912e-16 5.462317696966457e-16 2.889029455470673e-22
3.94519561050918 5.293297749821972e-24 5.543247862329219e-16 5.543244448954943e-16 3.413374277537656e-22
4.06534921144712 5.350798360872114e-24 5.774120934707156e-16 5.774116924309988e-16 4.010397166866337e-22
4.189162171576248 5.488900444947094e-24 6.103542318171789e-16 6.103537628392924e-16 4.689778864027867e-22
4.316745939156006 5.6858284122209955e-24 6.51507877973921e-16 6.515073319966845e-16 5.459772363948572e-22
4.448215356677963 5.934289466400517e-24 7.006868465893635e-16 7.006862142434671e-16 6.323458964697284e-22
4.58368876423945 6.235194636692999e-24 7.586379587146231e-16 7.586372292104369e-16 7.295041862491985e-22
4.723288106065518 6.595523726500682e-24 8.26919354707432e-16 8.269185152012138e-16 8.39506217994348e-22
4.867139040275056 7.029223055528263e-24 9.081352026596302e-16 9.081342404729993e-16 9.62186631067166e-22
4.940699165968905 7.291059997506848e-24 9.561995082821178e-16 9.561984790987048e-16 1.0291834131007855e-21
5.015371051989984 7.56229031943068e-24 1.0067597588922319e-15 1.0067586587234429e-15 1.100168789075432e-21
5.091171501069577 7.893421029227741e-24 1.0667248892363312e-15 1.0667237127279938e-15 1.1765083373566315e-21
5.129500256944802 8.063402333757516e-24 1.0979000856817351e-15 1.0978988693115494e-15 1.2163701859437786e-21
5.168117569889187 8.24064140280955e-24 1.1304798711223982e-15 1.1304786135040803e-15 1.2576183173045606e-21
5.20702561229733 8.458235894490446e-24 1.1690657577501688e-15 1.1690644557830773e-15 1.3019670916964793e-21
5.246226572918644 8.68140772057802e-24 1.2089452387180733e-15 1.2089438910200642e-15 1.347698009245882e-21
5.265937586045735 8.79514100747961e-24 1.2293851052301606e-15 1.2293837341350781e-15 1.3710950819882559e-21
5.285722656980489 8.91033664778085e-24 1.250166674078329e-15 1.2501652792244697e-15 1.3948538595063338e-21
5.305582063971359 9.027018346765679e-24 1.2712963337525654e-15 1.2712949147726253e-15 1.4189799399523367e-21
5.3255160863122235 9.152388500410967e-24 1.2937953343662563e-15 1.2937938907744298e-15 1.443591826252669e-21
5.365609099470188 9.464718704708621e-24 1.3480194980663176e-15 1.348018003215077e-15 1.494851240896594e-21
5.406003951863644 9.788970354708145e-24 1.4046974860067466e-15 1.4046959382495542e-15 1.5477571928865609e-21
5.446702915881641 1.0125720295811331e-23 1.4639594502977022e-15 1.46395784793425e-15 1.6023634522702243e-21
5.487708281020852 1.0489634184131431e-23 1.5279909877222785e-15 1.5279893288346327e-15 1.6588876460038787e-21
5.529022354014368 1.0995565805505237e-23 1.613746676635399e-15 1.613744957955093e-15 1.718680306155803e-21
5.570647458961463 1.1531369161398289e-23 1.7051240641352988e-15 1.7051222836558993e-15 1.7804793995579302e-21
5.612585937458331 1.2099195647169765e-23 1.8025567074722037e-15 1.8025548631169705e-15 1.8443552329977908e-21
5.654840148729818 1.2723427954087541e-23 1.909826436930636e-15 1.909824526309708e-15 1.910620928448306e-21
5.67608639626678 1.3148615816980611e-23 1.981063819438977e-15 1.9810618737946607e-15 1.945644316229836e-21
5.686739436050992 1.3367786451418418e-23 2.0178657163914e-15 2.017863753004534e-15 1.9633868665727793e-21
5.6974124697621304 1.3591481496885272e-23 2.055483017847285e-15 2.0554810365620367e-15 1.9812852481852568e-21
5.718818669136295 1.4052880792979985e-23 2.1332468920687497e-15 2.1332448745133717e-15 2.0175553777560687e-21
5.740305295436557 1.4561510527803688e-23 2.218762679971833e-15 2.2187606252382554e-15 2.05473357768801e-21
5.7835210386641895 1.5881126283096647e-23 2.4380524925635634e-15 2.4380503593293927e-15 2.1332341710454143e-21
5.827062130521658 1.7401430424600046e-23 2.6915597874866524e-15 2.6915575721468963e-15 2.2153397563584452e-21
5.8489554468988025 1.846801439470239e-23 2.867265774148047e-15 2.8672635138325878e-15 2.2603154588328543e-21
5.870931020387893 1.9612630378961108e-23 3.0564145217087546e-15 3.05641221546197e-15 2.3062467847533017e-21
5.892989160043636 2.0841560178773306e-23 3.2601328808219586e-15 3.2601305276647377e-15 2.353157221067611e-21
5.915130176081913 2.223926225580903e-23 3.4918382344744493e-15 3.4918358322522806e-15 2.402222168283228e-21
5.95966208400165 2.614739870988917e-23 4.1363716992849105e-15 4.136369185260918e-15 2.5140239921003644e-21
6.004529249263818 3.178067340263769e-23 5.065373721958354e-15 5.065371078531728e-15 2.6434266246839956e-21
6.027089341400364 3.569661330280482e-23 5.710893704954212e-15 5.7108909854048046e-15 2.7195494103215796e-21
6.049734195844842 4.0324352269638083e-23 6.475497302281157e-15 6.475494500665572e-15 2.801615582943869e-21
6.095279466722835 5.369224266195115e-23 8.68709558337415e-15 8.687092576542603e-15 3.0068315474434397e-21
6.141167624020661 7.426560737407409e-23 1.2106207737651965e-14 1.2106204457014917e-14 3.280637046208212e-21
6.164241091010745 8.740382331153514e-23 1.430143049062287e-14 1.4301427037048942e-14 3.4535739247545234e-21
6.187401249150058 1.0237060675111455e-22 1.6813301118981273e-14 1.6813297481232882e-14 3.637748383802757e-21
6.1990139391386085 1.0967863959847662e-22 1.8047377431593654e-14 1.8047373699435077e-14 3.732158574054103e-21
6.204828454712694 1.1352827651603942e-22 1.86983488020455e-14 1.86983450214778e-14 3.780567694864606e-21
6.210648424152782 1.163385197386208e-22 1.91791745570868e-14 1.9179170735115636e-14 3.821971162824696e-21
6.233982942956859 1.2588637462025597e-22 2.0831175089736684e-14 2.0831171119518585e-14 3.9702181013747365e-21
6.239830258556775 1.2710702579422872e-22 2.1052892142868897e-14 2.105288815013848e-14 3.992730419073666e-21
6.245683058788269 1.2721308696503933e-22 2.1090222732881606e-14 2.1090218717503624e-14 4.0153779757346076e-21
6.257405133728602 1.2695127850883138e-22 2.1086319669234224e-14 2.1086315613051362e-14 4.056182861195831e-21
6.269149208991335 1.250740622570636e-22 2.0813508508488312e-14 2.0813504432432854e-14 4.076055457637978e-21
6.280915325867298 1.2036580533169993e-22 2.006760285550929e-14 2.0067598785636828e-14 4.0698724558772925e-21
6.304513850009849 1.0875480720594664e-22 1.8199920839516374e-14 1.819991680600365e-14 4.033512727906944e-21
6.32820103803542 9.436250464624637e-23 1.5850726063608756e-14 1.5850722094311886e-14 3.969296865278888e-21
6.3519772230701035 8.116376893597334e-23 1.3684866685731776e-14 1.3684862774316308e-14 3.911415468153572e-21
6.375842739491607 7.006016060893159e-23 1.1857091144097731e-14 1.1857087281469197e-14 3.862628534908298e-21
6.399797922933955 6.116104435178101e-23 1.0389881318820911e-14 1.0389877477829459e-14 3.8409914500224695e-21
6.42384311029221 5.376254814742243e-23 9.167358244550154e-15 9.167354418269629e-15 3.8262805265677975e-21
6.447978639727206 4.837131307479715e-23 8.27905752037391e-15 8.279053685492003e-15 3.834881908304863e-21
6.472204850670314 4.3880447561301563e-23 7.538635342246224e-15 7.538631493350646e-15 3.848895576404484e-21
6.496522083828205 4.096210015181639e-23 7.063705221673434e-15 7.063701338923542e-15 3.882749893235906e-21
