Dust emission spectrum from A.P. Jones, M. Kohler, N. Ysard, M. Bocchio, and L. Verstraete (2017), A&A, 602A, 46J 
inside the DustPedia framework.

lambda    nu*dP/dnu     j_nu    j_nu(carb.) j_nu(sil)
 (um)   (erg s-1 H-1) (Jy cm2 sr-1 H-1)
0.9927057738263894 5.917372768987868e-22 1.55926133463465e-14 1.5592613346343504e-14 2.993640561758129e-27
1.0001793341362166 6.015133847873513e-22 1.5969547317346032e-14 1.5969547317342425e-14 3.6069232165037854e-27
1.0077091589558085 6.112755515816332e-22 1.635090009917887e-14 1.635090009917453e-14 4.3403132850406174e-27
1.0114953028030835 6.161502047842798e-22 1.654321448766826e-14 1.65432144876635e-14 4.758883327187227e-27
1.0152956718711033 6.210199337759861e-22 1.6736610471151288e-14 1.6736610471146076e-14 5.216148853554202e-27
1.0229392996569957 6.307379386584522e-22 1.712648550390272e-14 1.7126485503896456e-14 6.260764759297555e-27
1.0267826658714554 6.355744288980927e-22 1.7322651858487483e-14 1.732265185848063e-14 6.856019134923371e-27
1.0306404723013447 6.404038565424074e-22 1.7519857298062814e-14 1.7519857298055308e-14 7.5054561134603e-27
1.03451277320114 6.452257555357322e-22 1.7718093337551564e-14 1.771809333754335e-14 8.21376911529729e-27
1.0383996230291617 6.5003966240714365e-22 1.7917351385796516e-14 1.7917351385787533e-14 8.986035831424597e-27
1.0403485208654093 6.52443474691143e-22 1.801736094995971e-14 1.801736094995031e-14 9.397850900829526e-27
1.0423010764483396 6.548451163593273e-22 1.8117622747592557e-14 1.8117622747582728e-14 9.827747718438176e-27
1.0462171883269815 6.596416593554898e-22 1.831889862572147e-14 1.831889862571073e-14 1.0744841593771234e-26
1.0471985131304309 6.608393493612012e-22 1.8369373510458334e-14 1.8369373510447343e-14 1.0986634338449435e-26
1.048180758391296 6.620364468843387e-22 1.841991048188702e-14 1.841991048187578e-14 1.1233642088572658e-26
1.0501480137395462 6.64428836204297e-22 1.852117012298842e-14 1.8521170122976672e-14 1.1743733467905163e-26
1.0521189612883777 6.668187708746654e-22 1.862267642158928e-14 1.8622676421577007e-14 1.227599854787917e-26
1.0531058218030118 6.680109651890101e-22 1.8673470419846716e-14 1.8673470419834163e-14 1.2550749157642285e-26
1.0540936079674168 6.691965129133285e-22 1.872415734890433e-14 1.8724157348891492e-14 1.283144975423747e-26
1.058054026499678 6.739319680232767e-22 1.892750349186431e-14 1.8927503491850296e-14 1.401563270970791e-26
1.0590464539527713 6.751141132204408e-22 1.8978488910267402e-14 1.8978488910253077e-14 1.4327655267354242e-26
1.06003981227728 6.762955571762256e-22 1.90295335908984e-14 1.902953359088375e-14 1.4646329793220694e-26
1.0620293250338977 6.786563138471546e-22 1.9131800154388858e-14 1.9131800154373554e-14 1.5304177461419007e-26
1.0660195594769086 6.833691103343045e-22 1.933703797989238e-14 1.9337037979875675e-14 1.6705814067068767e-26
1.070024785945596 6.880699207595464e-22 1.9543207524526674e-14 1.9543207524508442e-14 1.8229960897309336e-26
1.0740450607676866 6.927583117949949e-22 1.975029925922537e-14 1.975029925920549e-14 1.9886775343094683e-26
1.07808044048254 6.97433853579905e-22 1.9958303571744795e-14 1.9958303571723108e-14 2.1687207973770712e-26
1.0861967418109137 7.067364249801401e-22 2.037677284523642e-14 2.037677284521065e-14 2.576705033725619e-26
1.0902777775684922 7.113438232531508e-22 2.0586672614074658e-14 2.058667261404658e-14 2.807287638573312e-26
1.0943741465085532 7.1593636029643155e-22 2.079743029049757e-14 2.0797430290466994e-14 3.057527290945602e-26
1.1026131145906286 7.2507521796153325e-22 2.122147902149566e-14 2.1221479021459426e-14 3.6234442560879586e-26
1.1109141095355224 7.341497719631531e-22 2.164883767095411e-14 2.1648837670911223e-14 4.288643924893282e-26
1.1192775983109025 7.431484351926094e-22 2.207917350976049e-14 2.2079173509709792e-14 5.069525411914059e-26
1.1277040513999907 7.520294096925605e-22 2.251123898922201e-14 2.2511238989162154e-14 5.985018263196432e-26
1.1361939428280308 7.608355930888768e-22 2.294630300418541e-14 2.2946303004114846e-14 7.056940424677234e-26
1.1447477501889525 7.695640481308079e-22 2.338427998078901e-14 2.3384279980705898e-14 8.310408750118024e-26
1.1533659546722406 7.782166626597009e-22 2.382522913599925e-14 2.38252291359015e-14 9.774312872218693e-26
1.1707974979042381 7.953223126479982e-22 2.471692190414031e-14 2.4716921904005608e-14 1.347108698063633e-25
1.1884924949847024 8.120877456089165e-22 2.561939287699992e-14 2.561939287681517e-14 1.8474750827760356e-25
1.2064549276569216 8.286440531174115e-22 2.6536800077771113e-14 2.653680007751896e-14 2.5214101161166686e-25
1.2246888378427687 8.448104078217725e-22 2.746340922357746e-14 2.7463409223235e-14 3.4246111732182235e-25
1.2431983285522175 8.605489786127068e-22 2.8397848901989094e-14 2.839784890152617e-14 4.629179911503536e-25
1.2619875648066055 8.758538667427448e-22 2.9339733196948846e-14 2.933973319632605e-14 6.227976292334447e-25
1.3004222497298317 9.04908147223094e-22 3.123620920752169e-14 3.123620920641004e-14 1.111654896872822e-24
1.3400274889804893 9.318594440341469e-22 3.314618511574987e-14 3.314618511380146e-14 1.948404207397599e-24
1.3808389325824078 9.566077012355244e-22 3.506277859448693e-14 3.5062778591132076e-14 3.354852860771106e-24
1.4228933163050095 9.792732113446019e-22 3.6986705276111915e-14 3.698670527043431e-14 5.677610364562301e-24
1.466228494730424 1.0004012274392562e-21 3.893545948973858e-14 3.8935459480289896e-14 9.448685290577021e-24
1.5108834753276823 1.0195809323765683e-21 4.0890470648130354e-14 4.0890470632660647e-14 1.546970664893526e-23
1.5568984535646726 1.0364798804402502e-21 4.2834193728136874e-14 4.283419370319397e-14 2.494291781765097e-23
1.6043148490894465 1.0511287836497898e-21 4.476256504072933e-14 4.4762565001050664e-14 3.967866686146993e-23
1.6531753430134553 1.0635720183794178e-21 4.667187570193579e-14 4.6671875639731233e-14 6.220456213953175e-23
1.7035239163302658 1.0739572477315347e-21 4.856290537959457e-14 4.8562905283466524e-14 9.612804728172237e-23
1.755405889504358 1.0831383895332956e-21 5.0469724367639844e-14 5.0469724221132086e-14 1.465077628165313e-22
1.8088679632656115 1.0909044329123908e-21 5.237969999140798e-14 5.237969977110981e-14 2.2029816274590033e-22
1.8639582606462262 1.0971124103349543e-21 5.4282112880965365e-14 5.4282112554019016e-14 3.269463534314905e-22
1.9207263702978936 1.1018657752365877e-21 5.617765747540274e-14 5.6177656996303586e-14 4.790991522481621e-22
1.979223391128241 1.1054055092520861e-21 5.807455260209023e-14 5.80745519086176e-14 6.934726374082967e-22
2.039501978296691 1.1080200480494437e-21 5.998479546877644e-14 5.998479447692112e-14 9.918553277937388e-22
2.1016163906111602 1.1105175037458054e-21 6.195099530183173e-14 6.19509938994469e-14 1.4023848155926714e-21
2.1656225393682647 1.1133664315509895e-21 6.400152450135953e-14 6.400152254052199e-14 1.9608375545295162e-21
2.231578038680979 1.1166003182003761e-21 6.614229487357168e-14 6.614229216142367e-14 2.7121479882817323e-21
2.299542257339062 1.1204997177274454e-21 6.839472052498424e-14 6.839471681285829e-14 3.712125958072308e-21
2.369576372248914 1.1256850860313602e-21 7.080387978185822e-14 7.08038747524337e-14 5.0294245365709694e-21
2.4417434235010123 1.1328891171345111e-21 7.342718258852742e-14 7.342717584107286e-14 6.747454544931457e-21
2.5161083711144245 1.14336666076842e-21 7.636323182961756e-14 7.636322286280879e-14 8.966808763801349e-21
2.5927381535095444 1.1591712546069462e-21 7.977663147555382e-14 7.977661966800479e-14 1.1807549015327157e-20
2.6717017477616296 1.1827547417579414e-21 8.387878006659823e-14 8.387876465567356e-14 1.541092469809062e-20
2.753070231689431 1.2178086573232225e-21 8.89950355086162e-14 8.899501556683525e-14 1.9941780923095042e-20
2.836916847834745 1.2726961287723026e-21 9.58386665705516e-14 9.5838640978819e-14 2.5591732622397047e-20
2.9233170693905177 1.3658357270602312e-21 1.0598485845774006e-13 1.0598482588122036e-13 3.2576519718118646e-20
2.967498994190263 1.4449336336887115e-21 1.1381720428181177e-13 1.1381716769098599e-13 3.6590825789443624e-20
3.0123486681368425 1.537311742425717e-21 1.229239807451058e-13 1.2292393969812133e-13 4.1046984486208413e-20
3.0578761833420214 1.7440065354133145e-21 1.4155898417700278e-13 1.415589381778764e-13 4.5999126378205746e-20
3.1040917844459814 2.0103556892416763e-21 1.6564445057386055e-13 1.6564439911610542e-13 5.1457755154717203e-20
3.127460860933648 2.292114024438805e-21 1.902819243388788e-13 1.9028186993027151e-13 5.440860729335143e-20
3.1510058709225794 2.6675169525558026e-21 2.231134920110906e-13 2.2311343450570712e-13 5.750538348613872e-20
3.162844764501044 3.016957571117483e-21 2.5328910675777153e-13 2.532890476412392e-13 5.911653232014695e-20
3.1747281389236908 3.42332787326976e-21 2.884858196879388e-13 2.884857589217538e-13 6.07661849486575e-20
3.1986289994194426 4.556809262755062e-21 3.8689592347207136e-13 3.868958592794381e-13 6.419263340953586e-20
3.2227097969389145 7.228693409659493e-21 6.183728847384462e-13 6.18372816887928e-13 6.785051808626145e-20
3.2348180950136065 9.762473009019463e-21 8.382607720486159e-13 8.382607022363844e-13 6.981223164235439e-20
3.240889293275058 1.1656801402043785e-20 1.0027970011378184e-12 1.0027969302885382e-12 7.084928004012955e-20
3.2469718861334385 1.3848246892570013e-20 1.193555886682649e-12 1.193555814758675e-12 7.192397387635476e-20
3.2714166318528037 2.5537798948968035e-20 2.2176282936956954e-12 2.217628217305577e-12 7.639011830820123e-20
3.2744851364798273 2.626855041997546e-20 2.283224227874861e-12 2.2832241509546933e-12 7.692016827405172e-20
3.2775565192852394 2.7020291095387446e-20 2.3507673279298997e-12 2.3507672504764743e-12 7.74534261268759e-20
3.283707930232385 2.629735573289276e-20 2.292165840618101e-12 2.292165762206982e-12 7.841111947679655e-20
3.2898708863219004 2.4004699114361745e-20 2.0962571348607354e-12 2.096257055574147e-12 7.928658844409069e-20
3.29141343181113 2.3464033604687187e-20 2.0500032148002917e-12 2.050003135293626e-12 7.950666561811281e-20
3.292184975758714 2.3198369744390895e-20 2.027267825431556e-12 2.027267745814669e-12 7.961688619488312e-20
3.295272960557952 2.1521471730764487e-20 1.882490506647196e-12 1.8824904266011113e-12 8.004608484247421e-20
3.3076538914384823 1.5712185449256684e-20 1.3795139251386726e-12 1.3795138433646932e-12 8.177397910869571e-20
3.310756385682612 1.4529848224268635e-20 1.2769024968939232e-12 1.27690241468343e-12 8.221049339319113e-20
3.313861789986515 1.3438958391511593e-20 1.1821414183960578e-12 1.1821413357472239e-12 8.264883386471813e-20
3.3200813396944477 1.1909107362176528e-20 1.0495360663243352e-12 1.0495359827332517e-12 8.359108362224639e-20
3.345076488085796 9.179999244605236e-21 8.151135848772221e-13 8.151134970772068e-13 8.78000151994908e-20
3.3482140837626964 9.282337480316012e-21 8.24973514773619e-13 8.249734264016262e-13 8.837199256771192e-20
3.3513546224236106 9.385807177405558e-21 8.349518779132379e-13 8.349517889661026e-13 8.89471352100433e-20
3.3576445397418455 1.0141986622325251e-20 9.039141472760944e-13 9.039140571251142e-13 9.015098018699226e-20
3.3702598118196083 1.2931098143873544e-20 1.1568264840842066e-12 1.1568263914009185e-12 9.268328837389341e-20
3.382922481734668 1.356634567574155e-20 1.2182161652915975e-12 1.218216070136345e-12 9.515525245252462e-20
3.389271646505754 1.3895448021489967e-20 1.2501103922848917e-12 1.2501102958726127e-12 9.641227917795289e-20
3.395632727569191 1.4250071251632846e-20 1.2844203554420793e-12 1.2844202577331587e-12 9.770892071460878e-20
3.421196662673239 1.5952834982131494e-20 1.4487229684155355e-12 1.4487228653134757e-12 1.0310205995396394e-19
3.4276182099114902 1.560968967284572e-20 1.4202216987017887e-12 1.420221594381371e-12 1.0432041820142038e-19
3.4340518103208963 1.4106031970749018e-20 1.285822852439792e-12 1.2858227469609332e-12 1.054788585052412e-19
3.4469541582030403 1.1964549734928591e-20 1.094715582637186e-12 1.094715474920736e-12 1.0771645008686425e-19
3.472904465399547 1.1364391018132841e-20 1.047631233885963e-12 1.0476311210066076e-12 1.1287935552909175e-19
3.4990501388274233 1.0446470068062224e-20 9.702623132719815e-13 9.702621950615546e-13 1.182104269096273e-19
3.5253949054701885 7.179752713787306e-21 6.718722315476759e-13 6.718721081027604e-13 1.234449157587256e-19
3.5519380250092896 4.109420745670106e-21 3.8744978266233603e-13 3.874496539005401e-13 1.287617957531253e-19
3.578680990867387 2.8920097535890136e-21 2.7472119871294397e-13 2.747210640856209e-13 1.3462732319564785e-19
3.605625307711299 2.3995839641960734e-21 2.2966032623657033e-13 2.296601853776515e-13 1.4085891875706428e-19
3.660119384959845 2.040337706969034e-21 1.9822879461224177e-13 1.9822864046055858e-13 1.5415168319761494e-19
3.715437065384467 1.785929467586572e-21 1.7613418148011193e-13 1.761340130268102e-13 1.684533017161995e-19
3.8285932144167436 1.6568010793276862e-21 1.683755499169834e-13 1.6837534966944325e-13 2.0024754017902997e-19
3.94519561050918 1.6320759486354152e-21 1.7091427576951384e-13 1.7091403917801717e-13 2.365914966678427e-19
4.06534921144712 1.6503344079248898e-21 1.7808988138572839e-13 1.7808960341273423e-13 2.779729941088815e-19
4.189162171576248 1.6936010815454725e-21 1.8832489266279523e-13 1.8832456759976071e-13 3.250630344826952e-19
4.316745939156006 1.7552157893369796e-21 2.0112054592420748e-13 2.0112016749054913e-13 3.7843365831658863e-19
4.448215356677963 1.8329896957852714e-21 2.1642890476483795e-13 2.1642846646639815e-13 4.38298439881213e-19
4.58368876423945 1.9272723673394378e-21 2.344917937350797e-13 2.344912880932332e-13 5.056418465034574e-19
4.723288106065518 2.040295125259658e-21 2.558037236093113e-13 2.5580314172166446e-13 5.818876467321471e-19
4.867139040275056 2.1764493984549015e-21 2.8118474829018403e-13 2.8118408136896e-13 6.669212240100112e-19
4.940699165968905 2.2586184090658658e-21 2.9621067620952495e-13 2.962099628507653e-13 7.133587595524005e-19
5.015371051989984 2.3438552593926276e-21 3.120349862476662e-13 3.1203422368675354e-13 7.625609125477247e-19
5.091171501069577 2.447738682247047e-21 3.3078987742212456e-13 3.3078906194791703e-13 8.154742074701472e-19
5.129500256944802 2.5011175068916783e-21 3.4054819683502585e-13 3.4054735373134185e-13 8.431036839071212e-19
5.168117569889187 2.556786631762838e-21 3.507488896407113e-13 3.507480179466756e-13 8.716940356819614e-19
5.20702561229733 2.624947615943242e-21 3.6281045030750556e-13 3.628095478739668e-13 9.024335387532085e-19
5.246226572918644 2.6948859121327683e-21 3.752812443814586e-13 3.7528031025041075e-13 9.341310478667179e-19
5.265937586045735 2.730539520217698e-21 3.8167490578527024e-13 3.816739554369897e-13 9.50348280457332e-19
5.285722656980489 2.7666593251335232e-21 3.881767236787169e-13 3.8817575686249497e-13 9.668162217815259e-19
5.305582063971359 2.803252942661282e-21 3.9478873883791896e-13 3.947877552991667e-13 9.835387520912296e-19
5.3255160863122235 2.8425403641076973e-21 4.0182575954518993e-13 4.018247589471805e-13 1.0005980094188936e-18
5.365609099470188 2.940146249465838e-21 4.1875248436858014e-13 4.187514482410899e-13 1.0361274903455276e-18
5.406003951863644 3.0414949710694668e-21 4.364483888245284e-13 4.364473160262914e-13 1.0727982370793808e-18
5.446702915881641 3.146766988762656e-21 4.54954229082309e-13 4.549531184347896e-13 1.110647519298538e-18
5.487708281020852 3.260485356011805e-21 4.749443261923462e-13 4.749431763661652e-13 1.1498261809571577e-18
5.529022354014368 3.41805381946326e-21 5.016452167434706e-13 5.016440254731531e-13 1.191270317476814e-18
5.570647458961463 3.584908989762194e-21 5.300944320333645e-13 5.300931979281898e-13 1.2341051747526255e-18
5.612585937458331 3.7617168342469485e-21 5.604263381565435e-13 5.604250597770589e-13 1.2783794845870111e-18
5.654840148729818 3.95599643757913e-21 5.938074713949104e-13 5.938061470846289e-13 1.3243102814748423e-18
5.67608639626678 4.088024159831301e-21 6.15930746533436e-13 6.159293979473646e-13 1.3485860715285125e-18
5.686739436050992 4.15607346394993e-21 6.273587768765379e-13 6.273574159925575e-13 1.3608839802810498e-18
5.6974124697621304 4.2255229190522315e-21 6.390392838063154e-13 6.39037910516415e-13 1.373289900491719e-18
5.718818669136295 4.368756824821613e-21 6.631833754265105e-13 6.631819769966648e-13 1.3984298457241096e-18
5.740305295436557 4.526573361375634e-21 6.897218542814016e-13 6.897204300821991e-13 1.4241992025250866e-18
5.7835210386641895 4.935485367243427e-21 7.576901151164785e-13 7.576886365060942e-13 1.4786103844278807e-18
5.827062130521658 5.4063541880378925e-21 8.362258259448402e-13 8.362242904245427e-13 1.535520297418765e-18
5.8489554468988025 5.736299419915202e-21 8.90593576844199e-13 8.905920101498551e-13 1.566694343675961e-18
5.870931020387893 6.090318546792757e-21 9.491097159623097e-13 9.491081174315475e-13 1.5985307620112405e-18
5.892989160043636 6.470347468047349e-21 1.0121215662351547e-12 1.0121199351893228e-12 1.6310458319523848e-18
5.915130176081913 6.902429044586771e-21 1.0837664204593567e-12 1.0837647554050967e-12 1.6650542598357911e-18
5.95966208400165 8.109718379157871e-21 1.282911924237893e-12 1.2829101816903413e-12 1.7425475514480207e-18
6.004529249263818 9.848939390096882e-21 1.5697766420398345e-12 1.5697748097993286e-12 1.832240506355402e-18
6.027089341400364 1.1057504440222964e-20 1.7690258726928247e-12 1.7690239876892684e-12 1.8850035564054354e-18
6.049734195844842 1.2485505115675778e-20 2.004988304673932e-12 2.0049863627877807e-12 1.941886151245036e-18
6.095279466722835 1.660943699580723e-20 2.6873112318487175e-12 2.6873091477210533e-12 2.0841276642856546e-18
6.141167624020661 2.295481631036416e-20 3.741917485884896e-12 3.741915211974198e-12 2.273910698554529e-18
6.164241091010745 2.7006845286779084e-20 4.4189888497578256e-12 4.418986455979244e-12 2.393778581762029e-18
6.187401249150058 3.1622423646448814e-20 5.193652238208984e-12 5.193649716773405e-12 2.521435578537798e-18
6.1990139391386085 3.3876235365182706e-20 5.5742595626199285e-12 5.574256975745737e-12 2.586874192636617e-18
6.204828454712694 3.5063429949607353e-20 5.775021549818197e-12 5.775018929390148e-12 2.6204280470155543e-18
6.210648424152782 3.593025208073556e-20 5.92333973377688e-12 5.923337084650811e-12 2.6491260673773387e-18
6.233982942956859 3.887563140027005e-20 6.432984402529489e-12 6.432981650648895e-12 2.751880591833654e-18
6.239830258556775 3.925243330339135e-20 6.501428536446605e-12 6.501425768962031e-12 2.767484573421322e-18
6.245683058788269 3.928563826801686e-20 6.51303164668579e-12 6.5130288635035005e-12 2.7831822933037942e-18
6.257405133728602 3.9205952626638275e-20 6.5120198845783014e-12 6.512017073112883e-12 2.811465417677705e-18
6.269149208991335 3.8628287050619216e-20 6.4281128052270175e-12 6.4281099799872885e-12 2.8252397270637683e-18
6.280915325867298 3.717786136456531e-20 6.198359698797211e-12 6.198356877843113e-12 2.8209540978842003e-18
6.304513850009849 3.3600405309381023e-20 5.622967227999118e-12 5.622964432247069e-12 2.795752049238231e-18
6.32820103803542 2.916554848685056e-20 4.899139984605702e-12 4.8991372333636475e-12 2.7512420546883565e-18
6.3519772230701035 2.5098586834859373e-20 4.231824363728879e-12 4.231821652606205e-12 2.7111226735082085e-18
6.375842739491607 2.167725190287976e-20 3.668692011722909e-12 3.668689334415965e-12 2.677306945680495e-18
6.399797922933955 1.8935797536496953e-20 3.2167647097362817e-12 3.2167620474266662e-12 2.662309614944293e-18
6.42384311029221 1.6656777498348722e-20 2.8402419860831236e-12 2.840239333970103e-12 2.652113020271359e-18
6.447978639727206 1.4996732540830486e-20 2.5667860438522834e-12 2.5667833857773794e-12 2.6580749031857986e-18
6.472204850670314 1.361418415566029e-20 2.3389089112714833e-12 2.3389062434832753e-12 2.667788208671558e-18
6.496522083828205 1.2716578087967378e-20 2.192909023435654e-12 2.1929063321819744e-12 2.6912536796002e-18
