Dust emission spectrum from A.P. Jones, M. Kohler, N. Ysard, M. Bocchio, and L. Verstraete (2017), A&A, 602A, 46J 
inside the DustPedia framework.

lambda    nu*dP/dnu     j_nu    j_nu(carb.) j_nu(sil)
 (um)   (erg s-1 H-1) (Jy cm2 sr-1 H-1)
0.9927057738263894 9.041692213828382e-25 2.3825372541303005e-17 2.3825372541103343e-17 1.9965800176596076e-28
1.0001793341362166 9.190987041228724e-25 2.44011033104284e-17 2.4401103310187875e-17 2.4051387225244677e-28
1.0077091589558085 9.340066809488398e-25 2.49835771979515e-17 2.4983577197662138e-17 2.893578284014893e-28
1.0114953028030835 9.41450768622497e-25 2.5277313671193117e-17 2.5277313670875893e-17 3.1722893394182365e-28
1.0152956718711033 9.488872824278076e-25 2.5572700590239312e-17 2.5572700589891643e-17 3.476722832375709e-28
1.0229392996569957 9.63727382979293e-25 2.6168178640743926e-17 2.6168178640326724e-17 4.172042307705782e-28
1.0267826658714554 9.711129633624892e-25 2.6467791992131536e-17 2.646779199167472e-17 4.568171010399024e-28
1.0306404723013447 9.784877045795534e-25 2.67689908126086e-17 2.6768990812108567e-17 5.0002915936743555e-28
1.03451277320114 9.858508950083502e-25 2.707176213101333e-17 2.7071762130466175e-17 5.471514583850865e-28
1.0383996230291617 9.932018269875601e-25 2.7376092814479978e-17 2.737609281388146e-17 5.985204454258661e-28
1.0403485208654093 9.968724760308942e-25 2.7528838770640102e-17 2.752883877001419e-17 6.259100058221655e-28
1.0423010764483396 1.0005397969523628e-24 2.768196957154808e-17 2.7681969570893583e-17 6.54499904862888e-28
1.0462171883269815 1.00786410556713e-24 2.798937895527571e-17 2.798937895456023e-17 7.1548303814632635e-28
1.0471985131304309 1.0096929665946912e-24 2.806646918375765e-17 2.806646918302609e-17 7.315597033977481e-28
1.048180758391296 1.0115209195142624e-24 2.814365413821981e-17 2.8143654137471826e-17 7.479824464732195e-28
1.0501480137395462 1.0151740578551062e-24 2.8298307366355255e-17 2.8298307365573364e-17 7.818946904533082e-28
1.0521189612883777 1.0188234344194255e-24 2.8453336916472965e-17 2.8453336915655687e-17 8.172782109468321e-28
1.0531058218030118 1.0206438815395515e-24 2.853091389859704e-17 2.8530913897761493e-17 8.35541766459679e-28
1.0540936079674168 1.0224541704143174e-24 2.860832714972717e-17 2.860832714887296e-17 8.542001017496596e-28
1.058054026499678 1.0296850066742052e-24 2.891889312879904e-17 2.8918893127866134e-17 9.32905217576128e-28
1.0590464539527713 1.0314900830557514e-24 2.89967617606778e-17 2.8996761759724157e-17 9.53641239973369e-28
1.06003981227728 1.0332940852820736e-24 2.907472080291685e-17 2.9074720801942035e-17 9.74818445057532e-28
1.0620293250338977 1.0368988252615188e-24 2.92309092252721e-17 2.923090922425356e-17 1.0185323084233965e-27
1.0660195594769086 1.0440949543825015e-24 2.954436113981159e-17 2.954436113869993e-17 1.1116589334925173e-27
1.070024785945596 1.0512727273350785e-24 2.985923444016432e-17 2.9859234438951415e-17 1.2129080467914148e-27
1.0740450607676866 1.0584314826184842e-24 3.017551456428688e-17 3.017551456296393e-17 1.322951328449207e-27
1.07808044048254 1.0655705640398776e-24 3.0493186823467905e-17 3.049318682202539e-17 1.4425127416351381e-27
1.0861967418109137 1.079774483584365e-24 3.1132284396830624e-17 3.113228439511725e-17 1.7133704919120293e-27
1.0902777775684922 1.086809329585353e-24 3.145284619155723e-17 3.1452846189690823e-17 1.866412215677367e-27
1.0943741465085532 1.0938214304558402e-24 3.177471659735042e-17 3.1774716595317937e-17 2.0324707140720464e-27
1.1026131145906286 1.1077749047494825e-24 3.2422321601022746e-17 3.2422321598614847e-17 2.407907853189212e-27
1.1109141095355224 1.1216299827299883e-24 3.307497509406743e-17 3.307497509121838e-17 2.8490472687646738e-27
1.1192775983109025 1.1353689667591998e-24 3.3732168739851717e-17 3.3732168736485006e-17 3.366708559299346e-27
1.1277040513999907 1.1489280040772746e-24 3.4391996573334574e-17 3.4391996569361205e-17 3.973374554307446e-27
1.1361939428280308 1.1623726395986312e-24 3.505639724834653e-17 3.5056397243663105e-17 4.6834258191724695e-27
1.1447477501889525 1.17569839140804e-24 3.5725240055621353e-17 3.572524005010794e-17 5.5134088068860204e-27
1.1533659546722406 1.1889081498115515e-24 3.639861551422929e-17 3.639861550774695e-17 6.482345648846099e-27
1.1707974979042381 1.215022401721766e-24 3.77603059005709e-17 3.7760305891643216e-17 8.927660745366195e-27
1.1884924949847024 1.2406164412120528e-24 3.9138430777877353e-17 3.913843076564265e-17 1.2234708915802735e-26
1.2064549276569216 1.2658905886088626e-24 4.0539342971047184e-17 4.0539342954362024e-17 1.6685140690058844e-26
1.2246888378427687 1.2905686344661865e-24 4.1954282536414776e-17 4.1954282513770376e-17 2.2644396023090744e-26
1.2431983285522175 1.3145928427255007e-24 4.3381155335908317e-17 4.338115530532329e-17 3.058501053701264e-26
1.2619875648066055 1.3379542538966825e-24 4.4819372648361486e-17 4.481937260724661e-17 4.111487570318304e-26
1.3004222497298317 1.3823002302304129e-24 4.7715140273168093e-17 4.771514019990342e-17 7.32646861874005e-26
1.3400274889804893 1.4234332122663177e-24 5.0631434875447735e-17 5.0631434747259575e-17 1.2818815519569086e-25
1.3808389325824078 1.4612008851191483e-24 5.3557757323957466e-17 5.35577571036351e-17 2.2032238215798296e-25
1.4228933163050095 1.4957875477270499e-24 5.649521761909018e-17 5.64952172469218e-17 3.7216840529892613e-25
1.466228494730424 1.5280265886333827e-24 5.947055612203453e-17 5.947055550386658e-17 6.181679484589539e-25
1.5108834753276823 1.5572910275492366e-24 6.245542754920811e-17 6.24554265391405e-17 1.0100676010181423e-24
1.5568984535646726 1.5830736816087507e-24 6.542305937973597e-17 6.542305775447819e-17 1.6252577827479895e-24
1.6043148490894465 1.605422082942556e-24 6.836727480339103e-17 6.836727222341388e-17 2.5799771610482897e-24
1.6531753430134553 1.6244046459949877e-24 7.128244295392815e-17 7.128243891806514e-17 4.0358630180002716e-24
1.7035239163302658 1.6402475353445898e-24 7.41697921647292e-17 7.416978594187632e-17 6.222852879099622e-24
1.755405889504358 1.6542555661912642e-24 7.708139907706655e-17 7.708138961483002e-17 9.462236518078909e-24
1.8088679632656115 1.6661070668766352e-24 7.999801420146161e-17 7.99980000074645e-17 1.4193997115961992e-23
1.8639582606462262 1.6755843368870977e-24 8.29033171621075e-17 8.290329614870896e-17 2.1013398527867677e-23
1.9207263702978936 1.6828460153493257e-24 8.57984240538208e-17 8.579839333996201e-17 3.0713858800585535e-23
1.979223391128241 1.6882607943504835e-24 8.869594866945318e-17 8.869590433018188e-17 4.433927130642008e-23
2.039501978296691 1.6922698116553702e-24 9.161427964126736e-17 9.161421639771542e-17 6.324355194947727e-23
2.1016163906111602 1.6961078105682464e-24 9.461855995019512e-17 9.461847078416153e-17 8.916603360325941e-23
2.1656225393682647 1.7004909768702596e-24 9.77521971529985e-17 9.77520728474296e-17 1.2430556889389357e-22
2.231578038680979 1.7054710678817393e-24 1.0102430424879776e-16 1.01024132842043e-16 1.7140675478176634e-22
2.299542257339062 1.711477176947034e-24 1.044676775462201e-16 1.0446744369065164e-16 2.338555684496212e-22
2.369576372248914 1.7194574283298257e-24 1.081512570044802e-16 1.0815094121755816e-16 3.157869220027861e-22
2.4417434235010123 1.730531364992632e-24 1.121628238727272e-16 1.121624016885285e-16 4.2218419868631607e-22
2.5161083711144245 1.746615894070322e-24 1.166530729053689e-16 1.166525139003082e-16 5.590050606914166e-22
2.5927381535095444 1.7708475794703922e-24 1.2187349728120098e-16 1.2187276398977446e-16 7.332914265176308e-22
2.6717017477616296 1.8069711581549035e-24 1.2814705450792475e-16 1.281461012711223e-16 9.532368024731136e-22
2.753070231689431 1.860624272616135e-24 1.359707226697086e-16 1.359694943833362e-16 1.228286372408232e-21
2.836916847834745 1.9445781687422003e-24 1.46433837992604e-16 1.4643226871951647e-16 1.569273087483532e-21
2.9233170693905177 2.086958547880198e-24 1.619418806537777e-16 1.6193989248955513e-16 1.9881642225668595e-21
2.967498994190263 2.20782438464449e-24 1.7390999361260868e-16 1.7390776617275919e-16 2.2274398495339023e-21
3.0123486681368425 2.3489736392155223e-24 1.878247478563328e-16 1.8782225564986253e-16 2.492206470217229e-21
3.0578761833420214 2.6646863520602463e-24 2.1628949518734231e-16 2.1628670967688485e-16 2.7855104574709128e-21
3.1040917844459814 3.0714992138114067e-24 2.530780012872997e-16 2.5307489371172727e-16 3.1075755723461994e-21
3.127460860933648 3.50179127543482e-24 2.9070437832427486e-16 2.907010971560769e-16 3.2811681978887937e-21
3.1510058709225794 4.0750818092140195e-24 3.4084346935957954e-16 3.408400063959863e-16 3.462963593165034e-21
3.162844764501044 4.608698333789979e-24 3.869239313993113e-16 3.8692037402674687e-16 3.5573725643700115e-21
3.1747281389236908 5.229248779520922e-24 4.406718188729481e-16 4.4066816494068555e-16 3.653932262589095e-21
3.1986289994194426 6.960127663212318e-24 5.909496896769248e-16 5.909458355415139e-16 3.854135411053476e-21
3.2227097969389145 1.1040136554418852e-23 9.44419786837236e-16 9.444157196467375e-16 4.067190498895696e-21
3.2348180950136065 1.4909233236847212e-23 1.2801905165039425e-15 1.2801863353703111e-15 4.1811336313569185e-21
3.240889293275058 1.7801874226306227e-23 1.5314377823784984e-15 1.5314335411308894e-15 4.241247609086706e-21
3.2469718861334385 2.1148209907587022e-23 1.8227267771737695e-15 1.8227224737156395e-15 4.3034581295646714e-21
3.2714166318528037 3.899806969087683e-23 3.386479113522025e-15 3.3864745522229895e-15 4.561299037315825e-21
3.2744851364798273 4.0113911866941044e-23 3.4866429241481632e-15 3.4866383322615925e-15 4.5918865710564284e-21
3.2775565192852394 4.126180329412641e-23 3.58977994474163e-15 3.589775322094877e-15 4.622646752548414e-21
3.283707930232385 4.015786663754231e-23 3.500294519100162e-15 3.5002898410465774e-15 4.678053584863531e-21
3.2898708863219004 3.6656984791867136e-23 3.2011426407115e-15 3.2011379118661867e-15 4.7288453139146044e-21
3.29141343181113 3.583139024972301e-23 3.130513126610195e-15 3.1305083850004042e-15 4.741609791241969e-21
3.292184975758714 3.5425722445845065e-23 3.0957963037249556e-15 3.09579155572292e-15 4.748002035297168e-21
3.295272960557952 3.2865112229633034e-23 2.874722627994789e-15 2.8747178550593136e-15 4.772935475026459e-21
3.3076538914384823 2.3994393522921564e-23 2.1066833825903825e-15 2.106678509309915e-15 4.873280467193229e-21
3.310756385682612 2.218897991907135e-23 1.949997234992969e-15 1.9499923363775337e-15 4.898615435380885e-21
3.313861789986515 2.0523206140641767e-23 1.8052985440045008e-15 1.8052936199541592e-15 4.924050341672548e-21
3.3200813396944477 1.8187147435494998e-23 1.6028125867547454e-15 1.6028076081609076e-15 4.9785938376016574e-21
3.345076488085796 1.401987129891917e-23 1.2448571344594595e-15 1.2448519131660405e-15 5.221293418465967e-21
3.3482140837626964 1.4176142542873106e-23 1.2599134823880273e-15 1.2599082282260732e-15 5.254161953874346e-21
3.3513546224236106 1.433414139835152e-23 1.2751506665978402e-15 1.275145379396788e-15 5.28720105221562e-21
3.3576445397418455 1.5488814351082054e-23 1.380455224192177e-15 1.3804498679728211e-15 5.3562193560763046e-21
3.3702598118196083 1.9747719151748915e-23 1.7666469050676365e-15 1.7666414040135714e-15 5.501054065248578e-21
3.382922481734668 2.071772070160335e-23 1.8603876732862335e-15 1.8603820307184733e-15 5.642567759942263e-21
3.389271646505754 2.1220247483755023e-23 1.9090893553970484e-15 1.909083640947965e-15 5.714449083272778e-21
3.395632727569191 2.1761742598243114e-23 1.9614796775048875e-15 1.9614738889664238e-15 5.788538463298555e-21
3.421196662673239 2.4361779298047268e-23 2.212363461421297e-15 2.2123573653043492e-15 6.0961169475450335e-21
3.4276182099114902 2.38378071790599e-23 2.1688433091699138e-15 2.168837143602242e-15 6.1655676716404465e-21
3.4340518103208963 2.1541785599591881e-23 1.963622389609746e-15 1.963616157962873e-15 6.231646873664646e-21
3.4469541582030403 1.827183915404473e-23 1.671811099332808e-15 1.6718047400501735e-15 6.359282634474133e-21
3.472904465399547 1.7355445370739987e-23 1.599919135075314e-15 1.5999124827959924e-15 6.6522793219101606e-21
3.4990501388274233 1.5953851947076635e-23 1.4817848703835565e-15 1.4817779163226623e-15 6.954060894288903e-21
3.5253949054701885 1.0965793907694117e-23 1.02616520612281e-15 1.0261579558544571e-15 7.250268353065069e-21
3.5519380250092896 6.277644389557169e-24 5.9187708071219595e-16 5.918695302127995e-16 7.550499396546376e-21
3.578680990867387 4.4188112643036636e-24 4.19756927136656e-16 4.1974904701182343e-16 7.88012483264737e-21
3.605625307711299 3.6669874566318306e-24 3.5096147839011945e-16 3.5095324944168554e-16 8.228948434022345e-21
3.660119384959845 3.1185993387032798e-24 3.0298718965892626e-16 3.0297822062530713e-16 8.96903361924758e-21
3.715437065384467 2.7303062167216233e-24 2.69271692639795e-16 2.69261932699491e-16 9.759940304033875e-21
3.8285932144167436 2.5334853682840422e-24 2.574702524122918e-16 2.5745875440416535e-16 1.149800812639006e-20
3.94519561050918 2.496106046791715e-24 2.6139724538432714e-16 2.6138379268977457e-16 1.3452694552584895e-20
4.06534921144712 2.524386417453756e-24 2.724100494404428e-16 2.7239441087639796e-16 1.5638564044890215e-20
4.189162171576248 2.5908811911465932e-24 2.881005613077937e-16 2.8808248367553965e-16 1.8077632254073478e-20
4.316745939156006 2.685422152246345e-24 3.0770778873904807e-16 3.0768700615885715e-16 2.0782580191024426e-20
4.448215356677963 2.804668476050817e-24 3.31159159211801e-16 3.3113541691051307e-16 2.3742301287942876e-20
4.58368876423945 2.9491555363712507e-24 3.5882461838131934e-16 3.5879763460168294e-16 2.698377963642899e-20
4.723288106065518 3.1222921521747326e-24 3.9146001420788643e-16 3.914294625908896e-16 3.055161699672659e-20
4.867139040275056 3.3307845837764985e-24 4.303182171213833e-16 4.3028381817310475e-16 3.4398948278412875e-20
4.940699165968905 3.456561718533348e-24 4.533171605690487e-16 4.53280714258801e-16 3.644631024764881e-20
5.015371051989984 3.587033098328029e-24 4.775379448118111e-16 4.774993686697434e-16 3.8576142067633276e-20
5.091171501069577 3.7459856715178534e-24 5.0623628661573e-16 5.061954572664391e-16 4.0829349290885704e-20
5.129500256944802 3.827660024818815e-24 5.211681242316024e-16 5.211261355599391e-16 4.1988671663187504e-20
5.168117569889187 3.912834014780508e-24 5.367761896840097e-16 5.367330116865996e-16 4.31779974101585e-20
5.20702561229733 4.017084709940538e-24 5.552264371619503e-16 5.551819775479484e-16 4.4459614001934474e-20
5.246226572918644 4.124051543505262e-24 5.743023065177094e-16 5.742565383105026e-16 4.5768207206895265e-20
5.265937586045735 4.178580950311302e-24 5.840821854865655e-16 5.840357527694989e-16 4.643271706635324e-20
5.285722656980489 4.233822786507221e-24 5.940274044486312e-16 5.939803003607828e-16 4.710408784829936e-20
5.305582063971359 4.28978868162488e-24 6.041410811441352e-16 6.04093298785291e-16 4.7782358844319685e-20
5.3255160863122235 4.349868433202002e-24 6.149039110097984e-16 6.148554397483919e-16 4.847126140652658e-20
5.365609099470188 4.499088631069663e-24 6.407859955936339e-16 6.407360965826005e-16 4.989901103354223e-20
5.406003951863644 4.6540256085260926e-24 6.678432802652547e-16 6.677919230692706e-16 5.135719598416185e-20
5.446702915881641 4.8149548661270626e-24 6.961380003691701e-16 6.960851541574441e-16 5.2846211725937946e-20
5.487708281020852 4.988782906391669e-24 7.266998244992293e-16 7.266454535222444e-16 5.437097698477537e-20
5.529022354014368 5.22956913626486e-24 7.675093727015986e-16 7.674534052286895e-16 5.596747290925359e-20
5.570647458961463 5.4845353307028734e-24 8.109889677530471e-16 8.109313690661031e-16 5.759868694432065e-20
5.612585937458331 5.754698102163164e-24 8.573437413550923e-16 8.572844762269807e-16 5.926512811153988e-20
5.654840148729818 6.051538519424417e-24 9.083549095578361e-16 9.082939363592912e-16 6.097319854484969e-20
5.67608639626678 6.2532303235358086e-24 9.421560809904486e-16 9.420942144231896e-16 6.186656725899586e-20
5.686739436050992 6.3571837609749324e-24 9.596161047822782e-16 9.595537877953305e-16 6.231698694775433e-20
5.6974124697621304 6.4632748161215284e-24 9.774616275100227e-16 9.77398857599614e-16 6.276991040827415e-20
5.718818669136295 6.68207515704207e-24 1.0143483226905715e-15 1.0142846393809717e-15 6.368330959980494e-20
5.740305295436557 6.923141257560756e-24 1.0548910719886652e-15 1.0548264598613706e-15 6.461212729446109e-20
5.7835210386641895 7.547700129967546e-24 1.1587143623796932e-15 1.1586478200555297e-15 6.6542324163266e-20
5.827062130521658 8.266850273333324e-24 1.2786719954597315e-15 1.2786034655096845e-15 6.852995004642465e-20
5.8489554468988025 8.770734527124035e-24 1.3617071324665577e-15 1.3616375355678385e-15 6.959689871925481e-20
5.870931020387893 9.311370067940103e-24 1.4510754622279214e-15 1.451004784990844e-15 7.067723707778437e-20
5.892989160043636 9.891712014769745e-24 1.5473071742400877e-15 1.547235403133967e-15 7.177110612129568e-20
5.915130176081913 1.0551526874632033e-23 1.6567197485744338e-15 1.6566468443112252e-15 7.290426320799898e-20
5.95966208400165 1.2395055902126967e-23 1.960828264924932e-15 1.960752827185792e-15 7.543773913971939e-20
6.004529249263818 1.5050733748447983e-23 2.3988664513085085e-15 2.3987881814695568e-15 7.826983895249479e-20
6.027089341400364 1.689609332063836e-23 2.703107775649149e-15 2.703027892712089e-15 7.98829370603912e-20
6.049734195844842 1.9076469435066255e-23 3.0634001393949524e-15 3.0633185499497075e-15 8.158944524471538e-20
6.095279466722835 2.5373092710847585e-23 4.105220245924757e-15 4.1051345469358675e-15 8.569898888983261e-20
6.141167624020661 3.506134345258305e-23 5.715430364154159e-15 5.715339432814881e-15 9.093133927871083e-20
6.164241091010745 4.1248052834989585e-23 6.74920316003259e-15 6.7491089976457755e-15 9.416238681561247e-20
6.187401249150058 4.829509290222319e-23 7.931963727717315e-15 7.931866223910043e-15 9.75038072725298e-20
6.1990139391386085 5.173620348675112e-23 8.51307779364632e-15 8.512978585125113e-15 9.920852120592376e-20
6.204828454712694 5.354879768745955e-23 8.819600964776598e-15 8.819500892706352e-15 1.0007207024908067e-19
6.210648424152782 5.487226239319093e-23 9.046055434998906e-15 9.045954613466098e-15 1.008215328070406e-19
6.233982942956859 5.936926750643188e-23 9.82418955273416e-15 9.824086055666717e-15 1.0349706743939192e-19
6.239830258556775 5.99445728180526e-23 9.92869291215933e-15 9.928588998400583e-15 1.0391375874789523e-19
6.245683058788269 5.999528423225809e-23 9.946413042618767e-15 9.946308710710724e-15 1.0433190804086675e-19
6.257405133728602 5.987365230208715e-23 9.944877964490642e-15 9.944772873701579e-15 1.0509078906148869e-19
6.269149208991335 5.899172018822224e-23 9.816780936917106e-15 9.81667543886144e-15 1.0549805566347463e-19
6.280915325867298 5.677728325867076e-23 9.466010454629418e-15 9.46590498634841e-15 1.0546828100920023e-19
6.304513850009849 5.131538725969459e-23 8.587537507256983e-15 8.587432496105685e-15 1.0501115129629696e-19
6.32820103803542 4.454447118245876e-23 7.482444568511721e-15 7.482340439810511e-15 1.0412870120918126e-19
6.3519772230701035 3.833525910631201e-23 6.4636341696589964e-15 6.463530790612513e-15 1.0337904648488976e-19
6.375842739491607 3.311173383250559e-23 5.603881615153931e-15 5.603778848693649e-15 1.0276646028265496e-19
6.399797922933955 2.892629531153801e-23 4.9139248432616715e-15 4.913822179814962e-15 1.0266344670959992e-19
6.42384311029221 2.5446854712356545e-23 4.3390881084265716e-15 4.3389854443361025e-15 1.0266409046988916e-19
6.447978639727206 2.2912478543438026e-23 3.921616258424301e-15 3.921513188484076e-15 1.0306994022449402e-19
6.472204850670314 2.0801759353810387e-23 3.5737301454471435e-15 3.57362658470951e-15 1.0356073763214991e-19
6.496522083828205 1.9431457662011135e-23 3.350855753078076e-15 3.3507513669910514e-15 1.0438608702509445e-19
