Dust emission spectrum from A.P. Jones, M. Kohler, N. Ysard, M. Bocchio, and L. Verstraete (2017), A&A, 602A, 46J 
inside the DustPedia framework.

lambda    nu*dP/dnu     j_nu    j_nu(carb.) j_nu(sil)
 (um)   (erg s-1 H-1) (Jy cm2 sr-1 H-1)
0.9927057738263894 1.4470543395609169e-24 3.8130703757886636e-17 3.8130702208978106e-17 1.5489085200419328e-24
1.0001793341362166 1.4713241955543138e-24 3.9062108931070925e-17 3.90621070662736e-17 1.8647973210239586e-24
1.0077091589558085 1.495635783394276e-24 4.000649333309886e-17 4.0006491090939214e-17 2.2421596450309085e-24
1.0114953028030835 1.5078052802420514e-24 4.048354762036657e-17 4.04835451630029e-17 2.457363656475715e-24
1.0152956718711033 1.5199828883035034e-24 4.0963840515830627e-17 4.096383782349548e-17 2.692335146425107e-24
1.0229392996569957 1.5443475568017617e-24 4.193381184713443e-17 4.193380861846056e-17 3.2286738760605594e-24
1.0267826658714554 1.5565062386118035e-24 4.242275091806645e-17 4.242274738402026e-17 3.534046178068019e-24
1.0306404723013447 1.5686694202108951e-24 4.2914895201150136e-17 4.291489133412554e-17 3.8670246052521226e-24
1.03451277320114 1.5808363752802268e-24 4.3410242397028124e-17 4.341023816704813e-17 4.2299800109811926e-24
1.0383996230291617 1.593006386489519e-24 4.390879024343825e-17 4.390878561796294e-17 4.625475324944928e-24
1.0403485208654093 1.5990923165060581e-24 4.4159263716195125e-17 4.4159258879912674e-17 4.836282444800647e-24
1.0423010764483396 1.6051787457704083e-24 4.441053652504314e-17 4.441053146876304e-17 5.056280106633098e-24
1.0462171883269815 1.6173527545877506e-24 4.4915479083405466e-17 4.491547355801936e-17 5.525386118536851e-24
1.0471985131304309 1.6203964336020792e-24 4.5042213894532904e-17 4.5042208245512614e-17 5.649020279607967e-24
1.048180758391296 1.6234401619533846e-24 4.5169148309905405e-17 4.516914253460356e-17 5.775301846308632e-24
1.0501480137395462 1.6295277242087832e-24 4.5423615827108854e-17 4.5423609791084885e-17 6.0360239841052485e-24
1.0521189612883777 1.635615356837775e-24 4.567888138574507e-17 4.5678875077748476e-17 6.307996603852689e-24
1.0531058218030118 1.6386548809815877e-24 4.580669336721021e-17 4.580668691885561e-17 6.448354588785267e-24
1.0540936079674168 1.6416803284324775e-24 4.5934311062603875e-17 4.593430447087286e-17 6.591731016763826e-24
1.058054026499678 1.6537811935730495e-24 4.644674952569145e-17 4.644674232933886e-17 7.196352576575898e-24
1.0590464539527713 1.6568061277043563e-24 4.657535090046783e-17 4.657534354486361e-17 7.35560422430215e-24
1.06003981227728 1.6598309287286128e-24 4.670414891580124e-17 4.670414139757569e-17 7.518225550784965e-24
1.0620293250338977 1.6658800913108452e-24 4.6962334745642884e-17 4.6962326891793255e-17 7.853849636757665e-24
1.0660195594769086 1.6779763800485587e-24 4.7481064771113496e-17 4.748105620250983e-17 8.56860367646313e-24
1.070024785945596 1.6900694294729202e-24 4.8002937774968e-17 4.800292842963032e-17 9.345337674007335e-24
1.0740450607676866 1.7021586208077457e-24 4.852795206529659e-17 4.852794187615568e-17 1.0189140912175207e-23
1.07808044048254 1.71424334706452e-24 4.905610609657296e-17 4.9056094991077505e-17 1.1105495441980765e-23
1.0861967418109137 1.7383773959110337e-24 5.0121261709085063e-17 5.012124852916183e-17 1.3179923221386952e-23
1.0902777775684922 1.750380900762746e-24 5.0656964151508364e-17 5.0656949800316385e-17 1.4351191967493077e-23
1.0943741465085532 1.7623768517004393e-24 5.119576508678846e-17 5.1195749465326626e-17 1.5621461837389155e-23
1.1026131145906286 1.7863439453767868e-24 5.228265926473908e-17 5.228264077350854e-17 1.849123055468682e-23
1.1109141095355224 1.8102745191940395e-24 5.338194017427715e-17 5.338191831442289e-17 2.1859854237065004e-23
1.1192775983109025 1.8341445269707056e-24 5.449301019179017e-17 5.449298438297147e-17 2.580881871281483e-23
1.1277040513999907 1.8578578354626416e-24 5.561309332196978e-17 5.561306288995819e-17 3.043201157883858e-23
1.1361939428280308 1.8815205407853822e-24 5.674542677765711e-17 5.674539094020098e-17 3.583745614441301e-23
1.1447477501889525 1.9051294512336944e-24 5.789002305331595e-17 5.788998090403819e-17 4.214927775140226e-23
1.1533659546722406 1.9286918053665493e-24 5.904721191465391e-17 5.904716240467247e-17 4.950998143547719e-23
1.1707974979042381 1.9757498334155328e-24 6.140209265858181e-17 6.140202460314516e-17 6.805543664246541e-23
1.1884924949847024 2.0225856636781347e-24 6.380765751649683e-17 6.380756443521654e-17 9.308128029054955e-23
1.2064549276569216 2.0695345376822132e-24 6.627553057782441e-17 6.627540389371848e-17 1.266841059051471e-22
1.2246888378427687 2.1162137282293678e-24 6.879465864153602e-17 6.879448706509082e-17 1.7157644517346304e-22
1.2431983285522175 2.162559590091879e-24 7.13637945163553e-17 7.136356326089661e-17 2.312554586777591e-22
1.2619875648066055 2.208609450003368e-24 7.398495851864722e-17 7.398464831175917e-17 3.1020688805806214e-22
1.3004222497298317 2.2993734645573378e-24 7.937127188604006e-17 7.937072154076539e-17 5.5034527467406975e-22
1.3400274889804893 2.3885848667977338e-24 8.49618219425968e-17 8.496086339683925e-17 9.585457575331279e-22
1.3808389325824078 2.476395882231277e-24 9.076795055990913e-17 9.076631077606411e-17 1.6397838450081407e-21
1.4228933163050095 2.563510448383727e-24 9.682262756520678e-17 9.681987098574143e-17 2.7565794653700448e-21
1.466228494730424 2.6516947300666348e-24 1.0320354464772157e-16 1.031989886751762e-16 4.555972545361118e-21
1.5108834753276823 2.74050056202391e-24 1.0990825174752823e-16 1.0990084531205877e-16 7.406435469489436e-21
1.5568984535646726 2.829677856881186e-24 1.1694097666264844e-16 1.1692912142915442e-16 1.185523349404811e-20
1.6043148490894465 2.9198857176984248e-24 1.2434401605495274e-16 1.2432529680832957e-16 1.8719246623162632e-20
1.6531753430134553 3.0118792231037942e-24 1.321678742020048e-16 1.321387511992145e-16 2.9123002790310263e-20
1.7035239163302658 3.106669941350286e-24 1.4047944527223715e-16 1.4043479172241312e-16 4.465354982402805e-20
1.755405889504358 3.2070741620116903e-24 1.4943625906662961e-16 1.4936874960200064e-16 6.750946462900621e-20
1.8088679632656115 3.313366264887173e-24 1.5909104929852274e-16 1.589903757355118e-16 1.0067356301096118e-19
1.8639582606462262 3.425949688655574e-24 1.6950659382964509e-16 1.693584511429145e-16 1.4814268673057456e-19
1.9207263702978936 3.545909820331246e-24 1.807850936131164e-16 1.8056990368702643e-16 2.1518992609001955e-19
1.979223391128241 3.6747318240368114e-24 1.9305893161143392e-16 1.9275025238389245e-16 3.0867922754157334e-19
2.039501978296691 3.814012434707166e-24 2.0647889558860256e-16 2.0604148364459203e-16 4.374119440105e-19
2.1016163906111602 3.966816947085604e-24 2.2129165656841181e-16 2.2067909458158496e-16 6.125619868268338e-19
2.1656225393682647 4.135376922074524e-24 2.37720861614093e-16 2.368727868739182e-16 8.480747401748675e-19
2.231578038680979 4.32070106217169e-24 2.5593856553373317e-16 2.5477744557189712e-16 1.1611199618360156e-18
2.299542257339062 4.524599572322618e-24 2.7617920677758044e-16 2.7460663392497985e-16 1.5725728526004939e-18
2.369576372248914 4.74966743922707e-24 2.9874685784143985e-16 2.966393240367778e-16 2.107533804662049e-18
2.4417434235010123 4.9988100956963636e-24 3.239933512208772e-16 3.2119760308783347e-16 2.795748133043625e-18
2.5161083711144245 5.2762250627515566e-24 3.523887930940306e-16 3.487166443242259e-16 3.672148769804789e-18
2.5927381535095444 5.587848933628556e-24 3.845676498165989e-16 3.797904183500783e-16 4.777231466520691e-18
2.6717017477616296 5.939827191498803e-24 4.212415651691321e-16 4.1508446256639045e-16 6.157102602741686e-18
2.753070231689431 6.340454651515476e-24 4.633478202500789e-16 4.554841516301193e-16 7.863668619959645e-18
2.836916847834745 6.80744155679759e-24 5.126252110075872e-16 5.026702083248701e-16 9.955002682716844e-18
2.9233170693905177 7.377411480988095e-24 5.724655579774195e-16 5.599726873340471e-16 1.249287064337241e-17
2.967498994190263 7.73420776529742e-24 6.0922237856252645e-16 5.952976190840289e-16 1.3924759478497657e-17
3.0123486681368425 8.123807834974396e-24 6.495824954199783e-16 6.340823133113021e-16 1.5500182108676393e-17
3.0578761833420214 8.745967133497652e-24 7.098999905811525e-16 6.926640220124742e-16 1.7235968568678296e-17
3.1040917844459814 9.484305025203801e-24 7.814649434336625e-16 7.6233613638421e-16 1.9128807049452794e-17
3.127460860933648 1.014466404237578e-23 8.421684851508701e-16 8.220246531194793e-16 2.014383203139048e-17
3.1510058709225794 1.0982699864464654e-23 9.186027913047273e-16 8.973998028712598e-16 2.1202988433467062e-17
3.162844764501044 1.171952825770955e-23 9.839146802844189e-16 9.621631390193308e-16 2.1751541265087993e-17
3.1747281389236908 1.2559387244687339e-23 1.0583868265592682e-15 1.036075272542939e-15 2.23115540163293e-17
3.1986289994194426 1.4839164343538868e-23 1.2599193561101893e-15 1.2364498857133736e-15 2.3469470396815637e-17
3.2227097969389145 2.0057502729562784e-23 1.715803274621552e-15 1.6911056503577159e-15 2.469762426383639e-17
3.2348180950136065 2.494370901816099e-23 2.141806974523945e-15 2.116453635265162e-15 2.5353339258782492e-17
3.240889293275058 2.858509087972207e-23 2.459083107173076e-15 2.4333838899773307e-15 2.5699217195744077e-17
3.2469718861334385 3.2798485667916536e-23 2.826843422630028e-15 2.800786316608262e-15 2.605710602176613e-17
3.2714166318528037 5.506778824504499e-23 4.781926802990582e-15 4.754389743121304e-15 2.753705986927932e-17
3.2744851364798273 5.646728735165599e-23 4.908054555824748e-15 4.880342807359937e-15 2.7711748464812467e-17
3.2775565192852394 5.790539278991586e-23 5.037773464428694e-15 5.009886128215957e-15 2.788733621273734e-17
3.283707930232385 5.656469456639912e-23 4.930368740759852e-15 4.902166829772546e-15 2.82019109873066e-17
3.2898708863219004 5.2246104420501887e-23 4.562492895177792e-15 4.534004180535868e-15 2.848871464192279e-17
3.29141343181113 5.122681038669072e-23 4.475578570416942e-15 4.447017824165345e-15 2.856074625159601e-17
3.292184975758714 5.0725837098539145e-23 4.432848454483105e-15 4.404251642748149e-15 2.8596811734956685e-17
3.295272960557952 4.757530699608973e-23 4.161428404682038e-15 4.132691206425875e-15 2.87371982561632e-17
3.3076538914384823 3.662357563852982e-23 3.215512746134973e-15 3.1862114206605258e-15 2.930132547444813e-17
3.310756385682612 3.438462181297289e-23 3.021766557368727e-15 2.9923229838254275e-15 2.944357354329953e-17
3.313861789986515 3.231498233540849e-23 2.8425476097576166e-15 2.812961300437883e-15 2.958630931973431e-17
3.3200813396944477 2.942643831021466e-23 2.593318489018473e-15 2.5634254113502727e-15 2.989307766820127e-17
3.345076488085796 2.438831709472348e-23 2.1654956657959238e-15 2.134236131031494e-15 3.125953476442884e-17
3.3482140837626964 2.4603273903285728e-23 2.1866312650206157e-15 2.1551866473028728e-15 3.144461771774344e-17
3.3513546224236106 2.4820319218360658e-23 2.2079903997670625e-15 2.1763598359203847e-15 3.163056384667796e-17
3.3576445397418455 2.6302689238496378e-23 2.3442520483854264e-15 2.312232808111656e-15 3.201924027376965e-17
3.3702598118196083 3.167589648413904e-23 2.8337512833218046e-15 2.800916720645627e-15 3.283456267617796e-17
3.382922481734668 3.297550968095406e-23 2.9610994671836723e-15 2.9274713331059757e-15 3.362813407769535e-17
3.389271646505754 3.3646600781366405e-23 3.027031963042593e-15 2.9930013810586905e-15 3.403058198390229e-17
3.395632727569191 3.4375816204108004e-23 3.0984405121786834e-15 3.0639951763465065e-15 3.444533583217724e-17
3.421196662673239 3.787689680363077e-23 3.4397102730133784e-15 3.40354683351995e-15 3.616343949342753e-17
3.4276182099114902 3.7263432832404496e-23 3.390351569176937e-15 3.3538035123486373e-15 3.654805682829894e-17
3.4340518103208963 3.4422937286576034e-23 3.137792364498023e-15 3.100879946944035e-15 3.6912417553988513e-17
3.4469541582030403 3.0376425384566656e-23 2.7793395447404486e-15 2.741726602657211e-15 3.7612942083238106e-17
3.472904465399547 2.93507846323155e-23 2.705714601936132e-15 2.6664896669215974e-15 3.92249350145352e-17
3.4990501388274233 2.772981621655347e-23 2.5755298635408703e-15 2.534652655626444e-15 4.087720791442532e-17
3.5253949054701885 2.1660150838177547e-23 2.0269296812075027e-15 1.984442997143445e-15 4.248668406405744e-17
3.5519380250092896 1.5918963182453688e-23 1.5008925118582993e-15 1.4567846714071156e-15 4.4107840451184007e-17
3.578680990867387 1.3736984295337743e-23 1.3049198010596946e-15 1.259034573882876e-15 4.5885227176818596e-17
3.605625307711299 1.2953852448898527e-23 1.2397924072772063e-15 1.192033127399653e-15 4.77592798775533e-17
3.660119384959845 1.2594800243850478e-23 1.2236464886145148e-15 1.1719405134897277e-15 5.1705975124786755e-17
3.715437065384467 1.243459261219601e-23 1.2263400271610242e-15 1.1704596849544225e-15 5.588034220660198e-17
3.8285932144167436 1.2870617259090176e-23 1.3080008733756459e-15 1.243100580957139e-15 6.490029241850658e-17
3.94519561050918 1.3532904776784732e-23 1.4171930055803085e-15 1.3423839169018523e-15 7.480908867845641e-17
4.06534921144712 1.430190754243296e-23 1.543338735222844e-15 1.4577255438582723e-15 8.56131913645711e-17
4.189162171576248 1.514129170789696e-23 1.6836799212856459e-15 1.5863294918692412e-15 9.735042941640465e-17
4.316745939156006 1.603497072879179e-23 1.8373593072971946e-15 1.7273615042491887e-15 1.0999780304800598e-16
4.448215356677963 1.697419468904701e-23 2.0042155033728766e-15 1.880811424728315e-15 1.234040786445615e-16
4.58368876423945 1.7956398581507047e-23 2.184760277662425e-15 2.0471560380112176e-15 1.376042396512068e-16
4.723288106065518 1.898283395842351e-23 2.3799888315686847e-15 2.2272841680618806e-15 1.527046635068042e-16
4.867139040275056 2.0054845299347165e-23 2.5909707027872178e-15 2.422624770727254e-15 1.6834593205996378e-16
4.940699165968905 2.0618091042304366e-23 2.7039975700527572e-15 2.527576989758954e-15 1.7642058029380223e-16
5.015371051989984 2.1184827896598042e-23 2.8203138631892845e-15 2.6356700678221113e-15 1.8464379536717354e-16
5.091171501069577 2.1788367344130355e-23 2.944501966352333e-15 2.7513157024085855e-15 1.9318626394374806e-16
5.129500256944802 2.2091212272345482e-23 3.0079044605131657e-15 2.810396953506847e-15 1.9750750700631885e-16
5.168117569889187 2.2397775920507896e-23 3.072604861487053e-15 2.870704447137931e-15 2.0190041434912323e-16
5.20702561229733 2.2731719719448706e-23 3.141893353446454e-15 2.935216782725571e-15 2.0667657072088408e-16
5.246226572918644 2.3067441293476228e-23 3.212298537143235e-15 3.0007989362648343e-15 2.1149960087840074e-16
5.265937586045735 2.3235967691737986e-23 3.2479243438551705e-15 3.0339960906560344e-15 2.1392825319913648e-16
5.285722656980489 2.3404937740109882e-23 3.283834755991049e-15 3.0674666656520586e-15 2.1636809033899062e-16
5.305582063971359 2.357435167785632e-23 3.3200316768371728e-15 3.1012127476659795e-15 2.188189291711929e-16
5.3255160863122235 2.3749049815990872e-23 3.357201220881422e-15 3.1359027415306255e-15 2.2129847935079735e-16
5.365609099470188 2.4137654585317003e-23 3.4378231444332063e-15 3.2113945435197758e-15 2.2642860091343084e-16
5.406003951863644 2.4530792281169903e-23 3.520119174795522e-15 3.2885109148690425e-15 2.3160825992648063e-16
5.446702915881641 2.4928641935907592e-23 3.6041407306358314e-15 3.3673047016698127e-15 2.3683602896601974e-16
5.487708281020852 2.534073394147556e-23 3.691302518768329e-15 3.449171360771343e-15 2.4213115799698616e-16
5.529022354014368 2.584182340804395e-23 3.792633992700078e-15 3.5449801158149452e-15 2.476538768851327e-16
5.570647458961463 2.6355955220511718e-23 3.8972105437579685e-15 3.643980814798241e-15 2.532297289597276e-16
5.612585937458331 2.688405053329155e-23 4.005227043678899e-15 3.746369755073971e-15 2.588572886049285e-16
5.654840148729818 2.744145289466987e-23 4.119048136645476e-15 3.85448721770776e-15 2.64560918937716e-16
5.67608639626678 2.779006642417943e-23 4.187048728098751e-15 3.919505055009321e-15 2.6754367308942956e-16
5.686739436050992 2.796745370510283e-23 4.221683687975322e-15 3.952643081408578e-15 2.690406065667429e-16
5.6974124697621304 2.814695957364149e-23 4.256754307535406e-15 3.986213092041548e-15 2.705412154938569e-16
5.718818669136295 2.851252947394612e-23 4.3282417165097204e-15 4.0546883442016656e-15 2.7355337230805576e-16
5.740305295436557 2.8905232825327426e-23 4.404340588586353e-15 4.127739321556779e-15 2.7660126702957534e-16
5.7835210386641895 2.987171449896126e-23 4.5858717255372665e-15 4.302965283325525e-15 2.829064422117428e-16
5.827062130521658 3.094413140060327e-23 4.786272030765028e-15 4.496943926041611e-15 2.8932810472341812e-16
5.8489554468988025 3.166662805371971e-23 4.9164266856512874e-15 4.623636358560853e-15 2.9279032709043423e-16
5.870931020387893 3.242811888262248e-23 5.053568621313881e-15 4.7572947897521805e-15 2.9627383156170077e-16
5.892989160043636 3.3231667080273115e-23 5.198250495817903e-15 4.8984720123841496e-15 2.997784834337539e-16
5.915130176081913 3.4130600949649765e-23 5.358924949520159e-15 5.055514993244826e-15 3.0340995627533347e-16
5.95966208400165 3.6584201998406603e-23 5.787415393252821e-15 5.475761068523301e-15 3.116543247295205e-16
6.004529249263818 4.002575101309964e-23 6.379518294492015e-15 6.0586020825368125e-15 3.209162119552019e-16
6.027089341400364 4.238387068011394e-23 6.780749148537221e-15 6.45449667170421e-15 3.262524768330124e-16
6.049734195844842 4.513512860909858e-23 7.24803715610815e-15 6.916134886466203e-15 3.319022696419502e-16
6.095279466722835 5.299872660174245e-23 8.57488867964004e-15 8.229151592838274e-15 3.4573708680176817e-16
6.141167624020661 6.492922508757462e-23 1.0584262553669609e-14 1.0220634187852191e-14 3.636283658174186e-16
6.164241091010745 7.252676184021068e-23 1.1867174728394775e-14 1.1492348549157216e-14 3.7482617923756245e-16
6.187401249150058 8.108245656221526e-23 1.3316945175109084e-14 1.2930610622943128e-14 3.8633455216595416e-16
6.1990139391386085 8.525250695424146e-23 1.4028111359015515e-14 1.3635918959440936e-14 3.9219239957458455e-16
6.204828454712694 8.744055012178502e-23 1.4401644733758325e-14 1.4006492546808842e-14 3.9515218694947894e-16
6.210648424152782 8.903861516296085e-23 1.4678604699186333e-14 1.4280923453738916e-14 3.976812454474228e-16
6.233982942956859 9.444004368632134e-23 1.5627561691617655e-14 1.5221031636637368e-14 4.0653005498029136e-16
6.239830258556775 9.511754933660661e-23 1.5754436031879155e-14 1.5346654572964672e-14 4.0778145891448e-16
6.245683058788269 9.516275636971845e-23 1.5776708006966878e-14 1.536767276049596e-14 4.090352464709185e-16
6.257405133728602 9.498258065372135e-23 1.5776391401476618e-14 1.536514776162964e-14 4.112436398469774e-16
6.269149208991335 9.388366545117991e-23 1.5623131082606594e-14 1.521100920996792e-14 4.121218726386708e-16
6.280915325867298 9.11782072174569e-23 1.5201394170669602e-14 1.4790040140264295e-14 4.1135403040531124e-16
6.304513850009849 8.452878836311923e-23 1.4145740279376666e-14 1.3737412900441254e-14 4.0832737893541204e-16
6.32820103803542 7.635161896198376e-23 1.2825312354906657e-14 1.2421598067517696e-14 4.037142873889629e-16
6.3519772230701035 6.888102311982755e-23 1.1613896581308925e-14 1.1214291862649919e-14 3.996047186590056e-16
6.375842739491607 6.257966231788605e-23 1.0591079915044302e-14 1.0195069706834051e-14 3.960102082102528e-16
6.399797922933955 5.759513522475359e-23 9.784113823903432e-15 9.38981112849753e-15 3.9430269540590076e-16
6.42384311029221 5.344092638917591e-23 9.112516687021982e-15 8.719546183176122e-15 3.9297050384585997e-16
6.447978639727206 5.045261017871192e-23 8.635284741529832e-15 8.242171376359445e-15 3.9311336517038575e-16
6.472204850670314 4.7964040348997075e-23 8.240194205556734e-15 7.84664384556677e-15 3.9355035998996366e-16
6.496522083828205 4.6381493174009367e-23 7.998251903784107e-15 7.603066131980824e-15 3.9518577180328326e-16
6.520930681187647 4.505498766961675e-23 7.79869421007314e-15 7.401688213477819e-15 3.970059965953183e-16
6.57002334288761 4.3763016081787204e-23 7.632091895405297e-15 7.229774738172964e-15 4.023171572323331e-16
