Dust emission spectrum from A.P. Jones, M. Kohler, N. Ysard, M. Bocchio, and L. Verstraete (2017), A&A, 602A, 46J 
inside the DustPedia framework.

lambda    nu*dP/dnu     j_nu    j_nu(carb.) j_nu(sil)
 (um)   (erg s-1 H-1) (Jy cm2 sr-1 H-1)
0.9927057738263894 1.8559873257991278e-22 4.890632021456272e-15 4.8906315431247026e-15 4.783315704763827e-22
1.0001793341362166 1.8872178802047654e-22 5.010364856091432e-15 5.010364280414378e-15 5.756770537963041e-22
1.0077091589558085 1.918566661317098e-22 5.131939553552005e-15 5.131938861639367e-15 6.91912639118291e-22
1.0114953028030835 1.9342838568685838e-22 5.193420772360929e-15 5.193420014184048e-15 7.581768807836004e-22
1.0152956718711033 1.950028797386178e-22 5.255366311824834e-15 5.255365481314409e-15 8.305104259459075e-22
1.0229392996569957 1.9815842812852922e-22 5.380614101060348e-15 5.380613105504678e-15 9.955556693905206e-22
1.0267826658714554 1.997358935996571e-22 5.4438240293420035e-15 5.443822939849273e-15 1.0894927316161949e-21
1.0306404723013447 2.013158303103046e-22 5.507500591767604e-15 5.5074993998713965e-15 1.1918962065763457e-21
1.03451277320114 2.028981859007871e-22 5.571645218695781e-15 5.57164391520527e-15 1.3034905121618409e-21
1.0383996230291617 2.0448290950472425e-22 5.636259375956982e-15 5.636257950898491e-15 1.4250584928574157e-21
1.0403485208654093 2.0527614383414868e-22 5.668742996665778e-15 5.668741506821474e-15 1.4898443036188734e-21
1.0423010764483396 2.0606995178896973e-22 5.701344566611215e-15 5.701343009165393e-15 1.5574458226354425e-21
1.0462171883269815 2.076592649934115e-22 5.766902332734662e-15 5.766900631168947e-15 1.701565714277806e-21
1.0471985131304309 2.0805694268190149e-22 5.783365798756197e-15 5.783364059213446e-15 1.7395427518562143e-21
1.048180758391296 2.0845475870555966e-22 5.799858924610817e-15 5.799857146280367e-15 1.778330449540607e-21
1.0501480137395462 2.0925080297062596e-22 5.8329342572350985e-15 5.832932398831146e-15 1.8584039545004364e-21
1.0521189612883777 2.1004739227864538e-22 5.8661285351534784e-15 5.866126593231803e-15 1.9419216749930604e-21
1.0531058218030118 2.1044535924984838e-22 5.882755517095679e-15 5.882753532076929e-15 1.985018751800774e-21
1.0540936079674168 2.1084172285578015e-22 5.899363667152e-15 5.89936163811217e-15 2.0290398310089996e-21
1.058054026499678 2.124284361435714e-22 5.9660917683902666e-15 5.9660895537439e-15 2.214646367944573e-21
1.0590464539527713 2.128254260126384e-22 5.982847800553874e-15 5.982845537028595e-15 2.2635252778387658e-21
1.06003981227728 2.1322253925728322e-22 5.999633488758577e-15 5.9996311753234975e-15 2.313435077933988e-21
1.0620293250338977 2.140171334428368e-22 6.0332939414245045e-15 6.03329152499415e-15 2.416430355870431e-21
1.0660195594769086 2.156077759831861e-22 6.1009719197102954e-15 6.1009692839833756e-15 2.6357269206348043e-21
1.070024785945596 2.172003268209797e-22 6.169127487467676e-15 6.1691246134929305e-15 2.8739747456173394e-21
1.0740450607676866 2.1879475087762956e-22 6.237762481671414e-15 6.237759348947864e-15 3.1327235495327926e-21
1.07808044048254 2.2039101497766484e-22 6.306878794069376e-15 6.306875380427315e-15 3.4136420605330466e-21
1.0861967418109137 2.2358648478697247e-22 6.44649242735306e-15 6.446488378042875e-15 4.049310183565812e-21
1.0902777775684922 2.2518005074770697e-22 6.5168317098242666e-15 6.516827301751461e-15 4.408072805219174e-21
1.0943741465085532 2.267752471425144e-22 6.587655908555911e-15 6.5876511115069676e-15 4.797048944334604e-21
1.1026131145906286 2.299704428670501e-22 6.730767798943146e-15 6.730762123510512e-15 5.6754326333980694e-21
1.1109141095355224 2.331719168621858e-22 6.875846278718207e-15 6.875839572809674e-15 6.70590853489791e-21
1.1192775983109025 2.363770277225532e-22 7.0228357642374e-15 7.02282785103352e-15 7.913203878982137e-21
1.1277040513999907 2.3957410097641944e-22 7.171408156647699e-15 7.171398830859994e-15 9.325787703813198e-21
1.1361939428280308 2.4277682891626715e-22 7.321990097875447e-15 7.321979121483812e-15 1.0976391636587476e-20
1.1447477501889525 2.4598520841914134e-22 7.474604613842615e-15 7.474591711245195e-15 1.2902597419010672e-20
1.1533659546722406 2.4920043891818324e-22 7.629311787960969e-15 7.62929664044227e-15 1.5147518697701422e-20
1.1707974979042381 2.5566132084503198e-22 7.945408799354046e-15 7.945388001106582e-15 2.079824746639323e-20
1.1884924949847024 2.6215047027099168e-22 8.270209625841547e-15 8.270181211923747e-15 2.8413917800075573e-20
1.2064549276569216 2.6871223516530544e-22 8.605338849903457e-15 8.605300223348672e-15 3.862655478515474e-20
1.2246888378427687 2.7530364046288763e-22 8.949672575965707e-15 8.94962032342432e-15 5.225254138426068e-20
1.2431983285522175 2.8191952526066334e-22 9.303256734763848e-15 9.303186392092513e-15 7.034267133493138e-20
1.2619875648066055 2.8856974385029915e-22 9.666634600548537e-15 9.666540357977983e-15 9.424257055221455e-20
1.3004222497298317 3.0193341720669333e-22 1.0422334482844527e-14 1.0422167702514362e-14 1.667803301646068e-19
1.3400274889804893 3.1543970291575957e-22 1.1220171510457725e-14 1.1219881771713632e-14 2.8973874409462187e-19
1.3808389325824078 3.2914594496090877e-22 1.206426770193448e-14 1.206377334998409e-14 4.943519503874482e-19
1.4228933163050095 3.431798119974935e-22 1.296174593159186e-14 1.2960917133083506e-14 8.287985083540804e-19
1.466228494730424 3.578045225963209e-22 1.3925696123398855e-14 1.3924330088117407e-14 1.3660352814448757e-18
1.5108834753276823 3.7301220056607397e-22 1.4959719188832576e-14 1.4957504735856916e-14 2.2144529756613884e-18
1.5568984535646726 3.8881957324655714e-22 1.6068592589236118e-14 1.6065058149231728e-14 3.534440004395665e-18
1.6043148490894465 4.0535905716481754e-22 1.726231023584481e-14 1.7256745616378046e-14 5.564619466765529e-18
1.6531753430134553 4.227793669668835e-22 1.855248701868569e-14 1.8543855315609704e-14 8.631703075984209e-18
1.7035239163302658 4.412601636974602e-22 1.9953192385159922e-14 1.9939997516196436e-14 1.3194868963487436e-17
1.755405889504358 4.612144425390195e-22 2.1490666395222837e-14 2.1470779011581763e-14 1.9887383641073825e-17
1.8088679632656115 4.827383637209223e-22 2.317864874610493e-14 2.3149084492333334e-14 2.9564253771592403e-17
1.8639582606462262 5.059401172945951e-22 2.5032529300811855e-14 2.4989163803531634e-14 4.3365497280220806e-17
1.9207263702978936 5.310205637229033e-22 2.707361641649615e-14 2.7010829089393262e-14 6.278732710288635e-17
1.979223391128241 5.5823643289261175e-22 2.9327998472126317e-14 2.923823161846136e-14 8.976685366495678e-17
2.039501978296691 5.8785726938555385e-22 3.182478343329789e-14 3.1698009677361177e-14 1.2677375593671065e-16
2.1016163906111602 6.203537618339165e-22 3.4606868289077845e-14 3.4429943196293334e-14 1.7692509278450132e-16
2.1656225393682647 6.560907744677123e-22 3.771517497497693e-14 3.747108858920967e-14 2.4408638576725647e-16
2.231578038680979 6.952651782500231e-22 4.118432861389088e-14 4.08513435552735e-14 3.329850586173765e-16
2.299542257339062 7.381916595719225e-22 4.505883531384963e-14 4.4609507233553844e-14 4.493280802957752e-16
2.369576372248914 7.852757871081783e-22 4.939265263079321e-14 4.8792726303111524e-14 5.9992632768168e-16
2.4417434235010123 8.36961599086874e-22 5.424690839221909e-14 5.345412248947691e-14 7.927859027421941e-16
2.5161083711144245 8.9384864992479e-22 5.9698409982432e-14 5.866118032121485e-14 1.0372296612171585e-15
2.5927381535095444 9.567226644605326e-22 6.584368886274527e-14 6.44997232455022e-14 1.3439656172430603e-15
2.6717017477616296 1.0263185768422807e-21 7.278461640937212e-14 7.105955629462528e-14 1.725060114746831e-15
2.753070231689431 1.1035455037980959e-21 8.064491141962627e-14 7.845096601841835e-14 2.193945401207924e-15
2.836916847834745 1.1902784385651585e-21 8.963231349639162e-14 8.686683883761693e-14 2.765474658774689e-15
2.9233170693905177 1.2901788241568896e-21 1.0011410402754201e-13 9.665896498302276e-14 3.4551390445192577e-15
2.967498994190263 1.3479515666143726e-21 1.061779414931857e-13 1.0233599469157201e-13 3.841946801613688e-15
3.0123486681368425 1.4096928629486576e-21 1.1271953082735724e-13 1.0845305705002232e-13 4.266473777334915e-15
3.0578761833420214 1.4957380258776202e-21 1.2140731771281578e-13 1.166741773511162e-13 4.733140361699573e-15
3.1040917844459814 1.5933257086232705e-21 1.312830177279045e-13 1.260425699800589e-13 5.240447747845583e-15
3.127460860933648 1.6713448735573594e-21 1.3874821033490217e-13 1.3323634683900008e-13 5.511863495902104e-15
3.1510058709225794 1.7666221914184043e-21 1.4776185239010208e-13 1.419672288561237e-13 5.794623533978392e-15
3.162844764501044 1.8462024952472844e-21 1.549981959944985e-13 1.49057302092205e-13 5.9408939022934335e-15
3.1747281389236908 1.9353232246684844e-21 1.6309080739506407e-13 1.5700071023327341e-13 6.090097161790616e-15
3.1986289994194426 2.171083371617924e-21 1.8433584939851494e-13 1.779376261754354e-13 6.398223223079581e-15
3.2227097969389145 2.694337580719158e-21 2.304849864046168e-13 2.2376041682827222e-13 6.724569576344655e-15
3.2348180950136065 3.177657447032261e-21 2.7285151850297795e-13 2.659528310263967e-13 6.898687476581172e-15
3.240889293275058 3.5364675983320344e-21 3.0423089318538483e-13 2.972403628593503e-13 6.990530326034525e-15
3.2469718861334385 3.95151490154797e-21 3.4057407472907256e-13 3.3348851418237563e-13 7.0855605466968585e-15
3.2714166318528037 6.1246151249891885e-21 5.318437903091668e-13 5.243656427672956e-13 7.478147541871196e-15
3.2744851364798273 6.2616830375324066e-21 5.442563898651702e-13 5.367320111775922e-13 7.524378687577911e-15
3.2775565192852394 6.402369215983114e-21 5.570065963074135e-13 5.494357585740156e-13 7.570837733397946e-15
3.283707930232385 6.2746666536244074e-21 5.46921017869246e-13 5.392671652398676e-13 7.65385262937834e-15
3.2898708863219004 5.857788230860835e-21 5.115427739770595e-13 5.038134364963251e-13 7.729337480734485e-15
3.29141343181113 5.7593339578743964e-21 5.031808821818469e-13 4.954325916945435e-13 7.748290487303331e-15
3.292184975758714 5.710935635390418e-21 4.990693826464615e-13 4.913116033735216e-13 7.757779272939877e-15
3.295272960557952 5.407709207977752e-21 4.730141773796402e-13 4.652195004872564e-13 7.794676892383776e-15
3.3076538914384823 4.350705872970616e-21 3.8198755706702193e-13 3.7404471355013475e-13 7.942843516887191e-15
3.310756385682612 4.133816349333357e-21 3.632853101210134e-13 3.55305126601657e-13 7.980183519356463e-15
3.313861789986515 3.933023563104173e-21 3.4596357232639127e-13 3.3794592928806573e-13 8.017643038325501e-15
3.3200813396944477 3.654189029494538e-21 3.2203951673169817e-13 3.1394127270736074e-13 8.098244024337456e-15
3.345076488085796 3.179422452374302e-21 2.823083492645092e-13 2.7385083837126596e-13 8.457510893243254e-15
3.3482140837626964 3.2023611488888615e-21 2.84611838146978e-13 2.761056558612786e-13 8.506182285699292e-15
3.3513546224236106 3.225493690832511e-21 2.8693664417494957e-13 2.783815746900916e-13 8.555069484857961e-15
3.3576445397418455 3.3739523401937372e-21 3.007066924958324e-13 2.9204940035252117e-13 8.65729214331112e-15
3.3702598118196083 3.9029427653674186e-21 3.4916041210165895e-13 3.4028871005894374e-13 8.871702042715228e-15
3.382922481734668 4.0379079627343035e-21 3.625917304288143e-13 3.5351171199266556e-13 9.080018436148738e-15
3.389271646505754 4.107370795818673e-21 3.6952150868970786e-13 3.60335919253837e-13 9.185589435870777e-15
3.395632727569191 4.1833295913133655e-21 3.770615308320229e-13 3.6776714407563454e-13 9.294386756388435e-15
3.421196662673239 4.547435957990929e-21 4.1296577862926846e-13 4.0322111639352714e-13 9.744662235741407e-15
3.4276182099114902 4.491374918509692e-21 4.0864029009934604e-13 3.9879523574031663e-13 9.845054359029424e-15
3.4340518103208963 4.21749830370779e-21 3.844423229919549e-13 3.7450236108335795e-13 9.939961908596827e-15
3.4469541582030403 3.827458217424077e-21 3.5019940117553373e-13 3.400773696017816e-13 1.012203157375215e-14
3.472904465399547 3.7390506986125384e-21 3.446859836747513e-13 3.3414440540055074e-13 1.0541578274200555e-14
3.4990501388274233 3.5938745069801625e-21 3.337970596797584e-13 3.22826367560475e-13 1.0970692119283368e-14
3.5253949054701885 3.0198644793466943e-21 2.825951209731776e-13 2.712078882253762e-13 1.1387232747801461e-14
3.5519380250092896 2.47469049837349e-21 2.3332200694261256e-13 2.215163908397556e-13 1.1805616102856946e-14
3.578680990867387 2.2775407248520986e-21 2.1635083259052982e-13 2.0408669726461457e-13 1.2264135325915215e-14
3.605625307711299 2.2174989192266635e-21 2.1223325910558732e-13 1.9948639317812596e-13 1.2746865927461377e-14
3.660119384959845 2.2154777365774954e-21 2.1524450570705443e-13 2.0148427806970604e-13 1.3760227637348411e-14
3.715437065384467 2.2324965076826632e-21 2.201760775968792e-13 2.0534877811957714e-13 1.4827299477302072e-14
3.8285932144167436 2.3413467263115e-21 2.3794379875042127e-13 2.2082740505662467e-13 1.7116393693796577e-14
3.94519561050918 2.472627479638063e-21 2.5893852261194185e-13 2.3933252165716437e-13 1.960600095477749e-14
4.06534921144712 2.6141426871510304e-21 2.8209577334418905e-13 2.5980426492221793e-13 2.229150842197113e-14
4.189162171576248 2.7617954558858647e-21 3.0710586953078537e-13 2.819297985556322e-13 2.5176070975153217e-14
4.316745939156006 2.9132936987558606e-21 3.3381833885659184e-13 3.0557159038467777e-13 2.8246748471914123e-14
4.448215356677963 3.0668808744530193e-21 3.621196945232872e-13 3.3066131926150734e-13 3.145837526177984e-14
4.58368876423945 3.221639153776764e-21 3.919777799643125e-13 3.571651595759953e-13 3.4812620388317235e-14
4.723288106065518 3.3770673992131475e-21 4.23402675869451e-13 3.8507442958049086e-13 3.832824628896025e-14
4.867139040275056 3.5320857764968656e-21 4.563251737939222e-13 4.1441734025924576e-13 4.1907833534676606e-14
4.940699165968905 3.610262499055585e-21 4.734745328589758e-13 4.2974256445866257e-13 4.373196840031325e-14
5.015371051989984 3.687262711030511e-21 4.908814077649511e-13 4.453085017316475e-13 4.5572906033303615e-14
5.091171501069577 3.7664484493368196e-21 5.090016470749757e-13 4.615306480097332e-13 4.747099906524245e-14
5.129500256944802 3.80548473022025e-21 5.181487712547756e-13 4.697245949652696e-13 4.8424176289506e-14
5.168117569889187 3.844474934613285e-21 5.273984531268602e-13 4.780087982070788e-13 4.9389654919781464e-14
5.20702561229733 3.886056975929411e-21 5.371162734045426e-13 4.866704862212696e-13 5.0445787183272946e-14
5.246226572918644 3.9273109142502595e-21 5.469048319772099e-13 4.953974900694448e-13 5.1507341907765264e-14
5.265937586045735 3.947810856300513e-21 5.518251340000505e-13 4.997851309426243e-13 5.2040003057426143e-14
5.285722656980489 3.968224053195235e-21 5.5676251781309e-13 5.041886785788546e-13 5.2573839234235465e-14
5.305582063971359 3.988549002901222e-21 5.617167850553386e-13 5.086079958537342e-13 5.31087892016044e-14
5.3255160863122235 4.0092731436491186e-21 5.667568512001259e-13 5.131076157279391e-13 5.36492354721868e-14
5.365609099470188 4.0542315317481064e-21 5.774268971937683e-13 5.226593622701701e-13 5.476753492359805e-14
5.406003951863644 4.0990140495778836e-21 5.882002418956203e-13 5.323090201497971e-13 5.5891221745823226e-14
5.446702915881641 4.143621689507302e-21 5.990777893916431e-13 5.420579835571992e-13 5.701980583444378e-14
5.487708281020852 4.18897182044694e-21 6.101939378542312e-13 5.520361016797462e-13 5.815783617448467e-14
5.529022354014368 4.2422802498981365e-21 6.226114940989654e-13 5.632674084129195e-13 5.93440856860457e-14
5.570647458961463 4.295998612194898e-21 6.352420524066472e-13 5.74706244245085e-13 6.05358081615623e-14
5.612585937458331 4.3501827867130465e-21 6.480968974787999e-13 5.863643931896087e-13 6.1732504289191e-14
5.654840148729818 4.40626479848833e-21 6.613941644214191e-13 5.984542965645386e-13 6.293986785688048e-14
5.67608639626678 4.4405894481553955e-21 6.690507362274785e-13 6.05478690869328e-13 6.357204535815056e-14
5.686739436050992 4.4579274609479384e-21 6.72923600500225e-13 6.090348921979391e-13 6.388870830228592e-14
5.6974124697621304 4.475387173343558e-21 6.768270504732967e-13 6.126213069549604e-13 6.420574351833653e-14
5.718818669136295 4.5106859904950805e-21 6.847284206045841e-13 6.198875215941929e-13 6.484089901039113e-14
5.740305295436557 4.54821926216371e-21 6.930200778242993e-13 6.275376678742494e-13 6.548240995004972e-14
5.7835210386641895 4.639111654196261e-21 7.121911588746884e-13 6.453830905193534e-13 6.6808068355335e-14
5.827062130521658 4.738045099895065e-21 7.328553659673553e-13 6.647028706080029e-13 6.815249535935256e-14
5.8489554468988025 4.8041148748200026e-21 7.458665485769943e-13 6.769863668375277e-13 6.888018173946664e-14
5.870931020387893 4.8730297927642944e-21 7.594085411052923e-13 6.897980466421407e-13 6.961049446315163e-14
5.892989160043636 4.9450203172207805e-21 7.735228646137268e-13 7.031794928442425e-13 7.034337176948422e-14
5.915130176081913 5.025019295423875e-21 7.889899540237527e-13 7.178863544180151e-13 7.110359960573748e-14
5.95966208400165 5.242325446080877e-21 8.293064581376093e-13 7.564603035692671e-13 7.284615456834206e-14
6.004529249263818 5.543845660387752e-21 8.836077754220996e-13 8.087949781333047e-13 7.481279728879519e-14
6.027089341400364 5.749508946917383e-21 9.198305221002144e-13 8.438762567242916e-13 7.595426537592248e-14
6.049734195844842 5.987724620470804e-21 9.61540420225308e-13 8.843759379140234e-13 7.716448231128459e-14
6.095279466722835 6.665834041421439e-21 1.0784935512066562e-12 9.983367427538576e-13 8.01568084527985e-14
6.141167624020661 7.686013679438262e-21 1.252914795526163e-12 1.1688525456923605e-12 8.406224983380243e-14
6.164241091010745 8.333965134038118e-21 1.3636431286409278e-12 1.2771192029167546e-12 8.652392572417348e-14
6.187401249150058 9.056878570414942e-21 1.4874975487119227e-12 1.3984477981983401e-12 8.904975051358261e-14
6.1990139391386085 9.407862144063928e-21 1.548042896592254e-12 1.4577083000400016e-12 9.033459655225277e-14
6.204828454712694 9.591457561291678e-21 1.5797334770224444e-12 1.488750124609037e-12 9.098335241340759e-14
6.210648424152782 9.72468215707884e-21 1.603178182272216e-12 1.5116444488484313e-12 9.153373342378454e-14
6.233982942956859 1.0170467055109136e-20 1.6829683165352424e-12 1.5895256910377076e-12 9.344262549753459e-14
6.239830258556775 1.0223736009425436e-20 1.6933698995683014e-12 1.5996699149346261e-12 9.369998463367523e-14
6.245683058788269 1.0223563311787675e-20 1.6949296060127414e-12 1.6009719253174735e-12 9.395768069526844e-14
6.257405133728602 1.0200103044708326e-20 1.6942140007269546e-12 1.599809668019998e-12 9.440433270695649e-14
6.269149208991335 1.0098444311580471e-20 1.6804767735902436e-12 1.5859296017861916e-12 9.454717180405151e-14
6.280915325867298 9.86076853434403e-21 1.6440050083327407e-12 1.5496904107064746e-12 9.431459762626643e-14
6.304513850009849 9.281776103851593e-21 1.5532884906900633e-12 1.4597783256295902e-12 9.351016506047303e-14
6.32820103803542 8.57846479610792e-21 1.440984382930184e-12 1.3486396035475195e-12 9.23447793826648e-14
6.3519772230701035 7.93846157918125e-21 1.3384887102347121e-12 1.2471940973503472e-12 9.129461288436472e-14
6.375842739491607 7.397199459344824e-21 1.2519136045106423e-12 1.1615507815620606e-12 9.03628229485814e-14
6.399797922933955 6.97260132755816e-21 1.1844876267988842e-12 1.0946292146131257e-12 8.985841218575882e-14
6.42384311029221 6.61747617852014e-21 1.1283835475379966e-12 1.0389442205666044e-12 8.943932697139216e-14
6.447978639727206 6.3628862604775696e-21 1.0890484048806562e-12 9.99695422586382e-13 8.935298229427407e-14
6.472204850670314 6.150101047279203e-21 1.056583779111056e-12 9.6725130160436e-13 8.933247750669626e-14
6.496522083828205 6.014623838388097e-21 1.037191200064471e-12 9.476101048544773e-13 8.958109520999396e-14
