Dust emission spectrum from A.P. Jones, M. Kohler, N. Ysard, M. Bocchio, and L. Verstraete (2017), A&A, 602A, 46J 
inside the DustPedia framework.

lambda    nu*dP/dnu     j_nu    j_nu(carb.) j_nu(sil)
 (um)   (erg s-1 H-1) (Jy cm2 sr-1 H-1)
0.9927057738263894 7.830335086069673e-23 2.0633377705947523e-15 2.0633377705913374e-15 3.4154844792865484e-27
1.0001793341362166 7.959628195089521e-23 2.1131975165423885e-15 2.113197516538275e-15 4.1143925636111945e-27
1.0077091589558085 8.088735057142651e-23 2.1636412335788126e-15 2.163641233573863e-15 4.949950230513825e-27
1.0114953028030835 8.153202745135608e-23 2.189079557661543e-15 2.189079557656116e-15 5.426732165380403e-27
1.0152956718711033 8.217604841422739e-23 2.2146608145166364e-15 2.214660814510689e-15 5.947516637314606e-27
1.0229392996569957 8.346123877039958e-23 2.266230724885947e-15 2.26623072487881e-15 7.136977042171974e-27
1.0267826658714554 8.410084876685589e-23 2.2921780014298542e-15 2.2921780014220394e-15 7.814621526180506e-27
1.0306404723013447 8.473952006300981e-23 2.31826258359197e-15 2.318262583583416e-15 8.553836149337555e-27
1.03451277320114 8.537719103053052e-23 2.344483348035131e-15 2.344483348025772e-15 9.359941987819035e-27
1.0383996230291617 8.60138003841014e-23 2.370839157418109e-15 2.3708391574078707e-15 1.0238694536690668e-26
1.0403485208654093 8.633168790068403e-23 2.3840673447799135e-15 2.3840673447692055e-15 1.070723883544459e-26
1.0423010764483396 8.664928719317028e-23 2.3973288606648725e-15 2.3973288606536754e-15 1.1196316936869352e-26
1.0462171883269815 8.728359089344111e-23 2.4239512932342008e-15 2.4239512932219616e-15 1.2239535557638687e-26
1.0471985131304309 8.744197489616507e-23 2.430627502603256e-15 2.4306275025907414e-15 1.2514553839697225e-26
1.048180758391296 8.760028025435195e-23 2.437311915480207e-15 2.4373119154674113e-15 1.2795492362498501e-26
1.0501480137395462 8.791665129810411e-23 2.4507052773895027e-15 2.4507052773761283e-15 1.3375618087224254e-26
1.0521189612883777 8.823269656212854e-23 2.464131229727535e-15 2.464131229713554e-15 1.3980912460598824e-26
1.0531058218030118 8.839035189861198e-23 2.4708495931822885e-15 2.4708495931679944e-15 1.4293341162874612e-26
1.0540936079674168 8.854712750516259e-23 2.4775537771143353e-15 2.477553777099723e-15 1.4612523234359818e-26
1.058054026499678 8.917333625817731e-23 2.504449578728911e-15 2.504449578712952e-15 1.5958906044806143e-26
1.0590464539527713 8.9329660449138e-23 2.511193199775914e-15 2.511193199759601e-15 1.6313630433678544e-26
1.06003981227728 8.948589161543728e-23 2.5179446505867413e-15 2.5179446505700652e-15 1.6675901991241324e-26
1.0620293250338977 8.979807123608867e-23 2.531470964145994e-15 2.5314709641285705e-15 1.7423700829931384e-26
1.0660195594769086 9.042127425977998e-23 2.5586166950043647e-15 2.5586166949853473e-15 1.9016787707084273e-26
1.070024785945596 9.104288759108326e-23 2.5858855214315927e-15 2.5858855214108437e-15 2.074882334780591e-26
1.0740450607676866 9.166285394227298e-23 2.613276182314926e-15 2.6132761822922953e-15 2.2631297965540095e-26
1.07808044048254 9.228111648529914e-23 2.6407874055716892e-15 2.6407874055470125e-15 2.4676596162688198e-26
1.0861967418109137 9.351121190756434e-23 2.69613487599249e-15 2.6961348759631804e-15 2.9310071575557506e-26
1.0902777775684922 9.412044739266966e-23 2.7238963401718756e-15 2.7238963401399477e-15 3.1928106553271505e-26
1.0943741465085532 9.472771308957964e-23 2.751771133321228e-15 2.751771133286459e-15 3.476881525967985e-26
1.1026131145906286 9.593611930001019e-23 2.807855368236955e-15 2.807855368195764e-15 4.119129625348213e-26
1.1109141095355224 9.713600412993507e-23 2.8643768148165216e-15 2.8643768147677838e-15 4.8737724715015507e-26
1.1192775983109025 9.832583491790316e-23 2.921291449778512e-15 2.9212914497209187e-15 5.759318799577671e-26
1.1277040513999907 9.950008185159842e-23 2.9784342116675614e-15 2.978434211599591e-15 6.79712257990898e-26
1.1361939428280308 1.0066442128578954e-22 3.0359729927814657e-15 3.0359729927013482e-15 8.011784177838354e-26
1.1447477501889525 1.0181846507381997e-22 3.093896473313013e-15 3.0938964732186967e-15 9.431609072174646e-26
1.1533659546722406 1.0296246352196848e-22 3.152212492384731e-15 3.1522124922738394e-15 1.10891378042326e-25
1.1707974979042381 1.0522402364677189e-22 3.2701383244955793e-15 3.2701383243428574e-15 1.5272258783736147e-25
1.1884924949847024 1.074405319661939e-22 3.389487422066534e-15 3.389487421857239e-15 2.092951849708297e-25
1.2064549276569216 1.0962933670944074e-22 3.5108099550976594e-15 3.510809954812232e-15 2.854272734253328e-25
1.2246888378427687 1.1176651741334909e-22 3.633347289282525e-15 3.633347288895155e-15 3.8737031561772486e-25
1.2431983285522175 1.1384707395989516e-22 3.756918065789383e-15 3.756918065266176e-15 5.232078247003263e-25
1.2619875648066055 1.1587023039986562e-22 3.881471298453007e-15 3.881471297749669e-15 7.033388023016785e-25
1.3004222497298317 1.197107016185424e-22 4.132252020949166e-15 4.132252019695851e-15 1.2533151506053382e-24
1.3400274889804893 1.2327291797685802e-22 4.384810375833738e-15 4.384810373640864e-15 2.1928730660766395e-24
1.3808389325824078 1.2654368800135707e-22 4.6382370842203766e-15 4.638237080451393e-15 3.768983311683749e-24
1.4228933163050095 1.2953897158805184e-22 4.892628235300414e-15 4.89262822893385e-15 6.366563827826615e-24
1.466228494730424 1.3233094111885032e-22 5.150299555669854e-15 5.150299545095057e-15 1.0574797978940417e-23
1.5108834753276823 1.3486529691049646e-22 5.408796192290165e-15 5.408796175011268e-15 1.7278897834265633e-23
1.5568984535646726 1.3709811350385406e-22 5.665799466451598e-15 5.665799438648844e-15 2.780275612656068e-23
1.6043148490894465 1.3903350447076532e-22 5.920774298562717e-15 5.920774254427887e-15 4.4134829921835484e-23
1.6531753430134553 1.4067739099639465e-22 6.173232835384842e-15 6.173232766344645e-15 6.90401956174269e-23
1.7035239163302658 1.420493547508523e-22 6.423281176759219e-15 6.423281070306899e-15 1.0645231965389695e-22
1.755405889504358 1.4326238995115745e-22 6.675428922983431e-15 6.6754287611160275e-15 1.618674016617688e-22
1.8088679632656115 1.4428863135237148e-22 6.9280085352948965e-15 6.928008292482806e-15 2.4281209077427195e-22
1.8639582606462262 1.4510921596877388e-22 7.179605997602859e-15 7.179605638133485e-15 3.594693720972166e-22
1.9207263702978936 1.4573787050208585e-22 7.430317153196685e-15 7.430316627784693e-15 5.2541199002565135e-22
1.979223391128241 1.462065100207179e-22 7.681233344595066e-15 7.681232586097575e-15 7.584974888583295e-22
2.039501978296691 1.4655332036101633e-22 7.93394574637999e-15 7.93394466449312e-15 1.0818868674825073e-21
2.1016163906111602 1.468852116399325e-22 8.194094217804344e-15 8.194092692470017e-15 1.5253343274889806e-21
2.1656225393682647 1.4726418079888091e-22 8.465435824612041e-15 8.465433698157118e-15 2.126454925376106e-21
2.231578038680979 1.476946779892253e-22 8.74875708307609e-15 8.748754150876496e-15 2.932199588415436e-21
2.299542257339062 1.4821382426553316e-22 9.046894816841035e-15 9.046890816349909e-15 4.0004911266751345e-21
2.369576372248914 1.4890368055076267e-22 9.365815029105488e-15 9.365809627041351e-15 5.402064136284821e-21
2.4417434235010123 1.4986114065163057e-22 9.713114170771705e-15 9.713106948603971e-15 7.222167733119015e-21
2.5161083711144245 1.512521347554484e-22 1.0101835419350435e-14 1.010182585663273e-14 9.562717706011206e-21
2.5927381535095444 1.5334819510442011e-22 1.055374898201288e-14 1.0553736437835016e-14 1.2544177863708612e-20
2.6717017477616296 1.564734911409482e-22 1.109681076412922e-14 1.1096794457417365e-14 1.630671185294175e-20
2.753070231689431 1.6111607848117355e-22 1.1774042694816708e-14 1.1774021682921348e-14 2.101189536093376e-20
2.836916847834745 1.6838173744668228e-22 1.2679759784678259e-14 1.2679732939634101e-14 2.6845044158785475e-20
2.9233170693905177 1.8070589942177798e-22 1.402224937688365e-14 1.4022215366005126e-14 3.4010878524216615e-20
2.967498994190263 1.911693930941372e-22 1.505838424611887e-14 1.505834614203004e-14 3.810408882858231e-20
3.0123486681368425 2.033889549673622e-22 1.6263051464581715e-14 1.6263008831216447e-14 4.2633365269188375e-20
3.0578761833420214 2.307255255207139e-22 1.8727722834293704e-14 1.8727675183472555e-14 4.765082115533963e-20
3.1040917844459814 2.6595089958781463e-22 2.1913182267991987e-14 2.1913129107707695e-14 5.316028429454109e-20
3.127460860933648 3.0321214740618315e-22 2.5171431384395637e-14 2.5171375254518767e-14 5.612987686290874e-20
3.1510058709225794 3.5285720064522836e-22 2.9513290306097134e-14 2.951323106630559e-14 5.923979154441298e-20
3.162844764501044 3.990679579603918e-22 3.3503807801312777e-14 3.350374694649767e-14 6.085481509971225e-20
3.1747281389236908 4.528073508203325e-22 3.8158337324948986e-14 3.815827481831855e-14 6.250663044232228e-20
3.1986289994194426 6.027019366423443e-22 5.117241229769238e-14 5.11723463662518e-14 6.593144056882018e-20
3.2227097969389145 9.56036712325545e-22 8.178340762476116e-14 8.178333804865653e-14 6.957610464099255e-20
3.2348180950136065 1.2911078974864076e-21 1.1086177671836914e-13 1.1086170519307643e-13 7.152529273763989e-20
3.240889293275058 1.5416166474224483e-21 1.3262030445747505e-13 1.3262023190383203e-13 7.25536429971248e-20
3.2469718861334385 1.8314164497680886e-21 1.5784654198799254e-13 1.5784646837013443e-13 7.36178581313116e-20
3.2714166318528037 3.3772538595402818e-21 2.9327091692105913e-13 2.9327083889240054e-13 7.802865865400498e-20
3.2744851364798273 3.4738879456995165e-21 3.019452918312565e-13 3.0194521327934677e-13 7.855190964232829e-20
3.2775565192852394 3.573297571899651e-21 3.108771535931706e-13 3.108770745150565e-13 7.907811405956502e-20
3.283707930232385 3.477692659152709e-21 3.0312737137701914e-13 3.031272913510784e-13 8.002594071386831e-20
3.2898708863219004 3.1745063403731947e-21 2.772199532251829e-13 2.772198723303647e-13 8.089481829811571e-20
3.29141343181113 3.1030074889203715e-21 2.7110323122642603e-13 2.7110315011325006e-13 8.111317605894778e-20
3.292184975758714 3.0678754927975523e-21 2.680966528038997e-13 2.680965715813736e-13 8.12225260983413e-20
3.295272960557952 2.8461196254177005e-21 2.4895105886147384e-13 2.4895097721241953e-13 8.164905433992134e-20
3.3076538914384823 2.077890750728043e-21 1.8243669760668418e-13 1.824366142410607e-13 8.336562347458331e-20
3.310756385682612 1.921536811418098e-21 1.6886722521128477e-13 1.6886714141226423e-13 8.379902053286693e-20
3.313861789986515 1.7772760317846716e-21 1.56335896569357e-13 1.5633581233522983e-13 8.423412719978189e-20
3.3200813396944477 1.574966217902269e-21 1.3879997876085659e-13 1.3879989359367159e-13 8.516718503940842e-20
3.345076488085796 1.2140639123091044e-21 1.0779957181520385e-13 1.0779948249623604e-13 8.931896780914227e-20
3.3482140837626964 1.2275966069805755e-21 1.0910341169263931e-13 1.0910332181140016e-13 8.988123915089292e-20
3.3513546224236106 1.2412789099346234e-21 1.1042291166591987e-13 1.1042282121949159e-13 9.04464282572455e-20
3.3576445397418455 1.3412748150941819e-21 1.1954238611200144e-13 1.1954229448489949e-13 9.162710192690976e-20
3.3702598118196083 1.710103126031937e-21 1.5298720686349495e-13 1.5298711275875278e-13 9.410474217605811e-20
3.382922481734668 1.7941041924117635e-21 1.6110504491431293e-13 1.61104948388742e-13 9.65255709109833e-20
3.389271646505754 1.837622472291017e-21 1.6532255355527072e-13 1.653224558000494e-13 9.775522132326047e-20
3.395632727569191 1.884515433847933e-21 1.698595003938449e-13 1.6985940137120063e-13 9.902264424305223e-20
3.421196662673239 2.1096770906338186e-21 1.9158586298702584e-13 1.9158575870273644e-13 1.0428428930518083e-19
3.4276182099114902 2.0642979566339496e-21 1.8781672230789612e-13 1.878166168355359e-13 1.0547236024711655e-19
3.4340518103208963 1.86545512676922e-21 1.700439100928442e-13 1.7004380349008861e-13 1.0660275565787429e-19
3.4469541582030403 1.5822661931196494e-21 1.447719718554404e-13 1.447718630692613e-13 1.0878617909290264e-19
3.472904465399547 1.5028961503309857e-21 1.3854512273130146e-13 1.3854500893292333e-13 1.1379837810105047e-19
3.4990501388274233 1.3815061016340949e-21 1.2831351616742797e-13 1.283133972065707e-13 1.189608572778305e-19
3.5253949054701885 9.495191795404987e-22 8.885481095053939e-14 8.885468692255744e-14 1.2402798190669863e-19
3.5519380250092896 5.435046713397311e-22 5.124341843273697e-14 5.124328926880028e-14 1.2916393669008087e-19
3.578680990867387 3.8251474652777883e-22 3.633629159136753e-14 3.6336156788635737e-14 1.348027317848084e-19
3.605625307711299 3.1739359193049815e-22 3.0377230784910724e-14 3.037709001496708e-14 1.4076994364692863e-19
3.660119384959845 2.6987645402073155e-22 2.6219818411446746e-14 2.6219664981106606e-14 1.5343034013056033e-19
3.715437065384467 2.362202166372194e-22 2.329680721527963e-14 2.329664025515615e-14 1.6696012347286815e-19
3.8285932144167436 2.1910331456925093e-22 2.226678962220479e-14 2.226659292952055e-14 1.96692684245281e-19
3.94519561050918 2.1577219998899256e-22 2.259609874353436e-14 2.2595868612665363e-14 2.3013086899865937e-19
4.06534921144712 2.180988810257241e-22 2.353535360210403e-14 2.3535086078276785e-14 2.675238272506719e-19
4.189162171576248 2.236988331813387e-22 2.487484166532579e-14 2.4874532417152216e-14 3.0924817357640447e-19
4.316745939156006 2.3168212002748804e-22 2.654718282725082e-14 2.6546827306412923e-14 3.5552083790349586e-19
4.448215356677963 2.4174820381340735e-22 2.8544240647129e-14 2.8543834495305216e-14 4.061518237900097e-19
4.58368876423945 2.5393006837818176e-22 3.089574583558801e-14 3.0895284232848695e-14 4.6160273931192e-19
4.723288106065518 2.6850719117794424e-22 3.3664315749641446e-14 3.366379311306917e-14 5.226365722709389e-19
4.867139040275056 2.8604197039894395e-22 3.695497791226132e-14 3.695438946064453e-14 5.884516168123364e-19
4.940699165968905 2.966281674000574e-22 3.890184800393204e-14 3.890122452876013e-14 6.234751719293701e-19
5.015371051989984 3.075867585080688e-22 4.0948701749569875e-14 4.094804184005794e-14 6.59909511952339e-19
5.091171501069577 3.209739020741469e-22 4.3376737268922217e-14 4.337603881452736e-14 6.984543948599422e-19
5.129500256944802 3.278428212983803e-22 4.4638559096418455e-14 4.463784080987296e-14 7.182865455078685e-19
5.168117569889187 3.350041619499668e-22 4.5957036996846725e-14 4.595629836489259e-14 7.3863195412493415e-19
5.20702561229733 3.438058052051198e-22 4.751955362735177e-14 4.7518793071199574e-14 7.605561521980878e-19
5.246226572918644 3.528311190205544e-22 4.913413989304818e-14 4.9133356951217766e-14 7.829418304163974e-19
5.265937586045735 3.5742988295316607e-22 4.9961561036154965e-14 4.9960766726770576e-14 7.943093843898765e-19
5.285722656980489 3.6208728030687143e-22 5.080273269585701e-14 5.0801926901551076e-14 8.057943059322217e-19
5.305582063971359 3.668042578842147e-22 5.1657910767414246e-14 5.165709337014705e-14 8.17397267191812e-19
5.3255160863122235 3.718741334103143e-22 5.256868398409392e-14 5.256785480199472e-14 8.291820991952718e-19
5.365609099470188 3.845192941345343e-22 5.4765442275445537e-14 5.476458866929799e-14 8.536061475592102e-19
5.406003951863644 3.9764583244205895e-22 5.706137427250119e-14 5.706049572165809e-14 8.785508431021843e-19
5.446702915881641 4.1127707611555474e-22 5.946174145450565e-14 5.946083743155469e-14 9.040229509589541e-19
5.487708281020852 4.260101297427116e-22 6.205551380523777e-14 6.20545836986236e-14 9.301066141733093e-19
5.529022354014368 4.465222732631607e-22 6.553312919661974e-14 6.553217177926918e-14 9.574173505478597e-19
5.570647458961463 4.682459970285861e-22 6.923874401152655e-14 6.923775868952821e-14 9.8532199834503e-19
5.612585937458331 4.912687236494235e-22 7.31899672349477e-14 7.318895340568248e-14 1.0138292652310986e-18
5.654840148729818 5.165832119798656e-22 7.754076013742344e-14 7.753971708875301e-14 1.0430486704284741e-18
5.67608639626678 5.338430778982471e-22 8.043258861639007e-14 8.043153028515167e-14 1.0583312383719477e-18
5.686739436050992 5.427402969063522e-22 8.192658088992823e-14 8.192551485350679e-14 1.0660364214475698e-18
5.6974124697621304 5.518214009651561e-22 8.345370729662627e-14 8.345263351219056e-14 1.0737844357321338e-18
5.718818669136295 5.705530046540831e-22 8.661074137530705e-14 8.660965196564852e-14 1.0894096585354915e-18
5.740305295436557 5.912064573811467e-22 9.00831559535669e-14 9.008205065492627e-14 1.1052986406555441e-18
5.7835210386641895 6.448213166845817e-22 9.899223709808696e-14 9.89910987801964e-14 1.1383178905181092e-18
5.827062130521658 7.066021066614941e-22 1.0929341839362865e-13 1.0929224607406882e-13 1.1723195598452133e-18
5.8489554468988025 7.499680616649423e-22 1.1643686803346213e-13 1.1643567746195846e-13 1.190571503669225e-18
5.870931020387893 7.965098777039341e-22 1.241273765863793e-13 1.2412616753387883e-13 1.2090525004902833e-18
5.892989160043636 8.464833332476407e-22 1.3241082357159849e-13 1.3240959580663617e-13 1.2277649623372392e-18
5.915130176081913 9.033274237990082e-22 1.4183353747927347e-13 1.4183229032976147e-13 1.247149511957071e-18
5.95966208400165 1.0623199077107906e-21 1.6805304614030177e-13 1.680517556514413e-13 1.2904888604775476e-18
6.004529249263818 1.2915507880690226e-21 2.0585427311670656e-13 2.0585293418003592e-13 1.3389366705766563e-18
6.027089341400364 1.4509249280951262e-21 2.3212504693179204e-13 2.3212368040037694e-13 1.3665314151015715e-18
6.049734195844842 1.6392810434383116e-21 2.632444013851657e-13 2.6324300566107034e-13 1.3957240954138135e-18
6.095279466722835 2.183435215394731e-21 3.5326724077555736e-13 3.5326577475083577e-13 1.466024721548005e-18
6.141167624020661 3.020971922599682e-21 4.924555922688509e-13 4.924540367360136e-13 1.5555328373527042e-18
6.164241091010745 3.5558352842246905e-21 5.818227307080766e-13 5.818211199027604e-13 1.6108053163744092e-18
6.187401249150058 4.1651581583958035e-21 6.840836500612779e-13 6.840819820953692e-13 1.6679659090299919e-18
6.1990139391386085 4.462674558482268e-21 7.343232228823041e-13 7.343215257544082e-13 1.6971278956753135e-18
6.204828454712694 4.619398470753193e-21 7.608247611296694e-13 7.608230492293215e-13 1.7119003482087334e-18
6.210648424152782 4.73379770739087e-21 7.803978660891211e-13 7.803961413679607e-13 1.724721160356895e-18
6.233982942956859 5.122450337250947e-21 8.476426474719164e-13 8.476408769812552e-13 1.7704906608515523e-18
6.239830258556775 5.1721227140535494e-21 8.566650109878958e-13 8.566632333690324e-13 1.7776188634993736e-18
6.245683058788269 5.1764106699984114e-21 8.581794262813065e-13 8.58177641509299e-13 1.7847720074131495e-18
6.257405133728602 5.165688601737669e-21 8.580091705053812e-13 8.580073727514431e-13 1.797753938137857e-18
6.269149208991335 5.0891893874931e-21 8.468893126713325e-13 8.468875079504172e-13 1.804720915397528e-18
6.280915325867298 4.897416305386873e-21 8.165060264729204e-13 8.165042222613504e-13 1.8042115700737706e-18
6.304513850009849 4.424520472168662e-21 7.404355211057387e-13 7.40433724714138e-13 1.7963916007981484e-18
6.32820103803542 3.838376517135413e-21 6.447587940802108e-13 6.447570127843965e-13 1.781295814255009e-18
6.3519772230701035 3.3008364055321748e-21 5.565476659511926e-13 5.565458974794778e-13 1.768471714779934e-18
6.375842739491607 2.8486187686963702e-21 4.821046951884143e-13 4.821029371960124e-13 1.7579924019176785e-18
6.399797922933955 2.486150946353185e-21 4.2234094507465163e-13 4.223391888444694e-13 1.75623018223796e-18
6.42384311029221 2.1847936748708018e-21 3.7254161117971737e-13 3.7253985493852247e-13 1.7562411948357864e-18
6.447978639727206 1.9651594418184904e-21 3.363495225023804e-13 3.363477593184458e-13 1.7631839345482678e-18
6.472204850670314 1.782189426723869e-21 3.061791058559474e-13 3.061773342761013e-13 1.771579846124543e-18
6.496522083828205 1.6632405720168928e-21 2.868173523796695e-13 2.868155666808398e-13 1.7856988296696905e-18
