Dust emission spectrum from A.P. Jones, M. Kohler, N. Ysard, M. Bocchio, and L. Verstraete (2017), A&A, 602A, 46J 
inside the DustPedia framework.

lambda    nu*dP/dnu     j_nu    j_nu(carb.) j_nu(sil)
 (um)   (erg s-1 H-1) (Jy cm2 sr-1 H-1)
0.9927057738263894 6.722139132221917e-22 1.7713218423285112e-14 1.7713218123479706e-14 2.9980540566555146e-22
1.0001793341362166 6.8353007491299e-22 1.8147004123625624e-14 1.8147003762774995e-14 3.6085062552096903e-22
1.0077091589558085 6.948858483302318e-22 1.858737693170023e-14 1.858737649795026e-14 4.337499750273071e-22
1.0114953028030835 7.0057797821019465e-22 1.8810042857854664e-14 1.8810042382542302e-14 4.753123630647046e-22
1.0152956718711033 7.06279285714659e-22 1.9034366927605226e-14 1.9034366406921035e-14 5.20684186653136e-22
1.0229392996569957 7.177029578412541e-22 1.9487854701938855e-14 1.9487854077719393e-14 6.24219462728866e-22
1.0267826658714554 7.234122877507374e-22 1.97166824860842e-14 1.9716681802931525e-14 6.831526764324023e-22
1.0306404723013447 7.29129599479864e-22 1.9947173028673047e-14 1.994717228127171e-14 7.474013397750981e-22
1.03451277320114 7.34854678238182e-22 2.0179330516262194e-14 2.017932969884153e-14 8.174206685285337e-22
1.0383996230291617 7.405873142579163e-22 2.041315924059924e-14 2.0413158346896614e-14 8.937026326251556e-22
1.0403485208654093 7.434564020945283e-22 2.0530701687891883e-14 2.0530700753535312e-14 9.34356572083737e-22
1.0423010764483396 7.463273029269962e-22 2.0648663604356658e-14 2.0648662627577927e-14 9.767787294860432e-22
1.0462171883269815 7.520744449211366e-22 2.0885848126946967e-14 2.0885847059724018e-14 1.0672229506753401e-21
1.0471985131304309 7.535123252824913e-22 2.094540732362254e-14 2.0945406232565695e-14 1.0910568406687717e-21
1.048180758391296 7.549506376044214e-22 2.100507189349115e-14 2.1005070778091273e-14 1.1153998759929288e-21
1.0501480137395462 7.578285463349039e-22 2.1124717450417895e-14 2.1124716284762936e-14 1.165654954130075e-21
1.0521189612883777 7.607081477424278e-22 2.1244785398125022e-14 2.1244784180051686e-14 1.2180733339523406e-21
1.0531058218030118 7.6214664381158065e-22 2.1304923946531565e-14 2.1304922701408494e-14 1.2451230726699255e-21
1.0540936079674168 7.635792242619738e-22 2.136499110133175e-14 2.1364989828578567e-14 1.2727531839378872e-21
1.058054026499678 7.693133778251206e-22 2.160630795988591e-14 2.160630657063086e-14 1.3892550452884506e-21
1.0590464539527713 7.707478604871905e-22 2.1666899619519878e-14 2.1666898199583208e-14 1.419936677359238e-21
1.06003981227728 7.721827154716564e-22 2.172759641322036e-14 2.172759496195444e-14 1.4512659142423611e-21
1.0620293250338977 7.750535318236769e-22 2.18493057196303e-14 2.1849304203710905e-14 1.5159193968776777e-21
1.0660195594769086 7.80799517304398e-22 2.209398945967965e-14 2.209398780609389e-14 1.653585764050946e-21
1.070024785945596 7.865511714390809e-22 2.2340364414019103e-14 2.2340362610860236e-14 1.8031588648812776e-21
1.0740450607676866 7.92308337647421e-22 2.2588435977866253e-14 2.258843401225292e-14 1.965613324337177e-21
1.07808044048254 7.980708657184166e-22 2.2838209714103654e-14 2.283820757210495e-14 2.1419987018773948e-21
1.0861967418109137 8.096025079715727e-22 2.3342629326532912e-14 2.3342626785364988e-14 2.5411679269587303e-21
1.0902777775684922 8.153510467152982e-22 2.3596697568142682e-14 2.3596694801666333e-14 2.766476341523964e-21
1.0943741465085532 8.211040594848383e-22 2.3852475422968976e-14 2.3852472412192956e-14 3.0107760156195496e-21
1.1026131145906286 8.326230547809157e-22 2.4369185778439112e-14 2.4369182215929143e-14 3.56250996938723e-21
1.1109141095355224 8.441586611007136e-22 2.4892814137680525e-14 2.4892809927813668e-14 4.209866859394129e-21
1.1192775983109025 8.557009950234282e-22 2.5423145426795155e-14 2.542314045838454e-14 4.968410623074607e-21
1.1277040513999907 8.67207319200443e-22 2.595897309881075e-14 2.595896724274712e-14 5.856063627101423e-21
1.1361939428280308 8.7872710824252e-22 2.6501833861194113e-14 2.650182696775885e-14 6.89343526365135e-21
1.1447477501889525 8.902600321729359e-22 2.7051796271672466e-14 2.705178816747933e-14 8.10419312899724e-21
1.1533659546722406 9.018101790897134e-22 2.760906465373934e-14 2.7609055138245783e-14 9.515493560103007e-21
1.1707974979042381 9.249971122519287e-22 2.874693821799667e-14 2.8746925149283144e-14 1.3068713519875891e-20
1.1884924949847024 9.482515119265605e-22 2.991502847027938e-14 2.991501061133191e-14 1.7858947466207993e-20
1.2064549276569216 9.717319988514069e-22 3.1119100759465596e-14 3.1119076474829604e-14 2.428463598965072e-20
1.2246888378427687 9.952779678086091e-22 3.2354864319930237e-14 3.235483145929007e-14 3.2860640175251977e-20
1.2431983285522175 1.0188671506177748e-21 3.36222993850829e-14 3.362225513516761e-14 4.4249915285212935e-20
1.2619875648066055 1.0425302633777337e-21 3.492313151622092e-14 3.492307221446131e-14 5.930175961669643e-20
1.3004222497298317 1.0899132145333364e-21 3.76223346995819e-14 3.762222969109228e-14 1.0500848962746976e-19
1.3400274889804893 1.1375429985817508e-21 4.046233694309615e-14 4.0462154405635984e-14 1.8253746016660726e-19
1.3808389325824078 1.1855680800404343e-21 4.3454919969240355e-14 4.3454608328758897e-14 3.1164048146898943e-19
1.4228933163050095 1.2343778527892892e-21 4.662189194146281e-14 4.6621369130337543e-14 5.228111252716334e-19
1.466228494730424 1.2848351325845644e-21 5.000558264386649e-14 5.000472037661676e-14 8.622672497273867e-19
1.5108834753276823 1.3367894685692568e-21 5.3612174170272065e-14 5.361077543254206e-14 1.398737729986913e-18
1.5568984535646726 1.390150164672454e-21 5.74501855641316e-14 5.744795155303367e-14 2.2340110979041498e-18
1.6043148490894465 1.4452088187393839e-21 6.154455548408881e-14 6.15410358416624e-14 3.5196424264139194e-18
1.6531753430134553 1.5022699360367598e-21 6.592290368102781e-14 6.591744028150007e-14 5.4633995277355906e-18
1.7035239163302658 1.5616966142768544e-21 7.06178249375887e-14 7.060946736397693e-14 8.357573611765698e-18
1.755405889504358 1.624632262429067e-21 7.570107686691834e-14 7.568847117293415e-14 1.2605693984191365e-17
1.8088679632656115 1.6909928590083316e-21 8.119290376885187e-14 8.117415056735162e-14 1.8753201500215995e-17
1.8639582606462262 1.760655804353e-21 8.711242003655554e-14 8.708489184374717e-14 2.752819280836088e-17
1.9207263702978936 1.8337373259243836e-21 9.349148481676187e-14 9.345159740341378e-14 3.9887413348105903e-17
1.979223391128241 1.9104475545876653e-21 1.0036894702786792e-13 1.0031187593971523e-13 5.707108815266768e-17
2.039501978296691 1.990933320689614e-21 1.0778300288318359e-13 1.0770234037244566e-13 8.066251073791133e-17
2.1016163906111602 2.075941862348778e-21 1.1580786806822154e-13 1.156952053581577e-13 1.1266271006383898e-16
2.1656225393682647 2.165710439771842e-21 1.2449519389660148e-13 1.2433963706637507e-13 1.555568302263863e-16
2.231578038680979 2.2597604605916603e-21 1.338578722321928e-13 1.3364548341263865e-13 2.123888195541199e-16
2.299542257339062 2.35791341407523e-21 1.43925809552961e-13 1.4363897022392606e-13 2.8683932903491143e-16
2.369576372248914 2.4602130993281007e-21 1.5474366204557394e-13 1.5436035356084453e-13 3.8330848472939856e-16
2.4417434235010123 2.5667541283024087e-21 1.663618452928787e-13 1.658548671396243e-13 5.069781532544136e-16
2.5161083711144245 2.6781046126573404e-21 1.7886538974547047e-13 1.782014956147311e-13 6.638941307392747e-16
2.5927381535095444 2.7954792568107095e-21 1.923908288631286e-13 1.9152981377538718e-13 8.610150877414807e-16
2.6717017477616296 2.919932193642737e-21 2.0707619393341936e-13 2.059699930871951e-13 1.1062008462242868e-15
2.753070231689431 3.053241938234724e-21 2.2312485058765385e-13 2.2171662722549067e-13 1.4082233621631643e-15
2.836916847834745 3.2008259458940205e-21 2.410338836143269e-13 2.3925707530812464e-13 1.776808306202272e-15
2.9233170693905177 3.375174878595283e-21 2.619037009289379e-13 2.59681555468375e-13 2.2221454605629e-15
2.967498994190263 3.4849718292209015e-21 2.7451070509737093e-13 2.72038446132132e-13 2.4722589652389166e-15
3.0123486681368425 3.603218378167505e-21 2.881145927106426e-13 2.85367679484705e-13 2.7469132259376997e-15
3.0578761833420214 3.805517483484587e-21 3.08889432631761e-13 3.058404496073087e-13 3.0489830244523475e-15
3.1040917844459814 4.045459869142204e-21 3.3332806772886674e-13 3.299504789770199e-13 3.3775887518469028e-15
3.127460860933648 4.273340625937886e-21 3.547552473346332e-13 3.5120175970807006e-13 3.553487626563196e-15
3.1510058709225794 4.5651635411675065e-21 3.8183434159460737e-13 3.7809753693501183e-13 3.736804659595552e-15
3.162844764501044 4.83093522577274e-21 4.0558186162604863e-13 4.017502025777002e-13 3.831659048348342e-15
3.1747281389236908 5.132860989428886e-21 4.325491640581025e-13 4.2862073086689356e-13 3.92843319120883e-15
3.1986289994194426 5.95433593255749e-21 5.055529354978834e-13 5.014245954646561e-13 4.1283400332273644e-15
3.2227097969389145 7.863716331891438e-21 6.726954205055429e-13 6.683552847838501e-13 4.340135721692857e-15
3.2348180950136065 9.65862477520281e-21 8.293437793384074e-13 8.248906257208367e-13 4.453153617570349e-15
3.240889293275058 1.0999936122796953e-20 9.462890012619014e-13 9.417762334967905e-13 4.512767765110783e-15
3.2469718861334385 1.255431197163839e-20 1.0820339262610163e-12 1.0774594752784649e-12 4.574450982551143e-15
3.2714166318528037 2.0729719646120256e-20 1.8001086506898607e-12 1.7952793195355704e-12 4.829331154290324e-15
3.2744851364798273 2.1240934873493167e-20 1.8462311909298327e-12 1.8413718291485253e-12 4.859361781306853e-15
3.2775565192852394 2.176596799562328e-20 1.8936408288219214e-12 1.888751286918258e-12 4.889541903662934e-15
3.283707930232385 2.126246852575602e-20 1.853308162880994e-12 1.8483646616701826e-12 4.9435012108112414e-15
3.2898708863219004 1.9661015254529788e-20 1.71693647604421e-12 1.7119438803290789e-12 4.992595715131401e-15
3.29141343181113 1.9282617376515895e-20 1.684681682510254e-12 1.6796767592112483e-12 5.004923299005316e-15
3.292184975758714 1.9096575954188105e-20 1.6688187331437822e-12 1.6638076379496492e-12 5.011095194132525e-15
3.295272960557952 1.7934537485746114e-20 1.5687401391682635e-12 1.5637050386378105e-12 5.0351005304528496e-15
3.3076538914384823 1.3881648506507886e-20 1.2187946406598727e-12 1.2136631290581494e-12 5.131511601723244e-15
3.310756385682612 1.3049128642059957e-20 1.1467748794172339e-12 1.141619067856537e-12 5.15581156069682e-15
3.313861789986515 1.2278007020526164e-20 1.0800197613149248e-12 1.0748395707836274e-12 5.180190531297661e-15
3.3200813396944477 1.1200402811192373e-20 9.870787415219395e-13 9.81846109061578e-13 5.2326324603614485e-15
3.345076488085796 9.312632089554033e-21 8.268903651184853e-13 8.214240176137587e-13 5.466347504726473e-15
3.3482140837626964 9.388456658777361e-21 8.344049227380241e-13 8.289069144510435e-13 5.498008286980246e-15
3.3513546224236106 9.464991507703787e-21 8.419960355476465e-13 8.364662244769868e-13 5.5298110706598155e-15
3.3576445397418455 1.0005329585894017e-20 8.917344596907151e-13 8.861381546512331e-13 5.596305039482035e-15
3.3702598118196083 1.1967652647176444e-20 1.0706358717982032e-12 1.0649000942679892e-12 5.735777530213907e-15
3.382922481734668 1.243368263044967e-20 1.116506503413359e-12 1.1106351626112314e-12 5.871340802127392e-15
3.389271646505754 1.2674101301142935e-20 1.1402313710883387e-12 1.1342913186158297e-12 5.9400524725085086e-15
3.395632727569191 1.2937956150417152e-20 1.1661537647054707e-12 1.160142900575126e-12 6.010864130344226e-15
3.421196662673239 1.4216779960808192e-20 1.2910668034366293e-12 1.2847628142090659e-12 6.303989227563345e-15
3.4276182099114902 1.3983208875738258e-20 1.2722390437620071e-12 1.265869640451523e-12 6.3694033104838154e-15
3.4340518103208963 1.2926059203049475e-20 1.1782634797465417e-12 1.1718322069522304e-12 6.43127279431132e-15
3.4469541582030403 1.1410425414140953e-20 1.0440150930973598e-12 1.0374650714950693e-12 6.550021602290448e-15
3.472904465399547 1.0990027774504834e-20 1.0131203985743498e-12 1.0062968303593351e-12 6.823568215014953e-15
3.4990501388274233 1.0352716326077093e-20 9.615545180087279e-13 9.54451032578481e-13 7.103485430246966e-15
3.5253949054701885 8.089019540311253e-21 7.569602779139222e-13 7.495848637717267e-13 7.375414142195562e-15
3.5519380250092896 5.936246457272547e-21 5.596889542458521e-13 5.520402363408457e-13 7.648717905006258e-15
3.578680990867387 5.095171115144261e-21 4.840064991699608e-13 4.760582355287206e-13 7.948263641240188e-15
3.605625307711299 4.7701803592011585e-21 4.565462987949447e-13 4.4828256839079314e-13 8.263730404151532e-15
3.660119384959845 4.5625363962998656e-21 4.432727421170628e-13 4.3434630405658364e-13 8.926438060479293e-15
3.715437065384467 4.422031517178695e-21 4.361151523022124e-13 4.2649019612422933e-13 9.624956177982988e-15
3.8285932144167436 4.4086389065170955e-21 4.4803628482149785e-13 4.3691045932096575e-13 1.1125825500531962e-14
3.94519561050918 4.461592331900078e-21 4.672269221435982e-13 4.5446514606338845e-13 1.2761776080209709e-14
4.06534921144712 4.537178502326326e-21 4.896132428828006e-13 4.750825964931083e-13 1.4530646389692184e-14
4.189162171576248 4.622533272817303e-21 5.140160170653175e-13 4.975806401124771e-13 1.643537695284035e-14
4.316745939156006 4.712356262892299e-21 5.399630461051536e-13 5.214946154756308e-13 1.8468430629522792e-14
4.448215356677963 4.8044190516217665e-21 5.672782317133282e-13 5.466771594098669e-13 2.0601072303461466e-14
4.58368876423945 4.898446004324099e-21 5.959953608705938e-13 5.731600456026541e-13 2.2835315267939817e-14
4.723288106065518 4.9955182882890346e-21 6.263173222746976e-13 6.011328233090492e-13 2.518449896564863e-14
4.867139040275056 5.0974127799293445e-21 6.585564224342337e-13 6.309709488873105e-13 2.7585473546923018e-14
4.940699165968905 5.153866663716756e-21 6.759133474807117e-13 6.471008588414152e-13 2.881248863929625e-14
5.015371051989984 5.208938335368696e-21 6.934604836746195e-13 6.634072072266905e-13 3.005327644792891e-14
5.091171501069577 5.2741073193187956e-21 7.12748189307126e-13 6.814135073194565e-13 3.133468198766951e-14
5.129500256944802 5.30611877045003e-21 7.224727244882309e-13 6.904935160330348e-13 3.1979208455195995e-14
5.168117569889187 5.3387666727313145e-21 7.323905949947249e-13 6.997580323250047e-13 3.2632562669720216e-14
5.20702561229733 5.379833649155087e-21 7.435805030829355e-13 7.102342993858853e-13 3.3346203697050294e-14
5.246226572918644 5.420840129795278e-21 7.548889622167776e-13 7.208247243097484e-13 3.406423790702943e-14
5.265937586045735 5.441325931513317e-21 7.605887213424086e-13 7.261639130315792e-13 3.4424808310829144e-14
5.285722656980489 5.4618030686769346e-21 7.663194385073241e-13 7.315330751984928e-13 3.4786363308831333e-14
5.305582063971359 5.4822738662263115e-21 7.720815887405581e-13 7.369327244811581e-13 3.5148864259399904e-14
5.3255160863122235 5.5043803499962785e-21 7.781074432190799e-13 7.425922442162611e-13 3.5515199002818805e-14
5.365609099470188 5.561328069711614e-21 7.920762261413208e-13 7.558030594760859e-13 3.627316666523474e-14
5.406003951863644 5.6190447071121916e-21 8.063215729368037e-13 7.692859875526338e-13 3.703558538416998e-14
5.446702915881641 5.677599653080847e-21 8.208577191859588e-13 7.830555724505198e-13 3.780214673543899e-14
5.487708281020852 5.740206929912064e-21 8.36157324707779e-13 7.975814505730508e-13 3.8575874134728017e-14
5.529022354014368 5.8318281467632274e-21 8.558989557259536e-13 8.165165162475841e-13 3.9382439478369514e-14
5.570647458961463 5.926751015226738e-21 8.763786534587012e-13 8.3618504821697e-13 4.0193605241731333e-14
5.612585937458331 6.0252624828380265e-21 8.976528373818699e-13 8.566437798927288e-13 4.1009057489141086e-14
5.654840148729818 6.132425927422141e-21 9.20496363163444e-13 8.786637731981515e-13 4.183258996529252e-14
5.67608639626678 6.208694264764675e-21 9.35445962152087e-13 8.931823158655522e-13 4.226364628653493e-14
5.686739436050992 6.247696996900804e-21 9.430890912466621e-13 9.006094357647717e-13 4.2479655481890456e-14
5.6974124697621304 6.287298364162845e-21 9.508481484257164e-13 9.081521696477866e-13 4.2695978777929807e-14
5.718818669136295 6.368358039905842e-21 9.667256270327575e-13 9.235960792609036e-13 4.3129547771853987e-14
5.740305295436557 6.457945825808726e-21 9.840084351293921e-13 9.40440808977523e-13 4.356762615186911e-14
5.7835210386641895 6.6951438094143085e-21 1.0278308831274683e-12 9.833578050888463e-13 4.4473078038621765e-14
5.827062130521658 6.964575117082863e-21 1.0772430693726276e-12 1.0318508836806042e-12 4.539218569202314e-14
5.8489554468988025 7.158983887777267e-21 1.1114735477458389e-12 1.0655843596160985e-12 4.588918812974013e-14
5.870931020387893 7.365136125395094e-21 1.1477761306391243e-12 1.1013878737123048e-12 4.6388256926819516e-14
5.892989160043636 7.583959104583346e-21 1.1863178299311212e-12 1.1394284755872563e-12 4.6889354343865313e-14
5.915130176081913 7.832601989641571e-21 1.22981503560025e-12 1.1824060326426783e-12 4.740900295757162e-14
5.95966208400165 8.537491067030053e-21 1.3505831621867876e-12 1.3019857219186653e-12 4.8597440268122193e-14
6.004529249263818 9.553034724764967e-21 1.5226137736830942e-12 1.472676544596452e-12 4.9937229086642367e-14
6.027089341400364 1.0261505423430064e-20 1.6416786160892091e-12 1.5909650754177618e-12 5.0713540671446803e-14
6.049734195844842 1.1092704212870148e-20 1.7813249850891692e-12 1.7297886547580342e-12 5.153633033113556e-14
6.095279466722835 1.3496480196811119e-20 2.1836527530987267e-12 2.1300864851594067e-12 5.356626793932014e-14
6.141167624020661 1.717254747405136e-20 2.7993365227378675e-12 2.7431263495268234e-12 5.6210173211044124e-14
6.164241091010745 1.9517522350807063e-20 3.193550106547883e-12 3.135676041842805e-12 5.787406470507883e-14
6.187401249150058 2.2159517281157828e-20 3.6394688722045635e-12 3.5798869777837967e-12 5.95818944207674e-14
6.1990139391386085 2.344377286481142e-20 3.857620944795909e-12 3.7971701959213014e-12 6.045074887460769e-14
6.204828454712694 2.4117798652292328e-20 3.972252775935976e-12 3.911363255692206e-12 6.088952024377022e-14
6.210648424152782 2.460557311920943e-20 4.056391494328247e-12 3.995129155920222e-12 6.126233840802369e-14
6.233982942956859 2.6242104174165992e-20 4.342438714469115e-12 4.279880855575396e-12 6.255785889371788e-14
6.239830258556775 2.6439436463641498e-20 4.379196198708892e-12 4.316461801079321e-12 6.273439762957007e-14
6.245683058788269 2.6437490900191137e-20 4.382981223754075e-12 4.320070033781406e-12 6.291118997266983e-14
6.257405133728602 2.6348747217423162e-20 4.376467202508562e-12 4.3132484581970985e-12 6.321874431146475e-14
6.269149208991335 2.5971981792619132e-20 4.3219837452145524e-12 4.258661127095345e-12 6.332261811920785e-14
6.280915325867298 2.5091971178002562e-20 4.18337841943079e-12 4.12020368624419e-12 6.317473318660051e-14
6.304513850009849 2.2948863959203375e-20 3.8404509937974856e-12 3.7777996769057984e-12 6.265131689168766e-14
6.32820103803542 2.0332016336405402e-20 3.415310164533662e-12 3.3534244613686607e-12 6.188570316500131e-14
6.3519772230701035 1.79427034495337e-20 3.0252846548093057e-12 2.964087373812106e-12 6.119728099720003e-14
6.375842739491607 1.59278571212417e-20 2.6956554477645957e-12 2.635067353895074e-12 6.0588093869522e-14
6.399797922933955 1.4324120829182496e-20 2.4333449009740934e-12 2.3730789990803776e-12 6.026590189371537e-14
6.42384311029221 1.2985228156384146e-20 2.214185199525373e-12 2.1541842550814756e-12 6.000094444389693e-14
6.447978639727206 1.2010030068502506e-20 2.055592942139073e-12 1.9956333308719928e-12 5.995961126708015e-14
6.472204850670314 1.1193567746147657e-20 1.9230484214877316e-12 1.8630858427947604e-12 5.996257869297164e-14
6.496522083828205 1.0658263724406659e-20 1.837963210993355e-12 1.777816633088946e-12 6.014657790440889e-14
