Dust emission spectrum from A.P. Jones, M. Kohler, N. Ysard, M. Bocchio, and L. Verstraete (2017), A&A, 602A, 46J 
inside the DustPedia framework.

lambda    nu*dP/dnu     j_nu    j_nu(carb.) j_nu(sil)
 (um)   (erg s-1 H-1) (Jy cm2 sr-1 H-1)
0.9927057738263894 5.684681771257606e-22 1.4979459350742445e-14 1.4979459170656418e-14 1.8008602648293448e-22
1.0001793341362166 5.780373322013899e-22 1.534628282801376e-14 1.5346282611239977e-14 2.167737777993084e-22
1.0077091589558085 5.876361462191383e-22 1.5718573884780083e-14 1.5718573624189293e-14 2.6059079545540015e-22
1.0114953028030835 5.924460983129039e-22 1.5906775329570784e-14 1.5906775043996264e-14 2.8557451943113606e-22
1.0152956718711033 5.972627792245405e-22 1.6096350440828474e-14 1.6096350127978712e-14 3.1284976704324683e-22
1.0229392996569957 6.069107600480392e-22 1.647950392239504e-14 1.6479503547299403e-14 3.7509563758771377e-22
1.0267826658714554 6.117310037336634e-22 1.667279664962801e-14 1.6672796239098302e-14 4.1052970526989547e-22
1.0306404723013447 6.165568651808702e-22 1.6867462904471896e-14 1.6867462455309775e-14 4.491621196404061e-22
1.03451277320114 6.213881373447809e-22 1.706350517142743e-14 1.706350468016039e-14 4.912670381919616e-22
1.0383996230291617 6.262246172167034e-22 1.72609260049734e-14 1.7260925467832617e-14 5.371407784112528e-22
1.0403485208654093 6.286447477338103e-22 1.7360154202750255e-14 1.7360153641160224e-14 5.615900249166672e-22
1.0423010764483396 6.310661059346456e-22 1.745972803413629e-14 1.74597274470328e-14 5.871034921326031e-22
1.0462171883269815 6.359124088930028e-22 1.76599139671246e-14 1.765991332562364e-14 6.415009568033558e-22
1.0471985131304309 6.371247144663994e-22 1.7710177010631473e-14 1.7710176354795103e-14 6.558363672581587e-22
1.048180758391296 6.383373060887391e-22 1.776052676667466e-14 1.776052609619641e-14 6.704782519429707e-22
1.0501480137395462 6.407633358513709e-22 1.78614865960269e-14 1.7861485895320404e-14 7.007064910840003e-22
1.0521189612883777 6.43190475100612e-22 1.796279381807975e-14 1.7962793085842773e-14 7.322369783119977e-22
1.0531058218030118 6.444028068641411e-22 1.8013531782429643e-14 1.8013531033921425e-14 7.485082208635653e-22
1.0540936079674168 6.456100122467147e-22 1.8064205688563095e-14 1.8064204923434257e-14 7.651288374956266e-22
1.058054026499678 6.504412457557712e-22 1.826776222888676e-14 1.8267761393674478e-14 8.352122844910063e-22
1.0590464539527713 6.516496434708839e-22 1.831886682533868e-14 1.8318865971668644e-14 8.536700376917815e-22
1.06003981227728 6.528582715242977e-22 1.837005770071947e-14 1.8370056828201775e-14 8.72517696528341e-22
1.0620293250338977 6.552762080044645e-22 1.8472698480324792e-14 1.847269756891061e-14 9.114141865291966e-22
1.0660195594769086 6.601147290452769e-22 1.867901752303438e-14 1.8679016528793883e-14 9.942404942057751e-22
1.070024785945596 6.649566438849972e-22 1.888672254690619e-14 1.888672146266969e-14 1.0842364943993113e-21
1.0740450607676866 6.698017925865794e-22 1.909581685663742e-14 1.9095815674647763e-14 1.1819896588641432e-21
1.07808044048254 6.746500203697972e-22 1.930630387686157e-14 1.9306302588728886e-14 1.2881326825578237e-21
1.0861967418109137 6.843475262030457e-22 1.9731251419552634e-14 1.9731249891187607e-14 1.5283650333584398e-21
1.0902777775684922 6.891792526636981e-22 1.9945218027079215e-14 1.994521636310265e-14 1.663976562350988e-21
1.0943741465085532 6.940131912623066e-22 2.016057818321638e-14 2.0160576372187257e-14 1.8110291214264736e-21
1.1026131145906286 7.03687206620211e-22 2.0595495368010127e-14 2.0595493224837196e-14 2.1431729295946562e-21
1.1109141095355224 7.1336863415462965e-22 2.1036036991562175e-14 2.103603445862468e-14 2.5329374982304734e-21
1.1192775983109025 7.230488401593386e-22 2.148200822594947e-14 2.148200523623722e-14 2.9897122508136754e-21
1.1277040513999907 7.326912674888924e-22 2.1932371281199387e-14 2.193236775688797e-14 3.5243114206292744e-21
1.1361939428280308 7.423377163200596e-22 2.238841916025518e-14 2.2388415011082392e-14 4.149172788786039e-21
1.1447477501889525 7.519876586610064e-22 2.2850196802902075e-14 2.285019192431961e-14 4.8785824648430386e-21
1.1533659546722406 7.616443884474545e-22 2.3317866277612296e-14 2.33178605486768e-14 5.7289354953050794e-21
1.1707974979042381 7.810074986085914e-22 2.4272048002003348e-14 2.4272040131637076e-14 7.870366271635737e-21
1.1884924949847024 8.00393229918154e-22 2.5250459355212525e-14 2.525044859700388e-14 1.075820865069144e-20
1.2064549276569216 8.199350126654527e-22 2.6257898582643734e-14 2.6257883949418124e-14 1.463322560925318e-20
1.2246888378427687 8.394932859734618e-22 2.7290558259787506e-14 2.7290538453135317e-14 1.9806652184003302e-20
1.2431983285522175 8.590474735879558e-22 2.834829970272423e-14 2.8348273023314805e-14 2.6679409426455665e-20
1.2619875648066055 8.786205829484104e-22 2.943241385794516e-14 2.943237809262934e-14 3.576531582653158e-20
1.3004222497298317 9.176738158118478e-22 3.16768628760027e-14 3.167679950565933e-14 6.337034336477396e-20
1.3400274889804893 9.567318920193236e-22 3.403089661433111e-14 3.4030786387330665e-14 1.1022700043283288e-19
1.3808389325824078 9.959002976556996e-22 3.65029798461638e-14 3.650279153720761e-14 1.8830895619608322e-19
1.4228933163050095 1.0354900643184662e-21 3.9109990329156377e-14 3.910967421090834e-14 3.1611824802476716e-19
1.466228494730424 1.0762151133530459e-21 4.188612408589459e-14 4.188560236214938e-14 5.217237452082228e-19
1.5108834753276823 1.1179260908378015e-21 4.4834620335268224e-14 4.4833773429330453e-14 8.469059377676993e-19
1.5568984535646726 1.1605272594804934e-21 4.7960650657547316e-14 4.795929705897373e-14 1.3535985735972277e-18
1.6043148490894465 1.2042502048642215e-21 5.128327656804637e-14 5.128114247826451e-14 2.1340897818494333e-18
1.6531753430134553 1.249338574511392e-21 5.4823720116363786e-14 5.482040505005719e-14 3.3150663065887334e-18
1.7035239163302658 1.296091153551733e-21 5.860750247387547e-14 5.860242754006243e-14 5.07493381303753e-18
1.755405889504358 1.345471108402927e-21 6.269333322677063e-14 6.268567296307867e-14 7.660263691979189e-18
1.8088679632656115 1.3974020825621055e-21 6.709616318687196e-14 6.708475845287143e-14 1.1404734000566796e-17
1.8639582606462262 1.4517834715303257e-21 7.183026418985548e-14 7.181350988887978e-14 1.6754300975714197e-17
1.9207263702978936 1.5087196384645696e-21 7.692074386998503e-14 7.68964481578983e-14 2.429571208672056e-17
1.979223391128241 1.568397952612951e-21 8.239872936915121e-14 8.236393880318826e-14 3.4790565962975915e-17
2.039501978296691 1.6309592553957571e-21 8.829511480865982e-14 8.824590232051886e-14 4.921248814095632e-17
2.1016163906111602 1.6970515851948787e-21 9.467120907752836e-14 9.460241533669204e-14 6.879374083632398e-17
2.1656225393682647 1.766896201671504e-21 1.015694809345964e-13 1.0147441386029294e-13 9.506707430345618e-17
2.231578038680979 1.84011871920845e-21 1.0900021515704361e-13 1.0887030220811267e-13 1.2991294893092548e-16
2.299542257339062 1.9165932698874906e-21 1.1698785727486117e-13 1.1681224819800942e-13 1.756090768517475e-16
2.369576372248914 1.9963909023351724e-21 1.2556995131282844e-13 1.2533506796785825e-13 2.3488334497019996e-16
2.4417434235010123 2.0796264826816833e-21 1.34789107910262e-13 1.344781533209012e-13 3.1095458936077173e-16
2.5161083711144245 2.166822413267969e-21 1.4471784769969517e-13 1.4431026168805048e-13 4.075860116447217e-16
2.5927381535095444 2.2590680168706657e-21 1.5547386630218923e-13 1.5494474758760424e-13 5.29118714585049e-16
2.6717017477616296 2.357356502970146e-21 1.6717936582296548e-13 1.6649889759975008e-13 6.804682232154476e-16
2.753070231689431 2.4633460750629323e-21 1.8001643369993768e-13 1.7914929825741949e-13 8.671354425181689e-16
2.836916847834745 2.581919573948863e-21 1.944279734694915e-13 1.933327368647764e-13 1.0952366047150824e-15
2.9233170693905177 2.724325192026019e-21 2.1139966845881193e-13 2.100284579780186e-13 1.3712104807933254e-15
2.967498994190263 2.8158644810220385e-21 2.2180522024960255e-13 2.2027879200725816e-13 1.5264282423444251e-15
3.0123486681368425 2.915018052069625e-21 2.330858556631084e-13 2.313888786837203e-13 1.6969769793880612e-15
3.0578761833420214 3.089213764687373e-21 2.5074789202617364e-13 2.4886323957319973e-13 1.884652452973965e-15
3.1040917844459814 3.2976540706779866e-21 2.717121649881547e-13 2.6962319748970843e-13 2.0889674984462956e-15
3.127460860933648 3.4985056725365075e-21 2.9043162102012735e-13 2.8823322554684e-13 2.198395473287435e-15
3.1510058709225794 3.757043273329272e-21 3.1424244316278126e-13 3.119299606603752e-13 2.312482502406029e-15
3.162844764501044 3.993450835234695e-21 3.3527073917814935e-13 3.3289920724879476e-13 2.3715319293544816e-15
3.1747281389236908 4.262770151334878e-21 3.5922610593373806e-13 3.567943175752352e-13 2.4317883585028366e-15
3.1986289994194426 4.9979266026250245e-21 4.243489944099907e-13 4.2179269764906617e-13 2.556296760924548e-15
3.2227097969389145 6.71080764792348e-21 5.740707551140619e-13 5.713824996965512e-13 2.688255417510797e-15
3.2348180950136065 8.32312165727635e-21 7.14669979608352e-13 7.119112972284167e-13 2.758682379935318e-15
3.240889293275058 9.528216991022994e-21 8.196817544745174e-13 8.168859235327414e-13 2.79583094177584e-15
3.2469718861334385 1.0924583096849456e-20 9.415704793502984e-13 9.38736210342818e-13 2.834269007480527e-15
3.2714166318528037 1.8281670749877577e-20 1.587527194178799e-12 1.5845340585696348e-12 2.993135609163981e-15
3.2744851364798273 1.8741825335733035e-20 1.6290122217251964e-12 1.6260003574844509e-12 3.0118642407454897e-15
3.2775565192852394 1.921451629787425e-20 1.6716643420148058e-12 1.6686336549326131e-12 3.0306870821932038e-15
3.283707930232385 1.8761406232982418e-20 1.6353071740749984e-12 1.6322428120617525e-12 3.0643620132461563e-15
3.2898708863219004 1.732011075464217e-20 1.5125124282134611e-12 1.5094174075798037e-12 3.0950206336579234e-15
3.29141343181113 1.6979618492877156e-20 1.4834735187869543e-12 1.4803707992920767e-12 3.102719494877469e-15
3.292184975758714 1.6812222972173143e-20 1.469192839023042e-12 1.466086264960093e-12 3.1065740629488985e-15
3.295272960557952 1.5765347277465952e-20 1.3790003283744597e-12 1.3758787584032724e-12 3.121569971187123e-15
3.3076538914384823 1.2116587422097844e-20 1.0638240700458904e-12 1.0606422630062827e-12 3.1818070396078806e-15
3.310756385682612 1.1367784505119388e-20 9.990161077177834e-13 9.958191161511213e-13 3.196991566662352e-15
3.313861789986515 1.0674477754138406e-20 9.389672849113573e-13 9.35755058615953e-13 3.212226295404188e-15
3.3200813396944477 9.705161739268005e-21 8.553048490622718e-13 8.52059860294593e-13 3.244988767678668e-15
3.345076488085796 8.003058322456725e-21 7.106102501078921e-13 7.072192746672979e-13 3.3909754405939414e-15
3.3482140837626964 8.070795039827015e-21 7.172969271094533e-13 7.138861762130335e-13 3.41075089641967e-15
3.3513546224236106 8.139181068074962e-21 7.240532848175959e-13 7.206226686821636e-13 3.4306161354324204e-15
3.3576445397418455 8.624309488254307e-21 7.686497376914521e-13 7.651775903826112e-13 3.4721473088411893e-15
3.3702598118196083 1.0389585222225541e-20 9.2946068539544e-13 9.259014235795703e-13 3.559261815869811e-15
3.382922481734668 1.0806813304662328e-20 9.704186357693076e-13 9.667746646558998e-13 3.643971113407668e-15
3.389271646505754 1.102217697815826e-20 9.916152372121533e-13 9.879283231373971e-13 3.686914074756387e-15
3.395632727569191 1.12580930886487e-20 1.0147404648847117e-12 1.0110092952759474e-12 3.73116960876428e-15
3.421196662673239 1.2400686357913381e-20 1.1261421039551147e-12 1.1222276982147286e-12 3.914405740385928e-15
3.4276182099114902 1.2189734455780804e-20 1.1090627513004651e-12 1.1051074145063296e-12 3.9553367941354785e-15
3.4340518103208963 1.1238213708041102e-20 1.0244094183514094e-12 1.020415349050332e-12 3.994069301077407e-15
3.4469541582030403 9.874863892678833e-21 9.035164397518665e-13 8.994479900388183e-13 4.0684497130482904e-15
3.472904465399547 9.495868453142847e-21 8.75380684148556e-13 8.711409517336908e-13 4.23973241486578e-15
3.4990501388274233 8.92080662878097e-21 8.285595439894479e-13 8.241444503118447e-13 4.415093677603351e-15
3.5253949054701885 6.878529336718706e-21 6.436841266625635e-13 6.390985331544662e-13 4.58559350809734e-15
3.5519380250092896 4.9380967923162726e-21 4.655801017611621e-13 4.608230303729878e-13 4.757071388174322e-15
3.578680990867387 4.177703547068716e-21 3.9685333871842016e-13 3.919083073126007e-13 4.945031405819529e-15
3.605625307711299 3.881411116345752e-21 3.714836223857086e-13 3.663405698997116e-13 5.143052485997099e-15
3.660119384959845 3.686923270268584e-21 3.582026412572975e-13 3.5264328258957253e-13 5.5593586677249685e-15
3.715437065384467 3.553358691971124e-21 3.504438087139835e-13 3.444451822453683e-13 5.998626468615178e-15
3.8285932144167436 3.5271166116324365e-21 3.5844991080397506e-13 3.5150581843074013e-13 6.944092373234967e-15
3.94519561050918 3.5610902432870215e-21 3.7292453233574724e-13 3.649474121576423e-13 7.977120178104865e-15
4.06534921144712 3.6160009691983815e-21 3.9020769403029214e-13 3.811107406627855e-13 9.096953367506511e-15
4.189162171576248 3.680330015029139e-21 4.0924498844293903e-13 3.989389252975539e-13 1.0306063145385196e-14
4.316745939156006 3.749431105385364e-21 4.2962673615485205e-13 4.180263566656562e-13 1.1600379489195881e-14
4.448215356677963 3.82147146355295e-21 4.5121742110640693e-13 4.382549803575827e-13 1.2962440748824226e-14
4.58368876423945 3.896319394885818e-21 4.740663226198999e-13 4.5967213193487e-13 1.4394190685029707e-14
4.723288106065518 3.9750646727305406e-21 4.983770888257615e-13 4.824722886221724e-13 1.5904800203589135e-14
4.867139040275056 4.059620619891172e-21 5.244796423790568e-13 5.070245927238122e-13 1.7455049655244545e-14
4.940699165968905 4.107469802645236e-21 5.386817015517687e-13 5.204319447075716e-13 1.8249756844197116e-14
5.015371051989984 4.15451043148825e-21 5.530856055041345e-13 5.34030481372903e-13 1.905512413123149e-14
5.091171501069577 4.21112569047335e-21 5.690957785093523e-13 5.492074358825016e-13 1.9888342626850506e-14
5.129500256944802 4.239112345159524e-21 5.771908202422958e-13 5.568826510992243e-13 2.0308169143071495e-14
5.168117569889187 4.267799022680102e-21 5.854715250066319e-13 5.647374138228916e-13 2.073411118374023e-14
5.20702561229733 4.304164533901274e-21 5.949055376410536e-13 5.737068862364205e-13 2.1198651404633056e-14
5.246226572918644 4.340635790255318e-21 6.044631401425568e-13 5.827965714034408e-13 2.1666568739116126e-14
5.265937586045735 4.3589167717375175e-21 6.092895326584065e-13 5.873877948644066e-13 2.190173779399986e-14
5.285722656980489 4.377231176702729e-21 6.141483490652744e-13 5.920106656647011e-13 2.2137683400573188e-14
5.305582063971359 4.3955814912533965e-21 6.190401326195654e-13 5.96665750137619e-13 2.237438248194627e-14
5.3255160863122235 4.415457675361471e-21 6.241757044314532e-13 6.015620396900544e-13 2.261366474139899e-14
5.365609099470188 4.466915856129692e-21 6.362037645438716e-13 6.130950353882683e-13 2.3108729155603294e-14
5.406003951863644 4.519292789125085e-21 6.485093926512046e-13 6.249021220399618e-13 2.3607270611242848e-14
5.446702915881641 4.572657436068646e-21 6.611070492709455e-13 6.369979435512497e-13 2.410910571969577e-14
5.487708281020852 4.629945943341215e-21 6.744292080050728e-13 6.498130381188655e-13 2.4616169886207362e-14
5.529022354014368 4.7139797885457855e-21 6.918397244899814e-13 6.666949098114168e-13 2.5144814678564524e-14
5.570647458961463 4.801376156177225e-21 7.099713754954044e-13 6.842942713877837e-13 2.5677104107620704e-14
5.612585937458331 4.892413071972541e-21 7.288791962523304e-13 7.026663442727943e-13 2.6212851979536122e-14
5.654840148729818 4.99174659690349e-21 7.492768184506537e-13 7.22522325136346e-13 2.6754493314307584e-14
5.67608639626678 5.062373117758488e-21 7.62733078803638e-13 7.356951693014086e-13 2.7037909502229616e-14
5.686739436050992 5.098536467023996e-21 7.696234509706286e-13 7.424434527787681e-13 2.7179998191860487e-14
5.6974124697621304 5.1352853690164824e-21 7.766255555166658e-13 7.493032187866875e-13 2.732233672997815e-14
5.718818669136295 5.210598479117714e-21 7.9097611195483e-13 7.633683603393632e-13 2.7607751615466978e-14
5.740305295436557 5.293893909343028e-21 8.066398204604485e-13 7.787435605518362e-13 2.789625990861246e-14
5.7835210386641895 5.514385328187311e-21 8.4656218045774e-13 8.180694669968204e-13 2.849271346091928e-14
5.827062130521658 5.76546143409958e-21 8.917706058457103e-13 8.626718350235426e-13 2.9098770822167683e-14
5.8489554468988025 5.9463622838510355e-21 9.23207048293274e-13 8.937808745941399e-13 2.942617369913416e-14
5.870931020387893 6.1384874518057075e-21 9.566163144109463e-13 9.268611795626816e-13 2.975513484826454e-14
5.892989160043636 6.342721837880789e-21 9.921577770671349e-13 9.620721442379023e-13 3.0085632829232855e-14
5.915130176081913 6.5748990230690066e-21 1.0323401708419603e-12 1.001911900973947e-12 3.04282698680136e-14
5.95966208400165 7.232636529436952e-21 1.1441624990505242e-12 1.1129524577748204e-12 3.121004127570382e-14
6.004529249263818 8.18092781643015e-21 1.3039200352231708e-12 1.2718296636224032e-12 3.209037160076781e-14
6.027089341400364 8.842535407681661e-21 1.414665849871984e-12 1.3820663047662014e-12 3.259954510578211e-14
6.049734195844842 9.619486146449316e-21 1.5447478529634065e-12 1.5116088368098652e-12 3.313901615354117e-14
6.095279466722835 1.1867002012347684e-20 1.920012569011426e-12 1.8855457130558514e-12 3.446685595557473e-14
6.141167624020661 1.530792429867101e-20 2.4953800035392496e-12 2.4591875234896647e-12 3.619248004958474e-14
6.164241091010745 1.75041060986962e-20 2.864105335286329e-12 2.826828705658468e-12 3.727662962786215e-14
6.187401249150058 1.99819450142268e-20 3.281825409943308e-12 3.2434355780250775e-12 3.8389831918230995e-14
6.1990139391386085 2.1187440811407227e-20 3.486346498578636e-12 3.4473902451014078e-12 3.8956253477229304e-14
6.204828454712694 2.182042073363616e-20 3.5938697424625374e-12 3.554627401163172e-12 3.924234129936494e-14
6.210648424152782 2.227924013979445e-20 3.672880114001683e-12 3.633394272854566e-12 3.948584114711599e-14
6.233982942956859 2.3821754407984637e-20 3.941928890353372e-12 3.9015951349050765e-12 4.0333755448295645e-14
6.239830258556775 2.4009592798671218e-20 3.9767382206151645e-12 3.936287585796295e-12 4.045063481886956e-14
6.245683058788269 2.401080528892698e-20 3.980669313358369e-12 3.940101614819285e-12 4.0567698539084144e-14
6.257405133728602 2.393381853240311e-20 3.975353020525795e-12 3.934580877048445e-12 4.0772143477351704e-14
6.269149208991335 2.3587104121278216e-20 3.925117514051946e-12 3.884272446244429e-12 4.084506780751707e-14
6.280915325867298 2.276876108903235e-20 3.796048668369935e-12 3.7552932976672704e-12 4.075537070266543e-14
6.304513850009849 2.0771913862347805e-20 3.4761423213604072e-12 3.435713470849632e-12 4.0428850510774925e-14
6.32820103803542 1.8327955821694108e-20 3.078674184462237e-12 3.038728391341468e-12 3.994579312076946e-14
6.3519772230701035 1.609473884577371e-20 2.713702903814522e-12 2.6741903526335853e-12 3.951255118093712e-14
6.375842739491607 1.4211692500478945e-20 2.4052090635456907e-12 2.366078672259284e-12 3.9130391286406654e-14
6.399797922933955 1.2711341726233468e-20 2.1593701242071086e-12 2.1204362182657215e-12 3.893390594138721e-14
6.42384311029221 1.1459068944195864e-20 1.9539511012831155e-12 1.915176690489996e-12 3.87744107931195e-14
6.447978639727206 1.0546805736549913e-20 1.8051528023249232e-12 1.766393076652389e-12 3.875972567253399e-14
6.472204850670314 9.783290085891717e-21 1.6807635405704775e-12 1.6419897669351942e-12 3.877377363528355e-14
6.496522083828205 9.283182590341443e-21 1.600837483774254e-12 1.5619323119623996e-12 3.8905171811854686e-14
