Dust emission spectrum from A.P. Jones, M. Kohler, N. Ysard, M. Bocchio, and L. Verstraete (2017), A&A, 602A, 46J 
inside the DustPedia framework.

lambda    nu*dP/dnu     j_nu    j_nu(carb.) j_nu(sil)
 (um)   (erg s-1 H-1) (Jy cm2 sr-1 H-1)
0.9927057738263894 1.0099380605490894e-25 2.6612441528835043e-18 2.661244152066574e-18 8.169300561512842e-28
1.0001793341362166 1.0266042905315176e-25 2.7255263487826326e-18 2.7255263477987243e-18 9.839082200282398e-28
1.0077091589558085 1.0432468332936785e-25 2.7905622441193986e-18 2.7905622429359166e-18 1.1834810787626539e-27
1.0114953028030835 1.0515571812780834e-25 2.8233596062865455e-18 2.8233596049892075e-18 1.297337596168936e-27
1.0152956718711033 1.059859165219288e-25 2.8563414856427783e-18 2.8563414842210926e-18 1.4216848219837401e-27
1.0229392996569957 1.076426657525578e-25 2.9228312451503144e-18 2.922831243444685e-18 1.7056304528753268e-27
1.0267826658714554 1.0846720599925215e-25 2.9562857820530054e-18 2.956285780185643e-18 1.8673626271823227e-27
1.0306404723013447 1.0929054681446243e-25 2.9899176350288586e-18 2.9899176329850945e-18 2.043763924489177e-27
1.03451277320114 1.1011260913933095e-25 3.0237253699708435e-18 3.0237253677347452e-18 2.2360993117246106e-27
1.0383996230291617 1.1093331436097666e-25 3.0577075350084102e-18 3.057707532562674e-18 2.4457367504954113e-27
1.0403485208654093 1.113431336172546e-25 3.0747635703327877e-18 3.0747635677752868e-18 2.557501310815818e-27
1.0423010764483396 1.117525843276744e-25 3.0918626608590884e-18 3.0918626581849324e-18 2.6741550486208124e-27
1.0462171883269815 1.1257034136370262e-25 3.126189261180668e-18 3.1261892582577164e-18 2.922952265983063e-27
1.0471985131304309 1.1277453517116945e-25 3.1347975283706037e-18 3.1347975253820693e-18 2.988535125470413e-27
1.048180758391296 1.129786283927888e-25 3.1434163952081023e-18 3.143416392152575e-18 3.0555271722013907e-27
1.0501480137395462 1.1338650828385798e-25 3.1606858329237985e-18 3.1606858297299434e-18 3.193854710391152e-27
1.0521189612883777 1.1379397146772992e-25 3.177997383893998e-18 3.1779973805558248e-18 3.338172286523206e-27
1.0531058218030118 1.1399723082131183e-25 3.1866601427476484e-18 3.1866601393349887e-18 3.412658905705145e-27
1.0540936079674168 1.1419935696870554e-25 3.1953046493275406e-18 3.195304645838788e-18 3.4887527374790796e-27
1.058054026499678 1.1500671802244607e-25 3.229984865301001e-18 3.2299848614912986e-18 3.809701824037947e-27
1.0590464539527713 1.1520826653139443e-25 3.2386803444342493e-18 3.2386803405399962e-18 3.894252278369702e-27
1.06003981227728 1.154096959979384e-25 3.247385944509271e-18 3.247385940528674e-18 3.9805981923937655e-27
1.0620293250338977 1.1581219314015568e-25 3.264827408793483e-18 3.264827404634662e-18 4.15882217602297e-27
1.0660195594769086 1.1661570774004233e-25 3.2998306998659624e-18 3.2998306953275034e-18 4.53845867007864e-27
1.070024785945596 1.1741718781282238e-25 3.3349931440677276e-18 3.3349931391165878e-18 4.951139940988599e-27
1.0740450607676866 1.182165599340142e-25 3.3703131327912013e-18 3.37031312739161e-18 5.3995918180163344e-27
1.07808044048254 1.190137512758969e-25 3.4057890436262564e-18 3.405789037739506e-18 5.886751667055949e-27
1.0861967418109137 1.2059989389387324e-25 3.4771614369588015e-18 3.477161429968706e-18 6.990096172086833e-27
1.0902777775684922 1.2138549749780772e-25 3.512961546015473e-18 3.512961538402114e-18 7.61335846638104e-27
1.0943741465085532 1.2216857924986512e-25 3.5489083269722314e-18 3.548908318682716e-18 8.289515790762108e-27
1.1026131145906286 1.237269007936815e-25 3.621235100228021e-18 3.6212350904102e-18 9.817819392516406e-27
1.1109141095355224 1.252743125023764e-25 3.6941280366432366e-18 3.694128025030287e-18 1.1612949922279632e-26
1.1192775983109025 1.2680884221789627e-25 3.767530546135256e-18 3.767530532416534e-18 1.3718721934782333e-26
1.1277040513999907 1.2832336469638527e-25 3.841230001579816e-18 3.841229985394155e-18 1.6185661569875365e-26
1.1361939428280308 1.2982520203149546e-25 3.915443034545692e-18 3.915443015473741e-18 1.9071949965042625e-26
1.1447477501889525 1.3131385783367606e-25 3.990155237109337e-18 3.990155214664838e-18 2.2444498977678302e-26
1.1533659546722406 1.3278965801276646e-25 4.065376881333346e-18 4.065376854953151e-18 2.6380195009123317e-26
1.1707974979042381 1.3570746982407366e-25 4.217498843056694e-18 4.217498806749774e-18 3.6306920020674974e-26
1.1884924949847024 1.385676333005545e-25 4.371471748907012e-18 4.371471699185609e-18 4.972140219081011e-26
1.2064549276569216 1.413925390919949e-25 4.528006359614899e-18 4.528006291855421e-18 6.775947615970736e-26
1.2246888378427687 1.4415139713783803e-25 4.686126938178151e-18 4.6861268462847765e-18 9.189337420428624e-26
1.2431983285522175 1.4683779272773368e-25 4.845601534157931e-18 4.845601410133152e-18 1.2402477985353752e-25
1.2619875648066055 1.49450776039872e-25 5.006366999775675e-18 5.0063668331781335e-18 1.6659754112028621e-25
1.3004222497298317 1.5441331137733445e-25 5.330139322327801e-18 5.3301390259233484e-18 2.9640445318435146e-25
1.3400274889804893 1.5902002128828167e-25 5.6563327189274294e-18 5.656332201160958e-18 5.177664724854619e-25
1.3808389325824078 1.6325431570228654e-25 5.983800798039377e-18 5.983799909622145e-18 8.884172316056148e-25
1.4228933163050095 1.6713721217442102e-25 6.3126967385110336e-18 6.312695240389954e-18 1.4981210818999876e-24
1.466228494730424 1.7076222698809794e-25 6.646039197984029e-18 6.6460367140515686e-18 2.483932460556571e-24
1.5108834753276823 1.7405993487448107e-25 6.980703965707096e-18 6.980699914482383e-18 4.051224712993828e-24
1.5568984535646726 1.7697431583702999e-25 7.313747495270191e-18 7.313740988898841e-18 6.50637134978758e-24
1.6043148490894465 1.7951131836339237e-25 7.644531468244537e-18 7.64452115975645e-18 1.0308488086196372e-23
1.6531753430134553 1.8167929170123702e-25 7.972486275838602e-18 7.972470182170768e-18 1.609366783299873e-23
1.7035239163302658 1.8350421674238146e-25 8.297814399260483e-18 8.297789635114839e-18 2.4764145643895408e-23
1.755405889504358 1.8513258121182158e-25 8.62640493174313e-18 8.626367355126692e-18 3.757661643855492e-23
1.8088679632656115 1.8652935179332503e-25 8.956193770743259e-18 8.956137524634193e-18 5.624610906763005e-23
1.8639582606462262 1.8767109166559283e-25 9.285450867496348e-18 9.285367782839897e-18 8.308465645050961e-23
1.9207263702978936 1.885764569845927e-25 9.614404809089215e-18 9.614283646860661e-18 1.2116222855423036e-22
1.979223391128241 1.8928762140175362e-25 9.94458036803016e-18 9.944405866161105e-18 1.745018690573552e-22
2.039501978296691 1.898548506194723e-25 1.0278157334077372e-17 1.0277909034915676e-17 2.482991616941351e-22
2.1016163906111602 1.9041719034949805e-25 1.0622556083033113e-17 1.0622206883909023e-17 3.4919912408656886e-22
2.1656225393682647 1.9105580452855652e-25 1.0982783752180479e-17 1.0982298190431915e-17 4.855617485643961e-22
2.231578038680979 1.9177754438517403e-25 1.1360024427807286e-17 1.1359356659705106e-17 6.677681021793534e-22
2.299542257339062 1.9263156622890388e-25 1.1758130705500639e-17 1.1757222150913334e-17 9.08554587307964e-22
2.369576372248914 1.937249431075544e-25 1.2185004272280536e-17 1.218378088885727e-17 1.2233834232638097e-21
2.4417434235010123 1.9518393715405687e-25 1.2650670197988087e-17 1.2649039427493207e-17 1.6307704948831574e-21
2.5161083711144245 1.9722388158064757e-25 1.3172198830214483e-17 1.317004612856287e-17 2.1527016516121862e-21
2.5927381535095444 2.0019615156994154e-25 1.3777924998696426e-17 1.3775110026967503e-17 2.8149717289239977e-21
2.6717017477616296 2.045193693952829e-25 1.450413564131552e-17 1.4500488295359393e-17 3.647345956124439e-21
2.753070231689431 2.1082275456305694e-25 1.5406507759275845e-17 1.54018239316954e-17 4.683827580440117e-21
2.836916847834745 2.20530293595735e-25 1.6606736516921406e-17 1.660077347052653e-17 5.9630463948705754e-21
2.9233170693905177 2.3677541626389444e-25 1.8373079925954163e-17 1.8365552844806454e-17 7.527081147706884e-21
2.967498994190263 2.5044054225561906e-25 1.9727163721414455e-17 1.9718747434934266e-17 8.41628648018391e-21
3.0123486681368425 2.6637233184264215e-25 2.1299224150065995e-17 2.1289826144597867e-17 9.398005468129716e-21
3.0578761833420214 3.017539723884753e-25 2.449301934098807e-17 2.4482536156162985e-17 1.048318482508758e-20
3.1040917844459814 3.4728274929588413e-25 2.861456831183719e-17 2.860289676152615e-17 1.1671550311036288e-20
3.127460860933648 3.9531596183017587e-25 3.281751306300639e-17 3.2805202269198803e-17 1.231079380758794e-20
3.1510058709225794 4.5927014161179085e-25 3.841376339642629e-17 3.8400784101249014e-17 1.2979295177281826e-20
3.162844764501044 5.187539060308276e-25 4.3552058783837855e-17 4.3538732695833094e-17 1.3326088004767074e-20
3.1747281389236908 5.8791126288263825e-25 4.9543622128859483e-17 4.9529941605533545e-17 1.3680523325946902e-20
3.1986289994194426 7.807461470458134e-25 6.62892572720765e-17 6.627484267434369e-17 1.4414597732810725e-20
3.2227097969389145 1.235134313803266e-24 1.0565859213856798e-16 1.0564339738622233e-16 1.519475234567649e-20
3.2348180950136065 1.6659696820011577e-24 1.430495152768819e-16 1.4303390358862784e-16 1.5611688254043655e-20
3.240889293275058 1.9880620747946682e-24 1.710265636275128e-16 1.7101073199870932e-16 1.5831628803495138e-20
3.2469718861334385 2.360675177037379e-24 2.034624148425813e-16 2.03446355622516e-16 1.6059220065339938e-20
3.2714166318528037 4.34802669029028e-24 3.7757001021896657e-16 3.775530085811153e-16 1.7001637851160452e-20
3.2744851364798273 4.472269713034544e-24 3.887231841550912e-16 3.8870607093105705e-16 1.7113224034341133e-20
3.2775565192852394 4.600079512583442e-24 4.0020725853345186e-16 4.001900331154986e-16 1.7225417953220842e-20
3.283707930232385 4.477210601715672e-24 3.902487119520356e-16 3.902312848421911e-16 1.7427109844566093e-20
3.2898708863219004 4.087485606467096e-24 3.5694764701594685e-16 3.569300353819025e-16 1.761163404434778e-20
3.29141343181113 3.995577762955927e-24 3.4908521684898967e-16 3.490675588535114e-16 1.7657995478203282e-20
3.292184975758714 3.950417359668556e-24 3.452205520699885e-16 3.452028708591656e-16 1.7681210822999936e-20
3.295272960557952 3.665374377909079e-24 3.206115527804849e-16 3.205937810832438e-16 1.7771697241108772e-20
3.3076538914384823 2.677856553255018e-24 2.351130857428818e-16 2.350949500957872e-16 1.8135647094554393e-20
3.310756385682612 2.4768600679420328e-24 2.1766977578812461e-16 2.1765154829754892e-16 1.822749057569784e-20
3.313861789986515 2.2914050373126842e-24 2.015606211445388e-16 2.0154230146679327e-16 1.8319677745500627e-20
3.3200813396944477 2.031340195797161e-24 1.7901969758326329e-16 1.7900118006319521e-16 1.8517520068113907e-20
3.345076488085796 1.5675369647856943e-24 1.3918527014529966e-16 1.391658720366418e-16 1.939810865789001e-20
3.3482140837626964 1.5849572265919787e-24 1.4086405894638048e-16 1.4084454158484836e-16 1.951736153208935e-20
3.3513546224236106 1.6025697787819371e-24 1.425629805715711e-16 1.4254334336316754e-16 1.963720840352759e-20
3.3576445397418455 1.7311737325290275e-24 1.5429249578984166e-16 1.5427260817625191e-16 1.9887613589759196e-20
3.3702598118196083 2.2054154415751137e-24 1.972982466636909e-16 1.9727783368158465e-16 2.0412982106317075e-20
3.382922481734668 2.3135104948241373e-24 2.077461352327271e-16 2.0772520966904953e-16 2.092556367762074e-20
3.389271646505754 2.3695088113396635e-24 2.1317395344757738e-16 2.131527676853101e-16 2.1185762267316435e-20
3.395632727569191 2.4298564874865274e-24 2.1901344058003035e-16 2.1899198664690217e-16 2.1453933128177457e-20
3.421196662673239 2.7196237406723947e-24 2.4697687796390947e-16 2.469543117049985e-16 2.2566258910973076e-20
3.4276182099114902 2.6613313255302395e-24 2.4213681214482377e-16 2.421139955411027e-16 2.2816603721042473e-20
3.4340518103208963 2.405723529853994e-24 2.1929159793150067e-16 2.1926854352107816e-16 2.3054410422541243e-20
3.4469541582030403 2.0416895607339205e-24 1.8680764646898214e-16 1.8678413352228492e-16 2.351294669722613e-20
3.472904465399547 1.9397909398459022e-24 1.7882045527552262e-16 1.7879588892207923e-16 2.4566353443379223e-20
3.4990501388274233 1.7838817417947006e-24 1.6568594119548757e-16 1.6566029192646838e-16 2.5649269019215408e-20
3.5253949054701885 1.2286858130228385e-24 1.1497887350373168e-16 1.149521643943077e-16 2.6709109423974743e-20
3.5519380250092896 7.0682468755591585e-25 6.664176985587687e-17 6.661398911533546e-17 2.778074054142869e-20
3.578680990867387 5.000109605411423e-25 4.7497630420853025e-17 4.746867392139278e-17 2.895649946025516e-20
3.605625307711299 4.164719958453791e-25 3.985986565229015e-17 3.982966677413749e-17 3.019887815265825e-20
3.660119384959845 3.5577175943255666e-25 3.456496774455901e-17 3.453214075011775e-17 3.282699444126788e-20
3.715437065384467 3.1289769759811976e-25 3.085899015257997e-17 3.082336610060945e-17 3.562405197051563e-20
3.8285932144167436 2.917486517893105e-25 2.9649509706076134e-17 2.9607780168671744e-17 4.172953740439489e-20
3.94519561050918 2.883992013616192e-25 3.02017443945793e-17 3.015321252212314e-17 4.853187245616092e-20
4.06534921144712 2.9240844425098476e-25 3.155420192585191e-17 3.1498139730402714e-17 5.606219544919578e-20
4.189162171576248 3.007221479125822e-25 3.343967292184424e-17 3.337529775965494e-17 6.437516218931269e-20
4.316745939156006 3.1220868603382622e-25 3.577428015339452e-17 3.570079169351443e-17 7.348845988009152e-20
4.448215356677963 3.2649611170483215e-25 3.855078728960457e-17 3.8467453439841914e-17 8.333384976267611e-20
4.58368876423945 3.436450553139945e-25 4.181139458768408e-17 4.171742184866356e-17 9.397273902052403e-20
4.723288106065518 3.640366066014159e-25 4.564139684786485e-17 4.553587532165194e-17 1.0552152621290204e-19
4.867139040275056 3.8841657003422363e-25 5.018118755912482e-17 5.006341155893441e-17 1.177760001904062e-19
4.940699165968905 4.030254101935986e-25 5.285551060944426e-17 5.2731292180199e-17 1.2421842924526857e-19
5.015371051989984 4.181682836029229e-25 5.567030391503819e-17 5.553944041521678e-17 1.3086349982140095e-19
5.091171501069577 4.365006199624798e-25 5.898913459157277e-17 5.885129289703342e-17 1.3784169453933314e-19
5.129500256944802 4.459153445900857e-25 6.071512678744351e-17 6.057371897192968e-17 1.41407815513838e-19
5.168117569889187 4.557230476148547e-25 6.25176739227484e-17 6.237262135353194e-17 1.450525692164637e-19
5.20702561229733 4.67664153308991e-25 6.463879165594065e-17 6.448980064776257e-17 1.489910081780762e-19
5.246226572918644 4.79909966146469e-25 6.683073612714685e-17 6.667774168123839e-17 1.5299444590847017e-19
5.265937586045735 4.8615017487292555e-25 6.795408776113337e-17 6.779906722559703e-17 1.5502053553633862e-19
5.285722656980489 4.924702569227732e-25 6.909614389631153e-17 6.893908102833017e-17 1.5706286798136178e-19
5.305582063971359 4.988714996623671e-25 7.02572526355445e-17 7.009813119700125e-17 1.591214385432602e-19
5.3255160863122235 5.05732553946915e-25 7.149111062148086e-17 7.132990181000956e-17 1.6120881147131372e-19
5.365609099470188 5.227009671392761e-25 7.444606832438954e-17 7.428053779566232e-17 1.6553052872721963e-19
5.406003951863644 5.4030752044534545e-25 7.753303852586282e-17 7.736311459259309e-17 1.6992393326972846e-19
5.446702915881641 5.585827658591895e-25 8.075894800207564e-17 8.058455888444619e-17 1.7438911762945286e-19
5.487708281020852 5.782980284434882e-25 8.423879805226776e-17 8.405985690128664e-17 1.7894115098112664e-19
5.529022354014368 6.0549039075258435e-25 8.886383139305442e-17 8.86801336915058e-17 1.8369770154860354e-19
5.570647458961463 6.342615907973993e-25 9.378718921303182e-17 9.35986550108024e-17 1.8853420222940792e-19
5.612585937458331 6.647244760079108e-25 9.903167101271632e-17 9.883822011873775e-17 1.9345089397859561e-19
5.654840148729818 6.981606519245679e-25 1.0479610330499878e-16 1.045976361751176e-16 1.984671298812246e-19
5.67608639626678 7.208251157694544e-25 1.0860463008962553e-16 1.0840354105503564e-16 2.0108903458985882e-19
5.686739436050992 7.325030430006974e-25 1.1057124401225357e-16 1.1036883554933053e-16 2.0240846292301858e-19
5.6974124697621304 7.444187551934922e-25 1.1258081834698427e-16 1.1237708479576e-16 2.0373355122427549e-19
5.718818669136295 7.689863421388617e-25 1.1673319859302525e-16 1.1652679785755244e-16 2.0640073547282997e-19
5.740305295436557 7.9603680022934275e-25 1.2129351147057525e-16 1.21084404331195e-16 2.0910713938022363e-19
5.7835210386641895 8.660273247151465e-25 1.3295153253061433e-16 1.32736814265185e-16 2.1471826542931427e-19
5.827062130521658 9.465499998459621e-25 1.464072696477448e-16 1.461868003140683e-16 2.2046933367647547e-19
5.8489554468988025 1.0029144154440998e-24 1.5570824866951826e-16 1.5548469031048383e-16 2.23558359034488e-19
5.870931020387893 1.0633662407971807e-24 1.6571403006471748e-16 1.654873522531852e-16 2.26677811532299e-19
5.892989160043636 1.1282338090200708e-24 1.7648353129472032e-16 1.7625370345310118e-16 2.2982784161911486e-19
5.915130176081913 1.201957442000494e-24 1.8872213043362695e-16 1.8848904078963207e-16 2.3308964399491524e-19
5.95966208400165 1.407827433617838e-24 2.227103972561259e-16 2.224699823675187e-16 2.404148886072368e-19
6.004529249263818 1.704217372977049e-24 2.7162728077581816e-16 2.713786747065579e-16 2.486060692602307e-19
6.027089341400364 1.9101074965244284e-24 3.05586997431773e-16 3.0533371264495876e-16 2.5328478681431504e-19
6.049734195844842 2.1533118391734853e-24 3.4579017940076953e-16 3.455319473997973e-16 2.5823200097216016e-19
6.095279466722835 2.8555025231337216e-24 4.620038599096813e-16 4.61733659198734e-16 2.7020071094730144e-19
6.141167624020661 3.9356297753983e-24 6.415560758760225e-16 6.412705769079978e-16 2.854989680244883e-19
6.164241091010745 4.625363391171104e-24 7.568240212665288e-16 7.565290366799871e-16 2.949845865417317e-19
6.187401249150058 5.410845540966853e-24 8.886747697974582e-16 8.883700100999695e-16 3.0475969748841667e-19
6.1990139391386085 5.794405006732642e-24 9.53456521076985e-16 9.531467799756669e-16 3.0974110131807344e-19
6.204828454712694 5.996428819764302e-24 9.876245908018341e-16 9.873123299737205e-16 3.122608281133097e-19
6.210648424152782 6.143952614387269e-24 1.012871230668455e-15 1.0125567947059566e-15 3.144359624981321e-19
6.233982942956859 6.645216890019135e-24 1.0996239820460295e-15 1.099301840507657e-15 3.2214153837252477e-19
6.239830258556775 6.709347526030255e-24 1.111277436726497e-15 1.110954135100202e-15 3.233016262953902e-19
6.245683058788269 6.715018252197285e-24 1.1132599166713597e-15 1.1129354517144098e-15 3.244649569497367e-19
6.257405133728602 6.701501458227448e-24 1.113104205580671e-15 1.1127776506645683e-15 3.265549161028017e-19
6.269149208991335 6.6032572785454364e-24 1.098844549146168e-15 1.0985169684078946e-15 3.2758073827320266e-19
6.280915325867298 6.356518240085118e-24 1.0597701168891227e-15 1.059442830511191e-15 3.2728637793176356e-19
6.304513850009849 5.747915835587725e-24 9.61903348343935e-16 9.615778494783838e-16 3.2549886555119326e-19
6.32820103803542 4.9934908653361506e-24 8.387913833391923e-16 8.384689476370133e-16 3.2243570217925726e-19
6.3519772230701035 4.301681592539591e-24 7.252982444027346e-16 7.249784676321746e-16 3.1977677055995453e-19
6.375842739491607 3.7196585930481e-24 6.295208372256435e-16 6.292033085412878e-16 3.1752868435564444e-19
6.399797922933955 3.253421716019398e-24 5.526829351554699e-16 5.52366120991855e-16 3.168141636149125e-19
6.42384311029221 2.865809528967608e-24 4.8866550262185005e-16 4.883490973358295e-16 3.1640528602061315e-19
6.447978639727206 2.583562863335111e-24 4.421931966159057e-16 4.4187599268462774e-16 3.1720393127801964e-19
6.472204850670314 2.3485025593253502e-24 4.034713723088711e-16 4.0315312346126693e-16 3.1824884760425595e-19
6.496522083828205 2.1959859622128937e-24 3.7868657736087617e-16 3.783662944946729e-16 3.20282866203189e-19
