Dust emission spectrum from A.P. Jones, M. Kohler, N. Ysard, M. Bocchio, and L. Verstraete (2017), A&A, 602A, 46J 
inside the DustPedia framework.

lambda    nu*dP/dnu     j_nu    j_nu(carb.) j_nu(sil)
 (um)   (erg s-1 H-1) (Jy cm2 sr-1 H-1)
0.9927057738263894 8.043729922469158e-26 2.1195685220444906e-18 2.119568501285368e-18 2.0759122826382646e-26
1.0001793341362166 8.177062663186574e-26 2.170924079483717e-18 2.1709240544862506e-18 2.4997466761980807e-26
1.0077091589558085 8.310330680933387e-26 2.2229154495627914e-18 2.2229154195009332e-18 3.006185781351699e-26
1.0114953028030835 8.376925784140548e-26 2.2491476740291658e-18 2.2491476410786257e-18 3.2950539980457575e-26
1.0152956718711033 8.443487204705942e-26 2.275536559737688e-18 2.2755365236327234e-18 3.610496445357708e-26
1.0229392996569957 8.576420696961302e-26 2.3287634331033534e-18 2.3287633897967744e-18 4.330657899470635e-26
1.0267826658714554 8.642633342314222e-26 2.3555593447808488e-18 2.3555592973731352e-18 4.7407712840346454e-26
1.0306404723013447 8.708786018861499e-26 2.382507330820773e-18 2.382507278940578e-18 5.188019440307618e-26
1.03451277320114 8.774873100834957e-26 2.4096065492096465e-18 2.4096064924536678e-18 5.675597922929576e-26
1.0383996230291617 8.840889001950517e-26 2.4368561485030774e-18 2.4368560864334602e-18 6.206961805829526e-26
1.0403485208654093 8.873868525088707e-26 2.4505370724214284e-18 2.4505370075192417e-18 6.49021877066396e-26
1.0423010764483396 8.9068281767046e-26 2.4642552681818298e-18 2.464255200323376e-18 6.785845404104821e-26
1.0462171883269815 8.972685121649098e-26 2.4918030390107316e-18 2.4918029648478976e-18 7.416283382842866e-26
1.0471985131304309 8.989135868648107e-26 2.4987131057960287e-18 2.4987130299715142e-18 7.582451471766378e-26
1.048180758391296 9.005581049923677e-26 2.5056323946761906e-18 2.505632317154353e-18 7.752183750849536e-26
1.0501480137395462 9.038454376644796e-26 2.5194985834003585e-18 2.5194985023740252e-18 8.102633341754994e-26
1.0521189612883777 9.071304426264173e-26 2.5334014942389885e-18 2.5334014095566758e-18 8.468231276589431e-26
1.0531058218030118 9.087695891070652e-26 2.5403598032025575e-18 2.540359716633388e-18 8.656916835452366e-26
1.0540936079674168 9.104000619616508e-26 2.547304667863681e-18 2.5473045793670134e-18 8.849666758645307e-26
1.058054026499678 9.169153823162286e-26 2.575173745124241e-18 2.5751736484985293e-18 9.662571246870985e-26
1.0590464539527713 9.185425283317147e-26 2.5821633478221013e-18 2.5821632490550835e-18 9.87670178663925e-26
1.06003981227728 9.201689842618518e-26 2.589161855273137e-18 2.589161754319426e-18 1.0095371141312112e-25
1.0620293250338977 9.234197931082439e-26 2.603185527031415e-18 2.6031854215644753e-18 1.0546693984090538e-25
1.0660195594769086 9.299127705354955e-26 2.6313390947734147e-18 2.6313389796939217e-18 1.1507949303139468e-25
1.070024785945596 9.363937958291655e-26 2.659633523344181e-18 2.659633397817044e-18 1.255271372661563e-25
1.0740450607676866 9.428623553644838e-26 2.6880678819220477e-18 2.688067745043451e-18 1.3687859646896393e-25
1.07808044048254 9.493179407691852e-26 2.716641234250655e-18 2.7166410850427426e-18 1.492079126701616e-25
1.0861967418109137 9.621770446888806e-26 2.7741690372159838e-18 2.774168860090761e-18 1.7712522270475365e-25
1.0902777775684922 9.6855424593084e-26 2.803048050486019e-18 2.8030478575944913e-18 1.928915275409395e-25
1.0943741465085532 9.749160512308218e-26 2.832060185651844e-18 2.8320599756587346e-18 2.099931091249725e-25
1.1026131145906286 9.875915696945535e-26 2.8904799473081443e-18 2.890479698670344e-18 2.4863780076773504e-25
1.1109141095355224 1.0001998514502755e-25 2.9494205473438723e-18 2.9494202533294633e-18 2.940144100061657e-25
1.1192775983109025 1.0127258757073022e-25 3.008840396975384e-18 3.0088400497500074e-18 3.472253763132434e-25
1.1277040513999907 1.0251138559429201e-25 3.0685745404196344e-18 3.068574130878183e-18 4.095414519543359e-25
1.1361939428280308 1.0374223155702437e-25 3.12879773404577e-18 3.128797251620475e-18 4.824252949364576e-25
1.1447477501889525 1.0496479414773544e-25 3.189502082949848e-18 3.189501515391551e-18 5.675582962479041e-25
1.1533659546722406 1.061793750817448e-25 3.250698760668902e-18 3.250698093797274e-18 6.668716268189028e-25
1.1707974979042381 1.0858847289418706e-25 3.3746982343287758e-18 3.3746973171046436e-18 9.17224131785749e-25
1.1884924949847024 1.1096155385535757e-25 3.500567097378421e-18 3.500565842087735e-18 1.2552906860817366e-24
1.2064549276569216 1.1331669265212118e-25 3.6288951897631e-18 3.6288934802232295e-18 1.709539871502617e-24
1.2246888378427687 1.1563031487307793e-25 3.758953046279708e-18 3.75895072944312e-18 2.3168365878712198e-24
1.2431983285522175 1.1789777318121663e-25 3.890589881448189e-18 3.890586756695499e-18 3.1247526901073822e-24
1.2619875648066055 1.2011914527070727e-25 4.023803294029682e-18 4.0237990996665925e-18 4.194363090416679e-24
1.3004222497298317 1.2439203182398902e-25 4.293845228078034e-18 4.29383777653691e-18 7.451541124697658e-24
1.3400274889804893 1.284396380563252e-25 4.568590302400654e-18 4.568577305547652e-18 1.2996853000575289e-23
1.3808389325824078 1.3225521426557013e-25 4.847583068556533e-18 4.847560802469756e-18 2.2266086775961906e-23
1.4228933163050095 1.3586224709951315e-25 5.131455484951151e-18 5.131417998296872e-18 3.748665427900104e-23
1.466228494730424 1.3934245671779123e-25 5.423186647445049e-18 5.423124595872806e-18 6.205157224254981e-23
1.5108834753276823 1.4264979552963125e-25 5.720994863516962e-18 5.720893830574996e-18 1.0103294196765952e-22
1.5568984535646726 1.4574908586685802e-25 6.02331477680791e-18 6.023152796945979e-18 1.6197986192984859e-22
1.6043148490894465 1.486549909725564e-25 6.33050755106626e-18 6.330251369373058e-18 2.561816932037939e-22
1.6531753430134553 1.5138521828735104e-25 6.643115810609026e-18 6.6427165833234914e-18 3.992272855358197e-22
1.7035239163302658 1.5397172026156862e-25 6.962394544093736e-18 6.961781374359108e-18 6.1316973462918e-22
1.755405889504358 1.5654394204016724e-25 7.294293769418797e-18 7.293365130788636e-18 9.28638630158981e-22
1.8088679632656115 1.590877123161337e-25 7.63858537194863e-18 7.637198066514456e-18 1.3873054341730468e-21
1.8639582606462262 1.615975836173369e-25 7.995405204220985e-18 7.993360035722146e-18 2.0451684988393547e-21
1.9207263702978936 1.6410305380633639e-25 8.366649872050436e-18 8.363673539973546e-18 2.9763320768882593e-21
1.979223391128241 1.6665348076769438e-25 8.755453319310148e-18 8.75117575653113e-18 4.277562779015789e-21
2.039501978296691 1.693046812995336e-25 9.165634410259081e-18 9.159561051399555e-18 6.0733588595270755e-21
2.1016163906111602 1.7218667467830972e-25 9.605554021484089e-18 9.597031692840088e-18 8.522328644001129e-21
2.1656225393682647 1.7538331007584661e-25 1.0081855262433216e-17 1.0070032095135931e-17 1.1823167297282844e-20
2.231578038680979 1.7891652729316567e-25 1.0598196609018314e-17 1.0581975118297357e-17 1.6221490720960254e-20
2.299542257339062 1.8284531425729885e-25 1.1160782970382501e-17 1.113876577859903e-17 2.2017191783467787e-20
2.369576372248914 1.8727427473971692e-25 1.1779267043195243e-17 1.174969455726841e-17 2.9572485926829044e-20
2.4417434235010123 1.923240788763257e-25 1.2465311072580103e-17 1.2425992357209383e-17 3.9318715370716456e-20
2.5161083711144245 1.9818711444737825e-25 1.3236531276866929e-17 1.3184766221582173e-17 5.176505528475633e-20
2.5927381535095444 2.051614119620623e-25 1.4119644780745967e-17 1.405213970642838e-17 6.750507431758384e-20
2.6717017477616296 2.1358632495027567e-25 1.5147147369799893e-17 1.505992855437201e-17 8.7218815427882e-20
2.753070231689431 2.2395540995799727e-25 1.636621610604032e-17 1.6254539003050704e-17 1.1167710298961279e-19
2.836916847834745 2.3736497728919955e-25 1.7874449681787403e-17 1.7732701180583122e-17 1.4174850120428447e-19
2.9233170693905177 2.561854218738707e-25 1.987923960275881e-17 1.9700872282926533e-17 1.7836731983227994e-19
2.967498994190263 2.69917634089581e-25 2.1261371306037146e-17 2.1062269531604684e-17 1.9910177443245566e-19
3.0123486681368425 2.8547530022450115e-25 2.2826704135251552e-17 2.2604753498086786e-17 2.219506371647594e-19
3.0578761833420214 3.1581322979307485e-25 2.563419292954142e-17 2.5387030318193887e-17 2.4716261134752946e-19
3.1040917844459814 3.5377787513394557e-25 2.914973806145478e-17 2.887502893786129e-17 2.7470912359348416e-19
3.127460860933648 3.917756707294779e-25 3.2523612586774385e-17 3.2234110599646523e-17 2.895019871278658e-19
3.1510058709225794 4.416520825899811e-25 3.694017325970862e-17 3.6635219678174025e-17 3.0495358153458454e-19
3.162844764501044 4.873072132389209e-25 4.091194716808258e-17 4.059898497359873e-17 3.129621944838301e-19
3.1747281389236908 5.400893713039256e-25 4.551364366876661e-17 4.519250133756665e-17 3.2114233119996694e-19
3.1986289994194426 6.861749744663066e-25 5.825969117896711e-17 5.792162216534464e-17 3.3806901362247336e-19
3.2227097969389145 1.0277427510786688e-24 8.79174442374752e-17 8.756140544399078e-17 3.5603879348442824e-19
3.2348180950136065 1.350531127866209e-24 1.159641890814839e-16 1.1559855191112109e-16 3.656371703627863e-19
3.240889293275058 1.5916534342956127e-24 1.369248077334924e-16 1.3655410747510887e-16 3.7070025838352553e-19
3.2469718861334385 1.87062535332893e-24 1.6122588798163763e-16 1.6084994870042226e-16 3.759392812153739e-19
3.2714166318528037 3.354889425616634e-24 2.91328854430056e-16 2.90931237155798e-16 3.976172742580309e-19
3.2744851364798273 3.4478270310885856e-24 2.996801150061582e-16 2.992799352489189e-16 4.0017975723933754e-19
3.2775565192852394 3.543404644043974e-24 3.0827646665418767e-16 3.078737108733538e-16 4.027557808338966e-19
3.283707930232385 3.452322895878047e-24 3.009160576102129e-16 3.005086793612809e-16 4.073782489319659e-19
3.2898708863219004 3.162151079749767e-24 2.7614100601107563e-16 2.757294065590635e-16 4.1159945201215183e-19
3.29141343181113 3.0937035741974016e-24 2.7029036778556793e-16 2.698777079808702e-16 4.1265980469772837e-19
3.292184975758714 3.0600682513021544e-24 2.6741439065947375e-16 2.6700119991932357e-16 4.131907401501924e-19
3.295272960557952 2.8479790954492445e-24 2.491137073422826e-16 2.486984486323198e-16 4.1525870996278795e-19
3.3076538914384823 2.1124889194309567e-24 1.854743816808767e-16 1.8505080949045524e-16 4.2357219042143283e-19
3.310756385682612 1.9625979167900967e-24 1.7247573007420245e-16 1.720500608432571e-16 4.256692309453764e-19
3.313861789986515 1.8242227925382054e-24 1.604655105416226e-16 1.6003773677911033e-16 4.277737625122603e-19
3.3200813396944477 1.630424963367486e-24 1.436874948263939e-16 1.432552010835098e-16 4.3229374288405967e-19
3.345076488085796 1.286848118237234e-24 1.1426225154269776e-16 1.1380983167362131e-16 4.524198690764295e-19
3.3482140837626964 1.3002168702229732e-24 1.1555758273930832e-16 1.1510243709515288e-16 4.551456441554595e-19
3.3513546224236106 1.313728253172148e-24 1.1686793168885125e-16 1.164100471616795e-16 4.578845271718218e-19
3.3576445397418455 1.4105449493850093e-24 1.2571615232772126e-16 1.2525254397251042e-16 4.636083552108869e-19
3.3702598118196083 1.7658831326470225e-24 1.579773313074344e-16 1.575017152139998e-16 4.756160934345513e-19
3.382922481734668 1.848255481017239e-24 1.6596766427602652e-16 1.6548034781379463e-16 4.87316462231902e-19
3.389271646505754 1.8908906755573867e-24 1.7011485203882056e-16 1.6962159929473088e-16 4.932527440897284e-19
3.395632727569191 1.9369514489002797e-24 1.7458578448760226e-16 1.740864138080441e-16 4.993706795580889e-19
3.421196662673239 2.1581482933935165e-24 1.9598767274832247e-16 1.9546294382077185e-16 5.247289275505748e-19
3.4276182099114902 2.1153424437689824e-24 1.924609202226303e-16 1.9193050043757888e-16 5.304197850514384e-19
3.4340518103208963 1.9248110041876454e-24 1.7545444253524124e-16 1.7491862478058898e-16 5.358177546522292e-19
3.4469541582030403 1.6534213333756678e-24 1.512824250315927e-16 1.5073621510503777e-16 5.462099265548909e-19
3.472904465399547 1.5794169141254286e-24 1.4559922198430652e-16 1.4502911736137249e-16 5.70104622934076e-19
3.4990501388274233 1.4652308937980493e-24 1.3608982816506365e-16 1.354951987181962e-16 5.946294468674391e-19
3.5253949054701885 1.0531189434068621e-24 9.854954659276305e-17 9.793097564239356e-17 6.185709503694781e-19
3.5519380250092896 6.650006001431908e-25 6.269845653241517e-17 6.205572779473961e-17 6.427287376755872e-19
3.578680990867387 5.128424644629458e-25 4.8716535763171805e-17 4.804731298913768e-17 6.692227740341019e-19
3.605625307711299 4.531427163614973e-25 4.3369561400687663e-17 4.26723764166679e-17 6.971849840197702e-19
3.660119384959845 4.1354529112496546e-25 4.0177949119534976e-17 3.9421756472883145e-17 7.561926466518325e-19
3.715437065384467 3.8725892715969646e-25 3.819273683205129e-17 3.737395542183178e-17 8.187814102195194e-19
3.8285932144167436 3.836564980823248e-25 3.8989818783827035e-17 3.8035169088418184e-17 9.546496954088622e-19
3.94519561050918 3.9396950356296265e-25 4.125727876391888e-17 4.01524108893689e-17 1.1048678745499832e-18
4.06534921144712 4.1037323799522603e-25 4.428394689433952e-17 4.3014152884672976e-17 1.2697940096665548e-18
4.189162171576248 4.3057340372017705e-25 4.7878860566776004e-17 4.642858390244465e-17 1.4502766643313646e-18
4.316745939156006 4.536919654507719e-25 5.198607278216983e-17 5.033978796289626e-17 1.6462848192735714e-18
4.448215356677963 4.794026753738514e-25 5.660511688149203e-17 5.474925940705855e-17 1.8558574744334786e-18
4.58368876423945 5.077222689722037e-25 6.177471725747416e-17 5.969484950728694e-17 2.0798677501872134e-18
4.723288106065518 5.389119098122998e-25 6.756653560589547e-17 6.524621406815859e-17 2.3203215377368864e-18
4.867139040275056 5.734469887975442e-25 7.408605378892414e-17 7.1513908508098e-17 2.572145280826148e-18
4.940699165968905 5.92670550703383e-25 7.772687227229673e-17 7.502364035992005e-17 2.7032319123766742e-18
5.015371051989984 6.12342410928324e-25 8.152050132242197e-17 7.868299189147093e-17 2.8375094309510343e-18
5.091171501069577 6.345327102093899e-25 8.575139125464369e-17 8.277370443003806e-17 2.9776868246056502e-18
5.129500256944802 6.458203793728054e-25 8.793387958330995e-17 8.488495176882626e-17 3.048927814483675e-18
5.168117569889187 6.574161842453893e-25 9.018664044598793e-17 8.706511496470461e-17 3.1215254812832853e-18
5.20702561229733 6.707057058037068e-25 9.270243629567266e-17 8.950222569350093e-17 3.2002106021717418e-18
5.246226572918644 6.842201781756914e-25 9.528232669911495e-17 9.200241936026333e-17 3.2799073388516225e-18
5.265937586045735 6.910635145943052e-25 9.659688126520515e-17 9.327675042470525e-17 3.3201308404999074e-18
5.285722656980489 6.979652166151836e-25 9.792815782055573e-17 9.45675557165167e-17 3.3606021040390205e-18
5.305582063971359 7.04926031270183e-25 9.927639943720971e-17 9.587508009893332e-17 3.4013193382764126e-18
5.3255160863122235 7.122435704630166e-25 1.0068381694636729e-16 9.724126234275829e-17 3.4425546036089993e-18
5.365609099470188 7.2940611028926915e-25 1.0388619982857864e-16 1.0035831310825152e-16 3.527886720327153e-18
5.406003951863644 7.470276938836944e-25 1.0719696613149351e-16 1.0358265437780984e-16 3.6143117536836686e-18
5.446702915881641 7.651284948045613e-25 1.1062097884775153e-16 1.0691916212860691e-16 3.7018167191446145e-18
5.487708281020852 7.843099626232684e-25 1.1424788828976533e-16 1.1045717895547866e-16 3.7907093342866815e-18
5.529022354014368 8.09280211258964e-25 1.187727193385605e-16 1.1488923037759465e-16 3.883488960965874e-18
5.570647458961463 8.353804893766203e-25 1.2352630075477283e-16 1.1954883642435564e-16 3.977464330417186e-18
5.612585937458331 8.626891777533744e-25 1.285247556259478e-16 1.2445213212026757e-16 4.072623505680217e-18
5.654840148729818 8.92196299598101e-25 1.3392146252195582e-16 1.2975210393552054e-16 4.169358586435275e-18
5.67608639626678 9.115284263421151e-25 1.3733734493059256e-16 1.3311741833056325e-16 4.2199266000292595e-18
5.686739436050992 9.214424873401335e-25 1.3909162983620088e-16 1.3484629352751917e-16 4.2453363086816884e-18
5.6974124697621304 9.315270494468983e-25 1.4087780138186432e-16 1.3660697177141373e-16 4.270829610450589e-18
5.718818669136295 9.52223782670863e-25 1.4454889747241733e-16 1.402268311160586e-16 4.322066356358771e-18
5.740305295436557 9.747937635248536e-25 1.4853102080642828e-16 1.4415704484327764e-16 4.373975963150611e-18
5.7835210386641895 1.0320507681326519e-24 1.5843926323891189e-16 1.5395780363141135e-16 4.481459607500592e-18
5.827062130521658 1.0970555762644914e-24 1.696866637777778e-16 1.6509542273649934e-16 4.591241041278429e-18
5.8489554468988025 1.141888557394854e-24 1.7728478592959827e-16 1.72634472652294e-16 4.650313277304257e-18
5.870931020387893 1.189676984188696e-24 1.8539818170017523e-16 1.8068833410507947e-16 4.709847595095699e-18
5.892989160043636 1.2406555305904894e-24 1.9406905502070387e-16 1.8929921116128005e-16 4.769843859423809e-18
5.915130176081913 1.2982632455045263e-24 2.0384332838565546e-16 1.9901134390449625e-16 4.831984481159269e-18
5.95966208400165 1.4577596580731837e-24 2.306093948738629e-16 2.2563708633600357e-16 4.972308537859327e-18
6.004529249263818 1.6852685981285486e-24 2.6860712368333397e-16 2.6347754989000527e-16 5.129573793328725e-18
6.027089341400364 1.8425390531876038e-24 2.9477711486861374e-16 2.8955731415531097e-16 5.219800713302741e-18
6.049734195844842 2.0275330424315173e-24 3.2559195641281983e-16 3.2027669411389513e-16 5.315262298924708e-18
6.095279466722835 2.5597983373408586e-24 4.141606259706599e-16 4.086129534451519e-16 5.54767252550819e-18
6.141167624020661 3.374848072381679e-24 5.501417586403505e-16 5.442952015822475e-16 5.846557058103083e-18
6.164241091010745 3.8949621910089495e-24 6.373122928475734e-16 6.312794906617398e-16 6.032802185833694e-18
6.187401249150058 4.485188942664817e-24 7.366453580947224e-16 7.304209228771909e-16 6.224435217531558e-18
6.1990139391386085 4.773328551418198e-24 7.854406499553532e-16 7.791186240572687e-16 6.322025898084508e-18
6.204828454712694 4.924910268473216e-24 8.11143204536162e-16 8.047718456792824e-16 6.3713588568795265e-18
6.210648424152782 5.035695450386782e-24 8.301677060726276e-16 8.237539956595461e-16 6.4137104130812704e-18
6.233982942956859 5.41175028277068e-24 8.955148483892278e-16 8.889521105503778e-16 6.5627378388497915e-18
6.239830258556775 5.459725796432803e-24 9.043010612805778e-16 8.977166192032666e-16 6.584442077311098e-18
6.245683058788269 5.463900474913534e-24 9.058413780800148e-16 8.992351817427287e-16 6.6061963372862245e-18
6.257405133728602 5.4535973466882984e-24 9.058301605962743e-16 8.99185282575168e-16 6.644878021105896e-18
6.269149208991335 5.379785755377498e-24 8.95247300461532e-16 8.885853006882225e-16 6.661999773309369e-18
6.280915325867298 5.194703143653944e-24 8.660702211216676e-16 8.594178089966752e-16 6.6524121249921836e-18
6.304513850009849 4.738338103382271e-24 7.929523356987395e-16 7.86343321647213e-16 6.609014051526485e-18
6.32820103803542 4.1736156981672025e-24 7.01071250433973e-16 6.945314083205556e-16 6.539842113417471e-18
6.3519772230701035 3.656276682504833e-24 6.16477766153261e-16 6.09998928529462e-16 6.478837623799046e-18
6.375842739491607 3.220662690051105e-24 5.450699902543845e-16 5.386438287262902e-16 6.4261615280941e-18
6.399797922933955 2.8731422685485803e-24 4.880820381452224e-16 4.816777620443941e-16 6.404276100828552e-18
6.42384311029221 2.584012346491403e-24 4.4061466029606475e-16 4.342261479579367e-16 6.388512338127912e-18
6.447978639727206 2.374406899797692e-24 4.0639482475492483e-16 3.9999793416886095e-16 6.396890586063862e-18
6.472204850670314 2.1998892273172533e-24 3.779396883979429e-16 3.7152956469054966e-16 6.410123707393341e-18
6.496522083828205 2.087549366356479e-24 3.599872395453691e-16 3.535442006747113e-16 6.443038870657846e-18
6.520930681187647 1.993170075928848e-24 3.4500339995253554e-16 3.3852433048192517e-16 6.4790694706102566e-18
6.57002334288761 1.8989296644174687e-24 3.311656051004382e-16 3.2458677771981363e-16 6.5788273806244984e-18
