Dust emission spectrum from A.P. Jones, M. Kohler, N. Ysard, M. Bocchio, and L. Verstraete (2017), A&A, 602A, 46J 
inside the DustPedia framework.

lambda    nu*dP/dnu     j_nu    j_nu(carb.) j_nu(sil)
 (um)   (erg s-1 H-1) (Jy cm2 sr-1 H-1)
0.9927057738263894 1.809319788348854e-25 4.7676604096115915e-18 4.767660409605458e-18 6.132461103252448e-30
1.0001793341362166 1.8392043221586221e-25 4.8828939125540594e-18 4.882893912546671e-18 7.388055967153455e-30
1.0077091589558085 1.8690460374422435e-25 4.9994777248837865e-18 4.999477724874898e-18 8.889345618830277e-30
1.0114953028030835 1.883947162705063e-25 5.058270167576365e-18 5.05827016756662e-18 9.746092242542303e-30
1.0152956718711033 1.8988331844685633e-25 5.117393118915531e-18 5.117393118904849e-18 1.0681974975156332e-29
1.0229392996569957 1.928539492681909e-25 5.236581096639255e-18 5.236581096626435e-18 1.2819745587834433e-29
1.0267826658714554 1.943323744494641e-25 5.2965505129865004e-18 5.2965505129724635e-18 1.4037780222382015e-29
1.0306404723013447 1.9580863559311894e-25 5.356837436678768e-18 5.356837436663402e-18 1.5366584032106074e-29
1.03451277320114 1.972825902319409e-25 5.417439272400357e-18 5.417439272383541e-18 1.681574092410649e-29
1.0383996230291617 1.98754096689981e-25 5.478353392428061e-18 5.478353392409667e-18 1.8395618348303624e-29
1.0403485208654093 1.9948888780053216e-25 5.5089267291847345e-18 5.508926729165498e-18 1.9238046025808927e-29
1.0423010764483396 2.0022301410971847e-25 5.5395771372528025e-18 5.539577137232686e-18 2.011742733154418e-29
1.0462171883269815 2.0168920247862518e-25 5.6011078162020845e-18 5.601107816180091e-18 2.1993286776942884e-29
1.0471985131304309 2.0205530683150418e-25 5.6165381261663696e-18 5.616538126143881e-18 2.2487834173636742e-29
1.048180758391296 2.0242122975255601e-25 5.631987406770325e-18 5.631987406747333e-18 2.299303767123394e-29
1.0501480137395462 2.031525226551268e-25 5.66294270806293e-18 5.662942708038894e-18 2.4036292305379312e-29
1.0521189612883777 2.038830639338885e-25 5.693973375258594e-18 5.693973375233469e-18 2.512485233078634e-29
1.0531058218030118 2.0424748628774414e-25 5.7095011792854115e-18 5.709501179259724e-18 2.568674029255266e-29
1.0540936079674168 2.0460987611285062e-25 5.724996232867445e-18 5.724996232841186e-18 2.626078504844677e-29
1.058054026499678 2.0605737320655234e-25 5.787159291954972e-18 5.78715929192629e-18 2.868236197928485e-29
1.0590464539527713 2.0641872134196002e-25 5.802745546486305e-18 5.8027455464569856e-18 2.932039456270795e-29
1.06003981227728 2.0677985480113602e-25 5.818349907973696e-18 5.8183499079437206e-18 2.997201549573131e-29
1.0620293250338977 2.075014692799583e-25 5.8496127730719185e-18 5.849612773040603e-18 3.131712964182873e-29
1.0660195594769086 2.0894202982500976e-25 5.9123538146836846e-18 5.9123538146495024e-18 3.4182898783993917e-29
1.070024785945596 2.103789213513128e-25 5.975379528604017e-18 5.975379528566718e-18 3.729888219745201e-29
1.0740450607676866 2.118120114080869e-25 6.0386870006204085e-18 6.038687000579721e-18 4.068579780267682e-29
1.07808044048254 2.1324116860551e-25 6.102273291118327e-18 6.10227329107396e-18 4.436597873185007e-29
1.0861967418109137 2.1608463795099596e-25 6.230197605841992e-18 6.2301976057892894e-18 5.270426526459555e-29
1.0902777775684922 2.1749294788552766e-25 6.294362820939174e-18 6.294362820881757e-18 5.741622921148715e-29
1.0943741465085532 2.1889670999672007e-25 6.358790137563487e-18 6.358790137500957e-18 6.252941855412354e-29
1.1026131145906286 2.216900917210891e-25 6.48841873807102e-18 6.488418737996929e-18 7.409127139336724e-29
1.1109141095355224 2.2446379713870654e-25 6.619058525711459e-18 6.619058525623779e-18 8.767895195736532e-29
1.1192775983109025 2.272142838878098e-25 6.750607765936691e-18 6.750607765833065e-18 1.0362656426224326e-28
1.1277040513999907 2.299287727793536e-25 6.882685022452196e-18 6.882685022329874e-18 1.2231966722421862e-28
1.1361939428280308 2.3262038013217554e-25 7.015678256837494e-18 7.015678256693293e-18 1.4420254130883206e-28
1.1447477501889525 2.35288208301275e-25 7.149561303518689e-18 7.149561303348904e-18 1.6978650972049052e-28
1.1533659546722406 2.37932834962063e-25 7.284352268396369e-18 7.284352268196709e-18 1.9965954778229869e-28
1.1707974979042381 2.4316102913245946e-25 7.556926382697174e-18 7.556926382422102e-18 2.750735756912107e-28
1.1884924949847024 2.482851538651193e-25 7.832792622215162e-18 7.832792621838059e-18 3.77105190980255e-28
1.2064549276569216 2.53345293073449e-25 8.113222278784471e-18 8.113222278270001e-18 5.144706505390027e-28
1.2246888378427687 2.582861632982377e-25 8.396462133719043e-18 8.396462133020556e-18 6.984853552619424e-28
1.2431983285522175 2.630962026270469e-25 8.682092936690938e-18 8.682092935747148e-18 9.437889246040082e-28
1.2619875648066055 2.677736111375851e-25 8.9699967155227e-18 8.969996714253476e-18 1.2692248928961372e-27
1.3004222497298317 2.7665276090342655e-25 9.549680311682985e-18 9.549680309419429e-18 2.263558361998595e-27
1.3400274889804893 2.8488885524975053e-25 1.0133479672258677e-17 1.0133479668294838e-17 3.963839002869938e-27
1.3808389325824078 2.924513423457654e-25 1.0719291359546998e-17 1.0719291352728145e-17 6.81885050940147e-27
1.4228933163050095 2.993770377137117e-25 1.1307335003220024e-17 1.1307334991691079e-17 1.152894749240632e-26
1.466228494730424 3.0583267208829214e-25 1.1902959820643794e-17 1.1902959801476206e-17 1.916758615271708e-26
1.5108834753276823 3.116926853740036e-25 1.2500489365581168e-17 1.250048933423132e-17 3.134984956343648e-26
1.5568984535646726 3.168554840962552e-25 1.3094561163924102e-17 1.3094561113429612e-17 5.049448893381221e-26
1.6043148490894465 3.213304979749221e-25 1.3683934394060559e-17 1.3683934313821647e-17 8.023891061029554e-26
1.6531753430134553 3.2513133330410617e-25 1.4267476872789036e-17 1.4267476747137906e-17 1.2565113139221272e-25
1.7035239163302658 3.283031707080871e-25 1.4845428762265968e-17 1.4845428568313852e-17 1.9395211426432793e-25
1.755405889504358 3.3110709167054533e-25 1.5428207341061646e-17 1.5428207045812586e-17 2.952490553114999e-25
1.8088679632656115 3.3347862203230225e-25 1.601195269595437e-17 1.6011952252545307e-17 4.434090609673235e-25
1.8639582606462262 3.3537409303503455e-25 1.6593390252436484e-17 1.659338959520653e-17 6.572299533659058e-25
1.9207263702978936 3.3682516380385497e-25 1.717273474367286e-17 1.717273378185344e-17 9.61819425795404e-25
1.979223391128241 3.3790553497817994e-25 1.7752501323161575e-17 1.7752499932877386e-17 1.3902841827141693e-24
2.039501978296691 3.387034108331665e-25 1.833636030247878e-17 1.8336358316814018e-17 1.98566476580153e-24
2.1016163906111602 3.3946584893323683e-25 1.8937339701049e-17 1.893733689765833e-17 2.8033906672334365e-24
2.1656225393682647 3.403361070527276e-25 1.9564115709765677e-17 1.956411179604064e-17 3.913725030201737e-24
2.231578038680979 3.4132444898206566e-25 2.021849894196417e-17 2.021849353733961e-17 5.4046245628569344e-24
2.299542257339062 3.425166625261859e-25 2.090703909871679e-17 2.0907031713777904e-17 7.384938884847588e-24
2.369576372248914 3.4410243547759306e-25 2.1643519823199804e-17 2.1643509835161784e-17 9.988038014397648e-24
2.4417434235010123 3.4630576533236742e-25 2.2445494689574554e-17 2.2445481314327213e-17 1.3375247335041794e-23
2.5161083711144245 3.4951026063460777e-25 2.3343109411405516e-17 2.3343091671219434e-17 1.7740186081784483e-23
2.5927381535095444 3.5434367605090558e-25 2.4386685528698174e-17 2.438666221600416e-17 2.331269401602195e-23
2.6717017477616296 3.615555291847163e-25 2.564084982595144e-17 2.5640819464464323e-17 3.036148711591231e-23
2.753070231689431 3.7227428663992123e-25 2.7205064735938445e-17 2.7205025537966712e-17 3.919797173277105e-23
2.836916847834745 3.890564460820202e-25 2.929737128150679e-17 2.929732110018519e-17 5.018132159007013e-23
2.9233170693905177 4.175322860810652e-25 3.239928445647322e-17 3.239922074493841e-17 6.371153480968545e-23
2.967498994190263 4.417137253387726e-25 3.479372348930598e-17 3.479365202818974e-17 7.146111622696603e-23
3.0123486681368425 4.699549201484346e-25 3.7577758603626423e-17 3.757767855570016e-17 8.004792625170985e-23
3.0578761833420214 5.331408427007725e-25 4.3274422763620327e-17 4.3274333190794175e-17 8.957282615642523e-23
3.1040917844459814 6.145628158117554e-25 5.0637268077999834e-17 5.063716802930291e-17 1.0004869693488166e-22
3.127460860933648 7.006932860483011e-25 5.816868856393267e-17 5.81685828619038e-17 1.0570202886755971e-22
3.1510058709225794 8.154498031739174e-25 6.820494729061452e-17 6.820483566301992e-17 1.1162759460261143e-22
3.162844764501044 9.222686651107464e-25 7.742919841264374e-17 7.7429083705725e-17 1.1470691875676372e-22
3.1747281389236908 1.0464904335107903e-24 8.818835404702029e-17 8.818823618922958e-17 1.1785779071860847e-22
3.1986289994194426 1.392980543024961e-24 1.1827102309883076e-16 1.1827089870367546e-16 1.2439515528840708e-22
3.2227097969389145 2.2097362792802147e-24 1.890301497230151e-16 1.8903001836412372e-16 1.313588913691721e-22
3.2348180950136065 2.9842748476538574e-24 2.5624660221732554e-16 2.5624646713173603e-16 1.3508558948431383e-22
3.240889293275058 3.5633421161456966e-24 3.0654282121272867e-16 3.065426841603966e-16 1.370523319960615e-22
3.2469718861334385 4.233233145186226e-24 3.6485487147459724e-16 3.648547323864899e-16 1.3908810752712734e-22
3.2714166318528037 7.806547238368852e-24 6.778978903574744e-16 6.778977428256252e-16 1.4753184927764295e-22
3.2744851364798273 8.029925409281605e-24 6.979494471289079e-16 6.979492985945388e-16 1.4853436934858757e-22
3.2775565192852394 8.25971958832923e-24 7.185962163605826e-16 7.185960668178989e-16 1.495426837565019e-22
3.283707930232385 8.038726516666524e-24 7.006823998097484e-16 7.006822484500638e-16 1.5135968437387319e-22
3.2898708863219004 7.337894464755534e-24 6.407959355506328e-16 6.40795782524535e-16 1.530260978890084e-22
3.29141343181113 7.17262090101966e-24 6.266567868662106e-16 6.266566334212677e-16 1.534449428965468e-22
3.292184975758714 7.091411344147171e-24 6.197069110154132e-16 6.197067573607106e-16 1.5365470250330584e-22
3.295272960557952 6.578808474424505e-24 5.754506314942583e-16 5.754504770213029e-16 1.5447295556149416e-22
3.3076538914384823 4.802998509912464e-24 4.216983912418111e-16 4.216982334748356e-16 1.5776697553194503e-22
3.310756385682612 4.44157670373338e-24 3.903317017221292e-16 3.903315431232464e-16 1.5859888295641378e-22
3.313861789986515 4.1081091308984016e-24 3.613647585956843e-16 3.6136459916151637e-16 1.594341680263759e-22
3.3200813396944477 3.64045800545127e-24 3.2082941722359e-16 3.2082925599821445e-16 1.612253755555191e-22
3.345076488085796 2.806212454845935e-24 2.491701614617009e-16 2.491699922629765e-16 1.6919872441356645e-22
3.3482140837626964 2.8374952169722913e-24 2.5218415159575407e-16 2.5218398131670234e-16 1.7027905167616078e-22
3.3513546224236106 2.8691238389044288e-24 2.552343439385552e-16 2.5523417257342796e-16 1.7136512725111279e-22
3.3576445397418455 3.100274145433256e-24 2.76314864616625e-16 2.7631469098228358e-16 1.736343414666302e-22
3.3702598118196083 3.9528556806628606e-24 3.5362566181743616e-16 3.536254834192622e-16 1.7839817390069177e-22
3.382922481734668 4.14703668699461e-24 3.7239115461931497e-16 3.723909715643156e-16 1.8305499937566308e-22
3.389271646505754 4.24763586373043e-24 3.8214052023937875e-16 3.821403348179932e-16 1.854213854275382e-22
3.395632727569191 4.356035906007465e-24 3.926282955302042e-16 3.926281076694113e-16 1.878607930377585e-22
3.421196662673239 4.8765296452398735e-24 4.4285172579866637e-16 4.428515278045818e-16 1.979940845537737e-22
3.4276182099114902 4.771634982589381e-24 4.341392867243677e-16 4.3413908643899175e-16 2.002853760246901e-22
3.4340518103208963 4.3119945431406174e-24 3.930560440145861e-16 3.930558415478937e-16 2.024666924837506e-22
3.4469541582030403 3.657383568878888e-24 3.3463814963671253e-16 3.3463794295366437e-16 2.0668304806872184e-22
3.472904465399547 3.4739249238791584e-24 3.2024525103226097e-16 3.2024503466671527e-16 2.1636554575031647e-22
3.4990501388274233 3.1933330398980197e-24 2.965949916241935e-16 2.965947652746112e-16 2.263495821580753e-22
3.5253949054701885 2.1947626106706847e-24 2.0538312553815896e-16 2.053828893767536e-16 2.3616140537201585e-22
3.5519380250092896 1.2562285490427917e-24 1.1844138345135137e-16 1.1844113733206828e-16 2.4611928308278234e-22
3.578680990867387 8.840947895551879e-25 8.398297414490156e-17 8.398271708273114e-17 2.5706217038469645e-22
3.605625307711299 7.3357344612009625e-25 7.020913602865714e-17 7.020886737301716e-17 2.6865563997740446e-22
3.660119384959845 6.2376457262447325e-25 6.060178123005501e-17 6.060148792925534e-17 2.9330079967631746e-22
3.715437065384467 5.460037374254791e-25 5.38486671069259e-17 5.384834739997666e-17 3.197069492287139e-22
3.8285932144167436 5.065438194537491e-25 5.147847573360096e-17 5.147809774570201e-17 3.7798789896233414e-22
3.94519561050918 4.98998578226523e-25 5.2256134696985896e-17 5.225569076579376e-17 4.439311921274336e-22
4.06534921144712 5.045934437116068e-25 5.44513803427324e-17 5.44508621801034e-17 5.181626290078671e-22
4.189162171576248 5.178338120082174e-25 5.75820351830563e-17 5.758143360106245e-17 6.015819938827206e-22
4.316745939156006 5.366838678862961e-25 6.149565948172102e-17 6.14949646689534e-17 6.948127675996686e-22
4.448215356677963 5.604745838690335e-25 6.61776226097855e-17 6.617682489759593e-17 7.977121895735866e-22
4.58368876423945 5.89312863226718e-25 7.170186877112553e-17 7.170095731804012e-17 9.114530854184564e-22
4.723288106065518 6.238808084460507e-25 7.821958299712984e-17 7.821854513703327e-17 1.0378600965671218e-21
4.867139040275056 6.655207676062394e-25 8.598145661190208e-17 8.598028088582154e-17 1.1757260805263958e-21
4.940699165968905 6.906486994949852e-25 9.057639726989076e-17 9.057514753921561e-17 1.2497306751647678e-21
5.015371051989984 7.167148126320481e-25 9.541548941938187e-17 9.541416222996557e-17 1.327189416266092e-21
5.091171501069577 7.48480864408046e-25 1.0115045988612377e-16 1.0114905030479647e-16 1.4095813272876665e-21
5.129500256944802 7.648033404928635e-25 1.0413441104649745e-16 1.0413295886362781e-16 1.4521828696486936e-21
5.168117569889187 7.81825991602969e-25 1.072536108568116e-16 1.0725211484644904e-16 1.4960103625441552e-21
5.20702561229733 8.0266700803187195e-25 1.109416343633878e-16 1.1094009118220045e-16 1.5431811873778707e-21
5.246226572918644 8.24051398942806e-25 1.1475477794337968e-16 1.1475318644029737e-16 1.5915030823200007e-21
5.265937586045735 8.349528524487306e-25 1.1670973774007286e-16 1.1670812163764287e-16 1.616102429966222e-21
5.285722656980489 8.45996834632358e-25 1.1869776539773471e-16 1.186961244000275e-16 1.6409977072107657e-21
5.305582063971359 8.57185673544862e-25 1.207194848023381e-16 1.2071781861063588e-16 1.6661917021552457e-21
5.3255160863122235 8.691979286619776e-25 1.22871119893259e-16 1.228694280779514e-16 1.691815307603335e-21
5.365609099470188 8.990395275834329e-25 1.2804636360844798e-16 1.280446186222639e-16 1.7449861840563252e-21
5.406003951863644 9.300252707258219e-25 1.33456749011705e-16 1.3345494953214134e-16 1.799479563677452e-21
5.446702915881641 9.622103177279856e-25 1.3911473422730677e-16 1.391128789048799e-16 1.855322426883283e-21
5.487708281020852 9.969771840173197e-25 1.4522643262886481e-16 1.4522451992404867e-16 1.9127048161591602e-21
5.529022354014368 1.0451473395079786e-24 1.5338938218903517e-16 1.5338740925042472e-16 1.972938610436609e-21
5.570647458961463 1.0961561217171761e-24 1.6208675266819183e-16 1.6208471795527618e-16 2.0347129155881016e-21
5.612585937458331 1.1502070839691455e-24 1.7135961386620077e-16 1.713575158040832e-16 2.0980621175372662e-21
5.654840148729818 1.2095985021617013e-24 1.8156452850884136e-16 1.815623652691653e-16 2.1632396761134867e-21
5.67608639626678 1.249958044349224e-24 1.8832755416574204e-16 1.8832535676475747e-16 2.197400984556931e-21
5.686739436050992 1.270759959834987e-24 1.9182105923317246e-16 1.9181884458252326e-16 2.214650649201077e-21
5.6974124697621304 1.2919898388399764e-24 1.9539173662381206e-16 1.953895046099139e-16 2.232013898196901e-21
5.718818669136295 1.3357746099708961e-24 2.0277244767124375e-16 2.0277018058733074e-16 2.2670839129762474e-21
5.740305295436557 1.3840166850840327e-24 2.1088502895763447e-16 2.1088272613382994e-16 2.3028238044846566e-21
5.7835210386641895 1.5090123188999645e-24 2.316618594815309e-16 2.3165948211354715e-16 2.377367983689161e-21
5.827062130521658 1.6529452954722363e-24 2.556686996213169e-16 2.5566624514648117e-16 2.454474835723392e-21
5.8489554468988025 1.753799838951074e-24 2.722875424210869e-16 2.722850464116671e-16 2.496009419730465e-21
5.870931020387893 1.8620125456554213e-24 2.9017434552022462e-16 2.9017180734888093e-16 2.5381713437138074e-21
5.892989160043636 1.978175113527982e-24 3.0943526666514014e-16 3.0943268569477567e-16 2.5809703645204082e-21
5.915130176081913 2.110247815429014e-24 3.3133491216447513e-16 3.3133228677112954e-16 2.6253933456102105e-21
5.95966208400165 2.4792719288736156e-24 3.9220690192580174e-16 3.9220417700964784e-16 2.7249161539740656e-21
6.004529249263818 3.01088343640886e-24 4.798907073315603e-16 4.798878704329648e-16 2.836898595559564e-21
6.027089341400364 3.380292464731963e-24 5.407933462479227e-16 5.407904452264687e-16 2.9010214538106013e-21
6.049734195844842 3.816772409908438e-24 6.129174568885162e-16 6.129144877636037e-16 2.96912491248278e-21
6.095279466722835 5.0772810071709e-24 8.214748206857813e-16 8.214716865600123e-16 3.1341257688740135e-21
6.141167624020661 7.016782185004287e-24 1.1438218279646357e-15 1.1438184819667436e-15 3.3459978919547783e-21
6.164241091010745 8.255306808010664e-24 1.3507726781323637e-15 1.3507692008457707e-15 3.477286592893607e-21
6.187401249150058 9.666078874925143e-24 1.5875523250444222e-15 1.5875487109394392e-15 3.614104983130061e-21
6.1990139391386085 1.0354966289103748e-23 1.7038867877558885e-15 1.7038831037468716e-15 3.68400901678523e-21
6.204828454712694 1.0717837103012408e-23 1.7652505851907055e-15 1.7652468656567612e-15 3.719533944270351e-21
6.210648424152782 1.0982785048288241e-23 1.81058476622646e-15 1.8105810159041807e-15 3.7503222791351596e-21
6.233982942956859 1.188305237183412e-23 1.9663601029491942e-15 1.9663562423524224e-15 3.860596771244341e-21
6.239830258556775 1.1998223294989061e-23 1.9872803989953077e-15 1.9872765211247812e-15 3.877870526852e-21
6.245683058788269 1.2008372544140215e-23 1.9908270261921867e-15 1.9908231309739838e-15 3.895218203420347e-21
6.257405133728602 1.1984016397188269e-23 1.990517965952406e-15 1.9905140391953664e-15 3.926757039693399e-21
6.269149208991335 1.1807450978428333e-23 1.964871668579691e-15 1.9648677247638087e-15 3.943815882918137e-21
6.280915325867298 1.1364123416998372e-23 1.8946470295684243e-15 1.8946430867102325e-15 3.942858191592649e-21
6.304513850009849 1.0270662018477379e-23 1.7187767649823468e-15 1.7187728404854074e-15 3.924496938871071e-21
6.32820103803542 8.915135095732872e-24 1.4975372342254524e-15 1.4975333460735506e-15 3.88815190185165e-21
6.3519772230701035 7.672057720430913e-24 1.2935708689447294e-15 1.2935670119329725e-15 3.857011756624507e-21
6.375842739491607 6.626317399452171e-24 1.1214483191608433e-15 1.121444487467201e-15 3.831693642059861e-21
6.399797922933955 5.788387783378056e-24 9.83316467761714e-16 9.833126408743802e-16 3.82688733366702e-21
6.42384311029221 5.091801770781393e-24 8.682321160632304e-16 8.682282895451761e-16 3.826518054362581e-21
6.447978639727206 4.5844089395255424e-24 7.846507132969222e-16 7.846468704953955e-16 3.842801526759287e-21
6.472204850670314 4.16183335998807e-24 7.150005480758774e-16 7.149966853758828e-16 3.8626999946899926e-21
6.496522083828205 3.887482890122077e-24 6.703765941772342e-16 6.70372697692356e-16 3.8964848782467715e-21
