Dust emission spectrum from A.P. Jones, M. Kohler, N. Ysard, M. Bocchio, and L. Verstraete (2017), A&A, 602A, 46J 
inside the DustPedia framework.

lambda    nu*dP/dnu     j_nu    j_nu(carb.) j_nu(sil)
 (um)   (erg s-1 H-1) (Jy cm2 sr-1 H-1)
0.9927057738263894 7.75074023344269e-27 2.0423640748378053e-19 2.0423640748377606e-19 4.498055057701936e-33
1.0001793341362166 7.878830895410954e-27 2.0917466838100996e-19 2.0917466838100455e-19 5.4205678994757016e-33
1.0077091589558085 8.006740058992882e-27 2.1417085385788198e-19 2.1417085385787548e-19 6.524055648494624e-33
1.0114953028030835 8.070610827729844e-27 2.1669041888313124e-19 2.1669041888312405e-19 7.153986360202163e-33
1.0152956718711033 8.134417370191511e-27 2.192241625914885e-19 2.1922416259148065e-19 7.842253429106463e-33
1.0229392996569957 8.261750265541718e-27 2.243320680227621e-19 2.243320680227527e-19 9.414947952565709e-33
1.0267826658714554 8.325122237962056e-27 2.2690213396028853e-19 2.269021339602782e-19 1.0311318218687244e-32
1.0306404723013447 8.388401967577795e-27 2.294858220002309e-19 2.294858220002196e-19 1.1289433295107036e-32
1.03451277320114 8.45158334816236e-27 2.320830210636941e-19 2.3208302106368175e-19 1.2356391191993402e-32
1.0383996230291617 8.514660307294316e-27 2.3469361868096663e-19 2.3469361868095314e-19 1.35198728158397e-32
1.0403485208654093 8.546157740714571e-27 2.360039064267415e-19 2.3600390642672733e-19 1.4140380681033234e-32
1.0423010764483396 8.577626807521934e-27 2.3731750101812535e-19 2.3731750101811057e-19 1.4788186877744757e-32
1.0462171883269815 8.64047684750217e-27 2.399545529036763e-19 2.399545529036601e-19 1.6170318014521487e-32
1.0471985131304309 8.656170460829612e-27 2.4061585999514177e-19 2.406158599951252e-19 1.653475609727494e-32
1.048180758391296 8.671856329627764e-27 2.4127798107682615e-19 2.412779810768093e-19 1.6907070119430136e-32
1.0501480137395462 8.703204463113797e-27 2.426046578552158e-19 2.4260465785519814e-19 1.767597833311138e-32
1.0521189612883777 8.734520508439463e-27 2.439345684780926e-19 2.439345684780742e-19 1.8478379390136597e-32
1.0531058218030118 8.750142232677816e-27 2.4460005997825026e-19 2.4460005997823144e-19 1.8892598109124726e-32
1.0540936079674168 8.765676912532539e-27 2.4526414978670774e-19 2.452641497866885e-19 1.931580449916492e-32
1.058054026499678 8.827727560716313e-27 2.4792835502487083e-19 2.4792835502484974e-19 2.1101367175678616e-32
1.0590464539527713 8.84321775115264e-27 2.4859635835598275e-19 2.485963583559611e-19 2.1571898981047945e-32
1.06003981227728 8.858698772002385e-27 2.492651386877925e-19 2.4926513868777042e-19 2.2052483007196556e-32
1.0620293250338977 8.889632944391257e-27 2.506050227011794e-19 2.5060502270115634e-19 2.3044630001038342e-32
1.0660195594769086 8.95138729753522e-27 2.5329403030887287e-19 2.532940303088477e-19 2.515882040884476e-32
1.070024785945596 9.012984897638734e-27 2.559952541967512e-19 2.5599525419672377e-19 2.745821220315686e-32
1.0740450607676866 9.074420066646273e-27 2.5870856959594345e-19 2.587085695959135e-19 2.99582029612429e-32
1.07808044048254 9.135687171871772e-27 2.6143385064662846e-19 2.6143385064659586e-19 3.2675396731216404e-32
1.0861967418109137 9.257586659655742e-27 2.6691668037938897e-19 2.669166803793501e-19 3.883438328656912e-32
1.0902777775684922 9.317961887384907e-27 2.696668257113015e-19 2.6966682571125924e-19 4.231625597943775e-32
1.0943741465085532 9.378142686541935e-27 2.724282207107615e-19 2.724282207107153e-19 4.609567400451423e-32
1.1026131145906286 9.497899603182395e-27 2.7798423140687223e-19 2.779842314068176e-19 5.464532640474889e-32
1.1109141095355224 9.616815134024423e-27 2.835836469598722e-19 2.835836469598076e-19 6.469882695163298e-32
1.1192775983109025 9.734737479648594e-27 2.892221092135152e-19 2.8922210921343863e-19 7.650537488192422e-32
1.1277040513999907 9.851119099891414e-27 2.948832765192042e-19 2.948832765191138e-19 9.035277602108063e-32
1.1361939428280308 9.96652189438687e-27 3.005837704805356e-19 3.0058377048042907e-19 1.0657292448097687e-31
1.1447477501889525 1.0080907367370551e-26 3.063224703799081e-19 3.063224703797825e-19 1.2554810709721839e-31
1.1533659546722406 1.01943002239879e-26 3.121001520162612e-19 3.1210015201611345e-19 1.4771827570181603e-31
1.1707974979042381 1.041847400544232e-26 3.2378396061271607e-19 3.2378396061251226e-19 2.0374143034653343e-31
1.1884924949847024 1.0638194314046699e-26 3.356091519754076e-19 3.356091519751279e-19 2.7963693684316734e-31
1.2064549276569216 1.0855178193857204e-26 3.476301947202333e-19 3.4763019471985133e-19 3.8195198291614844e-31
1.2246888378427687 1.1067056760779531e-26 3.597719747623767e-19 3.5977197476185745e-19 5.192009783450984e-31
1.2431983285522175 1.1273334209578946e-26 3.720165260335832e-19 3.7201652603288077e-19 7.024195853393315e-31
1.2619875648066055 1.1473933103349787e-26 3.843587940347592e-19 3.8435879403381337e-19 9.45838177391415e-31
1.3004222497298317 1.1854761057194362e-26 4.0921036861480677e-19 4.0921036861311556e-19 1.691301229625283e-30
1.3400274889804893 1.2208047976606115e-26 4.34239541945034e-19 4.34239541942064e-19 2.9699249294299154e-30
1.3808389325824078 1.2532481252554395e-26 4.593561340038632e-19 4.593561339987393e-19 5.1237676968845976e-30
1.4228933163050095 1.2829634887259868e-26 4.845694938633633e-19 4.845694938546743e-19 8.688916927951713e-30
1.466228494730424 1.3106650420677126e-26 5.101087868581462e-19 5.101087868436555e-19 1.4490764754008496e-29
1.5108834753276823 1.3358144296642063e-26 5.357307006537788e-19 5.357307006300019e-19 2.37771353556511e-29
1.5568984535646726 1.3579759318379005e-26 5.612053377995603e-19 5.612053377611347e-19 3.842559540906226e-29
1.6043148490894465 1.3771896039451453e-26 5.864794131691284e-19 5.864794131078561e-19 6.127217916641239e-29
1.6531753430134553 1.3935134136505964e-26 6.115042865642533e-19 6.115042864679573e-19 9.629603155701387e-29
1.7035239163302658 1.4071406595903043e-26 6.362901209690094e-19 6.362901208198089e-19 1.4920050445646587e-28
1.755405889504358 1.4191899826121587e-26 6.61283248197062e-19 6.612832479690398e-19 2.2802229553741225e-28
1.8088679632656115 1.4293848130607684e-26 6.86318117532213e-19 6.863181171883405e-19 3.438724268081502e-28
1.8639582606462262 1.4375377084455956e-26 7.112542290599405e-19 7.112542285479997e-19 5.119406593821253e-28
1.9207263702978936 1.4437841133333827e-26 7.361006323102792e-19 7.361006315575663e-19 7.527129738905622e-28
1.979223391128241 1.4484396810741546e-26 7.609649648517621e-19 7.609649637582591e-19 1.0935031874113518e-27
2.039501978296691 1.4518822757120656e-26 7.860043823813884e-19 7.860043808111025e-19 1.5702859474330224e-27
2.1016163906111602 1.455170749556452e-26 8.117771756416155e-19 8.117771734115191e-19 2.2300967048094718e-27
2.1656225393682647 1.4589191110436383e-26 8.38655132622299e-19 8.3865512948864105e-19 3.1336579221637726e-27
2.231578038680979 1.4631713900365435e-26 8.667157975232093e-19 8.667157931645448e-19 4.358664540922189e-27
2.299542257339062 1.468295510604093e-26 8.962399499709947e-19 8.962399439671637e-19 6.003831001293139e-27
2.369576372248914 1.475105024841513e-26 9.278186247693059e-19 9.27818616575317e-19 8.193988825507431e-27
2.4417434235010123 1.4845609442809975e-26 9.622047371700082e-19 9.622047260839814e-19 1.108602711719184e-26
2.5161083711144245 1.4983090963709868e-26 1.0006914562447297e-18 1.0006914413677205e-18 1.4877009322622528e-26
2.5927381535095444 1.5190427613297788e-26 1.0454375406963034e-18 1.0454375208823086e-18 1.9813994327806425e-26
2.6717017477616296 1.5499784461138466e-26 1.0992160639856345e-18 1.0992160377802193e-18 2.62054151873821e-26
2.753070231689431 1.5959590855986107e-26 1.1662951699270903e-18 1.1662951354900514e-18 3.443703942560551e-26
2.836916847834745 1.6679516889363024e-26 1.256028537825105e-18 1.2560284928304302e-18 4.499467471561694e-26
2.9233170693905177 1.790102873920922e-26 1.3890674841670486e-18 1.389067425683056e-18 5.848399261803914e-26
2.967498994190263 1.8938191616801946e-26 1.4917584958383004e-18 1.4917584293612146e-18 6.64770856595148e-26
3.0123486681368425 2.0149531550349233e-26 1.6111635395497622e-18 1.611163464022651e-18 7.552711140265061e-26
3.0578761833420214 2.285894878903446e-26 1.8554343141626862e-18 1.855434228358001e-18 8.580468529611728e-26
3.1040917844459814 2.635021917032596e-26 2.1711419528033267e-18 2.171141855394734e-18 9.740859309113886e-26
3.127460860933648 3.004282380109529e-26 2.494032262136662e-18 2.4940321583232656e-18 1.038133962758906e-25
3.1510058709225794 3.496248196099548e-26 2.9242931079476545e-18 2.9242929973109957e-18 1.1063665864355747e-25
3.162844764501044 3.9541591352829966e-26 3.319719988580879e-18 3.319719874324774e-18 1.1425610434580195e-25
3.1747281389236908 4.4866624933259034e-26 3.780936430766063e-18 3.780936312774366e-18 1.1799169632760137e-25
3.1986289994194426 5.971923870998845e-26 5.07046239538686e-18 5.070462269505602e-18 1.2588125766668826e-25
3.2227097969389145 9.47290816598501e-26 8.103524686266177e-18 8.1035245515432e-18 1.3472297633722438e-25
3.2348180950136065 1.2792882852333936e-25 1.0984687841510388e-17 1.0984687701769463e-17 1.397409264955987e-25
3.240889293275058 1.5274982052778764e-25 1.3140574044844659e-17 1.314057390231146e-17 1.4253320338254063e-25
3.2469718861334385 1.8146386447570958e-25 1.5640049267273744e-17 1.5640049121749004e-17 1.4552473976380042e-25
3.2714166318528037 3.346290540398989e-25 2.9058215221069103e-17 2.905821506259791e-17 1.5847118474963557e-25
3.2744851364798273 3.442040863997292e-25 2.99177189771299e-17 2.991771881718822e-17 1.5994168460554146e-25
3.2775565192852394 3.5405413717769687e-25 3.080273617547444e-17 3.080273601404657e-17 1.6142786509488218e-25
3.283707930232385 3.4458241819684194e-25 3.0034960788108805e-17 3.0034960624370543e-17 1.6373826000627742e-25
3.2898708863219004 3.1454323659699543e-25 2.746810117458003e-17 2.7468101009050555e-17 1.655294783508976e-25
3.29141343181113 3.0745924964741533e-25 2.6862067316140362e-17 2.686206715016059e-17 1.6597976065337204e-25
3.292184975758714 3.0397842968040886e-25 2.6564180884534045e-17 2.6564180718328762e-17 1.6620527464846737e-25
3.295272960557952 2.820070145743096e-25 2.4667250194845175e-17 2.466725002784053e-17 1.6700464529850127e-25
3.3076538914384823 2.058912264869847e-25 1.8077040582289754e-17 1.807704041211068e-17 1.7017907614146296e-25
3.310756385682612 1.9039972033141128e-25 1.6732582099034374e-17 1.673258192805316e-17 1.709812164512465e-25
3.313861789986515 1.7610639662815637e-25 1.5490982220029886e-17 1.549098204824309e-17 1.7178679581351559e-25
3.3200813396944477 1.560617743548025e-25 1.3753546406017154e-17 1.375354623227549e-17 1.7374166578507852e-25
3.345076488085796 1.2030539208312385e-25 1.0682196894358433e-17 1.0682196710615011e-17 1.837434209304715e-25
3.3482140837626964 1.2164659922138377e-25 1.0811417138488504e-17 1.0811416953246482e-17 1.852420224553961e-25
3.3513546224236106 1.2300263521418976e-25 1.0942189554841635e-17 1.09421893680885e-17 1.8675313057287007e-25
3.3576445397418455 1.3291127888739677e-25 1.1845843402555368e-17 1.1845843212450213e-17 1.9010516018442658e-25
3.3702598118196083 1.694575560106621e-25 1.5159809827457905e-17 1.515980962991127e-17 1.9754663350166964e-25
3.382922481734668 1.7778250990641585e-25 1.5964323234176398e-17 1.5964323029825238e-17 2.043511603162904e-25
3.389271646505754 1.820954171681781e-25 1.6382298220060056e-17 1.6382298012214553e-17 2.078455008187477e-25
3.395632727569191 1.8674278012043077e-25 1.6831931839712157e-17 1.6831931628199647e-17 2.115125140386408e-25
3.421196662673239 2.0905741044258646e-25 1.8985106569765462e-17 1.898510634266465e-17 2.271008158028278e-25
3.4276182099114902 2.045620575880842e-25 1.8611739182942916e-17 1.8611738952603042e-17 2.3033987676634343e-25
3.4340518103208963 1.8486058572588852e-25 1.6850802985180755e-17 1.6850802751970397e-17 2.3321035976089547e-25
3.4469541582030403 1.5680247106082157e-25 1.4346892467267782e-17 1.43468922288343e-17 2.384334866297622e-25
3.472904465399547 1.489419187082054e-25 1.3730274312512755e-17 1.3730274059818143e-17 2.526946124207846e-25
3.4990501388274233 1.3691799849892736e-25 1.2716867332850306e-17 1.2716867065321696e-17 2.675286101970211e-25
3.5253949054701885 9.411809643762201e-26 8.807453125945885e-18 8.807452844974523e-18 2.8097136225074324e-25
3.5519380250092896 5.389123912894958e-26 5.081044307744802e-18 5.081044013380377e-18 2.9436442407081536e-25
3.578680990867387 3.7943587908362164e-26 3.60438201867025e-18 3.6043817078527895e-18 3.10817461321907e-25
3.605625307711299 3.14958697419004e-26 3.0144190942919307e-18 3.014418765021723e-18 3.29270208089229e-25
3.660119384959845 2.679904259213456e-26 2.6036581550475583e-18 2.6036577845586744e-18 3.704888838895144e-25
3.715437065384467 2.3477648801122186e-26 2.3154421995462898e-18 2.3154417827219986e-18 4.168242917866091e-25
3.8285932144167436 2.1816702493041494e-26 2.217163741305452e-18 2.217163213001508e-18 5.283039444738684e-25
3.94519561050918 2.1534921338244527e-26 2.255180273538678e-18 2.2551796038965127e-18 6.696421645664856e-25
4.06534921144712 2.1830857383823957e-26 2.3557981845161315e-18 2.35579733553369e-18 8.48982441707764e-25
4.189162171576248 2.2473097214917395e-26 2.498961335651607e-18 2.4989602587244508e-18 1.0769271557584549e-24
4.316745939156006 2.3379392717926232e-26 2.678916322067693e-18 2.67891495548581e-18 1.3665818825695933e-24
4.448215356677963 2.4527111192537113e-26 2.896020542096961e-18 2.89601880844473e-18 1.7336522319800792e-24
4.58368876423945 2.5928048709364815e-26 3.154673284867712e-18 3.1546710855135835e-18 2.1993541298066715e-24
4.723288106065518 2.761993962900568e-26 3.4628732458814607e-18 3.462870455008775e-18 2.7908726853282117e-24
4.867139040275056 2.967029389408664e-26 3.833231375021747e-18 3.833227836050596e-18 3.5389711515169305e-24
4.940699165968905 3.090452553459633e-26 4.0530309900039215e-18 4.053027004799654e-18 3.985204266668802e-24
5.015371051989984 3.2197171256394007e-26 4.286375555803767e-18 4.2863710693659685e-18 4.4864378004831754e-24
5.091171501069577 3.3754444082939437e-26 4.561609661043285e-18 4.56160460782387e-18 5.053219415436206e-24
5.129500256944802 3.4559940373872823e-26 4.705626722702444e-18 4.7056213606433224e-18 5.362059121543572e-24
5.168117569889187 3.5401149897834896e-26 4.856452964989429e-18 4.856447275282865e-18 5.6897065642358606e-24
5.20702561229733 3.641234467337579e-26 5.032778211443447e-18 5.0327721695987426e-18 6.041844705306931e-24
5.246226572918644 3.7453019925363207e-26 5.215588481929548e-18 5.215582067052007e-18 6.414877540683172e-24
5.265937586045735 3.7984727301893976e-26 5.309506457197769e-18 5.309499847610739e-18 6.609587029864505e-24
5.285722656980489 3.852418713938773e-26 5.405144251156249e-18 5.405137441199968e-18 6.809956281227338e-24
5.305582063971359 3.907153202338725e-26 5.502536220414919e-18 5.5025292042768236e-18 7.016138095958236e-24
5.3255160863122235 3.9655984119210746e-26 5.6058292576668265e-18 5.605822028532219e-18 7.229134608381586e-24
5.365609099470188 4.108033342356618e-26 5.8508965950021325e-18 5.850888914410778e-18 7.680591353059932e-24
5.406003951863644 4.2561090094023635e-26 6.107430515205002e-18 6.1074223562554716e-18 8.158949529263381e-24
5.446702915881641 4.410090768547675e-26 6.376034364643408e-18 6.3760256989535396e-18 8.665689868680734e-24
5.487708281020852 4.5759602806389457e-26 6.6656529162559905e-18 6.665643711802276e-18 9.204453712664583e-24
5.529022354014368 4.8003454529062805e-26 7.045150434596859e-18 7.045140640539051e-18 9.794057808827086e-24
5.570647458961463 5.037784491672228e-26 7.449286764171466e-18 7.449276344525557e-18 1.0419645909569013e-23
5.612585937458331 5.289183750720868e-26 7.87990699955752e-18 7.879895916317704e-18 1.108323981597628e-23
5.654840148729818 5.564478586422725e-26 8.352456861808564e-18 8.352445070796598e-18 1.1791011964545821e-23
5.67608639626678 5.748424763454774e-26 8.660984909864372e-18 8.660972731068695e-18 1.2178795678777187e-23
5.686739436050992 5.843163996462954e-26 8.82024884715605e-18 8.820236469918568e-18 1.2377237479800155e-23
5.6974124697621304 5.939804746401166e-26 8.982955822994161e-18 8.982943244223199e-18 1.2578770963081074e-23
5.718818669136295 6.138969600799458e-26 9.319041422419208e-18 9.319028431127687e-18 1.2991291518905215e-23
5.740305295436557 6.357589248303259e-26 9.687169289059362e-18 9.687155866336199e-18 1.3422723165859708e-23
5.7835210386641895 6.918489366333158e-26 1.062118639678373e-17 1.0621172020780217e-17 1.4376003514837235e-23
5.827062130521658 7.5619762050638e-26 1.1696458607625327e-17 1.169644320004494e-17 1.5407580383290046e-23
5.8489554468988025 8.008747645897865e-26 1.24340427336134e-17 1.2434026724456165e-17 1.6009157237486595e-23
5.870931020387893 8.487439126370182e-26 1.322674811930607e-17 1.3226731485601791e-17 1.6633704280703552e-23
5.892989160043636 9.000595341176962e-26 1.4079145979018075e-17 1.4079128696970938e-17 1.728204713838442e-23
5.915130176081913 9.582604384337328e-26 1.5045869773099772e-17 1.504585179599635e-17 1.7977103416985995e-23
5.95966208400165 1.119984573829101e-25 1.7717527262359177e-17 1.7717507603642478e-17 1.9658716696319223e-23
6.004529249263818 1.3519297117622813e-25 2.154777889422264e-17 2.1547757123246518e-17 2.177097612249092e-23
6.027089341400364 1.5126418540581457e-25 2.4199877923747378e-17 2.419985481537121e-17 2.31083761645696e-23
6.049734195844842 1.7022785682880584e-25 2.733608763997459e-17 2.7336063037732208e-17 2.4602242392563318e-23
6.095279466722835 2.248832394041164e-25 3.638481275781709e-17 3.638478412758726e-17 2.863022982319784e-23
6.141167624020661 3.0883309116414263e-25 5.0343593624193827e-17 5.03435591723834e-17 3.4451810445522853e-23
6.164241091010745 3.624261474970878e-25 5.930189504341484e-17 5.930185677135193e-17 3.827206291436077e-23
6.187401249150058 4.234301539599828e-25 6.954397270199125e-17 6.95439302184977e-17 4.248349353505088e-23
6.1990139391386085 4.532293566979168e-25 7.457788766664559e-17 7.457784301452435e-17 4.465212126697763e-23
6.204828454712694 4.689217957301613e-25 7.723241791841453e-17 7.723237213909934e-17 4.577931516868469e-23
6.210648424152782 4.803970629289254e-25 7.919663364572649e-17 7.919658692741917e-17 4.671830730910391e-23
6.233982942956859 5.194239929000906e-25 8.595221027336574e-17 8.595216021555442e-17 5.005781130176867e-23
6.239830258556775 5.244426788165071e-25 8.686408232158067e-17 8.686403179804531e-17 5.052353535860558e-23
6.245683058788269 5.249335804373338e-25 8.702694349705476e-17 8.702689250371812e-17 5.099333662427386e-23
6.257405133728602 5.239906168564298e-25 8.703365401668863e-17 8.70336021993282e-17 5.181736044202958e-23
6.269149208991335 5.164859973223921e-25 8.594816147964024e-17 8.594810938466673e-17 5.2094973476984544e-23
6.280915325867298 4.974773865545672e-25 8.294032175884531e-17 8.294027006587396e-17 5.169297135798354e-23
6.304513850009849 4.505329229484679e-25 7.539587208987017e-17 7.53958218336689e-17 5.0256201279436623e-23
6.32820103803542 3.9228958634680156e-25 6.589560963965884e-17 6.589556160911896e-17 4.8030539895927456e-23
6.3519772230701035 3.388891033501971e-25 5.713943871006128e-17 5.71393927815655e-17 4.5928495791240524e-23
6.375842739491607 2.9397103171611534e-25 4.975211713028902e-17 4.975207304472816e-17 4.408556085746481e-23
6.399797922933955 2.5804320192419334e-25 4.38357171878939e-17 4.3835674328593695e-17 4.285930019961615e-23
6.42384311029221 2.2819188701270507e-25 3.891029813187294e-17 3.8910256303674235e-17 4.18281987000783e-23
6.447978639727206 2.0651732365084205e-25 3.534675188195037e-17 3.5346710510770874e-17 4.137117948489562e-23
6.472204850670314 1.884929903445041e-25 3.238298599374191e-17 3.238294493645363e-17 4.105728827502095e-23
6.496522083828205 1.7687777015753084e-25 3.0501669202239404e-17 3.050162795856131e-17 4.1243678083366484e-23
