Dust emission spectrum from A.P. Jones, M. Kohler, N. Ysard, M. Bocchio, and L. Verstraete (2017), A&A, 602A, 46J 
inside the DustPedia framework.

lambda    nu*dP/dnu     j_nu    j_nu(carb.) j_nu(sil)
 (um)   (erg s-1 H-1) (Jy cm2 sr-1 H-1)
0.9927057738263894 4.8756944113634786e-27 1.2847731707856702e-19 1.284773170776673e-19 8.99724398137519e-31
1.0001793341362166 4.9562262607148036e-27 1.3158259115703456e-19 1.315825911559506e-19 1.0839390738129575e-30
1.0077091589558085 5.036642724655358e-27 1.3472425293799417e-19 1.3472425293668997e-19 1.3042008749956223e-30
1.0114953028030835 5.0767977826741345e-27 1.3630857212601485e-19 1.36308572124585e-19 1.4298985072181614e-30
1.0152956718711033 5.116912140428147e-27 1.3790179775508271e-19 1.379017977535155e-19 1.5672065983990199e-30
1.0229392996569957 5.196963715045533e-27 1.4111363575076268e-19 1.4111363574888184e-19 1.880849741904288e-30
1.0267826658714554 5.236803826980931e-27 1.427296716503533e-19 1.4272967164829376e-19 2.0595537662800394e-30
1.0306404723013447 5.276585623308781e-27 1.4435426363685237e-19 1.4435426363459788e-19 2.254509296827594e-30
1.03451277320114 5.3163052648742034e-27 1.459873417727223e-19 1.4598734177025526e-19 2.4671224370512463e-30
1.0383996230291617 5.355958933845216e-27 1.476288352471248e-19 1.4762883524442595e-19 2.6989142479871422e-30
1.0403485208654093 5.375759841546271e-27 1.4845271537321762e-19 1.4845271537039507e-19 2.8225110751591633e-30
1.0423010764483396 5.395542834444725e-27 1.4927867239267284e-19 1.4927867238972133e-19 2.951529556110705e-30
1.0462171883269815 5.435053193666374e-27 1.5093678070220481e-19 1.5093678069897806e-19 3.226746387018413e-30
1.0471985131304309 5.444918852707203e-27 1.5135259157342657e-19 1.5135259157012726e-19 3.2993039379509186e-30
1.048180758391296 5.454779622594894e-27 1.5176891365948193e-19 1.5176891365610852e-19 3.37342489936583e-30
1.0501480137395462 5.474486261974148e-27 1.5260308684557119e-19 1.5260308684204474e-19 3.526486065512126e-30
1.0521189612883777 5.49417264689151e-27 1.5343929096836802e-19 1.534392909646818e-19 3.686194214851463e-30
1.0531058218030118 5.5039929800528775e-27 1.5385772907931344e-19 1.5385772907554478e-19 3.768631640822706e-30
1.0540936079674168 5.513758541321415e-27 1.5427528464264224e-19 1.5427528463878937e-19 3.852852651572682e-30
1.058054026499678 5.5527652148550265e-27 1.5595043413943112e-19 1.5595043413522297e-19 4.208134456048613e-30
1.0590464539527713 5.562502705076634e-27 1.5637044735748083e-19 1.5637044735317913e-19 4.3017434447477864e-30
1.06003981227728 5.572234410286925e-27 1.5679094851614465e-19 1.567909485117473e-19 4.39734604897259e-30
1.0620293250338977 5.591680239021548e-27 1.5763340983857568e-19 1.5763340983398101e-19 4.594694551498255e-30
1.0660195594769086 5.63049998914815e-27 1.593241346286177e-19 1.5932413462360255e-19 5.015146042869014e-30
1.070024785945596 5.6692208679859095e-27 1.6102253067990789e-19 1.610225306744356e-19 5.472307736041952e-30
1.0740450607676866 5.7078393063012904e-27 1.6272851946145977e-19 1.6272851945549054e-19 5.969219261960521e-30
1.07808044048254 5.7463517634513446e-27 1.6444202175777124e-19 1.6444202175126208e-19 6.509157227450667e-30
1.0861967418109137 5.822976638991008e-27 1.678892838432267e-19 1.6788928383549417e-19 7.732509435619376e-30
1.0902777775684922 5.8609273117509795e-27 1.6961838683031206e-19 1.6961838682188824e-19 8.423825508364507e-30
1.0943741465085532 5.898755431528201e-27 1.713545528503494e-19 1.7135455284117535e-19 9.17400738908231e-30
1.1026131145906286 5.97403056452485e-27 1.7484774152847105e-19 1.7484774151760079e-19 1.087030532102125e-29
1.1109141095355224 6.048775468039651e-27 1.7836817937772533e-19 1.7836817936486147e-19 1.2863822688957629e-29
1.1192775983109025 6.122894683761205e-27 1.8191312489235818e-19 1.8191312487715467e-19 1.5203577583632268e-29
1.1277040513999907 6.1960438424495276e-27 1.8547229925768495e-19 1.8547229923973882e-19 1.7946137304535498e-29
1.1361939428280308 6.268576398362027e-27 1.8905615713603668e-19 1.8905615711488e-19 2.1156684486784376e-29
1.1447477501889525 6.340468162151301e-27 1.9266399342998244e-19 1.9266399340507227e-19 2.4910237944944995e-29
1.1533659546722406 6.411734700918234e-27 1.9629629605529787e-19 1.9629629602600477e-19 2.9293062513770175e-29
1.1707974979042381 6.552622381691018e-27 2.0364153387868172e-19 2.036415338383243e-19 4.035743613621117e-29
1.1884924949847024 6.690705641351426e-27 2.110754870726617e-19 2.110754870173348e-19 5.532701068569286e-29
1.2064549276569216 6.82706464899292e-27 2.1863241403444153e-19 2.1863241395896096e-19 7.548059231392846e-29
1.2246888378427687 6.960209645851741e-27 2.262650696725841e-19 2.2626506957010574e-19 1.024783207410181e-28
1.2431983285522175 7.089829067046018e-27 2.339621562406328e-19 2.3396215610216475e-19 1.3846804861229981e-28
1.2619875648066055 7.215874410908969e-27 2.417204947511449e-19 2.417204945649305e-19 1.862144061959857e-28
1.3004222497298317 7.455147027320264e-27 2.5734162404529425e-19 2.5734162371319614e-19 3.3209810068231865e-28
1.3400274889804893 7.67709089086982e-27 2.730736673307606e-19 2.730736667492057e-19 5.815548767654967e-28
1.3808389325824078 7.880882736223071e-27 2.888599434777813e-19 2.888599424773533e-19 1.0004280609798102e-27
1.4228933163050095 8.067514704669373e-27 3.0470637329351256e-19 3.0470637160204234e-19 1.6914702220064488e-27
1.466228494730424 8.241479867710621e-27 3.2075710897128717e-19 3.2075710615911374e-19 2.8121735506574928e-27
1.5108834753276823 8.39939476452195e-27 3.368591880981686e-19 3.3685918349867356e-19 4.59949505675707e-27
1.5568984535646726 8.538521809323179e-27 3.5286811083792648e-19 3.5286810342962456e-19 7.408301968868693e-27
1.6043148490894465 8.659115272526186e-27 3.687504486707752e-19 3.6875043689851873e-19 1.1772256577015988e-26
1.6531753430134553 8.76154202297092e-27 3.844757037482617e-19 3.8447568531334847e-19 1.8434913269518873e-26
1.7035239163302658 8.847019847738595e-27 4.000503638898336e-19 4.000503354341375e-19 2.845569606326912e-26
1.755405889504358 8.922584639804981e-27 4.1575517197938963e-19 4.157551286619068e-19 4.3317482837342816e-26
1.8088679632656115 8.986499424894746e-27 4.3148614090080355e-19 4.3148607584601653e-19 6.50547869428736e-26
1.8639582606462262 9.037588010790295e-27 4.471550662922512e-19 4.471549698667193e-19 9.642553198037741e-26
1.9207263702978936 9.076704276812437e-27 4.627677847229686e-19 4.627676436095739e-19 1.411133946747383e-25
1.979223391128241 9.105835235155708e-27 4.783921401909901e-19 4.783919362153631e-19 2.0397562715386783e-25
2.039501978296691 9.127359018161356e-27 4.941271277882779e-19 4.941268364613528e-19 2.913269250686537e-25
2.1016163906111602 9.147934882640502e-27 5.103239426882963e-19 5.103235313886667e-19 4.112996296842732e-25
2.1656225393682647 9.171425489093601e-27 5.272165537943426e-19 5.272159795919403e-19 5.742024022633324e-25
2.231578038680979 9.198110432635308e-27 5.448539845444185e-19 5.448531916046021e-19 7.9293981651130415e-25
2.299542257339062 9.230305741725899e-27 5.634130661325709e-19 5.634119826508199e-19 1.0834817508957191e-24
2.369576372248914 9.27312917573924e-27 5.832657210334504e-19 5.832642556378548e-19 1.4653955956300253e-24
2.4417434235010123 9.332625873710392e-27 6.048856977218048e-19 6.048837353715909e-19 1.9623502140239404e-24
2.5161083711144245 9.419146400866377e-27 6.290864382586284e-19 6.290838355061647e-19 2.6027524637401796e-24
2.5927381535095444 9.549626855164017e-27 6.572256336806735e-19 6.572222133573745e-19 3.420323299140873e-24
2.6717017477616296 9.744293927138876e-27 6.910473138361296e-19 6.910428593487282e-19 4.4544874010592984e-24
2.753070231689431 1.0033599709119315e-26 7.332355185871505e-19 7.3322976765437955e-19 5.7509327709839534e-24
2.836916847834745 1.048649810122968e-26 7.896716052605202e-19 7.89664242904917e-19 7.36235560327084e-24
2.9233170693905177 1.1254801829945526e-26 8.733397108333866e-19 8.733303633917404e-19 9.347441646333441e-24
2.967498994190263 1.1907053266556544e-26 9.379167890046105e-19 9.379063045826622e-19 1.0484421948219499e-23
3.0123486681368425 1.266882982042681e-26 1.0130040316038349e-18 1.0129922873675394e-18 1.1744236295404895e-23
3.0578761833420214 1.4372436328256817e-26 1.1665939579145652e-18 1.1665808162320095e-18 1.3141682555527936e-23
3.1040917844459814 1.6567639877421486e-26 1.3651005239954592e-18 1.3650858453448948e-18 1.4678650564361164e-23
3.127460860933648 1.8889270650582814e-26 1.5681099327642822e-18 1.568094424684785e-18 1.5508079497534942e-23
3.1510058709225794 2.198236598366844e-26 1.8386246552558607e-18 1.8386082778066314e-18 1.637744922933253e-23
3.162844764501044 2.4861250003110727e-26 2.0872298193564313e-18 2.087212990123974e-18 1.6829232457080293e-23
3.1747281389236908 2.8209118714175935e-26 2.377198748176157e-18 2.3771814566633308e-18 1.7291512825719825e-23
3.1986289994194426 3.7547040536984993e-26 3.187931748852082e-18 3.187913498209421e-18 1.8250642660207985e-23
3.2227097969389145 5.955763349824808e-26 5.094810852718346e-18 5.09479158039073e-18 1.9272327616469983e-23
3.2348180950136065 8.043016426035514e-26 6.906185709972481e-18 6.9061658908821295e-18 1.9819090353686166e-23
3.240889293275058 9.60349612537095e-26 8.261577754316168e-18 8.261557646675069e-18 2.0107641099117742e-23
3.2469718861334385 1.1408726225229652e-25 9.832979185964296e-18 9.832958779644266e-18 2.0406320028114107e-23
3.2714166318528037 2.103810329814111e-25 1.8268877914216543e-17 1.826885626907244e-17 2.164514410487541e-23
3.2744851364798273 2.1640070795000203e-25 1.880923505185096e-17 1.8809213259622063e-17 2.179222889714144e-23
3.2775565192852394 2.2259328122505432e-25 1.9365631964264614e-17 1.9365610024100812e-17 2.1940163805903105e-23
3.283707930232385 2.1663830675712807e-25 1.888292235773816e-17 1.8882900150993e-17 2.2206745160330748e-23
3.2898708863219004 1.9775276171788135e-25 1.7269145333361363e-17 1.7269122882128243e-17 2.245123311903269e-23
3.29141343181113 1.932990863660168e-25 1.688813420336799e-17 1.6888111690684e-17 2.251268398940521e-23
3.292184975758714 1.911107091763664e-25 1.6700854244394983e-17 1.6700831700936103e-17 2.25434588826768e-23
3.295272960557952 1.7729737734753506e-25 1.550826234774068e-17 1.5508239684231756e-17 2.2663508929127509e-23
3.3076538914384823 1.2944392808566961e-25 1.1365045422581742e-17 1.1365022275790473e-17 2.3146791266425183e-23
3.310756385682612 1.1970457782391768e-25 1.0519798414527984e-17 1.0519775145683371e-17 2.3268844614042718e-23
3.313861789986515 1.1071853000192606e-25 9.73921908872594e-18 9.739195697332427e-18 2.339139351312115e-23
3.3200813396944477 9.811670121006676e-26 8.646913114226335e-18 8.646889460035702e-18 2.3654190633064242e-23
3.345076488085796 7.563704208182833e-26 6.715989716127653e-18 6.715964892126663e-18 2.4824000988427495e-23
3.3482140837626964 7.64802257853587e-26 6.7972276175719595e-18 6.7972026350706915e-18 2.4982501267477583e-23
3.3513546224236106 7.733273170018636e-26 6.8794413028927686e-18 6.879416161047857e-18 2.5141844910519574e-23
3.3576445397418455 8.356209571066854e-26 7.447550790753746e-18 7.447525315980936e-18 2.547477281008972e-23
3.3702598118196083 1.0653804843274433e-25 9.530979860982318e-18 9.530953687283544e-18 2.6173698771037254e-23
3.382922481734668 1.1177162295027682e-25 1.0036748373762916e-17 1.0036721516837715e-17 2.685692519957144e-23
3.389271646505754 1.1448297546550428e-25 1.0299513707495216e-17 1.0299486503385545e-17 2.7204109670934036e-23
3.395632727569191 1.174045622451564e-25 1.0582179338378146e-17 1.0582151776370642e-17 2.7562007504603707e-23
3.421196662673239 1.3143264318145637e-25 1.1935777508500148e-17 1.1935748459786169e-17 2.9048713976425167e-23
3.4276182099114902 1.2860643479758639e-25 1.170104294962009e-17 1.1701013564739146e-17 2.9384880941843754e-23
3.4340518103208963 1.162205901673445e-25 1.0593984975441388e-17 1.059395527052847e-17 2.970491291680968e-23
3.4469541582030403 9.858119085687166e-26 9.019843468985502e-18 9.019813145469723e-18 3.032351577904556e-23
3.472904465399547 9.363945254640723e-26 8.632192878181728e-18 8.632161134097723e-18 3.174408400644454e-23
3.4990501388274233 8.608035364798324e-26 7.995095234428332e-18 7.995062025535825e-18 3.320889250611682e-23
3.5253949054701885 5.917343138660625e-26 5.537375307885873e-18 5.537340659451135e-18 3.464843473674139e-23
3.5519380250092896 3.3884484778862144e-26 3.1947413213962737e-18 3.194705211990912e-18 3.6109405361617374e-23
3.578680990867387 2.3859085983436738e-26 2.2664504133952592e-18 2.2664126985035323e-18 3.771489172766699e-23
3.605625307711299 1.9805931362013653e-26 1.8955938720581892e-18 1.895554456229876e-18 3.9415828313484495e-23
3.660119384959845 1.6853767251914342e-26 1.6374259788519213e-18 1.6373829472075262e-18 4.3031644395114e-23
3.715437065384467 1.4766399039553863e-26 1.4563103725228468e-18 1.4562634666986383e-18 4.690582420859192e-23
3.8285932144167436 1.3723575857393918e-26 1.3946844075897176e-18 1.394628951072477e-18 5.545651724016348e-23
3.94519561050918 1.3547946861356805e-26 1.4187682429293109e-18 1.4187031115378633e-18 6.513139144730816e-23
4.06534921144712 1.3735694002898218e-26 1.4822378446333253e-18 1.4821618223721691e-18 7.602226115616116e-23
4.189162171576248 1.4141358007999417e-26 1.5724893884293049e-18 1.572401127291034e-18 8.826113827113145e-23
4.316745939156006 1.4713254296186862e-26 1.6859110739247537e-18 1.685809134427932e-18 1.01939496822136e-22
4.448215356677963 1.5437176628397892e-26 1.822733230867493e-18 1.8226161944758114e-18 1.1703639168137613e-22
4.58368876423945 1.6320565529151423e-26 1.9857279907897924e-18 1.9855942668957633e-18 1.3372389402906691e-22
4.723288106065518 1.738716887291843e-26 2.1799309745203695e-18 2.1797787048141272e-18 1.5226970624233584e-22
4.867139040275056 1.867944961533652e-26 2.413277488562944e-18 2.413104991840606e-18 1.7249672233797922e-22
4.940699165968905 1.9457139269320626e-26 2.5517424089587733e-18 2.551559054647899e-18 1.8335431087369894e-22
5.015371051989984 2.0271651088318515e-26 2.69874359485837e-18 2.6985488761836555e-18 1.947186747146561e-22
5.091171501069577 2.125260442681074e-26 2.8720984246536823e-18 2.871891617844807e-18 2.0680680887599146e-22
5.129500256944802 2.176000715977529e-26 2.9628080971645705e-18 2.962595040067855e-18 2.1305709671559584e-22
5.168117569889187 2.228988729893083e-26 3.057804324847463e-18 3.0575848375975015e-18 2.1948724996130195e-22
5.20702561229733 2.292664315141462e-26 3.1688349418033043e-18 3.1686085338829525e-18 2.264079203526161e-22
5.246226572918644 2.3581960092155286e-26 3.2839487892584033e-18 3.2837152917883395e-18 2.3349747006384273e-22
5.265937586045735 2.3916776910580555e-26 3.3430878793160166e-18 3.34285077275119e-18 2.371065648274172e-22
5.285722656980489 2.4256474582304413e-26 3.4033098133253466e-18 3.403069054248426e-18 2.4075907691973754e-22
5.305582063971359 2.46011365320684e-26 3.464636215187333e-18 3.464391759771936e-18 2.4445541539729914e-22
5.3255160863122235 2.4969130441079546e-26 3.529673643814463e-18 3.529425429030259e-18 2.4821478420563426e-22
5.365609099470188 2.586570314927219e-26 3.683941727614999e-18 3.68368571186247e-18 2.56015752529712e-22
5.406003951863644 2.679776437104734e-26 3.845425093611254e-18 3.845161082859269e-18 2.640107519853292e-22
5.446702915881641 2.7766982713477357e-26 4.014503221707944e-18 4.014231017966939e-18 2.722037410059192e-22
5.487708281020852 2.8810956879291655e-26 4.1967986382032304e-18 4.196518015601545e-18 2.806226016861034e-22
5.529022354014368 3.022276844198922e-26 4.435596402648267e-18 4.435306942841844e-18 2.8945980642191073e-22
5.570647458961463 3.171666519164435e-26 4.689889664917931e-18 4.6895911418906275e-18 2.985230273028899e-22
5.612585937458331 3.329834460696569e-26 4.960838403588196e-18 4.960530586278934e-18 3.0781730926188592e-22
5.654840148729818 3.503025660381413e-26 5.25815137208643e-18 5.257833992247757e-18 3.1737983867295084e-22
5.67608639626678 3.6187239435563105e-26 5.452226437294433e-18 5.451904045477347e-18 3.2239181708771276e-22
5.686739436050992 3.678312055591741e-26 5.552407512000754e-18 5.5520825893980865e-18 3.2492260266934447e-22
5.6974124697621304 3.739095572925041e-26 5.654753276172791e-18 5.6544258061200046e-18 3.27470052785937e-22
5.718818669136295 3.86436121023712e-26 5.866154180776524e-18 5.865821565424419e-18 3.3261535210520806e-22
5.740305295436557 4.001856129168855e-26 6.097697771850347e-18 6.097359912917918e-18 3.3785893242891345e-22
5.7835210386641895 4.354576149248394e-26 6.685095909118829e-18 6.684747113432683e-18 3.4879568614657782e-22
5.827062130521658 4.759208888592149e-26 7.361288671231803e-18 7.36092856280924e-18 3.6010842256197605e-22
5.8489554468988025 5.040113897864344e-26 7.825067583497095e-18 7.824701381325552e-18 3.6620217154276243e-22
5.870931020387893 5.341082262124881e-26 8.323494132184962e-18 8.323121744224214e-18 3.7238796074574868e-22
5.892989160043636 5.663713351583525e-26 8.859441407775917e-18 8.85906274055427e-18 3.7866722164732546e-22
5.915130176081913 6.029622366267931e-26 9.467250161356909e-18 9.466864976614929e-18 3.851847419791379e-22
5.95966208400165 7.046316532915952e-26 1.1146877214953541e-17 1.1146477428716768e-17 3.997862367702968e-22
6.004529249263818 8.504383670608821e-26 1.3554741594298106e-17 1.3554325378550712e-17 4.1621574739598118e-22
6.027089341400364 9.514627555393996e-26 1.5221899665987083e-17 1.522147404245069e-17 4.256235363856537e-22
6.049734195844842 1.0706672244376072e-25 1.7193339342754443e-17 1.719290372741504e-17 4.356153394045772e-22
6.095279466722835 1.4142192555323002e-25 2.2881252932583076e-17 2.2880793109133142e-17 4.598234499346288e-22
6.141167624020661 1.9418979008889202e-25 3.165532502152334e-17 3.1654834113242176e-17 4.909082811649253e-22
6.164241091010745 2.278762269429552e-25 3.728619523283456e-17 3.7285685062523776e-17 5.101703107882026e-22
6.187401249150058 2.6622047787124943e-25 4.372392819132798e-17 4.372339794769887e-17 5.302436291080447e-22
6.1990139391386085 2.8495085183447354e-25 4.688803208480253e-17 4.688749158519893e-17 5.404996035934639e-22
6.204828454712694 2.9481434136833096e-25 4.8556549574427346e-17 4.855600386278189e-17 5.457116454576151e-22
6.210648424152782 3.020271877935309e-25 4.979117981466966e-17 4.9790629585911807e-17 5.502287578517246e-22
6.233982942956859 3.2655784551968987e-25 5.40374895811263e-17 5.403692317343974e-17 5.664076865676741e-22
6.239830258556775 3.297124447076024e-25 5.461067547775122e-17 5.4610106535744557e-17 5.689420066564605e-22
6.245683058788269 3.300211602969386e-25 5.4713079788239583e-17 5.4712508301067515e-17 5.714871720634231e-22
6.257405133728602 3.2942880253685557e-25 5.4717377565141615e-17 5.47168014507473e-17 5.761143943166026e-22
6.269149208991335 3.247122070435813e-25 5.403518652989072e-17 5.4034607912707203e-17 5.786171835222543e-22
6.280915325867298 3.1276493263434554e-25 5.2144730290631605e-17 5.2144151813955835e-17 5.784766757820636e-22
6.304513850009849 2.8325929831190774e-25 4.74029326958504e-17 4.74023569130469e-17 5.7578280348906e-22
6.32820103803542 2.4665208786867053e-25 4.143186631681859e-17 4.1431295866379385e-17 5.704504392054547e-22
6.3519772230701035 2.1308888810220043e-25 3.592850682168063e-17 3.59279409399697e-17 5.658817109329593e-22
6.375842739491607 1.8485709721306297e-25 3.128550421862997e-17 3.128494205146774e-17 5.621671622378896e-22
6.399797922933955 1.6227627847072927e-25 2.7567077901306512e-17 2.7566516439302094e-17 5.61462004414105e-22
6.42384311029221 1.4351468484123113e-25 2.447150618095013e-17 2.447094477312455e-17 5.614078255788322e-22
6.447978639727206 1.2989260939776194e-25 2.223194526500957e-17 2.2231381468153367e-17 5.637968562069996e-22
6.472204850670314 1.1856479910724906e-25 2.0369363453906377e-17 2.036879673764526e-17 5.667162611214992e-22
6.496522083828205 1.1126543915001062e-25 1.9187157411431367e-17 1.9186585738419027e-17 5.716730123364638e-22
