Dust emission spectrum from A.P. Jones, M. Kohler, N. Ysard, M. Bocchio, and L. Verstraete (2017), A&A, 602A, 46J 
inside the DustPedia framework.

lambda    nu*dP/dnu     j_nu    j_nu(carb.) j_nu(sil)
 (um)   (erg s-1 H-1) (Jy cm2 sr-1 H-1)
0.9927057738263894 2.669890524756795e-25 7.035313179488528e-18 7.03531317748115e-18 2.0073809042273403e-27
1.0001793341362166 2.7139596214920115e-25 7.205277170699225e-18 7.205277168281309e-18 2.417916360647161e-27
1.0077091589558085 2.75796506857252e-25 7.377231298810095e-18 7.377231295901442e-18 2.90865391755294e-27
1.0114953028030835 2.7799385077356055e-25 7.463946070114476e-18 7.463946066925828e-18 3.188647976878451e-27
1.0152956718711033 2.8018895528765636e-25 7.551147955034712e-18 7.551147951540246e-18 3.494461558357377e-27
1.0229392996569957 2.8456943356490055e-25 7.726940112670463e-18 7.726940108477606e-18 4.192857752002054e-27
1.0267826658714554 2.867494908672797e-25 7.81538931562155e-18 7.815389311030854e-18 4.5906973497765336e-27
1.0306404723013447 2.8892634559100325e-25 7.904306466446077e-18 7.904306461421427e-18 5.024652339230388e-27
1.03451277320114 2.9109978785720974e-25 7.99368774036775e-18 7.993687734869912e-18 5.497840452716691e-27
1.0383996230291617 2.9326960895993832e-25 8.08352926504844e-18 8.083529259034806e-18 6.013633609601219e-27
1.0403485208654093 2.943530966849809e-25 8.128621398539194e-18 8.12862139225056e-18 6.2886350570443886e-27
1.0423010764483396 2.9543560140620464e-25 8.173827121509232e-18 8.173827114933556e-18 6.5756773252861e-27
1.0462171883269815 2.9759755895519358e-25 8.264577345052712e-18 8.2645773378648e-18 7.187911493303125e-27
1.0471985131304309 2.9813739384322962e-25 8.287335114403892e-18 8.287335107054588e-18 7.349303813685385e-27
1.048180758391296 2.9867696054478977e-25 8.31012084323854e-18 8.310120835724372e-18 7.514167150277945e-27
1.0501480137395462 2.9975527665656583e-25 8.355775926186103e-18 8.35577591833151e-18 7.854592629132496e-27
1.0521189612883777 3.00832481879506e-25 8.401542085861084e-18 8.401542077651311e-18 8.20977337075832e-27
1.0531058218030118 3.0136983219627136e-25 8.424443519963684e-18 8.424443511570587e-18 8.393098047658452e-27
1.0540936079674168 3.019041831935539e-25 8.447296603203729e-18 8.447296594623345e-18 8.580381848162038e-27
1.058054026499678 3.040385401099245e-25 8.538978417170387e-18 8.53897840780004e-18 9.37034774243172e-27
1.0590464539527713 3.045713519796316e-25 8.561965914706303e-18 8.561965905127837e-18 9.578465548086803e-27
1.06003981227728 3.051038466891135e-25 8.584980098826681e-18 8.584980089035674e-18 9.791007004973224e-27
1.0620293250338977 3.061678722406839e-25 8.631088263510129e-18 8.631088253280409e-18 1.02297204554715e-26
1.0660195594769086 3.082919814950269e-25 8.723621926881169e-18 8.723621915716886e-18 1.1164284081093736e-26
1.070024785945596 3.1041067128907405e-25 8.816575152905114e-18 8.816575140724838e-18 1.2180276648731714e-26
1.0740450607676866 3.1252374657826956e-25 8.909943649094345e-18 8.909943635809922e-18 1.3284423374396463e-26
1.07808044048254 3.146310138888929e-25 9.003723085777817e-18 9.003723071293844e-18 1.4483972158268748e-26
1.0861967418109137 3.1882363141159356e-25 9.19238981512802e-18 9.192389797926904e-18 1.720111300566691e-26
1.0902777775684922 3.209001269562987e-25 9.287022167778492e-18 9.287022149042315e-18 1.8736173869838227e-26
1.0943741465085532 3.229699089025395e-25 9.382040833277109e-18 9.382040812875457e-18 2.0401652992253656e-26
1.1026131145906286 3.27088597370109e-25 9.573218936891675e-18 9.573218912725085e-18 2.4166587584038295e-26
1.1109141095355224 3.3117824542065446e-25 9.765887491991198e-18 9.765887463401592e-18 2.8589607748583785e-26
1.1192775983109025 3.3523363023257344e-25 9.959896485946994e-18 9.959896452168066e-18 3.377892741299067e-26
1.1277040513999907 3.3923590189758756e-25 1.0154683264930841e-17 1.0154683225071477e-17 3.985936575611575e-26
1.1361939428280308 3.4320441517412693e-25 1.035082030138385e-17 1.0350820254409166e-17 4.697468479935886e-26
1.1447477501889525 3.471378493839323e-25 1.0548269090324032e-17 1.0548269035033774e-17 5.529025859581847e-26
1.1533659546722406 3.510370602522009e-25 1.0747056439465462e-17 1.0747056374469308e-17 6.499615819756818e-26
1.1707974979042381 3.58745431812417e-25 1.1149043199922252e-17 1.1149043110438521e-17 8.948373257089591e-26
1.1884924949847024 3.6630033964342055e-25 1.155588464799051e-17 1.1555884525402817e-17 1.2258769355345713e-25
1.2064549276569216 3.7376094636779316e-25 1.1969457179264042e-17 1.196945701214497e-17 1.6711907377795025e-25
1.2246888378427687 3.81045732029877e-25 1.2387175601465703e-17 1.2387175374742429e-17 2.267232737840105e-25
1.2431983285522175 3.88137675131348e-25 1.280842267609031e-17 1.2808422369978819e-17 3.061114908563491e-25
1.2619875648066055 3.9503416243325523e-25 1.3233025929970722e-17 1.3233025518629534e-17 4.113411876293954e-25
1.3004222497298317 4.081262117404312e-25 1.40879665766281e-17 1.4087965844221192e-17 7.324069069782342e-25
1.3400274889804893 4.20270974598005e-25 1.494901362215697e-17 1.4949012341751628e-17 1.2804053433896064e-24
1.3808389325824078 4.314237992376801e-25 1.58130831829241e-17 1.5813080984113912e-17 2.1988101839772594e-24
1.4228933163050095 4.416394525898206e-25 1.6680521923819846e-17 1.6680518212861734e-17 3.710958114150977e-24
1.466228494730424 4.511643710529535e-25 1.7559246840700493e-17 1.7559240682435323e-17 6.1582651694570774e-24
1.5108834753276823 4.598139527520983e-25 1.8440918559338265e-17 1.8440908506341667e-17 1.0052996600442852e-23
1.5568984535646726 4.674390478827807e-25 1.9317668495988825e-17 1.9317652335701517e-17 1.6160287311157972e-23
1.6043148490894465 4.740543628608412e-25 2.0187715892165935e-17 2.0187690264159705e-17 2.5628006231450528e-23
1.6531753430134553 4.796808937109176e-25 2.1049450964290873e-17 2.1049410914944704e-17 4.004934617243675e-23
1.7035239163302658 4.843863324884503e-25 2.1903299858064488e-17 2.190323817075443e-17 6.168731005975764e-23
1.755405889504358 4.885569710347711e-25 2.2764714005417437e-17 2.276462030658918e-17 9.36988282662583e-23
1.8088679632656115 4.920991514424067e-25 2.3628106313369194e-17 2.3627965913934338e-17 1.4039943486273166e-22
1.8639582606462262 4.949501128988312e-25 2.4488774026918796e-17 2.4488566409915055e-17 2.07617003739708e-22
1.9207263702978936 4.971584570066375e-25 2.5347186686801108e-17 2.534688358258549e-17 3.031042156166169e-22
1.979223391128241 4.988350999913546e-25 2.6207237988001004e-17 2.6206800947756993e-17 4.370402440081761e-22
2.039501978296691 5.001126525690448e-25 2.707455991298341e-17 2.7073937314712565e-17 6.225982708471415e-22
2.1016163906111602 5.013584289665984e-25 2.7968630456231827e-17 2.7967753793546964e-17 8.766626848554593e-22
2.1656225393682647 5.02787084560948e-25 2.890255983977087e-17 2.8901339314523856e-17 1.220525247009775e-21
2.231578038680979 5.044175121133213e-25 2.987938591972136e-17 2.987770522850765e-17 1.680691213721819e-21
2.299542257339062 5.063805768618121e-25 3.0909207281182367e-17 3.090691751483123e-17 2.289766351135826e-21
2.369576372248914 5.089609154947509e-25 3.2012867472023094e-17 3.2009780024951434e-17 3.087447071643382e-21
2.4417434235010123 5.1249442291433285e-25 3.321686208983564e-17 3.3212740673347727e-17 4.121416487915191e-21
2.5161083711144245 5.175531760205965e-25 3.4566368358208177e-17 3.4560919879083304e-17 5.4484791248796774e-21
2.5927381535095444 5.250701014435015e-25 3.61364412852814e-17 3.612930576630636e-17 7.13551897504637e-21
2.6717017477616296 5.361583981420063e-25 3.8023362554243584e-17 3.801410253119465e-17 9.260023048948886e-21
2.753070231689431 5.524909109539217e-25 4.037493734574583e-17 4.0363026449316556e-17 1.1910896429266092e-20
2.836916847834745 5.778472301759592e-25 4.3514006815572375e-17 4.3498817212802777e-17 1.5189602769591665e-20
2.9233170693905177 6.205390661058141e-25 4.8152016956152356e-17 4.8132809536513796e-17 1.920741963853259e-20
2.967498994190263 6.565795992813304e-25 5.1718675956000844e-17 5.169717910790776e-17 2.1496848093078532e-20
3.0123486681368425 6.986355353126532e-25 5.58631399999008e-17 5.583911281938848e-17 2.4027180512331858e-20
3.0578761833420214 7.922343807908352e-25 6.430474421832906e-17 6.427791717234801e-17 2.6827045981036033e-20
3.1040917844459814 9.127468156057989e-25 7.52063157744459e-17 7.517641867118539e-17 2.989710326053048e-20
3.127460860933648 1.0399633094211912e-24 8.633349722073405e-17 8.63019471001297e-17 3.155012060434349e-20
3.1510058709225794 1.2093818582927248e-24 1.0115377498164445e-16 1.0112049502028229e-16 3.3279961362182756e-20
3.162844764501044 1.3669692928418531e-24 1.147641035670809e-16 1.1472992577847413e-16 3.417778860675348e-20
3.1747281389236908 1.5502073573498832e-24 1.306368705327086e-16 1.306017748138203e-16 3.509571888834642e-20
3.1986289994194426 2.0611997054239803e-24 1.7500617592412006e-16 1.7496917809231994e-16 3.699783180013716e-20
3.2227097969389145 3.2653336497490235e-24 2.7933039543918576e-16 2.7929137483236656e-16 3.9020606819208007e-20
3.2348180950136065 4.407089931885179e-24 3.7841749783857314e-16 3.783773958611988e-16 4.010197737451802e-20
3.240889293275058 5.260662809929496e-24 4.525578422284535e-16 4.525171697892406e-16 4.0672439212926656e-20
3.2469718861334385 6.248105786997238e-24 5.385131779162331e-16 5.384719151544706e-16 4.126276176235828e-20
3.2714166318528037 1.1515078370275574e-23 9.999359635133443e-16 9.998922552843863e-16 4.370822895791706e-20
3.2744851364798273 1.1844350036995022e-23 1.029493692477714e-15 1.0294496944259546e-15 4.399805175923427e-20
3.2775565192852394 1.2183077380894665e-23 1.0599286350966786e-15 1.0598843456166999e-15 4.4289479978666014e-20
3.283707930232385 1.185743583155232e-23 1.0335339281435637e-15 1.0334891142375595e-15 4.481390600378671e-20
3.2898708863219004 1.0824566789407956e-23 9.452763917585273e-16 9.452310975811191e-16 4.5294177408243775e-20
3.29141343181113 1.0580991177547204e-23 9.24438921934218e-16 9.243935070751824e-16 4.5414859035459924e-20
3.292184975758714 1.0461306853373806e-23 9.141966021530102e-16 9.141511268608926e-16 4.547529211752721e-20
3.295272960557952 9.70583893266545e-24 8.489730571572036e-16 8.48927346225583e-16 4.571093162043895e-20
3.3076538914384823 7.088670028862799e-24 6.223780292761252e-16 6.223313702973889e-16 4.665897873637822e-20
3.310756385682612 6.55601097628117e-24 5.761510138347483e-16 5.761041155570577e-16 4.689827769086684e-20
3.313861789986515 6.064550756678626e-24 5.334607359126276e-16 5.334135974173436e-16 4.7138495284180913e-20
3.3200813396944477 5.3753630593967934e-24 4.737246234207581e-16 4.736769696052677e-16 4.7653815490488224e-20
3.345076488085796 4.1461612747528544e-24 3.681473483921013e-16 3.680974013342159e-16 4.994705788544569e-20
3.3482140837626964 4.192319419509426e-24 3.725949949461053e-16 3.725447373339571e-16 5.0257612148255324e-20
3.3513546224236106 4.238987513232942e-24 3.770960257040957e-16 3.77045455960226e-16 5.056974386967805e-20
3.3576445397418455 4.5797831063091294e-24 4.081774996760709e-16 4.081262778443202e-16 5.122183175043665e-20
3.3702598118196083 5.836594674142127e-24 5.221464736242337e-16 5.220938835624925e-16 5.259006174135455e-20
3.382922481734668 6.123011413702336e-24 5.498276147994009e-16 5.497736888516887e-16 5.392594771220755e-20
3.389271646505754 6.271392124929186e-24 5.642086859914686e-16 5.641540817131285e-16 5.460427834017665e-20
3.395632727569191 6.431278493042179e-24 5.796788564852764e-16 5.796235530728379e-16 5.530341243847426e-20
3.421196662673239 7.198935161749718e-24 6.537560708577924e-16 6.5369786637567505e-16 5.820448211736693e-20
3.4276182099114902 7.044439162441421e-24 6.409266015767025e-16 6.408677431242682e-16 5.885845243456535e-20
3.4340518103208963 6.3670743913845025e-24 5.803850276678237e-16 5.803255474992176e-16 5.948016860614245e-20
3.4469541582030403 5.402432551211741e-24 4.943041927179683e-16 4.942435127331087e-16 6.067998485968024e-20
3.472904465399547 5.132467230843162e-24 4.731386811091016e-16 4.730752459501476e-16 6.343515895414487e-20
3.4990501388274233 4.7193613395903885e-24 4.3833164893820615e-16 4.3826537884105054e-16 6.627009715551662e-20
3.5253949054701885 3.248063742229232e-24 3.039497210690838e-16 3.0388067250783427e-16 6.904856124946726e-20
3.5519380250092896 1.8652435939635017e-24 1.7586133662631997e-16 1.7578947540313495e-16 7.186122318504169e-20
3.578680990867387 1.317287411288167e-24 1.2513331818105078e-16 1.2505837014479537e-16 7.494803625536899e-20
3.605625307711299 1.09599947595354e-24 1.0489634909980278e-16 1.0481813709600138e-16 7.82120038013899e-20
3.660119384959845 9.35360127502898e-25 9.087481448288812e-17 9.078968828150674e-17 8.51262013813871e-20
3.715437065384467 8.22057931759355e-25 8.107403095562e-17 8.098153177901202e-17 9.249917660794993e-20
3.8285932144167436 7.668846889251083e-25 7.793611003264038e-17 7.782746577885279e-17 1.0864425378759032e-19
3.94519561050918 7.59324686913096e-25 7.951800836607738e-17 7.939129664278411e-17 1.267117232932935e-19
4.06534921144712 7.7183359369226e-25 8.328963662765185e-17 8.314282840818769e-17 1.4680821946415964e-19
4.189162171576248 7.964679321529918e-25 8.856556568515826e-17 8.83964601649869e-17 1.6910552017133427e-19
4.316745939156006 8.304120470653041e-25 9.515235976249992e-17 9.495867737310306e-17 1.9368238939690752e-19
4.448215356677963 8.728986990848815e-25 1.0306686930537124e-16 1.0284647663070577e-16 2.203926746654904e-19
4.58368876423945 9.243480429964108e-25 1.124656972781491e-16 1.1221625963055626e-16 2.494376475928579e-19
4.723288106065518 9.86073483370118e-25 1.2362979535442405e-16 1.2334862359648542e-16 2.811717579386062e-19
4.867139040275056 1.0604061723207813e-24 1.3699838041768967e-16 1.3668328089838254e-16 3.1509951930712483e-19
4.940699165968905 1.1048736294359019e-24 1.4490068954881016e-16 1.4456765197918023e-16 3.330375696299571e-19
5.015371051989984 1.1514245605428958e-24 1.5328794108529146e-16 1.529363275663462e-16 3.516135189452225e-19
5.091171501069577 1.2071596532121769e-24 1.6313677461207352e-16 1.6276558685594103e-16 3.711877561324937e-19
5.129500256944802 1.235979808862229e-24 1.6828905242266226e-16 1.6790782976597117e-16 3.8122265669112916e-19
5.168117569889187 1.2660487090529878e-24 1.7368096868733234e-16 1.7328947214891067e-16 3.9149653842165337e-19
5.20702561229733 1.3019921521699382e-24 1.7995648985774943e-16 1.7955390739968117e-16 4.025824580683046e-19
5.246226572918644 1.3389694278144591e-24 1.8646062558591306e-16 1.860467508703853e-16 4.138747155278084e-19
5.265937586045735 1.3578566233756578e-24 1.8980124439125122e-16 1.8938164580581326e-16 4.1959858543797104e-19
5.285722656980489 1.3770154884986669e-24 1.932024503069106e-16 1.9277707583265923e-16 4.2537447425139655e-19
5.305582063971359 1.3964506034806781e-24 1.966654397138367e-16 1.962342371900216e-16 4.3120252381511407e-19
5.3255160863122235 1.417168233666992e-24 2.0033302221033263e-16 1.9989590564640094e-16 4.3711656393168805e-19
5.365609099470188 1.4674133014415715e-24 2.089974149026759e-16 2.0854804894422802e-16 4.493659584478506e-19
5.406003951863644 1.5196186926542715e-24 2.1806221491248526e-16 2.176003695674932e-16 4.618453449919187e-19
5.446702915881641 1.5738757725746212e-24 2.275482872866179e-16 2.2707373092696307e-16 4.745563596548376e-19
5.487708281020852 1.6322443830768783e-24 2.3776374498118824e-16 2.3727620374566523e-16 4.875412355231024e-19
5.529022354014368 1.710779532435073e-24 2.510798292472322e-16 2.5057870859349686e-16 5.011206537354003e-19
5.570647458961463 1.7938238970792295e-24 2.652497072047479e-16 2.6473474800586445e-16 5.149591988834779e-19
5.612585937458331 1.8816890444862045e-24 2.8033691721556634e-16 2.7980785807222515e-16 5.290591433412549e-19
5.654840148729818 1.9777956867640123e-24 2.9687333500527365e-16 2.9632986000914236e-16 5.434749961313252e-19
5.67608639626678 2.041795776395548e-24 3.076314492417343e-16 3.0708043831198387e-16 5.510109297504358e-19
5.686739436050992 2.0747487129514503e-24 3.131830623721319e-16 3.126282558430935e-16 5.548065290384157e-19
5.6974124697621304 2.1083566406670663e-24 3.188534871235227e-16 3.182948665090509e-16 5.586206144718357e-19
5.718818669136295 2.1775989066732954e-24 3.305625492926453e-16 3.2999624485480263e-16 5.6630443784266095e-19
5.740305295436557 2.2535413825164263e-24 3.433760191123341e-16 3.428019105540118e-16 5.741085583223376e-19
5.7835210386641895 2.4480058759480277e-24 3.758150852322027e-16 3.7522478202864657e-16 5.903032035561064e-19
5.827062130521658 2.6708937748634117e-24 4.131195025730774e-16 4.1251256632793453e-16 6.06936245142888e-19
5.8489554468988025 2.8253864880482608e-24 4.386575515256781e-16 4.3804168730976955e-16 6.158642159084635e-19
5.870931020387893 2.9908557135390276e-24 4.660922404881678e-16 4.654673496468946e-16 6.248908412730003e-19
5.892989160043636 3.1681756805884507e-24 4.955806388730166e-16 4.949466220114833e-16 6.340168615333557e-19
5.915130176081913 3.3691889357069404e-24 5.29004182312602e-16 5.283607153778445e-16 6.434669347575774e-19
5.95966208400165 3.9272095139616365e-24 6.212624999889412e-16 6.205978658960551e-16 6.646340928861761e-19
6.004529249263818 4.7268569451725156e-24 7.533917439127011e-16 7.527034591500188e-16 6.882847626823767e-19
6.027089341400364 5.280641711192708e-24 8.448191779638524e-16 8.441174114378321e-16 7.017665260202128e-19
6.049734195844842 5.933913533899631e-24 9.528991519516246e-16 9.521831315670417e-16 7.160203845828921e-19
6.095279466722835 7.816046688562743e-24 1.2645913320319511e-15 1.2638409318118574e-15 7.50400220093372e-19
6.141167624020661 1.0705981996749424e-23 1.745206787785009e-15 1.744412569470535e-15 7.942183144740087e-19
6.164241091010745 1.2550751788536865e-23 2.053613875322681e-15 2.0527925556212105e-15 8.213197014709223e-19
6.187401249150058 1.4650264686223428e-23 2.4061526981187933e-15 2.4053034177433613e-15 8.492803754318353e-19
6.1990139391386085 1.567584913038193e-23 2.579426284392493e-15 2.5785627487999167e-15 8.635355925761642e-19
6.204828454712694 1.621589571092046e-23 2.670792541253335e-15 2.669921791593302e-15 8.707496600325422e-19
6.210648424152782 1.661087425653929e-23 2.7384125019619513e-15 2.7375355063374943e-15 8.769956244566022e-19
6.233982942956859 1.7954250660404527e-23 2.9709977766865227e-15 2.9700985707513925e-15 8.9920593513047e-19
6.239830258556775 1.8127072142232642e-23 3.00240912956485e-15 3.001506520520404e-15 9.026090444463427e-19
6.245683058788269 1.814412845128497e-23 3.0080530192367537e-15 3.0071469965525103e-15 9.060226842425692e-19
6.257405133728602 1.811202138479794e-23 3.0083657073944938e-15 3.0074535193680796e-15 9.12188026413399e-19
6.269149208991335 1.7854176761997487e-23 2.9711041061745178e-15 2.9701887415392054e-15 9.153646353128405e-19
6.280915325867298 1.7200561397651906e-23 2.8677084332104415e-15 2.8667936030894e-15 9.148301210404058e-19
6.304513850009849 1.5586188636328076e-23 2.6083205575801878e-15 2.6074101686940324e-15 9.10388886156055e-19
6.32820103803542 1.3583217847294685e-23 2.2816675539393287e-15 2.2807651974126386e-15 9.023565266902131e-19
6.3519772230701035 1.1746894919485135e-23 1.9806213172686267e-15 1.9797258566524824e-15 8.95460616145032e-19
6.375842739491607 1.0202258608108637e-23 1.7266462015015431e-15 1.725756480782414e-15 8.897207191286993e-19
6.399797922933955 8.967141552628528e-24 1.523315003664826e-15 1.5224266948762993e-15 8.883087885270496e-19
6.42384311029221 7.940967836447958e-24 1.3540596469785998e-15 1.3531718834999515e-15 8.87763478647672e-19
6.447978639727206 7.196207933517098e-24 1.231676703049868e-15 1.2307860660033943e-15 8.906370464740242e-19
6.472204850670314 6.5769768436274525e-24 1.1299207923811402e-15 1.1290265769912006e-15 8.942153899394565e-19
6.496522083828205 6.178316872380422e-24 1.0654192287709506e-15 1.0645186256526984e-15 9.006031182520178e-19
