Dust emission spectrum from A.P. Jones, M. Kohler, N. Ysard, M. Bocchio, and L. Verstraete (2017), A&A, 602A, 46J 
inside the DustPedia framework.

lambda    nu*dP/dnu     j_nu    j_nu(carb.) j_nu(sil)
 (um)   (erg s-1 H-1) (Jy cm2 sr-1 H-1)
0.9927057738263894 2.08550725077503e-26 5.495430060239256e-19 5.495430060181307e-19 5.794741904895476e-30
1.0001793341362166 2.1197674470474108e-26 5.627759481920884e-19 5.62775948185106e-19 6.982532269848458e-30
1.0077091589558085 2.1539727158196206e-26 5.761622986817627e-19 5.761622986733596e-19 8.403140152356016e-30
1.0114953028030835 2.1710505233622397e-26 5.829123189875522e-19 5.829123189783382e-19 9.214013722553395e-30
1.0152956718711033 2.1881095381516868e-26 5.896998633455402e-19 5.896998633354402e-19 1.0099914744661566e-29
1.0229392996569957 2.2221476717161878e-26 6.033818096961951e-19 6.033818096840712e-19 1.212397125301202e-29
1.0267826658714554 2.23908528879456e-26 6.102651896567744e-19 6.10265189643497e-19 1.3277469102422998e-29
1.0306404723013447 2.2559966002696087e-26 6.171845796656453e-19 6.171845796511093e-19 1.453606112959884e-29
1.03451277320114 2.272879968860613e-26 6.241396765057288e-19 6.241396764898202e-19 1.5908861686328947e-29
1.0383996230291617 2.289733766667816e-26 6.3113017327879015e-19 6.311301732613843e-19 1.7405732464189202e-29
1.0403485208654093 2.2981490704509086e-26 6.346385997458195e-19 6.346385997276156e-19 1.82039943750296e-29
1.0423010764483396 2.306556375484678e-26 6.381557594781719e-19 6.381557594591346e-19 1.9037339962902973e-29
1.0462171883269815 2.3233461871031905e-26 6.452161210616186e-19 6.452161210408035e-19 2.0815217060279575e-29
1.0471985131304309 2.3275383279599208e-26 6.469866079786694e-19 6.469866079573851e-19 2.1283980250905976e-29
1.048180758391296 2.3317282942055965e-26 6.487592435353312e-19 6.487592435135682e-19 2.1762863766182706e-29
1.0501480137395462 2.3401016036121897e-26 6.523109405241534e-19 6.523109405014016e-19 2.2751828951597647e-29
1.0521189612883777 2.348465917240761e-26 6.558711718108773e-19 6.558711717870935e-19 2.3783828021201077e-29
1.0531058218030118 2.352638173486426e-26 6.576526678535985e-19 6.576526678292821e-19 2.431655369151739e-29
1.0540936079674168 2.3567869243516174e-26 6.594303520394365e-19 6.594303520145757e-19 2.4860827103067017e-29
1.058054026499678 2.3733573381217713e-26 6.66561781250746e-19 6.6656178122358915e-19 2.7157060581704993e-29
1.0590464539527713 2.3774936726509778e-26 6.68349785866561e-19 6.683497858387988e-19 2.776213157040899e-29
1.06003981227728 2.3816274511777595e-26 6.701398390435281e-19 6.701398390151479e-19 2.8380115353290306e-29
1.0620293250338977 2.3898872437175023e-26 6.737260702568821e-19 6.737260702272261e-19 2.9655876176703426e-29
1.0660195594769086 2.4063750978025493e-26 6.809228856907447e-19 6.809228856583704e-19 3.2374242762834954e-29
1.070024785945596 2.4228193690215482e-26 6.881518911764455e-19 6.881518911411148e-19 3.533046929756881e-29
1.0740450607676866 2.4392185382518196e-26 6.954127474024449e-19 6.954127473639007e-19 3.8544303743469444e-29
1.07808044048254 2.455571098848121e-26 7.027051121945398e-19 7.027051121525024e-19 4.203703873967818e-29
1.0861967418109137 2.4881013348580908e-26 7.173745957378318e-19 7.173745956878791e-19 4.9952795969533e-29
1.0902777775684922 2.504209900767651e-26 7.247318061786471e-19 7.2473180612421995e-19 5.442719906639194e-29
1.0943741465085532 2.5202648121016658e-26 7.321185883278236e-19 7.321185882685401e-19 5.928349777152022e-29
1.1026131145906286 2.5522079558651815e-26 7.469794340255699e-19 7.469794339553024e-19 7.026760119501367e-29
1.1109141095355224 2.5839194772976756e-26 7.619542422420248e-19 7.619542421588435e-19 8.318120764259283e-29
1.1192775983109025 2.615358658200995e-26 7.770312749122292e-19 7.770312748138856e-19 9.834352944315092e-29
1.1277040513999907 2.6463784524907246e-26 7.921665965736701e-19 7.92166596457547e-19 1.161231314638475e-28
1.1361939428280308 2.6771299670119206e-26 8.074048580619503e-19 8.074048579250053e-19 1.3694492532982805e-28
1.1447477501889525 2.707602946705806e-26 8.227430262154832e-19 8.227430260541851e-19 1.612982017863246e-28
1.1533659546722406 2.737804142717214e-26 8.381831713393792e-19 8.381831711496334e-19 1.8974589939992899e-28
1.1707974979042381 2.7974900300867834e-26 8.694002607703679e-19 8.6940026050876e-19 2.6160788788243725e-28
1.1884924949847024 2.855960077321541e-26 9.009859298771355e-19 9.009859295182188e-19 3.589168615377621e-28
1.2064549276569216 2.913676409195442e-26 9.33086384573159e-19 9.3308638408312e-19 4.9003903339800125e-28
1.2246888378427687 2.9700033876523594e-26 9.65499686974926e-19 9.654996863090781e-19 6.658477882777002e-28
1.2431983285522175 3.024809066809243e-26 9.981775932741446e-19 9.981775923737171e-19 9.004274421912871e-28
1.2619875648066055 3.078073467899656e-26 1.0311064178393214e-18 1.0311064166273932e-18 1.2119281247135763e-27
1.3004222497298317 3.179088270264367e-26 1.0973784091113305e-18 1.0973784069462058e-18 2.1651244870279294e-27
1.3400274889804893 3.272656913189385e-26 1.1640821216052296e-18 1.1640821178069144e-18 3.798314987935612e-27
1.3808389325824078 3.3584375131925467e-26 1.2309764054418484e-18 1.2309763988954849e-18 6.546363715911265e-27
1.4228933163050095 3.4368630263216435e-26 1.2980875853265054e-18 1.2980875742367348e-18 1.1089770233603074e-26
1.466228494730424 3.509858211058991e-26 1.3660313326605897e-18 1.366031314186021e-18 1.8474568375107783e-26
1.5108834753276823 3.575989261447028e-26 1.434156713703854e-18 1.4341566834244864e-18 3.027936739264981e-26
1.5568984535646726 3.6340997640578084e-26 1.5018500238992555e-18 1.5018499750240091e-18 4.8875246294727345e-26
1.6043148490894465 3.684308530716177e-26 1.5689714029488872e-18 1.5689713251113782e-18 7.78375086636325e-26
1.6531753430134553 3.726781981550885e-26 1.635393771229389e-18 1.635393649060574e-18 1.2216881416632218e-25
1.7035239163302658 3.762048735780085e-26 1.701147947695415e-18 1.7011477586737814e-18 1.8902163307225835e-25
1.755405889504358 3.793112997428458e-26 1.767432207421005e-18 1.7674319189760734e-18 2.884449324461905e-25
1.8088679632656115 3.8192429978375754e-26 1.8338068522367408e-18 1.833806417954221e-18 4.342825202861686e-25
1.8639582606462262 3.839946980902061e-26 1.899900443297418e-18 1.8998997979165025e-18 6.453809158057777e-25
1.9207263702978936 3.855596152831604e-26 1.9657417891099063e-18 1.9657408420817613e-18 9.47028144795313e-25
1.979223391128241 3.8670436761962343e-26 2.031623956169592e-18 2.0316225834397464e-18 1.3727298462413667e-24
2.039501978296691 3.875308440271526e-26 2.097972726913488e-18 2.0979707606419204e-18 1.9662715674873992e-24
2.1016163906111602 3.8832274125807355e-26 2.166285559491722e-18 2.1662827751429697e-18 2.7843487526331566e-24
2.1656225393682647 3.892448385395283e-26 2.2375618991953087e-18 2.23755799993892e-18 3.899256388523311e-24
2.231578038680979 3.903096758793714e-26 2.3120159696559245e-18 2.3120105675846026e-18 5.402071322130115e-24
2.299542257339062 3.916163093613961e-26 2.390405602789595e-18 2.3903981965149807e-18 7.406274614401304e-24
2.369576372248914 3.933828576638016e-26 2.474318342483192e-18 2.474308290557031e-18 1.0051926160800501e-23
2.4417434235010123 3.9586693245619954e-26 2.565775687186725e-18 2.5657621773950698e-18 1.350979165482721e-23
2.5161083711144245 3.9950909649385136e-26 2.6682434253503326e-18 2.6682254387969312e-18 1.7986553402010262e-23
2.5927381535095444 4.050300617276693e-26 2.7875030408621965e-18 2.7874793110417388e-18 2.3729820456858298e-23
2.6717017477616296 4.1329108854630175e-26 2.930984006721058e-18 2.930952974668367e-18 3.1032052692902615e-23
2.753070231689431 4.2558854530779794e-26 3.1101164763419145e-18 3.1100762403941353e-18 4.023594777863713e-23
2.836916847834745 4.4485675417003045e-26 3.3499338271490187e-18 3.349882085753103e-18 5.174139591477836e-23
2.9233170693905177 4.7755529498849543e-26 3.705689442905313e-18 3.705623441877737e-18 6.60010275755127e-23
2.967498994190263 5.053145274553413e-26 3.980354907451905e-18 3.980280691315371e-18 7.421613653292455e-23
3.0123486681368425 5.37738397701955e-26 4.299774900614418e-18 4.299691554888738e-18 8.334572568193862e-23
3.0578761833420214 6.10228615854925e-26 4.953154774485378e-18 4.953061272660122e-18 9.35018252553088e-23
3.1040917844459814 7.03655150458053e-26 5.797808388577124e-18 5.797703677652035e-18 1.0471092508829931e-22
3.127460860933648 8.024388562388969e-26 6.661518934111943e-18 6.661408158590824e-18 1.1077552111728035e-22
3.1510058709225794 9.340586452986061e-26 7.812549640820362e-18 7.812432497081902e-18 1.1714373846087383e-22
3.162844764501044 1.0565372923316918e-25 8.870174032041362e-18 8.870053574477833e-18 1.2045756353067432e-22
3.1747281389236908 1.198985856932917e-25 1.0103923157122667e-17 1.0103799305571113e-17 1.238515515525301e-22
3.1986289994194426 1.5963451523595778e-25 1.3553769672793122e-17 1.3553638769701418e-17 1.3090309170293836e-22
3.2227097969389145 2.532912028246424e-25 2.1667596464977608e-17 2.166745803811186e-17 1.3842686574112289e-22
3.2348180950136065 3.4210580551012425e-25 2.9375126198482956e-17 2.937498374199524e-17 1.4245648772032953e-22
3.240889293275058 4.0850416040973622e-25 3.514229443244889e-17 3.5142149849286704e-17 1.4458316217941745e-22
3.2469718861334385 4.853153159818801e-25 4.182846802061334e-17 4.182832123606645e-17 1.4678454688204598e-22
3.2714166318528037 8.95047734770912e-25 7.772334588437279e-17 7.772318995935318e-17 1.5592501963209974e-22
3.2744851364798273 9.206583148463206e-25 8.002228278470516e-17 8.002212577165344e-17 1.5701305168004342e-22
3.2775565192852394 9.470045027299079e-25 8.238946192552287e-17 8.238930381788399e-17 1.581076389023608e-22
3.283707930232385 9.216573156275042e-25 8.033474685041085e-17 8.033458676457483e-17 1.6008583602695208e-22
3.2898708863219004 8.412911529447747e-25 7.346738959125627e-17 7.346722768587213e-17 1.6190538410437158e-22
3.29141343181113 8.223391401164749e-25 7.184603931687708e-17 7.184587695401019e-17 1.6236286689242827e-22
3.292184975758714 8.130268414226507e-25 7.104909418158167e-17 7.104893158958286e-17 1.6259199880781395e-22
3.295272960557952 7.542458990370111e-25 6.597414723199863e-17 6.597398374516712e-17 1.6348683153724906e-22
3.3076538914384823 5.506220545607521e-25 4.8344057178306673e-17 4.834389008629351e-17 1.6709201315536682e-22
3.310756385682612 5.091821131634404e-25 4.474760518049721e-17 4.474743717738888e-17 1.6800310831514363e-22
3.313861789986515 4.709483059162299e-25 4.142638753154237e-17 4.142621861339579e-17 1.689181465842096e-22
3.3200813396944477 4.173292251608097e-25 3.6778749239305626e-17 3.677857836128284e-17 1.708780227982847e-22
3.345076488085796 3.216754126551951e-25 2.856231158519132e-17 2.856213198851926e-17 1.795966720504219e-22
3.3482140837626964 3.2526139813115327e-25 2.890780898727932e-17 2.890762820950389e-17 1.8077777541917778e-22
3.3513546224236106 3.288870300224123e-25 2.925745630057014e-17 2.92572743350926e-17 1.8196547752899925e-22
3.3576445397418455 3.5538623843419126e-25 3.167413452910377e-17 3.167395008306387e-17 1.8444603989197553e-22
3.3702598118196083 4.531303797697981e-25 4.05374097565865e-17 4.0537220102464986e-17 1.8965412152542332e-22
3.382922481734668 4.753849561978016e-25 4.268810866379054e-17 4.2687913907961116e-17 1.9475582941726042e-22
3.389271646505754 4.869142780677712e-25 4.3805467677115426e-17 4.380527032674484e-17 1.9735037058884279e-22
3.395632727569191 4.993362454298714e-25 4.500732849084237e-17 4.500712846568438e-17 2.000251579809187e-22
3.421196662673239 5.589755610209149e-25 5.0762183332367175e-17 5.076197218399878e-17 2.1114836836858668e-22
3.4276182099114902 5.469475340682667e-25 4.9763113310732216e-17 4.976289963612417e-17 2.1367460802723066e-22
3.4340518103208963 4.9425731816217535e-25 4.505358813849223e-17 4.50533720534701e-17 2.160850221356305e-22
3.4469541582030403 4.192209649793494e-25 3.8357291590449536e-17 3.835707083514383e-17 2.207553057090392e-22
3.472904465399547 3.981938699434178e-25 3.670767176428857e-17 3.670744029856263e-17 2.3146572594809756e-22
3.4990501388274233 3.6603386844735105e-25 3.399702154141123e-17 3.399677900410734e-17 2.425373038952283e-22
3.5253949054701885 2.515790133696116e-25 2.3542447750131643e-17 2.3542194288615175e-17 2.5346151646368836e-22
3.5519380250092896 1.4402439376832263e-25 1.3579096305095395e-17 1.3578831721004846e-17 2.6458409054759996e-22
3.578680990867387 1.0139081894030624e-25 9.631436160683984e-18 9.631159345944912e-18 2.768147390735147e-22
3.605625307711299 8.415639456817206e-26 8.054473325293758e-18 8.054183529187528e-18 2.8979610623014785e-22
3.660119384959845 7.160678294402808e-26 6.956949440561679e-18 6.956631945939952e-18 3.1749462172377193e-22
3.715437065384467 6.273949066739803e-26 6.187572933725393e-18 6.187225604808034e-18 3.47328917357633e-22
3.8285932144167436 5.832237765004265e-26 5.927122170439919e-18 5.926708430012632e-18 4.1374042728879297e-22
3.94519561050918 5.759650806276035e-26 6.03162216233277e-18 6.031132383415444e-18 4.897789173271132e-22
4.06534921144712 5.841984487694227e-26 6.3041667159985716e-18 6.303590250647158e-18 5.764653514134661e-22
4.189162171576248 6.017444165526774e-26 6.69127186399217e-18 6.690596676950769e-18 6.751870414002124e-22
4.316745939156006 6.264123687224929e-26 7.177715602634444e-18 7.176928507857059e-18 7.870947773861457e-22
4.448215356677963 6.576065801364835e-26 7.764641134227231e-18 7.76372861091024e-18 9.125233169915357e-22
4.58368876423945 6.956529515347194e-26 8.46402984792801e-18 8.462976450206072e-18 1.0533977219404826e-21
4.723288106065518 7.415718051997166e-26 9.29751910619424e-18 9.296306579411394e-18 1.2125267828446818e-21
4.867139040275056 7.971800303734975e-26 1.0299107635659462e-17 1.0297718348528081e-17 1.3892871313794747e-21
4.940699165968905 8.306142428190253e-26 1.0893243654931667e-17 1.0891758190368175e-17 1.485464563491793e-21
5.015371051989984 8.656461816345872e-26 1.1524256598152242e-17 1.1522669517359636e-17 1.587080792606316e-21
5.091171501069577 9.077791066436981e-26 1.2267818521271682e-17 1.226612246113409e-17 1.696060137589949e-21
5.129500256944802 9.295790331312861e-26 1.2657000827679085e-17 1.2655248005396476e-17 1.752822282608656e-21
5.168117569889187 9.523434204917371e-26 1.306457852776735e-17 1.3062767068206036e-17 1.8114595613136956e-21
5.20702561229733 9.796544736223656e-26 1.3540418047274967e-17 1.3538543593579516e-17 1.8744536954470415e-21
5.246226572918644 1.0077647885487962e-25 1.4033812050733568e-17 1.4031872755121726e-17 1.939295611836734e-21
5.265937586045735 1.0221281932165612e-25 1.428731131550501e-17 1.4285338890878526e-17 1.9724246264880256e-21
5.285722656980489 1.0367017730621414e-25 1.454546622503864e-17 1.4543460191105253e-17 2.00603393338956e-21
5.305582063971359 1.051489119825774e-25 1.480836984777115e-17 1.4806329717931374e-17 2.040129839776767e-21
5.3255160863122235 1.0672698447023003e-25 1.5087086234632983e-17 1.508501136489096e-17 2.0748697420329778e-21
5.365609099470188 1.1056566302062503e-25 1.574739558760305e-17 1.5745248540523612e-17 2.1470470794439935e-21
5.406003951863644 1.1455631844278003e-25 1.6438600454578565e-17 1.6436379073828795e-17 2.221380749771071e-21
5.446702915881641 1.187060811721934e-25 1.716232369283655e-17 1.7160025762558563e-17 2.297930277988048e-21
5.487708281020852 1.2317459962545993e-25 1.794244440180037e-17 1.794006744997395e-17 2.3769518264166222e-21
5.529022354014368 1.2920602959540042e-25 1.8962716839586205e-17 1.8960256785788535e-17 2.460053797672642e-21
5.570647458961463 1.3558748746099693e-25 2.0049092560432308e-17 2.0046546861103558e-17 2.5456993287478144e-21
5.612585937458331 1.4234322109727726e-25 2.1206511195817837e-17 2.1203877233424764e-17 2.6339623930699553e-21
5.654840148729818 1.497384186149796e-25 2.2476206217932178e-17 2.2473481034086237e-17 2.7251838459428004e-21
5.67608639626678 1.5467219366359143e-25 2.3304010932046798e-17 2.3301237940075257e-17 2.7729919715413725e-21
5.686739436050992 1.5721307369495742e-25 2.3731294087504543e-17 2.3728496911200795e-17 2.797176303754133e-21
5.6974124697621304 1.5980481589060233e-25 2.416779107624295e-17 2.4164969526873326e-17 2.8215493696239486e-21
5.718818669136295 1.6514566292628646e-25 2.5069341821509017e-17 2.5066470954071722e-17 2.8708674372926216e-21
5.740305295436557 1.7100619441603163e-25 2.6056511203960014e-17 2.605358999097949e-17 2.921212980518665e-21
5.7835210386641895 1.8602892095063178e-25 2.855894892639573e-17 2.8555922616713995e-17 3.0263096817369724e-21
5.827062130521658 2.032576456730137e-25 3.143880084819338e-17 3.143566540699561e-17 3.135441197774376e-21
5.8489554468988025 2.1520974846612213e-25 3.341255496405335e-17 3.340936093596876e-17 3.1940280845950184e-21
5.870931020387893 2.2801410129333323e-25 3.553351064500254e-17 3.5530257017277885e-17 3.2536277246583126e-21
5.892989160043636 2.417386132263452e-25 3.781386780948258e-17 3.781055355170568e-17 3.3142577769067364e-21
5.915130176081913 2.573012211591852e-25 4.0399462513012426e-17 4.039608536586279e-17 3.37714714964242e-21
5.95966208400165 3.005243096765031e-25 4.754125881833432e-17 4.7537741872422925e-17 3.516945911391505e-21
6.004529249263818 3.624905024380431e-25 5.777567524282699e-17 5.777200191336324e-17 3.673329463738225e-21
6.027089341400364 4.05415261983689e-25 6.486003162022914e-17 6.485626953915736e-17 3.7620810717797565e-21
6.049734195844842 4.560592668852004e-25 7.323640396374163e-17 7.3232547873348e-17 3.856090393636096e-21
6.095279466722835 6.019942808023467e-25 9.739920701208652e-17 9.739512603073125e-17 4.080981355275736e-21
6.141167624020661 8.261105697632808e-25 1.3466618702044909e-16 1.3466182129840078e-16 4.365722048322744e-21
6.164241091010745 9.691788701965443e-25 1.5858166977081217e-16 1.5857712931520238e-16 4.540455609781967e-21
6.187401249150058 1.1320182609105625e-24 1.8592215575265776e-16 1.8591743350896803e-16 4.7222436897561114e-21
6.1990139391386085 1.2115627684029125e-24 1.9935997240193298e-16 1.9935515721952352e-16 4.815182409464343e-21
6.204828454712694 1.2534501780222536e-24 2.0644591245366825e-16 2.0644105007657884e-16 4.862377089403192e-21
6.210648424152782 1.2840836118955662e-24 2.1168967762157222e-16 2.1168477391531408e-16 4.9037062582135536e-21
6.233982942956859 1.3882706685426621e-24 2.297254921797127e-16 2.2972043905817673e-16 5.0531215360364214e-21
6.239830258556775 1.4016722408023275e-24 2.3216068758493935e-16 2.3215560994255713e-16 5.077642382270765e-21
6.245683058788269 1.4029902215887203e-24 2.3259695186465195e-16 2.3259184958686103e-16 5.102277790844994e-21
6.257405133728602 1.4004895160108622e-24 2.3261813488520187e-16 2.3261298722167055e-16 5.147663531242515e-21
6.269149208991335 1.3804777057819251e-24 2.297245644425996e-16 2.2971938941019446e-16 5.175032405145543e-21
6.280915325867298 1.3297646302418042e-24 2.2170074314260234e-16 2.2169556321657282e-16 5.179926029516059e-21
6.304513850009849 1.2045135130790422e-24 2.0157316399497658e-16 2.015679947615581e-16 5.169233418497883e-21
6.32820103803542 1.0491126880088176e-24 1.7622675330444921e-16 1.7622161684889411e-16 5.1364555550929474e-21
6.3519772230701035 9.066379101635328e-25 1.528664710310082e-16 1.5286136053568128e-16 5.110495326911103e-21
6.375842739491607 7.867960098529514e-25 1.331585871278968e-16 1.3315349538256681e-16 5.091745329984604e-21
6.399797922933955 6.9095547923346325e-25 1.173777443127597e-16 1.173726448062735e-16 5.0995064862272784e-21
6.42384311029221 6.113279950126518e-25 1.0424101774038099e-16 1.0423590483845087e-16 5.112901930132447e-21
6.447978639727206 5.535268202937316e-25 9.473963167374066e-17 9.47344839126362e-17 5.147761104437074e-21
6.472204850670314 5.054656468993446e-25 8.683870383690599e-17 8.68335164415251e-17 5.187395380897179e-21
6.496522083828205 4.745124638130761e-25 8.182725387523671e-17 8.18220088557054e-17 5.245019531344137e-21
6.520930681187647 4.4854713568973205e-25 7.76402820415678e-17 7.763497591455653e-17 5.306127011243585e-21
6.57002334288761 4.227583622914829e-25 7.372733781715799e-17 7.372188220177433e-17 5.4556153836367905e-21
