Dust emission spectrum from A.P. Jones, M. Kohler, N. Ysard, M. Bocchio, and L. Verstraete (2017), A&A, 602A, 46J 
inside the DustPedia framework.

lambda    nu*dP/dnu     j_nu    j_nu(carb.) j_nu(sil)
 (um)   (erg s-1 H-1) (Jy cm2 sr-1 H-1)
0.9927057738263894 5.053724535048146e-27 1.3316851195674954e-19 1.3316851195645477e-19 2.9479795274663797e-31
1.0001793341362166 5.1368602176931436e-27 1.3637823261080675e-19 1.3637823261045154e-19 3.5519079791377286e-31
1.0077091589558085 5.2198672831984926e-27 1.3962529379379695e-19 1.3962529379336953e-19 4.274111884651806e-31
1.0114953028030835 5.261312349207154e-27 1.4126266290867324e-19 1.4126266290820461e-19 4.6862976123682475e-31
1.0152956718711033 5.302713011993011e-27 1.4290916812027172e-19 1.429091681197581e-19 5.136588614433406e-31
1.0229392996569957 5.385324150933689e-27 1.4622820406356902e-19 1.4622820406295248e-19 6.165271328764143e-31
1.0267826658714554 5.426434052019644e-27 1.4789806455736078e-19 1.478980645566857e-19 6.7514464801068485e-31
1.0306404723013447 5.4674813578216354e-27 1.4957669631477398e-19 1.495766963140349e-19 7.390977804327037e-31
1.03451277320114 5.50846210442008e-27 1.5126402638940489e-19 1.5126402638859602e-19 8.088487134535766e-31
1.0383996230291617 5.5493723504115595e-27 1.5295998094139486e-19 1.5295998094050996e-19 8.848974713280874e-31
1.0403485208654093 5.569799810333569e-27 1.5381116908143297e-19 1.5381116908050759e-19 9.254508498972007e-31
1.0423010764483396 5.590208177661994e-27 1.5466448525487926e-19 1.5466448525391146e-19 9.677848237672051e-31
1.0462171883269815 5.6309656920430355e-27 1.5637746375545594e-19 1.5637746375439786e-19 1.0580953972698769e-30
1.0471985131304309 5.641142380253379e-27 1.5680702353562696e-19 1.5680702353454504e-19 1.0819058729730127e-30
1.048180758391296 5.6513138717339016e-27 1.5723710697844864e-19 1.5723710697734239e-19 1.106229894936977e-30
1.0501480137395462 5.671641024151549e-27 1.5809884002766546e-19 1.5809884002650903e-19 1.1564610067407313e-30
1.0521189612883777 5.691946669599184e-27 1.5896265322262784e-19 1.5896265322141894e-19 1.208875667759772e-30
1.0531058218030118 5.7020756095400874e-27 1.5939489884922628e-19 1.5939489884799032e-19 1.2359316603756267e-30
1.0540936079674168 5.712147660228581e-27 1.5982622372712215e-19 1.598262237258586e-19 1.2635735763464685e-30
1.058054026499678 5.7523770043782125e-27 1.6155656802605942e-19 1.6155656802467925e-19 1.38018567527978e-30
1.0590464539527713 5.762419331511522e-27 1.619904090846529e-19 1.6199040908324197e-19 1.4109120129492089e-30
1.06003981227728 5.772455537764466e-27 1.6242474964127699e-19 1.6242474963983468e-19 1.4422934014013947e-30
1.0620293250338977 5.792509353875162e-27 1.6329492423425179e-19 1.6329492423274477e-19 1.5070747740526065e-30
1.0660195594769086 5.832540970500663e-27 1.6504121207743153e-19 1.650412120757865e-19 1.6451005627411065e-30
1.070024785945596 5.872468144825707e-27 1.6679535054927576e-19 1.6679535054748058e-19 1.795190512852222e-30
1.0740450607676866 5.9122871968181104e-27 1.685572579289377e-19 1.685572579269793e-19 1.958344870715664e-30
1.07808044048254 5.951994476432544e-27 1.7032685179853973e-19 1.7032685179640412e-19 2.135641990686752e-30
1.0861967418109137 6.0309887509182236e-27 1.738867326855131e-19 1.7388673268297569e-19 2.5374033717874045e-30
1.0902777775684922 6.0701082447653775e-27 1.756721954729178e-19 1.7567219547015337e-19 2.7644689724440495e-30
1.0943741465085532 6.1090988878728896e-27 1.7746487719339532e-19 1.7746487719038437e-19 3.010891797650459e-30
1.1026131145906286 6.1866797704518755e-27 1.8107155190114537e-19 1.8107155189757728e-19 3.5681770075668164e-30
1.1109141095355224 6.2637040360491995e-27 1.8470606009005891e-19 1.8470606008583569e-19 4.223230591725471e-30
1.1192775983109025 6.3400729827982475e-27 1.8836556039503236e-19 1.8836556039004013e-19 4.992201533427424e-30
1.1277040513999907 6.415430160308599e-27 1.920394065657754e-19 1.9203940655988173e-19 5.8937306513222896e-30
1.1361939428280308 6.490141818938243e-27 1.9573842505564195e-19 1.9573842504869267e-19 6.949303107731635e-30
1.1447477501889525 6.564183082618257e-27 1.9946188419526162e-19 1.9946188418707798e-19 8.183652655113917e-30
1.1533659546722406 6.637570280036435e-27 2.0321028887724937e-19 2.0321028886762413e-19 9.625228279209397e-30
1.1707974979042381 6.78262186909895e-27 2.107894276040904e-19 2.107894275908247e-19 1.3265616555885493e-29
1.1884924949847024 6.924744898099035e-27 2.1845885629560477e-19 2.184588562774118e-19 1.8192960900368696e-29
1.2064549276569216 7.065059286044283e-27 2.262540412931589e-19 2.2625404126832945e-19 2.4829517683113572e-29
1.2246888378427687 7.202023835944534e-27 2.3412605480853824e-19 2.341260547748145e-19 3.372376517910526e-29
1.2431983285522175 7.335317966913087e-27 2.420632136572358e-19 2.4206321361165005e-19 4.558572229834564e-29
1.2619875648066055 7.464892837746837e-27 2.5006222215793027e-19 2.5006222209660043e-19 6.132982463353693e-29
1.3004222497298317 7.710723436430716e-27 2.661637771090936e-19 2.6616377699962364e-19 1.094699028736149e-28
1.3400274889804893 7.938561043228197e-27 2.8237414513114073e-19 2.8237414493927213e-19 1.9186853788601554e-28
1.3808389325824078 8.14756874137265e-27 2.98634851562601e-19 2.9863485123223295e-19 3.3036811182745415e-28
1.4228933163050095 8.338787569529223e-27 3.149522264280033e-19 3.1495222586890247e-19 5.5910082030067775e-28
1.466228494730424 8.516876583359749e-27 3.3147550612200912e-19 3.3147550519155327e-19 9.304558591315154e-28
1.5108834753276823 8.678348524057882e-27 3.4804667714810775e-19 3.480466756247348e-19 1.523372934880533e-27
1.5568984535646726 8.820386665923546e-27 3.6451662819037656e-19 3.645166257341353e-19 2.456241484601666e-27
1.6043148490894465 8.943266863328209e-27 3.80851110609208e-19 3.8085110670187567e-19 3.907332421951108e-27
1.6531753430134553 9.04738020630011e-27 3.970189109149325e-19 3.9701890478938686e-19 6.1255455083252625e-27
1.7035239163302658 9.133996036213354e-27 4.1302704198063616e-19 4.1302703251452577e-19 9.466110351448667e-27
1.755405889504358 9.210392125853846e-27 4.2916579857354845e-19 4.291657841463993e-19 1.4427149198074467e-26
1.8088679632656115 9.274780214585391e-27 4.453279228403724e-19 4.453279011469252e-19 2.1693447028364457e-26
1.8639582606462262 9.325953057107085e-27 4.614225778504459e-19 4.614225456552462e-19 3.2195199778278124e-26
1.9207263702978936 9.364798150671515e-27 4.774559975072728e-19 4.774559503296775e-19 4.717759516289825e-26
1.979223391128241 9.393372201159463e-27 4.9349843423192415e-19 4.934983659455667e-19 6.828635757724008e-26
2.039501978296691 9.4141340284445e-27 5.096522442946744e-19 5.096521466282852e-19 9.766638911184232e-26
2.1016163906111602 9.433957548505878e-27 5.262799170601323e-19 5.262797789728995e-19 1.3808723256641472e-25
2.1656225393682647 9.456828337249237e-27 5.436228481295729e-19 5.436226550599141e-19 1.930696590846843e-25
2.231578038680979 9.483033830376498e-27 5.617315432219503e-19 5.617312761873776e-19 2.6703457264416183e-25
2.299542257339062 9.514960620211484e-27 5.807882520001595e-19 5.807878865291428e-19 3.654710167166681e-25
2.369576372248914 9.55788409307081e-27 6.011763722308635e-19 6.011758771026649e-19 4.951281987353505e-25
2.4417434235010123 9.618033869141056e-27 6.233841585824053e-19 6.233834943810904e-19 6.642013151255576e-25
2.5161083711144245 9.706076939775208e-27 6.4824996997029e-19 6.482490874041509e-19 8.825661390238995e-25
2.5927381535095444 9.839471406489737e-27 6.771733522463397e-19 6.771721902482969e-19 1.1619980427799855e-24
2.6717017477616296 1.0039070501573299e-26 7.119523236262575e-19 7.119508072939541e-19 1.5163323034421085e-24
2.753070231689431 1.0336270390968098e-26 7.553540902663469e-19 7.553521285778449e-19 1.9616885019597136e-24
2.836916847834745 1.0802193879648752e-26 8.134446503430274e-19 8.134421335789255e-19 2.5167641022931064e-24
2.9233170693905177 1.1593475350693314e-26 8.996197856979506e-19 8.996165831499053e-19 3.2025480453584034e-24
2.967498994190263 1.2265743477287995e-26 9.661707627767392e-19 9.6616716633142e-19 3.596445319295764e-24
3.0123486681368425 1.3050991353844203e-26 1.0435618005188078e-18 1.0435577670031861e-18 4.033515621905914e-24
3.0578761833420214 1.4808269315141338e-26 1.2019700150803027e-18 1.2019654960794412e-18 4.519000861296575e-24
3.1040917844459814 1.7073137034235365e-26 1.4067512623474708e-18 1.4067462084953468e-18 5.053852124391012e-24
3.127460860933648 1.9468972018940122e-26 1.6162343675597618e-18 1.6162290247164137e-18 5.342843348759554e-24
3.1510058709225794 2.266134035592605e-26 1.8954146760410292e-18 1.8954090300248174e-18 5.646016212022139e-24
3.162844764501044 2.563264401703005e-26 2.1519923147307193e-18 2.1519865110623966e-18 5.803668322222299e-24
3.1747281389236908 2.9088309553408455e-26 2.451288668659252e-18 2.4512827036033055e-18 5.965055946663696e-24
3.1986289994194426 3.872785139391048e-26 3.288188503215292e-18 3.2881822030914014e-18 6.300123891009447e-24
3.2227097969389145 6.144995928827876e-26 5.256688372116607e-18 5.256681714782738e-18 6.657333869081666e-24
3.2348180950136065 8.299773146463217e-26 7.12665145312542e-18 7.126644604548854e-18 6.848576565099062e-24
3.240889293275058 9.910725501696184e-26 8.525877270636631e-18 8.525870321128243e-18 6.949508387947129e-24
3.2469718861334385 1.1774325006468447e-25 1.0148082303995564e-17 1.0148075250008946e-17 7.053986612009517e-24
3.2714166318528037 2.1715192069337014e-25 1.8856842139069344e-17 1.885683465150564e-17 7.487563712928899e-24
3.2744851364798273 2.233656165888326e-25 1.941461478902215e-17 1.941460724991841e-17 7.539103746035823e-24
3.2775565192852394 2.2975778510033993e-25 1.9988944332417582e-17 1.9988936741469733e-17 7.590947853139078e-24
3.283707930232385 2.236080838268265e-25 1.949043153387572e-17 1.9490423849382467e-17 7.68449324950717e-24
3.2898708863219004 2.041094723821094e-25 1.7824257481222482e-17 1.7824249710824215e-17 7.770398273829924e-24
3.29141343181113 1.9951126543719233e-25 1.7430879209677603e-17 1.7430871417684182e-17 7.791993416171329e-24
3.292184975758714 1.9725187708602614e-25 1.7237520926192148e-17 1.7237513123383277e-17 7.802808869389756e-24
3.295272960557952 1.8299043551674383e-25 1.600623609653435e-17 1.6006228251514395e-17 7.84501995234222e-24
3.3076538914384823 1.3358620752168738e-25 1.172873335016233e-17 1.1728725335150693e-17 8.015011635565711e-24
3.310756385682612 1.2353159810482886e-25 1.0856122075789434e-17 1.0856114017832721e-17 8.057956719053315e-24
3.313861789986515 1.1425480576626022e-25 1.0050283229718448e-17 1.0050275128636814e-17 8.101081637850563e-24
3.3200813396944477 1.0124496574720495e-25 8.922603504520199e-18 8.9225953110086e-18 8.193511598032376e-24
3.345076488085796 7.803540888132607e-26 6.9289463087916396e-18 6.9289377039358116e-18 8.604855828824131e-24
3.3482140837626964 7.890531886046822e-26 7.012759272402307e-18 7.012750611814054e-18 8.660588253558773e-24
3.3513546224236106 7.978484619387997e-26 7.097578918834469e-18 7.09757020221008e-18 8.716624385934002e-24
3.3576445397418455 8.621409882092505e-26 7.683913075506143e-18 7.683904241819382e-18 8.833686762195146e-24
3.3702598118196083 1.0992911273374093e-25 9.834347212229587e-18 9.834338132768441e-18 9.079461145031203e-24
3.382922481734668 1.1532842759551533e-25 1.0356138504250426e-17 1.0356129184307768e-17 9.319942658684762e-24
3.389271646505754 1.1812562938126333e-25 1.0627226747660965e-17 1.0627217305468936e-17 9.44219202807821e-24
3.395632727569191 1.2113954067734777e-25 1.0918829046350243e-17 1.0918819478131096e-17 9.568219144869223e-24
3.421196662673239 1.3561044242738958e-25 1.2315175510911115e-17 1.2315165418895643e-17 1.0092015474815e-23
3.4276182099114902 1.326917424690351e-25 1.2072737885423807e-17 1.2072727674726458e-17 1.0210697351885954e-23
3.4340518103208963 1.1990657153004972e-25 1.0929977342370773e-17 1.0929967018570801e-17 1.0323799969637979e-23
3.4469541582030403 1.0169855941756612e-25 9.305072083168354e-18 9.305061540506027e-18 1.0542662326872741e-23
3.472904465399547 9.659416684090964e-26 8.904574475857395e-18 8.904563430873518e-18 1.1044983881951288e-23
3.4990501388274233 8.878833941725923e-26 8.246611442265677e-18 8.246599878697819e-18 1.1563567858561979e-23
3.5253949054701885 6.101420278837756e-26 5.7096323811834356e-18 5.709620307029229e-18 1.2074154206979601e-23
3.5519380250092896 3.4912872449366244e-26 3.2917011130771963e-18 3.2916885199458933e-18 1.2593131302128645e-23
3.578680990867387 2.456411365708872e-26 2.3334232330377603e-18 2.333410069383323e-18 1.3163654436771497e-23
3.605625307711299 2.0378343808750638e-26 1.9503785477440565e-18 1.950364779102375e-18 1.37686416815008e-23
3.660119384959845 1.732490766633463e-26 1.6831995760974401e-18 1.6831845190577477e-18 1.5057039692078055e-23
3.715437065384467 1.5163520835039947e-26 1.4954758175560014e-18 1.4954593765469796e-18 1.6441009022688047e-23
3.8285932144167436 1.4068374558899782e-26 1.4297252291470463e-18 1.4297057209421819e-18 1.9508204863438392e-23
3.94519561050918 1.386188543615279e-26 1.4516445218746825e-18 1.4516215232488128e-18 2.2998625869732703e-23
4.06534921144712 1.4022304422669856e-26 1.513166373673221e-18 1.5131394217039205e-18 2.6951969300387846e-23
4.189162171576248 1.4397267627433692e-26 1.6009460020536641e-18 1.600914578560893e-18 3.142349277033061e-23
4.316745939156006 1.4930691876447898e-26 1.71082605310407e-18 1.7107895975194522e-18 3.6455584617698814e-23
4.448215356677963 1.5604607668890937e-26 1.842502527334826e-18 1.8424604758348875e-18 4.205149993847125e-23
4.58368876423945 1.6422740047820186e-26 1.998159594419191e-18 1.9981113088042615e-18 4.8285614929544383e-23
4.723288106065518 1.740493047293165e-26 2.1821578501151757e-18 2.1821025805602876e-18 5.526955488801558e-23
4.867139040275056 1.8589514822390792e-26 2.4016584304148753e-18 2.4015954745993224e-18 6.295581555384769e-23
4.940699165968905 1.9304063054009718e-26 2.5316669464252004e-18 2.5315998369257243e-18 6.710949947738745e-23
5.015371051989984 2.0046651837003288e-26 2.668789681105147e-18 2.668718203751254e-18 7.147735389339578e-23
5.091171501069577 2.094967336318952e-26 2.83116001479425e-18 2.831083872479774e-18 7.614231447559397e-23
5.129500256944802 2.1414264934699853e-26 2.9157323836106336e-18 2.915653820447937e-18 7.856316269628404e-23
5.168117569889187 2.1898916676686012e-26 3.0041696140229783e-18 3.0040885552492115e-18 8.105877376762707e-23
5.20702561229733 2.2490233884594582e-26 3.1085160837614646e-18 3.1084323417144214e-18 8.374204704429277e-23
5.246226572918644 2.3097316153789583e-26 3.2164588152105334e-18 3.216372317845553e-18 8.649736498036637e-23
5.265937586045735 2.340693040303202e-26 3.2718215173781313e-18 3.271733614827651e-18 8.79025504797155e-23
5.285722656980489 2.3720682076855795e-26 3.328135332156936e-18 3.3280460057925823e-18 8.932636435608543e-23
5.305582063971359 2.4038639425434646e-26 3.3854184179103245e-18 3.3853276488921792e-18 9.076901814700008e-23
5.3255160863122235 2.43796478294267e-26 3.4463434997092126e-18 3.4462512621210364e-18 9.223758817693433e-23
5.365609099470188 2.5223770564501744e-26 3.592514008766454e-18 3.592418721915339e-18 9.528685111490026e-23
5.406003951863644 2.6100466710399896e-26 3.745364286864736e-18 3.745265867313389e-18 9.84195513470585e-23
5.446702915881641 2.7011299852598885e-26 3.905247876577714e-18 3.905146238874155e-18 1.0163770355974172e-22
5.487708281020852 2.799469628878374e-26 4.077896605583659e-18 4.0777916534090995e-18 1.0495217455911688e-22
5.529022354014368 2.935122118386846e-26 4.30768515949797e-18 4.3075767247518884e-18 1.0843474608115755e-22
5.570647458961463 3.0787526819004563e-26 4.552499544462581e-18 4.5523875293073695e-18 1.1201515521167638e-22
5.612585937458331 3.230930293049073e-26 4.813489459089019e-18 4.8133737631589266e-18 1.156959300932189e-22
5.654840148729818 3.398042183737664e-26 5.100567881333287e-18 5.1004483897554756e-18 1.1949157781360251e-22
5.67608639626678 3.5112565640073707e-26 5.2903084526504715e-18 5.290186971509112e-18 1.2148114135997051e-22
5.686739436050992 3.569601865254107e-26 5.3883096137421985e-18 5.388187127056914e-18 1.2248668528465225e-22
5.6974124697621304 3.6291426541970354e-26 5.488467976619574e-18 5.488344477150013e-18 1.2349946956001465e-22
5.718818669136295 3.751925161842427e-26 5.6954746921166014e-18 5.6953491451582975e-18 1.2554695830406446e-22
5.740305295436557 3.887116961027414e-26 5.922867706166467e-18 5.9227400707159465e-18 1.2763545052213254e-22
5.7835210386641895 4.236786122210578e-26 6.504265995736464e-18 6.504134001518146e-18 1.319942183202049e-22
5.827062130521658 4.6391769561875215e-26 7.175629725621278e-18 7.175493213620543e-18 1.3651200073718462e-22
5.8489554468988025 4.920673305178236e-26 7.639629172992567e-18 7.639490230596635e-18 1.3894239593086136e-22
5.870931020387893 5.222637706598594e-26 8.138911211621578e-18 8.138769799333353e-18 1.414122882264709e-22
5.892989160043636 5.546713895846345e-26 8.676425467790994e-18 8.676281545456436e-18 1.4392233455675155e-22
5.915130176081913 5.915020772934847e-26 9.28731153716643e-18 9.287165010013242e-18 1.46527153187027e-22
5.95966208400165 6.943105580892695e-26 1.0983603282528365e-17 1.0983450939472754e-17 1.523430556111578e-22
6.004529249263818 8.423014469905998e-26 1.3425051009773668e-17 1.3424892136839326e-17 1.5887293433991693e-22
6.027089341400364 9.450863078493447e-26 1.5119886585182458e-17 1.511972398654236e-17 1.6259864009200548e-22
6.049734195844842 1.0665058790344604e-25 1.712651426208916e-17 1.7126347710034147e-17 1.6655205501996684e-22
6.095279466722835 1.4170282481542716e-25 2.292670081516398e-17 2.2926524733960358e-17 1.7608120362501184e-22
6.141167624020661 1.9561988749075676e-25 3.1888448493399696e-17 3.188826024335255e-17 1.8825004714819723e-22
6.164241091010745 2.3004765421201495e-25 3.764149452040935e-17 3.7641298759609676e-17 1.9576079967144796e-22
6.187401249150058 2.692588033036719e-25 4.422294135549701e-17 4.422273776874914e-17 2.0358674784226762e-22
6.1990139391386085 2.884065891588885e-25 4.7456666014129906e-17 4.7456458427426704e-17 2.075867031890609e-22
6.204828454712694 2.98492205622671e-25 4.916230164593446e-17 4.91620920266568e-17 2.0961927763952985e-22
6.210648424152782 3.058577941953618e-25 5.0422680619435535e-17 5.0422469230909453e-17 2.1138852606161834e-22
6.233982942956859 3.30888455060306e-25 5.475410157236035e-17 5.4753883819853614e-17 2.177525067441024e-22
6.239830258556775 3.3409304374808443e-25 5.533623945459797e-17 5.533602068422981e-17 2.1877036815737382e-22
6.245683058788269 3.3438002984649925e-25 5.543572186742341e-17 5.543550207461208e-17 2.197928113323451e-22
6.257405133728602 3.337135087656951e-25 5.5429057559949896e-17 5.5428835897072304e-17 2.216628775827992e-22
6.269149208991335 3.2881860468977954e-25 5.4718529989006346e-17 5.4718307262148904e-17 2.227268574536109e-22
6.280915325867298 3.165126835258776e-25 5.276956203819803e-17 5.2769339251466053e-17 2.227867320008583e-22
6.304513850009849 2.861549533355531e-25 4.788751534155447e-17 4.788729335131607e-17 2.2199023839722415e-22
6.32820103803542 2.4851764766887154e-25 4.1745237368796526e-17 4.1745017173014515e-17 2.2019578200999964e-22
6.3519772230701035 2.14004393403366e-25 3.60828684064219e-17 3.6082649710417256e-17 2.186960046396813e-22
6.375842739491607 1.8497115853262774e-25 3.1304808134726373e-17 3.130459061444863e-17 2.1752027773974956e-22
6.399797922933955 1.617144581181023e-25 2.7471637301032945e-17 2.7471419798738505e-17 2.175022944344772e-22
6.42384311029221 1.4238288169829682e-25 2.4278515981803784e-17 2.427829824788435e-17 2.177339194173614e-22
6.447978639727206 1.2830926876918196e-25 2.196094645796688e-17 2.196072755213016e-17 2.1890583671148043e-22
6.472204850670314 1.1659139895801787e-25 2.003033445725348e-17 2.0030114172889214e-17 2.2028436426163406e-22
6.496522083828205 1.0899311683460286e-25 1.8795307019357188e-17 1.8795084570156708e-17 2.224492004740808e-22
6.520930681187647 1.0259945691841965e-25 1.7759227823868898e-17 1.7759003063669943e-17 2.247601989534849e-22
