Dust emission spectrum from A.P. Jones, M. Kohler, N. Ysard, M. Bocchio, and L. Verstraete (2017), A&A, 602A, 46J 
inside the DustPedia framework.

lambda    nu*dP/dnu     j_nu    j_nu(carb.) j_nu(sil)
 (um)   (erg s-1 H-1) (Jy cm2 sr-1 H-1)
0.9927057738263894 1.5162356155333033e-24 3.9953669673939314e-17 3.9953666091383263e-17 3.582556058584784e-24
1.0001793341362166 1.5415168716755527e-24 4.0925650609441975e-17 4.092564629544342e-17 4.313998560844343e-24
1.0077091589558085 1.5668048309625855e-24 4.19101814225901e-17 4.191017623459195e-17 5.1879981511191545e-24
1.0114953028030835 1.5794487930625328e-24 4.240712727681444e-17 4.240712159029495e-17 5.6865194944846884e-24
1.0152956718711033 1.592091406140937e-24 4.2907179383166454e-17 4.2907173152264494e-17 6.230901961992403e-24
1.0229392996569957 1.617356273693416e-24 4.3916224280042695e-17 4.391621680630461e-17 7.473738088628942e-24
1.0267826658714554 1.6299485731892096e-24 4.4424429927973486e-17 4.4424421746472256e-17 8.181501226245308e-24
1.0306404723013447 1.6425349402935319e-24 4.493567218097974e-17 4.4935663227629134e-17 8.953350598373001e-24
1.03451277320114 1.6551144106205998e-24 4.544993959107141e-17 4.5449929796270395e-17 9.794801011071934e-24
1.0383996230291617 1.6676860281462015e-24 4.596722061055342e-17 4.596720989873827e-17 1.0711815142120319e-23
1.0403485208654093 1.6739685957068363e-24 4.622698759003573e-17 4.6226976389382974e-17 1.1200652731256872e-23
1.0423010764483396 1.6802488454902827e-24 4.648750360072418e-17 4.6487491889886607e-17 1.1710837576527156e-23
1.0462171883269815 1.6928019241974527e-24 4.701077684071426e-17 4.701076404188302e-17 1.2798831235594152e-23
1.0471985131304309 1.695938563109302e-24 4.714206099660842e-17 4.714204791100857e-17 1.3085599852310336e-23
1.048180758391296 1.69907452080379e-24 4.727353112135927e-17 4.727351774283982e-17 1.3378519456790884e-23
1.0501480137395462 1.705344335015422e-24 4.7537028536466936e-17 4.753701455315057e-17 1.398331635289632e-23
1.0521189612883777 1.7116112521591443e-24 4.780126760184163e-17 4.7801252987585765e-17 1.4614255871584685e-23
1.0531058218030118 1.714738988427006e-24 4.793353619440911e-17 4.793352125452456e-17 1.4939884559138235e-23
1.0540936079674168 1.71785088586122e-24 4.8065567689211925e-17 4.8065552416684514e-17 1.5272527422182985e-23
1.058054026499678 1.730289899522721e-24 4.859551062878605e-17 4.859549395336896e-17 1.6675417093244676e-23
1.0590464539527713 1.7333974390937283e-24 4.872844965127325e-17 4.872843260631517e-17 1.704495807481244e-23
1.06003981227728 1.736504065339177e-24 4.8861569607343777e-17 4.8861552185011746e-17 1.742233202647786e-23
1.0620293250338977 1.7427145226070914e-24 4.912835155642432e-17 4.9128333355210943e-17 1.8201213387841765e-23
1.0660195594769086 1.7551238718663265e-24 4.9664078250613356e-17 4.966405839049026e-17 1.986012310956107e-23
1.070024785945596 1.7675170748145392e-24 5.020267846923699e-17 5.020265680608629e-17 2.1663150697201213e-23
1.0740450607676866 1.779893269991993e-24 5.074413995948691e-17 5.074411633733055e-17 2.3622156348880587e-23
1.07808044048254 1.7922516072273285e-24 5.1288450467930046e-17 5.128842471801202e-17 2.574991804787997e-23
1.0861967418109137 1.8168904799852843e-24 5.2384967417482505e-17 5.238493684966686e-17 3.056781565560978e-23
1.0902777775684922 1.829121878439183e-24 5.293577037115564e-17 5.2935737082431635e-17 3.3288724018875276e-23
1.0943741465085532 1.8413313019980873e-24 5.348933441397001e-17 5.3489298173899e-17 3.624007101111817e-23
1.1026131145906286 1.8656810991478442e-24 5.460469662399551e-17 5.460465371472295e-17 4.290927256335976e-23
1.1109141095355224 1.889933752241527e-24 5.573095650731542e-17 5.573090576706424e-17 5.0740251150688376e-23
1.1192775983109025 1.914062016384481e-24 5.686738391266582e-17 5.686732398940288e-17 5.992326294366438e-23
1.1277040513999907 1.9379621467010437e-24 5.801093477752122e-17 5.801086409991012e-17 7.067761110193104e-23
1.1361939428280308 1.9617449945760492e-24 5.916494374261972e-17 5.916486048690233e-17 8.325571738475466e-23
1.1447477501889525 1.9854053989507002e-24 6.032932000552826e-17 6.032922205777633e-17 9.794775192708453e-23
1.1533659546722406 2.0089498657574524e-24 6.150432542888908e-17 6.150421034189782e-17 1.1508699124421932e-22
1.1707974979042381 2.0557663325539457e-24 6.388883486208163e-17 6.388867656989858e-17 1.5829218305080117e-22
1.1884924949847024 2.1020574486634585e-24 6.631479900851487e-17 6.631458237367483e-17 2.1663484003232375e-22
1.2064549276569216 2.1481707459952617e-24 6.879380525924742e-17 6.879351023125056e-17 2.950279968600673e-22
1.2246888378427687 2.193678341995759e-24 7.131290695916516e-17 7.131250712546198e-17 3.9983370318870446e-22
1.2431983285522175 2.2385036276171163e-24 7.386992415714043e-17 7.3869384895353e-17 5.392617874626116e-22
1.2619875648066055 2.2826652915524606e-24 7.646571326008183e-17 7.646498940768077e-17 7.238524010445509e-22
1.3004222497298317 2.3684692417055133e-24 8.175636495540838e-17 8.175507898759436e-17 1.2859678140202228e-21
1.3400274889804893 2.4510678310661398e-24 8.718433727307992e-17 8.718209430959591e-17 2.2429634840066943e-21
1.3808389325824078 2.5305281876690637e-24 9.275207533532419e-17 9.274823271130063e-17 3.84262402351555e-21
1.4228933163050095 2.607534225976835e-24 9.84853856883884e-17 9.847891633794786e-17 6.469350440545307e-21
1.466228494730424 2.6839317638809665e-24 1.044582049677215e-16 1.0444749626687999e-16 1.070870084148758e-20
1.5108834753276823 2.759252453609936e-24 1.1066029962146014e-16 1.1064286361602858e-16 1.7436005431591376e-20
1.5568984535646726 2.8333253405331698e-24 1.1709171477567666e-16 1.1706376070745513e-16 2.795406822156761e-20
1.6043148490894465 2.907042419427129e-24 1.2379708119487767e-16 1.2375287001675027e-16 4.421117812740788e-20
1.6531753430134553 2.9815057383022885e-24 1.308350189907042e-16 1.3076612137193587e-16 6.889761876833489e-20
1.7035239163302658 3.0582607569185694e-24 1.3829044692241788e-16 1.3818462766570345e-16 1.0581925671441202e-19
1.755405889504358 3.140923232995563e-24 1.463539021061808e-16 1.4619364003836204e-16 1.6026206781881235e-19
1.8088679632656115 3.2306456973573386e-24 1.551192270383782e-16 1.5487980943249462e-16 2.394176058836201e-19
1.8639582606462262 3.329016194559466e-24 1.6471059041294424e-16 1.643576404903684e-16 3.5294992257582157e-19
1.9207263702978936 3.438621009684032e-24 1.7531506796122763e-16 1.7480142022189737e-16 5.136477393302307e-19
1.979223391128241 3.562802640302716e-24 1.871785219209912e-16 1.864403111319451e-16 7.38210789046121e-19
2.039501978296691 3.7054205393949225e-24 2.0060006456804593e-16 1.9955193990769016e-16 1.0481246603557878e-18
2.1016163906111602 3.8722356527581156e-24 2.1601537294320153e-16 2.1454461137295602e-16 1.4707615702454134e-18
2.1656225393682647 4.0686143339340094e-24 2.338830349116148e-16 2.3184262309235315e-16 2.040411819261611e-18
2.231578038680979 4.2991764271670305e-24 2.546635446222053e-16 2.5186408145431573e-16 2.7994631678895374e-18
2.299542257339062 4.569802821746471e-24 2.789383896334547e-16 2.7513871927775204e-16 3.79967035570269e-18
2.369576372248914 4.8877568819975656e-24 3.07432473762262e-16 3.0232893017097694e-16 5.103543591284972e-18
2.4417434235010123 5.261106228407738e-24 3.4099383762115034e-16 3.342083148171941e-16 6.78552280395635e-18
2.5161083711144245 5.6998382049637014e-24 3.8068108960290237e-16 3.717476094707818e-16 8.93348013212061e-18
2.5927381535095444 6.216349066608445e-24 4.278223658836175e-16 4.1617251376184436e-16 1.16498521217731e-17
2.6717017477616296 6.824028205091308e-24 4.839474666847377e-16 4.688954678548193e-16 1.505199882991841e-17
2.753070231689431 7.53924425616398e-24 5.509529812016795e-16 5.31680034069462e-16 1.927294713221737e-17
2.836916847834745 8.389768113554775e-24 6.317801796213968e-16 6.073175880357455e-16 2.4462591585651348e-17
2.9233170693905177 9.426039372580124e-24 7.314330917893281e-16 7.006509188525115e-16 3.0782172936816665e-17
2.967498994190263 1.0052501751347534e-23 7.918340460077362e-16 7.574735743594093e-16 3.436047164832704e-17
3.0123486681368425 1.0737626345683414e-23 8.585843311664595e-16 8.20280661726121e-16 3.830366944033852e-17
3.0578761833420214 1.1720379343655251e-23 9.513295738102067e-16 9.086748869284122e-16 4.2654686881794546e-17
3.1040917844459814 1.2866146728278092e-23 1.0601137983757528e-15 1.0127052055346096e-15 4.7408592841142637e-17
3.127460860933648 1.379443593277991e-23 1.1451576084228159e-15 1.095196101405344e-15 4.996150701747189e-17
3.1510058709225794 1.494354579960558e-23 1.24989147048651e-15 1.1972633672342147e-15 5.262810325229548e-17
3.162844764501044 1.589769010808755e-23 1.3346928593025786e-15 1.2806826503319636e-15 5.4010208970615023e-17
3.1747281389236908 1.6980514826397745e-23 1.43095780473334e-15 1.375535888920233e-15 5.542191581310715e-17
3.1986289994194426 1.9879688994465208e-23 1.6878851381198614e-15 1.6295420592410474e-15 5.834307887881404e-17
3.2227097969389145 2.631858696178086e-23 2.2514027943208477e-15 2.1899585373781183e-15 6.144425694272992e-17
3.2348180950136065 3.2284716747114884e-23 2.7721471353420513e-15 2.70904641541856e-15 6.310071992349107e-17
3.240889293275058 3.6709428706995775e-23 3.1579936683491614e-15 3.094019173850203e-15 6.397449449895788e-17
3.2469718861334385 4.1819648211274625e-23 3.60436145374796e-15 3.53948282231506e-15 6.487863143290004e-17
3.2714166318528037 6.886243954754625e-23 5.979814259588683e-15 5.9111944965740154e-15 6.861976301466742e-17
3.2744851364798273 7.057376831681095e-23 6.134169381148535e-15 6.065107391485192e-15 6.906198966334489e-17
3.2775565192852394 7.23324479175987e-23 6.2929283298102085e-15 6.223421776695348e-15 6.95065531148593e-17
3.283707930232385 7.076271028402773e-23 6.167915472190376e-15 6.097611185502969e-15 7.030428668740871e-17
3.2898708863219004 6.560249383102479e-23 5.7288656317990095e-15 5.657832860770426e-15 7.103277102858446e-17
3.29141343181113 6.438581594465953e-23 5.625253181009989e-15 5.554037417049545e-15 7.121576396044367e-17
3.292184975758714 6.378802084510067e-23 5.5743314608776335e-15 5.503024069446068e-15 7.13073914315652e-17
3.295272960557952 6.000553179670243e-23 5.2487044272225614e-15 5.177040150882647e-15 7.166427633991352e-17
3.3076538914384823 4.689212031566404e-23 4.117080540046507e-15 4.043981544637209e-15 7.309899540929884e-17
3.310756385682612 4.4221852207140235e-23 3.886275522565805e-15 3.812814625297918e-15 7.34608972678867e-17
3.313861789986515 4.1757754794387416e-23 3.6731694558152126e-15 3.599345363903803e-15 7.382409191140878e-17
3.3200813396944477 3.833183211430282e-23 3.378140700958261e-15 3.3035365624947796e-15 7.46041384634828e-17
3.345076488085796 3.245358745689659e-23 2.8816298682881855e-15 2.803552415068698e-15 7.807745321948749e-17
3.3482140837626964 3.273727918782656e-23 2.9095460419294158e-15 2.8309981815232194e-15 7.854786040619601e-17
3.3513546224236106 3.302367415367997e-23 2.9377525266646034e-15 2.8587319969385088e-15 7.902052972609442e-17
3.3576445397418455 3.4859278676310736e-23 3.1068661725500195e-15 3.026857839469117e-15 8.000833308090291e-17
3.3702598118196083 4.1447039664540945e-23 3.707885644155115e-15 3.625805046900992e-15 8.208059725412373e-17
3.382922481734668 4.311284053140814e-23 3.871400635243606e-15 3.7873008187650285e-15 8.409981647857765e-17
3.389271646505754 4.397263437225618e-23 3.95601833923502e-15 3.8708940546735324e-15 8.512428456148702e-17
3.395632727569191 4.4899634711079443e-23 4.046997643483086e-15 3.960817541540064e-15 8.618010194302212e-17
3.421196662673239 4.93012366341702e-23 4.4771875320726675e-15 4.386631169733303e-15 9.055636233936443e-17
3.4276182099114902 4.861095308730687e-23 4.422786859707116e-15 4.331248383961068e-15 9.153847574604798e-17
3.4340518103208963 4.523857846767861e-23 4.1236825583731585e-15 4.031212515023472e-15 9.247004334968609e-17
3.4469541582030403 4.0473317323997187e-23 3.7031707951576945e-15 3.60890729766845e-15 9.426349748924247e-17
3.472904465399547 3.9468245463854647e-23 3.638397044649171e-15 3.5400098625974513e-15 9.838718205171982e-17
3.4990501388274233 3.7744434514386204e-23 3.5056820252646757e-15 3.4030624128919263e-15 1.0261961237274954e-16
3.5253949054701885 3.063201382925015e-23 2.8665053392070427e-15 2.7597539642755453e-15 1.0675137493149808e-16
3.5519380250092896 2.3940578660644473e-23 2.257196956201354e-15 2.146276492975607e-15 1.1092046322574725e-16
3.578680990867387 2.1552696691107122e-23 2.0473591636852023e-15 1.93186642860153e-15 1.154927350836725e-16
3.605625307711299 2.0857017906431904e-23 1.9961916766342168e-15 1.8758732962485866e-15 1.2031838038562974e-16
3.660119384959845 2.0940913540257485e-23 2.0345122451963857e-15 1.9040104764987106e-15 1.305017686976744e-16
3.715437065384467 2.1296051742336803e-23 2.100285991396678e-15 1.9589828176370863e-15 1.4130317375959129e-16
3.8285932144167436 2.2999345490185025e-23 2.337352077421406e-15 2.1726011117560312e-15 1.6475096566537493e-16
3.94519561050918 2.5091203002048555e-23 2.6276012417599594e-15 2.436926019295951e-15 1.906752224640085e-16
4.06534921144712 2.743041901982858e-23 2.9600546690076828e-15 2.740916932409593e-15 2.191377365980885e-16
4.189162171576248 2.99756288721187e-23 3.33322714029571e-15 3.0829421905806682e-15 2.502849497150422e-16
4.316745939156006 3.270892621351048e-23 3.747936371482168e-15 3.463824864534222e-15 2.8411150694794485e-16
4.448215356677963 3.561918218524609e-23 4.205708633658967e-15 3.8854296518049435e-15 3.2027898185402363e-16
4.58368876423945 3.8704960695836366e-23 4.70924391062674e-15 4.35030585798197e-15 3.5893805264476976e-16
4.723288106065518 4.1969733024616123e-23 5.261990705986307e-15 4.8615558184876196e-15 4.004348874986878e-16
4.867139040275056 4.541197518565487e-23 5.86696608752011e-15 5.423072186674745e-15 4.4389390084536537e-16
4.940699165968905 4.721357360704117e-23 6.191911173784296e-15 5.725394728387279e-15 4.665164453970161e-16
5.015371051989984 4.9049836594490485e-23 6.529953172611105e-15 6.040263514429163e-15 4.896896581819427e-16
5.091171501069577 5.096576876435593e-23 6.887565459728306e-15 6.3736844115433194e-15 5.138810481849867e-16
5.129500256944802 5.193646295347384e-23 7.071586504856144e-15 6.545410905097053e-15 5.261755997590899e-16
5.168117569889187 5.291989411822042e-23 7.25973527523964e-15 6.721030994433646e-15 5.387042808059947e-16
5.20702561229733 5.394996986348587e-23 7.456763228859381e-15 6.904479712652771e-15 5.522835162066105e-16
5.246226572918644 5.499014249908988e-23 7.65775241647984e-15 7.091715085451072e-15 5.660373310287661e-16
5.265937586045735 5.551400293014555e-23 7.759749192876445e-15 7.186770215928548e-15 5.729789769478946e-16
5.285722656980489 5.604037334638587e-23 7.862756473741955e-15 7.282793093480186e-15 5.79963380261769e-16
5.305582063971359 5.65692494676014e-23 7.96678113289346e-15 7.379790901062702e-15 5.869902318307575e-16
5.3255160863122235 5.710718362450333e-23 8.072756934308663e-15 7.478650451288335e-15 5.941064830203284e-16
5.365609099470188 5.824200713019489e-23 8.295160550198016e-15 7.686327722791832e-15 6.08832827406184e-16
5.406003951863644 5.939080721620208e-23 8.522460949979833e-15 7.898713168862019e-15 6.237477811178141e-16
5.446702915881641 6.055379256862496e-23 8.75476452957881e-15 8.115915426457427e-15 6.388491031213828e-16
5.487708281020852 6.174384716572774e-23 8.994025946038811e-15 8.339836047982348e-15 6.541898980564639e-16
5.529022354014368 6.306248359227734e-23 9.255264814700078e-15 8.585063317717322e-15 6.702014969827555e-16
5.570647458961463 6.440687377109955e-23 9.523735544817947e-15 8.837316095313432e-15 6.864194495045163e-16
5.612585937458331 6.577823218448173e-23 9.799741824782965e-15 9.096900129480391e-15 7.028416953025721e-16
5.654840148729818 6.719747346934688e-23 1.008655150088499e-14 9.367015599758933e-15 7.19535901126055e-16
5.67608639626678 6.800554074312118e-23 1.0246197635008388e-14 9.517934883337381e-15 7.282627516710068e-16
5.686739436050992 6.841451826380114e-23 1.0327163095376152e-14 9.594515225718993e-15 7.326478696571612e-16
5.6974124697621304 6.882687843823295e-23 1.0408907949707193e-14 9.671860536179458e-15 7.370474135277311e-16
5.718818669136295 6.966201724485318e-23 1.0574791316600214e-14 9.828901647630176e-15 7.45889668970038e-16
5.740305295436557 7.053628799790417e-23 1.0747736857015495e-14 9.992888814468398e-15 7.548480425471008e-16
5.7835210386641895 7.253870206774571e-23 1.113605925870824e-14 1.0362662082820342e-14 7.733971758878961e-16
5.827062130521658 7.469366254046025e-23 1.1553214509871058e-14 1.0760871664290476e-14 7.923428455805815e-16
5.8489554468988025 7.603120548136461e-23 1.1804283264283606e-14 1.100174595929928e-14 8.025373049843266e-16
5.870931020387893 7.7423154815127e-23 1.2065554192430256e-14 1.1252742686183375e-14 8.128115062468784e-16
5.892989160043636 7.887358652480294e-23 1.2337769852746238e-14 1.1514604426826625e-14 8.231654259196135e-16
5.915130176081913 8.0457061430404e-23 1.2632750138227276e-14 1.1798860731071193e-14 8.338894071560838e-16
5.95966208400165 8.453529703875703e-23 1.3373009458470918e-14 1.2514903499596625e-14 8.581059588742933e-16
6.004529249263818 8.9978529692514e-23 1.4341259358182202e-14 1.345601323602442e-14 8.852461221577808e-16
6.027089341400364 9.358222056080532e-23 1.4971675597425574e-14 1.4070858517715328e-14 9.008170797102404e-16
6.049734195844842 9.772257655315217e-23 1.5692807081203e-14 1.4775515679582065e-14 9.1729140162093e-16
6.095279466722835 1.0925951911182967e-22 1.767756083302085e-14 1.6720161196176867e-14 9.573996368439819e-16
6.141167624020661 1.263742600017155e-22 2.060055924092392e-14 1.9591579642268626e-14 1.0089795986552998e-15
6.164241091010745 1.3720203270484199e-22 2.24496510513803e-14 2.1408530249184048e-14 1.041120802196256e-15
6.187401249150058 1.4929766958394254e-22 2.452058022064686e-14 2.3446388436906265e-14 1.0741917837405975e-15
6.1990139391386085 1.5520395811005015e-22 2.5538467847008482e-14 2.444743440006894e-14 1.0910334469395333e-15
6.204828454712694 1.5829396739478335e-22 2.607135337942972e-14 2.4971806325841575e-14 1.0995470535881475e-15
6.210648424152782 1.6058062109855219e-22 2.6472777627341144e-14 2.5365921774572257e-14 1.1068558527688962e-15
6.233982942956859 1.6836413743967798e-22 2.7860225829985008e-14 2.6727651646146432e-14 1.1325741838385743e-15
6.239830258556775 1.6938331050717362e-22 2.8055164886656587e-14 2.691884510190402e-14 1.1363197847525637e-15
6.245683058788269 1.6954037075720154e-22 2.8107518391306432e-14 2.6967444373599804e-14 1.1400740177066256e-15
6.257405133728602 1.694826920381385e-22 2.8150691073741e-14 2.7003941577749284e-14 1.1467494959917114e-15
6.269149208991335 1.6816582318619297e-22 2.7984385639678044e-14 2.6834681350379476e-14 1.1497042892985689e-15
6.280915325867298 1.646466437750411e-22 2.745018362702606e-14 2.6302133893816523e-14 1.1480497332095372e-15
6.304513850009849 1.558937350963829e-22 2.6088535403845262e-14 2.494797500326703e-14 1.1405604005782276e-15
6.32820103803542 1.4507205756259833e-22 2.4368762280413868e-14 2.3240139094555018e-14 1.1286231858588597e-15
6.3519772230701035 1.3521932382342078e-22 2.279906963559142e-14 2.168097416332661e-14 1.1180954722648127e-15
6.375842739491607 1.2691464158771408e-22 2.147923241606412e-14 2.0370227399150033e-14 1.10900501691409e-15
6.399797922933955 1.2048574021329714e-22 2.0467808466877365e-14 1.9362580212201386e-14 1.1052282546759804e-15
6.42384311029221 1.1515647265984443e-22 1.9635985931261193e-14 1.8533478003704165e-14 1.102507927557028e-15
6.447978639727206 1.1146016399339577e-22 1.9077115138568155e-14 1.797316124802587e-14 1.103953890542284e-15
6.472204850670314 1.084311826369269e-22 1.8628414044463457e-14 1.7522176368382465e-14 1.1062376760809913e-15
6.496522083828205 1.0667242388580662e-22 1.8395115358295936e-14 1.728319728681146e-14 1.1119180714844819e-15
6.520930681187647 1.0525815316942209e-22 1.821942901648887e-14 1.7101292907823798e-14 1.1181361086650734e-15
6.57002334288761 1.0432495611484467e-22 1.8193847758678138e-14 1.7058495852664567e-14 1.1353519060135725e-15
