Dust emission spectrum from A.P. Jones, M. Kohler, N. Ysard, M. Bocchio, and L. Verstraete (2017), A&A, 602A, 46J 
inside the DustPedia framework.

lambda    nu*dP/dnu     j_nu    j_nu(carb.) j_nu(sil)
 (um)   (erg s-1 H-1) (Jy cm2 sr-1 H-1)
0.9927057738263894 1.1834746081813438e-22 3.1185228125736235e-15 3.1185228125703647e-15 3.259741945025519e-27
1.0001793341362166 1.2030268266444563e-22 3.193909614983396e-15 3.1939096149794675e-15 3.927538613526342e-27
1.0077091589558085 1.2225511630258231e-22 3.270180179961055e-15 3.270180179956328e-15 4.7261189103775615e-27
1.0114953028030835 1.2323004708685877e-22 3.3086430621200628e-15 3.308643062114881e-15 5.1818951784927595e-27
1.0152956718711033 1.242039930317401e-22 3.3473222633843345e-15 3.3473222633786543e-15 5.679806529425687e-27
1.0229392996569957 1.261475943098061e-22 3.4252972793967245e-15 3.425297279389907e-15 6.817277182346227e-27
1.0267826658714554 1.2711489251272374e-22 3.4645305552090294e-15 3.4645305552015636e-15 7.465443058027673e-27
1.0306404723013447 1.2808077819953302e-22 3.5039716481345997e-15 3.5039716481264263e-15 8.172607767990103e-27
1.03451277320114 1.2904515815914558e-22 3.543618861160331e-15 3.5436188611513874e-15 8.943881925545935e-27
1.0383996230291617 1.3000793969742204e-22 3.583470476057148e-15 3.5834704760473625e-15 9.784794571995671e-27
1.0403485208654093 1.304887022373757e-22 3.603472391559392e-15 3.60347239154916e-15 1.0233215425347706e-26
1.0423010764483396 1.3096903065494538e-22 3.623524753786441e-15 3.623524753775739e-15 1.0701325293410456e-26
1.0462171883269815 1.3192833942440371e-22 3.663779934907035e-15 3.6637799348953345e-15 1.1699938624328674e-26
1.0471985131304309 1.3216787746859853e-22 3.673874913247891e-15 3.673874913235928e-15 1.1963224057422716e-26
1.048180758391296 1.324072970164785e-22 3.6839823089351056e-15 3.683982308922874e-15 1.223218805200134e-26
1.0501480137395462 1.3288577496757787e-22 3.7042342399824745e-15 3.704234239969688e-15 1.2787620887274514e-26
1.0521189612883777 1.33363761989568e-22 3.724535502562191e-15 3.7245355025488226e-15 1.3367198418801761e-26
1.0531058218030118 1.336022008966847e-22 3.7346943036552785e-15 3.734694303641613e-15 1.3666371304988266e-26
1.0540936079674168 1.338393104859489e-22 3.744831690915188e-15 3.744831690901217e-15 1.397202306572525e-26
1.058054026499678 1.3478640168759359e-22 3.785500925383674e-15 3.785500925368412e-15 1.526146672834862e-26
1.0590464539527713 1.3502283077245746e-22 3.795698010554356e-15 3.795698010538756e-15 1.5601224624452393e-26
1.06003981227728 1.3525911960925386e-22 3.80590694817908e-15 3.805906948163133e-15 1.5948225774840308e-26
1.0620293250338977 1.3573127103534712e-22 3.826360263899778e-15 3.826360263883113e-15 1.6664548791322913e-26
1.0660195594769086 1.3667383051912864e-22 3.8674078351491096e-15 3.867407835130918e-15 1.819077531747488e-26
1.070024785945596 1.3761399279395415e-22 3.9086417503648024e-15 3.908641750344952e-15 1.985040186595905e-26
1.0740450607676866 1.3855167119429966e-22 3.950060103736433e-15 3.9500601037147785e-15 2.1654488706925324e-26
1.07808044048254 1.3948677974807e-22 3.991660972818165e-15 3.991660972794549e-15 2.3614959793661445e-26
1.0861967418109137 1.413472944324213e-22 4.075354841119355e-15 4.075354841091298e-15 2.805745481167896e-26
1.0902777775684922 1.4226877429443856e-22 4.1173348019119315e-15 4.117334801881364e-15 3.0568243175576053e-26
1.0943741465085532 1.4318728191425806e-22 4.159486344379272e-15 4.159486344345978e-15 3.329307494585211e-26
1.1026131145906286 1.4501505388109082e-22 4.244296105430948e-15 4.2442961053914934e-15 3.945528189962443e-26
1.1109141095355224 1.4682996513095842e-22 4.329767850845983e-15 4.329767850799285e-15 4.669856718217129e-26
1.1192775983109025 1.4862969824254047e-22 4.41583503482701e-15 4.415835034771809e-15 5.520149892973085e-26
1.1277040513999907 1.5040589362440797e-22 4.502248147649864e-15 4.502248147584694e-15 6.517019886591669e-26
1.1361939428280308 1.5216713080287146e-22 4.589260968331598e-15 4.589260968254756e-15 7.684224017981875e-26
1.1447477501889525 1.5391282232838887e-22 4.676856382132743e-15 4.676856382042252e-15 9.049111750128519e-26
1.1533659546722406 1.5564334576989403e-22 4.7650462324819515e-15 4.765046232375519e-15 1.064314068308258e-25
1.1707974979042381 1.5906447689775552e-22 4.943384827359716e-15 4.9433848272130296e-15 1.466851693447067e-25
1.1884924949847024 1.6241756470339276e-22 5.123879066961858e-15 5.123879066760689e-15 2.0116950901339048e-25
1.2064549276569216 1.6572882751056693e-22 5.307360556352394e-15 5.3073605560778406e-15 2.7455354597714832e-25
1.2246888378427687 1.6896209985479837e-22 5.492682439308007e-15 5.492682438935106e-15 3.729021055282065e-25
1.2431983285522175 1.7210981552224833e-22 5.679570433781995e-15 5.679570433277928e-15 5.040662570303851e-25
1.2619875648066055 1.7517079477425984e-22 5.867947357117538e-15 5.86794735643938e-15 6.781574184986399e-25
1.3004222497298317 1.809816545169746e-22 6.247242706968257e-15 6.24724270575779e-15 1.2104686654837393e-24
1.3400274889804893 1.8637191815346185e-22 6.629238067007948e-15 6.629238064886353e-15 2.1215956924996076e-24
1.3808389325824078 1.9132157465228412e-22 7.012556979958927e-15 7.012556976305864e-15 3.653062003950759e-24
1.4228933163050095 1.9585468273269874e-22 7.39734258352095e-15 7.397342577338663e-15 6.182286841412282e-24
1.466228494730424 2.000802933124593e-22 7.787093759273991e-15 7.787093748985423e-15 1.0288568427517201e-23
1.5108834753276823 2.039162433392011e-22 8.178096410162166e-15 8.178096393317373e-15 1.6844791684396177e-23
1.5568984535646726 2.0729604416948067e-22 8.566841559201713e-15 8.566841532041645e-15 2.7160066068108826e-23
1.6043148490894465 2.1022583888498164e-22 8.95251650673676e-15 8.952516463531103e-15 4.320565947137836e-23
1.6531753430134553 2.1271450365661094e-22 9.334379527761027e-15 9.33437946002717e-15 6.773385655193455e-23
1.7035239163302658 2.1479157229781694e-22 9.712586626577453e-15 9.712586521904689e-15 1.0467276259565324e-22
1.755405889504358 2.1662783000784174e-22 1.0093951960807711e-14 1.0093951801277036e-14 1.595306750668896e-22
1.8088679632656115 2.18181076765017e-22 1.0475949129882888e-14 1.0475948890002665e-14 2.39880221656647e-22
1.8639582606462262 2.1942272203911983e-22 1.0856434449355818e-14 1.0856434093347566e-14 3.560082515142896e-22
1.9207263702978936 2.203734607775846e-22 1.1235547082469329e-14 1.1235546560783582e-14 5.216857435591097e-22
1.979223391128241 2.2108149559889705e-22 1.161493120673326e-14 1.1614930451618611e-14 7.551146496223672e-22
2.039501978296691 2.2160452320460224e-22 1.1996986898192492e-14 1.1996985818172243e-14 1.0800202458198488e-21
2.1016163906111602 2.221041810717181e-22 1.2390237012635795e-14 1.239023548559455e-14 1.5270412436453534e-21
2.1656225393682647 2.226742042634971e-22 1.2800357668533017e-14 1.2800355533398795e-14 2.1351342260432513e-21
2.231578038680979 2.23321328817417e-22 1.3228533918032407e-14 1.32285309648046e-14 2.9532278094623305e-21
2.299542257339062 2.2410172834356066e-22 1.3679053048143705e-14 1.367904900605099e-14 4.042092709900956e-21
2.369576372248914 2.2513959558964806e-22 1.4160938132764356e-14 1.4160932656279857e-14 5.476484495377278e-21
2.4417434235010123 2.265816321718765e-22 1.468568337806316e-14 1.4685676030834876e-14 7.347228282258697e-21
2.5161083711144245 2.2867906643028566e-22 1.5273029347086534e-14 1.52730195832281e-14 9.763858431694802e-21
2.5927381535095444 2.3184301025117736e-22 1.5955929130819208e-14 1.595591627371028e-14 1.285710892780068e-20
2.6717017477616296 2.3656445485219415e-22 1.6776713869377026e-14 1.6776697088592352e-14 1.678078467125423e-20
2.753070231689431 2.435826509533329e-22 1.7800535856365808e-14 1.7800514141982136e-14 2.1714383671814598e-20
2.836916847834745 2.545716340291713e-22 1.9170173775555847e-14 1.9170145909002548e-14 2.7866553299943446e-20
2.9233170693905177 2.7321718934451153e-22 2.1200854954369393e-14 2.1200819482159035e-14 3.547221035972919e-20
2.967498994190263 2.8904878211960993e-22 2.276832894942777e-14 2.276828910608413e-14 3.9843343637394167e-20
3.0123486681368425 3.0753916636380127e-22 2.459093853327311e-14 2.459089383766778e-14 4.469560532942694e-20
3.0578761833420214 3.4889625493541106e-22 2.8319503642291405e-14 2.8319453554353798e-14 5.0087937611824023e-20
3.1040917844459814 4.0218824216840703e-22 3.3138538994749874e-14 3.313848296297204e-14 5.603177783513651e-20
3.127460860933648 4.585528023864152e-22 3.806717672801456e-14 3.806711748308663e-14 5.924492794164936e-20
3.1510058709225794 5.336476386195498e-22 4.4634763442385095e-14 4.463470082541197e-14 6.261697312935105e-20
3.162844764501044 6.035435129797563e-22 5.0670582428995336e-14 5.067051805766014e-14 6.43713351930489e-20
3.1747281389236908 6.8482571494110275e-22 5.77106590521996e-14 5.771059288457597e-14 6.61676236107604e-20
3.1986289994194426 9.115396111946221e-22 7.739427729333798e-14 7.73942073946927e-14 6.989864526816126e-20
3.2227097969389145 1.4459365715440252e-21 1.2369150525870967e-13 1.2369143137703444e-13 7.388167524948468e-20
3.2348180950136065 1.952703877841978e-21 1.676701240259356e-13 1.676700480081722e-13 7.601776334389698e-20
3.240889293275058 2.331575783893792e-21 2.0057793929682242e-13 2.0057786214982855e-13 7.714699382147439e-20
3.2469718861334385 2.7698714696756006e-21 2.3873031898062094e-13 2.38730240663405e-13 7.83172159986974e-20
3.2714166318528037 5.1078103937443445e-21 4.4354742045841543e-13 4.4354733727806436e-13 8.318035104670803e-20
3.2744851364798273 5.2539640936799215e-21 4.566669237276394e-13 4.566668399701228e-13 8.375751656507851e-20
3.2775565192852394 5.40431567818088e-21 4.701758645470568e-13 4.701757802088817e-13 8.433817511593151e-20
3.283707930232385 5.2597345978113505e-21 4.584561314178246e-13 4.584560460368276e-13 8.538099676362288e-20
3.2898708863219004 4.801208588178461e-21 4.1927489742632167e-13 4.1927481109203645e-13 8.633428519467654e-20
3.29141343181113 4.693076831278136e-21 4.1002424193183397e-13 4.1002415535790917e-13 8.657392478416727e-20
3.292184975758714 4.639944734225308e-21 4.054772285776634e-13 4.0547714188372057e-13 8.669394274553938e-20
3.295272960557952 4.304567727201079e-21 3.7652201406339796e-13 3.7652192690210565e-13 8.716129238402747e-20
3.3076538914384823 3.142721058502757e-21 2.7592771718693037e-13 2.759276281441531e-13 8.904277725169089e-20
3.310756385682612 2.906256327788554e-21 2.5540569345856086e-13 2.55405603940468e-13 8.951809280591922e-20
3.313861789986515 2.6880811024216688e-21 2.3645374251530587e-13 2.36453652519909e-13 8.999539687491526e-20
3.3200813396944477 2.3821170015967814e-21 2.099332579132346e-13 2.0993316689183241e-13 9.102140216644608e-20
3.345076488085796 1.8363243615705618e-21 1.6305153121192043e-13 1.630514356074594e-13 9.56044609950011e-20
3.3482140837626964 1.8567961406120398e-21 1.6502391144333351e-13 1.6502381521605276e-13 9.622728079595297e-20
3.3513546224236106 1.877494260873247e-21 1.6701998339164345e-13 1.6701988653809622e-13 9.685354722871382e-20
3.3576445397418455 2.028739102443484e-21 1.808132907407084e-13 1.808131925763078e-13 9.816440064805822e-20
3.3702598118196083 2.586580803388722e-21 2.3139760778952295e-13 2.3139750686772e-13 1.0092180289601724e-19
3.382922481734668 2.7136492756821636e-21 2.436773685104517e-13 2.4367726489695455e-13 1.0361349711497123e-19
3.389271646505754 2.7794795720762798e-21 2.500571620880738e-13 2.500570571058142e-13 1.0498225954932646e-19
3.395632727569191 2.850414480108787e-21 2.5692014552411926e-13 2.5692003912996106e-13 1.0639415811146291e-19
3.421196662673239 3.191011856260198e-21 2.8978499268803743e-13 2.8978488042134995e-13 1.122666875054274e-19
3.4276182099114902 3.122393131606055e-21 2.840857550870145e-13 2.840856414936702e-13 1.1359334426376886e-19
3.4340518103208963 2.821670469930628e-21 2.572068729047887e-13 2.5720675805003157e-13 1.1485475703904043e-19
3.4469541582030403 2.3933930175240278e-21 2.1898731583769263e-13 2.189871985464469e-13 1.172912456501411e-19
3.472904465399547 2.273407577471005e-21 2.095750473308651e-13 2.09574924417789e-13 1.229130760205666e-19
3.4990501388274233 2.089873337295556e-21 1.9410626991495875e-13 1.9410614119693828e-13 1.2871802041270524e-19
3.5253949054701885 1.436580526625912e-21 1.3443339940783928e-13 1.3443326499004213e-13 1.3441779715950122e-19
3.5519380250092896 8.225680288801444e-22 7.75544349773385e-14 7.755429477004978e-14 1.4020728870895868e-19
3.578680990867387 5.7914854926369525e-22 5.501516151151797e-14 5.5015014917321606e-14 1.4659419636859433e-19
3.605625307711299 4.807333066499862e-22 4.6010212472398256e-14 4.6010059092686694e-14 1.5337971153546999e-19
3.660119384959845 4.0904378462725363e-22 3.9740605730775e-14 3.9740437876719967e-14 1.678540550374029e-19
3.715437065384467 3.5834983598722775e-22 3.534162809376631e-14 3.5341444666837795e-14 1.8342692853541721e-19
3.8285932144167436 3.3300250286397034e-22 3.3842010512333384e-14 3.3841792465011854e-14 2.18047321528277e-19
3.94519561050918 3.287070935360829e-22 3.4422867930254335e-14 3.442261030840241e-14 2.576218519272065e-19
4.06534921144712 3.3323066933481675e-22 3.5959385013697966e-14 3.595908233199327e-14 3.026817046963376e-19
4.189162171576248 3.430411259460194e-22 3.8145454633127505e-14 3.814510067560107e-14 3.539575264367126e-19
4.316745939156006 3.5688317572570943e-22 4.0893284785361126e-14 4.089287271315542e-14 4.120722057225076e-19
4.448215356677963 3.7441148327592837e-22 4.420835940491857e-14 4.4207882146617364e-14 4.772583012039874e-19
4.58368876423945 3.9580622825045317e-22 4.8157859785066144e-14 4.8157309197277734e-14 5.505877884148758e-19
4.723288106065518 4.2164349240736134e-22 5.2863908783642696e-14 5.286327517264957e-14 6.336109931083381e-19
4.867139040275056 4.529538038813028e-22 5.851902710068203e-14 5.851830089757144e-14 7.262031105886788e-19
4.940699165968905 4.71800416938319e-22 6.187513569192724e-14 6.187435892350017e-14 7.767684270681693e-19
5.015371051989984 4.915392098964915e-22 6.543809818699544e-14 6.543726784289067e-14 8.303441047741891e-19
5.091171501069577 5.153173491909817e-22 6.964050697433659e-14 6.963961901353288e-14 8.87960803689716e-19
5.129500256944802 5.276166317959661e-22 7.183944460153979e-14 7.183852655530618e-14 9.18046233587754e-19
5.168117569889187 5.404611531972995e-22 7.414234219739728e-14 7.414139301944732e-14 9.491779499648025e-19
5.20702561229733 5.559001144573863e-22 7.683443647686078e-14 7.683345382700748e-14 9.826498533090493e-19
5.246226572918644 5.717892080289124e-22 7.962554724372586e-14 7.962453007880708e-14 1.017164918788204e-18
5.265937586045735 5.7990735717042885e-22 8.105946984959294e-14 8.105843502590978e-14 1.0348236831646504e-18
5.285722656980489 5.881438767963757e-22 8.251965143395373e-14 8.251859867851225e-14 1.0527554414954393e-18
5.305582063971359 5.965007911431829e-22 8.400661655158124e-14 8.400554558716229e-14 1.070964418943783e-18
5.3255160863122235 6.05424073722151e-22 8.558365303871871e-14 8.558256349866402e-14 1.0895400547005727e-18
5.365609099470188 6.271692838128459e-22 8.932504488986096e-14 8.932391666214925e-14 1.1282277117095745e-18
5.406003951863644 6.497756015446785e-22 9.32414871927094e-14 9.324031903462904e-14 1.1681580803753256e-18
5.446702915881641 6.732835315538832e-22 9.734218998285513e-14 9.734098061111189e-14 1.2093717432361857e-18
5.487708281020852 6.986059702700344e-22 1.0176366571071036e-13 1.0176241367775777e-13 1.2520329525977937e-18
5.529022354014368 7.32859030119882e-22 1.0755688658659797e-13 1.0755558942558563e-13 1.2971610123636414e-18
5.570647458961463 7.691045922891196e-22 1.137261958917395e-13 1.1372485208832698e-13 1.3438034125084144e-18
5.612585937458331 8.074809901901796e-22 1.2029975524563748e-13 1.2029836323242092e-13 1.3920132165503009e-18
5.654840148729818 8.49504517417012e-22 1.2751329213396422e-13 1.275118501072133e-13 1.4420267509392721e-18
5.67608639626678 8.775822796024321e-22 1.3222277743151753e-13 1.3222130897112853e-13 1.4684603889977141e-18
5.686739436050992 8.920433469580409e-22 1.346538332208826e-13 1.3465235136943737e-13 1.4818514451949209e-18
5.6974124697621304 9.067946353826713e-22 1.3713743966257455e-13 1.371359443024607e-13 1.4953601138687606e-18
5.718818669136295 9.37195164543366e-22 1.4226753229293142e-13 1.4226600955821046e-13 1.522734720899586e-18
5.740305295436557 9.705648746400654e-22 1.4788665765348473e-13 1.4788510685879753e-13 1.550794687193983e-18
5.7835210386641895 1.056177065321787e-21 1.6214310501623647e-13 1.6214149497381786e-13 1.6100424185992474e-18
5.827062130521658 1.1543936143091236e-21 1.7855540351518125e-13 1.785537315041907e-13 1.6720109905226556e-18
5.8489554468988025 1.222583217362989e-21 1.8981309740576424e-13 1.8981139144970119e-13 1.705956063113824e-18
5.870931020387893 1.295644394823922e-21 2.019120468184825e-13 2.019103061960971e-13 1.740622385301128e-18
5.892989160043636 1.3739655093894066e-21 2.1492201619520692e-13 2.1492024016752327e-13 1.776027683681486e-18
5.915130176081913 1.4627947228553937e-21 2.296767978946658e-13 2.2967498483558286e-13 1.8130590829323064e-18
5.95966208400165 1.7096222715778608e-21 2.704526465168901e-13 2.7045074907622293e-13 1.897440667132289e-18
6.004529249263818 2.0636182086864397e-21 3.289105084087834e-13 3.289085133024543e-13 1.9951063291425484e-18
6.027089341400364 2.3088957811517275e-21 3.6938681745863776e-13 3.693847648992097e-13 2.0525594280859183e-18
6.049734195844842 2.59831667411016e-21 4.172514043416152e-13 4.1724928984336143e-13 2.114498253577928e-18
6.095279466722835 3.4324539384515125e-21 5.553512755388742e-13 5.553490061554176e-13 2.2693834566666013e-18
6.141167624020661 4.713668450149625e-21 7.68385952551281e-13 7.68383476515187e-13 2.4760360939815987e-18
6.164241091010745 5.531585427823747e-21 9.051043936258013e-13 9.051017870669011e-13 2.606558900140876e-18
6.187401249150058 6.462603102301614e-21 1.0614149453624935e-12 1.061412199799308e-12 2.7455631855189353e-18
6.1990139391386085 6.917385677097462e-21 1.1382405052753037e-12 1.1382376884567385e-12 2.8168185653154267e-18
6.204828454712694 7.156876689887838e-21 1.1787528251769512e-12 1.1787499718219668e-12 2.8533549845280485e-18
6.210648424152782 7.332007203735532e-21 1.2087298886920557e-12 1.2087270040881157e-12 2.884603940033102e-18
6.233982942956859 7.92761877077947e-21 1.3118307295523456e-12 1.3118277330601458e-12 2.996492199996645e-18
6.239830258556775 8.004211729753403e-21 1.32574737849649e-12 1.3257443650132876e-12 3.0134832021698833e-18
6.245683058788269 8.01170385328331e-21 1.328232988969655e-12 1.32822995839338e-12 3.0305762749307967e-18
6.257405133728602 7.997313264406492e-21 1.3283356100785651e-12 1.3283325487051107e-12 3.0613734548046122e-18
6.269149208991335 7.882782050683214e-21 1.3117695893273681e-12 1.3117665129552213e-12 3.076372147247214e-18
6.280915325867298 7.592682879913388e-21 1.2658657018248562e-12 1.2658626301192828e-12 3.0717055732516846e-18
6.304513850009849 6.876242132094358e-21 1.150726719054141e-12 1.1507236747907985e-12 3.0442633425038515e-18
6.32820103803542 5.987365597761549e-21 1.0057394331421934e-12 1.0057364373452894e-12 2.9957969039939875e-18
6.3519772230701035 5.172399578788377e-21 8.721083262766209e-13 8.721053741652656e-13 2.9521113555978277e-18
6.375842739491607 4.4868879529156474e-21 7.593679339109675e-13 7.593650186211822e-13 2.915289785296538e-18
6.399797922933955 3.9385825494345265e-21 6.690762999015433e-13 6.690734009421846e-13 2.8989593584948972e-18
6.42384311029221 3.4830137586369825e-21 5.93908510596762e-13 5.939056227403624e-13 2.8878563998510354e-18
6.447978639727206 3.1522350737755457e-21 5.395250580271184e-13 5.395221636788904e-13 2.894348227913425e-18
6.472204850670314 2.8771643309578497e-21 4.942951568693094e-13 4.94292251944371e-13 2.904924938331253e-18
6.496522083828205 2.699906532500544e-21 4.655851091855851e-13 4.655821787093562e-13 2.930476228897996e-18
