Dust emission spectrum from A.P. Jones, M. Kohler, N. Ysard, M. Bocchio, and L. Verstraete (2017), A&A, 602A, 46J 
inside the DustPedia framework.

lambda    nu*dP/dnu     j_nu    j_nu(carb.) j_nu(sil)
 (um)   (erg s-1 H-1) (Jy cm2 sr-1 H-1)
0.9927057738263894 4.866464815264481e-25 1.2823411197905245e-17 1.2823411163659988e-17 3.4245261492579884e-26
1.0001793341362166 4.946634416531331e-25 1.3132793778867646e-17 1.3132793737614802e-17 4.1252844238606595e-26
1.0077091589558085 5.026692497454128e-25 1.3445809609512602e-17 1.3445809559882059e-17 4.963054027785804e-26
1.0114953028030835 5.066670005419841e-25 1.3603664818587796e-17 1.3603664764176814e-17 5.441098127613979e-26
1.0152956718711033 5.106608011124696e-25 1.3762409942525993e-17 1.3762409882893378e-17 5.963261250590994e-26
1.0229392996569957 5.186310864522413e-25 1.408243779166018e-17 1.4082437720101478e-17 7.155870464428624e-26
1.0267826658714554 5.225978937498137e-25 1.4243463808167728e-17 1.424346372981464e-17 7.835308848444471e-26
1.0306404723013447 5.265590219859261e-25 1.4405345673601593e-17 1.440534558783679e-17 8.576480363667511e-26
1.03451277320114 5.305140953427057e-25 1.4568076642204404e-17 1.4568076548357203e-17 9.384720172535508e-26
1.0383996230291617 5.344627401950273e-25 1.473164988614507e-17 1.4731649783487082e-17 1.0265799006394782e-25
1.0403485208654093 5.364345357917502e-25 1.4813750205654787e-17 1.481375009829895e-17 1.073558366293424e-25
1.0423010764483396 5.384045851835546e-25 1.4896058497254088e-17 1.4896058384994528e-17 1.1225956480421904e-25
1.0462171883269815 5.423392612862273e-25 1.5061295488763136e-17 1.506129536604377e-17 1.2271936770335222e-25
1.0471985131304309 5.433217671569269e-25 1.510273334497328e-17 1.5102733219496445e-17 1.254768309681963e-25
1.048180758391296 5.443037963423165e-25 1.5144222422739714e-17 1.514422229444606e-17 1.2829365336452391e-25
1.0501480137395462 5.462664018881939e-25 1.5227353797048473e-17 1.522735366293821e-17 1.341102680380573e-25
1.0521189612883777 5.482270324843476e-25 1.5310688717014356e-17 1.5310688576835123e-17 1.4017923547718057e-25
1.0531058218030118 5.492050858730292e-25 1.5352390095239877e-17 1.535238995192808e-17 1.4331179329459472e-25
1.0540936079674168 5.501776907149765e-25 1.539400378217192e-17 1.5394003635659856e-17 1.4651206358321855e-25
1.058054026499678 5.5406268715908125e-25 1.5560952653240254e-17 1.5560952493228725e-17 1.6001153391782451e-25
1.0590464539527713 5.550325526758125e-25 1.5602812827519455e-17 1.5602812663951285e-17 1.6356816827720092e-25
1.06003981227728 5.560018536466967e-25 1.5644721953739806e-17 1.5644721786539332e-17 1.6720047411651524e-25
1.0620293250338977 5.579387398206427e-25 1.5728686598566225e-17 1.5728686423867964e-17 1.746982586698117e-25
1.0660195594769086 5.618054947949029e-25 1.589719819915004e-17 1.5897198008478742e-17 1.9067130056484212e-25
1.070024785945596 5.656626009793812e-25 1.6066479969943075e-17 1.6066479761905565e-17 2.080375084278874e-25
1.0740450607676866 5.695097101334161e-25 1.6236524361613483e-17 1.6236524134701394e-17 2.2691208856894194e-25
1.07808044048254 5.733464769361497e-25 1.6407323762311493e-17 1.640732351489228e-17 2.4741921486434887e-25
1.0861967418109137 5.809808304165177e-25 1.675096116514283e-17 1.67509608712662e-17 2.9387662904883075e-25
1.0902777775684922 5.847623090547232e-25 1.6923335551724858e-17 1.6923335231598576e-17 3.201262849696598e-25
1.0943741465085532 5.885318254697875e-25 1.7096421264145974e-17 1.70964209155374e-17 3.4860857292517048e-25
1.1026131145906286 5.960336630969497e-25 1.744469479053161e-17 1.7444694377528212e-17 4.130034025093333e-25
1.1109141095355224 6.034837594088791e-25 1.779571749993769e-17 1.7795717011270226e-17 4.8866746055660625e-25
1.1192775983109025 6.108726642041219e-25 1.8149218792120247e-17 1.8149218214663726e-17 5.774565203196112e-25
1.1277040513999907 6.181661158234717e-25 1.8504176816742017e-17 1.8504176135230388e-17 6.815116317755697e-25
1.1361939428280308 6.253994200831393e-25 1.8861636761245996e-17 1.8861635957946653e-17 8.032993438061356e-25
1.1447477501889525 6.3257023546655925e-25 1.9221531371680346e-17 1.9221530426022646e-17 9.456576974771757e-25
1.1533659546722406 6.396801760185116e-25 1.9583912165681497e-17 1.9583911053832135e-17 1.1118493612334312e-24
1.1707974979042381 6.537406004404492e-25 2.0316864131289565e-17 2.0316862600020726e-17 1.5312688389720081e-24
1.1884924949847024 6.675281751837504e-25 2.1058890087888503e-17 2.105888798939607e-17 2.0984924323716806e-24
1.2064549276569216 6.811510854897824e-25 2.1813431364646482e-17 2.1813428502817753e-17 2.8618287286667416e-24
1.2246888378427687 6.944615937169408e-25 2.257581436227969e-17 2.2575810478321854e-17 3.883957843954157e-24
1.2431983285522175 7.074292444794105e-25 2.334494525339032e-17 2.3344940007461427e-17 5.24592890049783e-24
1.2619875648066055 7.200500356235818e-25 2.4120548799100682e-17 2.412054174709348e-17 7.05200720178022e-24
1.3004222497298317 7.440452949675639e-25 2.568344042961654e-17 2.5683427863286598e-17 1.2566329946822094e-23
1.3400274889804893 7.663607417712373e-25 2.7259406099083316e-17 2.725938411230178e-17 2.1986781533912892e-23
1.3808389325824078 7.869220511632428e-25 2.8843248507637726e-17 2.8843210718030285e-17 3.7789607445126907e-23
1.4228933163050095 8.058368081210771e-25 3.043609094717561e-17 3.0436027112999016e-17 6.383417659679943e-23
1.466228494730424 8.2356271620238345e-25 3.2052932258026433e-17 3.2052826230107234e-17 1.0602791919502035e-22
1.5108834753276823 8.39774732151555e-25 3.367931171098257e-17 3.3679138464594334e-17 1.7324638823569875e-22
1.5568984535646726 8.542139240422944e-25 3.5301760698102556e-17 3.530148193454825e-17 2.7876355430106645e-22
1.6043148490894465 8.669216956502406e-25 3.691806312450134e-17 3.691762060788186e-17 4.425166194770182e-22
1.6531753430134553 8.7795359073767e-25 3.852653149093952e-17 3.8525839261411066e-17 6.922295284587908e-22
1.7035239163302658 8.874527095532186e-25 4.0129420471745956e-17 4.0128353130709854e-17 1.0673410360982612e-21
1.755405889504358 8.961464869802875e-25 4.1756682828324345e-17 4.1755059869767663e-17 1.622958556680025e-21
1.8088679632656115 9.038919992741922e-25 4.3400311079695105e-17 4.3397876532027826e-17 2.434547667290142e-21
1.8639582606462262 9.106061745821998e-25 4.505429588904558e-17 4.505069168158245e-17 3.604207463130518e-21
1.9207263702978936 9.164140839818163e-25 4.672256609886213e-17 4.671729807479964e-17 5.268024062491381e-21
1.979223391128241 9.215602537044587e-25 4.841589713621576e-17 4.840829209176735e-17 7.605044448420724e-21
2.039501978296691 9.263344089175889e-25 5.014889410388353e-17 5.013804661435447e-17 1.0847489529064324e-20
2.1016163906111602 9.314631723396847e-25 5.196232424865373e-17 5.194703056367219e-17 1.5293684981544205e-20
2.1656225393682647 9.374024611437291e-25 5.388629015960903e-17 5.386496938958377e-17 2.1320770025273138e-20
2.231578038680979 9.44256920248181e-25 5.593346037741153e-17 5.590406089291383e-17 2.939948449768441e-20
2.299542257339062 9.523462917037899e-25 5.813072277803967e-17 5.809061220919016e-17 4.0110568849496597e-20
2.369576372248914 9.622799909628732e-25 6.052594783575623e-17 6.047178462928632e-17 5.4163206469908873e-20
2.4417434235010123 9.747716085252011e-25 6.317893940258785e-17 6.310652731482591e-17 7.241208776193904e-20
2.5161083711144245 9.909783834935047e-25 6.618551566476135e-17 6.608963668885264e-17 9.587897590869404e-20
2.5927381535095444 1.0127265366702428e-24 6.969799447696877e-17 6.957222292590861e-17 1.2577155106015934e-19
2.6717017477616296 1.042174432483627e-24 7.390908438329161e-17 7.374558945177699e-17 1.6349493151462896e-19
2.753070231689431 1.0825040747370747e-24 7.91072456170579e-17 7.889657681522412e-17 2.106688018337935e-19
2.836916847834745 1.140736610412625e-24 8.590163290244155e-17 8.563248220601573e-17 2.6915069642580604e-19
2.9233170693905177 1.232113581603357e-24 9.560841099914526e-17 9.526741855007644e-17 3.409924490688258e-19
2.967498994190263 1.3050831704301721e-24 1.02801204394697e-16 1.0241917583035555e-16 3.820285643414674e-19
3.0123486681368425 1.3894662751670557e-24 1.1110220584479925e-16 1.1067477000205916e-16 4.2743584274006695e-19
3.0578761833420214 1.5678656314927797e-24 1.272618316579609e-16 1.267840951338592e-16 4.777365241016764e-19
3.1040917844459814 1.7955209647964047e-24 1.4794301590468163e-16 1.474100471732566e-16 5.329687314249955e-19
3.127460860933648 2.0309509654323107e-24 1.6860123616013473e-16 1.6803849779799954e-16 5.62738362135175e-19
3.1510058709225794 2.342954500819266e-24 1.9596679968614098e-16 1.9537288533710288e-16 5.939143490380415e-19
3.162844764501044 2.6311973571357167e-24 2.209025525159971e-16 2.20292448274424e-16 6.101042415730991e-19
3.1747281389236908 2.9658454879748094e-24 2.499335145041088e-16 2.493068516510451e-16 6.266628530637429e-19
3.1986289994194426 3.896875816307628e-24 3.308642694196882e-16 3.3020327504256114e-16 6.609943771270758e-19
3.2227097969389145 6.083936957189825e-24 5.204455955701587e-16 5.197480673068819e-16 6.975282632768987e-19
3.2348180950136065 8.155211414643617e-24 7.002522629607213e-16 6.99535197181061e-16 7.170657796603201e-19
3.240889293275058 9.70310049596541e-24 8.347264179508958e-16 8.339990451145547e-16 7.273728363414769e-19
3.2469718861334385 1.1493698986112483e-23 9.906215704453718e-16 9.898835314491201e-16 7.380389962516772e-19
3.2714166318528037 2.1039631093038217e-23 1.827020460693487e-15 1.826238216099553e-15 7.822445939335073e-19
3.2744851364798273 2.1636849968298262e-23 1.8806435556088124e-15 1.8798560666750847e-15 7.874889337274943e-19
3.2775565192852394 2.225117875730553e-23 1.9358542010500734e-15 1.9350614382004786e-15 7.927628495944407e-19
3.283707930232385 2.1663009569207166e-23 1.888220665373246e-15 1.8874184015163765e-15 8.022638568689466e-19
3.2898708863219004 1.9793748203094753e-23 1.7285276394716217e-15 1.7277166647819127e-15 8.109746897088884e-19
3.29141343181113 1.9352920029103273e-23 1.690823877251414e-15 1.6900107134405191e-15 8.131638108946808e-19
3.292184975758714 1.9136311271438764e-23 1.672291137932703e-15 1.6714768778452164e-15 8.142600874868915e-19
3.295272960557952 1.776901456184835e-23 1.5542617922983044e-15 1.5534432558040564e-15 8.185364942474507e-19
3.3076538914384823 1.3031593831792605e-23 1.144160703535968e-15 1.1433249564089832e-15 8.357471269844687e-19
3.310756385682612 1.206724502448204e-23 1.0604856337491092e-15 1.0596455413035177e-15 8.40092445591298e-19
3.313861789986515 1.1177421696560764e-23 9.832081291902118e-16 9.823636742846674e-16 8.444549055444416e-19
3.3200813396944477 9.93017455414294e-24 8.751349721281238e-16 8.742811630462268e-16 8.538090818969231e-19
3.345076488085796 7.710282128367265e-24 6.846139676712443e-16 6.837185404918942e-16 8.954271793502127e-19
3.3482140837626964 7.794851359577298e-24 6.927722609617378e-16 6.918711980102979e-16 9.010629514400638e-19
3.3513546224236106 7.880346954056789e-24 7.010276648061671e-16 7.001209368523612e-16 9.067279538056568e-19
3.3576445397418455 8.499813943053972e-24 7.575539545110921e-16 7.566353931415825e-16 9.18561369509814e-19
3.3702598118196083 1.0780658014245484e-23 9.644463732295212e-16 9.635029809366134e-16 9.433922929077438e-19
3.382922481734668 1.1303793164144191e-23 1.0150459004075468e-15 1.0140782448103233e-15 9.676555972231028e-19
3.389271646505754 1.1574748277525807e-23 1.0413275691031022e-15 1.0403475891803767e-15 9.799799227254958e-19
3.395632727569191 1.1866797166813612e-23 1.0696055876360129e-15 1.0686129050425047e-15 9.926825935082485e-19
3.421196662673239 1.326838428686146e-23 1.20494025617832e-15 1.2038948403013851e-15 1.0454158769345308e-18
3.4276182099114902 1.2990432495388355e-23 1.1819129330652456e-15 1.180855609018031e-15 1.0573240472144497e-18
3.4340518103208963 1.1764450417023242e-23 1.0723780595401628e-15 1.071309404615932e-15 1.0686549242304643e-18
3.4469541582030403 1.0019046552551188e-23 9.167086624435035e-16 9.156181200551686e-16 1.0905423883348477e-18
3.472904465399547 9.536977726956518e-24 8.79170360091671e-16 8.780295817968457e-16 1.1407782948255578e-18
3.4990501388274233 8.795765031716544e-24 8.169457501976224e-16 8.157532301332129e-16 1.1925200644096084e-18
3.5253949054701885 6.136882811947955e-24 5.742817773782445e-16 5.730384669549118e-16 1.2433104233328522e-18
3.5519380250092896 3.6370893730597474e-24 3.4291681828887554e-16 3.4162202652979037e-16 1.2947917590851624e-18
3.578680990867387 2.6515766088377505e-24 2.518816900790542e-16 2.5053038291211053e-16 1.3513071669436158e-18
3.605625307711299 2.258869986099291e-24 2.1619281745257174e-16 2.1478170689489317e-16 1.411110557678571e-18
3.660119384959845 1.9855029971222177e-24 1.929013341635527e-16 1.9136334794397792e-16 1.5379862195747943e-18
3.715437065384467 1.7986779114005498e-24 1.77391474535114e-16 1.7571790739727898e-16 1.6735671378350036e-18
3.8285932144167436 1.7392286481510977e-24 1.767524078283712e-16 1.747809242735022e-16 1.9714835548689794e-18
3.94519561050918 1.7705589110225332e-24 1.8541649010739471e-16 1.8311001219924328e-16 2.306477908151398e-18
4.06534921144712 1.8431286744649057e-24 1.9889457884285278e-16 1.9621355624572555e-16 2.6810225971271346e-18
4.189162171576248 1.9429793921614995e-24 2.1605523842777073e-16 2.1295637801679888e-16 3.0988604109718427e-18
4.316745939156006 2.0654544698504643e-24 2.366690939550152e-16 2.331069705162333e-16 3.562123438781902e-18
4.448215356677963 2.2096203453839374e-24 2.608992905945779e-16 2.56830438674687e-16 4.068851919890915e-18
4.58368876423945 2.376789946926627e-24 2.8918472937778047e-16 2.8456112476050713e-16 4.623604617273383e-18
4.723288106065518 2.569961695731558e-24 3.2221111699111067e-16 3.1697717345143813e-16 5.23394353967245e-18
4.867139040275056 2.79392536945294e-24 3.6095909342477786e-16 3.5506737463314477e-16 5.891718791633196e-18
4.940699165968905 2.9224224554205863e-24 3.832664819410794e-16 3.770248919295392e-16 6.24159001154008e-18
5.015371051989984 3.056870935912665e-24 4.069580135658948e-16 4.003525860869817e-16 6.6054274789131055e-18
5.091171501069577 3.2105539597230624e-24 4.3387750436617893e-16 4.2688728872448727e-16 6.990215641691812e-18
5.129500256944802 3.2899891641773686e-24 4.479597117609159e-16 4.4077157372189153e-16 7.188138039024321e-18
5.168117569889187 3.372316383400546e-24 4.626260996129293e-16 4.552349542093563e-16 7.391145403573003e-18
5.20702561229733 3.466217031884205e-24 4.790875652387288e-16 4.714776566567452e-16 7.609908581983708e-18
5.246226572918644 3.5626118341522764e-24 4.961179975558492e-16 4.882847674869526e-16 7.83323006889659e-18
5.265937586045735 3.61176736930326e-24 5.048529641084374e-16 4.969063485178479e-16 7.946615590589313e-18
5.285722656980489 3.661574147014732e-24 5.13737937657458e-16 5.056767784397761e-16 8.061159217682062e-18
5.305582063971359 3.712041732366655e-24 5.227756124795154e-16 5.145987453160644e-16 8.176867163451e-18
5.3255160863122235 3.7650539344961326e-24 5.322336583362565e-16 5.239392820251459e-16 8.29437631111054e-18
5.365609099470188 3.887984263416017e-24 5.537490081614794e-16 5.45211129736279e-16 8.537878425200322e-18
5.406003951863644 4.0151415996762896e-24 5.761647146386264e-16 5.673782030675502e-16 8.786511571076181e-18
5.446702915881641 4.1467015122195866e-24 5.995230649308811e-16 5.904827264569642e-16 9.040338473916984e-18
5.487708281020852 4.286530239948389e-24 6.244049563852824e-16 6.151047658785182e-16 9.300190506764136e-18
5.529022354014368 4.464681734629527e-24 6.552518932573576e-16 6.45679716924158e-16 9.57217633319986e-18
5.570647458961463 4.651749024324473e-24 6.878462644527588e-16 6.779962680119196e-16 9.849996440839309e-18
5.612585937458331 4.8483052688110664e-24 7.223079481496374e-16 7.12174217015511e-16 1.013373113412616e-17
5.654840148729818 5.060753877429154e-24 7.596350276662969e-16 7.492105703093558e-16 1.0424457356941121e-17
5.67608639626678 5.1970152553890884e-24 7.830192192723126e-16 7.724427672341699e-16 1.0576452038142812e-17
5.686739436050992 5.2669503248959464e-24 7.950455020484242e-16 7.843924273825927e-16 1.0653074665831324e-17
5.6974124697621304 5.338124147548797e-24 8.073015097700417e-16 7.965713934975999e-16 1.0730116272442003e-17
5.718818669136295 5.4842995955213495e-24 8.325243229248877e-16 8.216388600997646e-16 1.0885462825122828e-17
5.740305295436557 5.643089278485869e-24 8.598473260687273e-16 8.488039367466846e-16 1.104338932204257e-17
5.7835210386641895 6.040518581119404e-24 9.273335606398224e-16 9.159621839492225e-16 1.1371376690599906e-17
5.827062130521658 6.4909076574187905e-24 1.0039787309840738e-15 9.92269784932469e-16 1.1708946051604795e-17
5.8489554468988025 6.796769924484982e-24 1.0552377403834402e-15 1.0433477618596845e-15 1.1889978523756144e-17
5.870931020387893 7.122814302163154e-24 1.1100129175900709e-15 1.0979396892750217e-15 1.2073228315048922e-17
5.892989160043636 7.470621088878872e-24 1.1685889752544164e-15 1.1563302585602836e-15 1.2258716694133068e-17
5.915130176081913 7.862436783663445e-24 1.234499465923744e-15 1.2220486832133271e-15 1.245078271041724e-17
5.95966208400165 8.936735315168833e-24 1.4137413611122873e-15 1.4008616295460979e-15 1.2879731566189103e-17
6.004529249263818 1.0459457652134985e-23 1.6670843083099531e-15 1.65372590875801e-15 1.3358399551943082e-17
6.027089341400364 1.1506968162508644e-23 1.8409329614811297e-15 1.8273024119130905e-15 1.3630549568039207e-17
6.049734195844842 1.2737967778809298e-23 2.045530091510735e-15 2.0316119182021366e-15 1.3918173308598115e-17
6.095279466722835 1.626803056694447e-23 2.6320736382361306e-15 2.617464388066648e-15 1.4609250169482952e-17
6.141167624020661 2.166352417782453e-23 3.5314209807155634e-15 3.5159343567767758e-15 1.548662393878746e-17
6.164241091010745 2.510495380985981e-23 4.107792294191597e-15 4.091764701687813e-15 1.6027592503784438e-17
6.187401249150058 2.9012458637871546e-23 4.764992791988241e-15 4.748406690667436e-15 1.658610132080519e-17
6.1990139391386085 3.092212526202308e-23 5.088167282469636e-15 5.071296314839995e-15 1.687096762964096e-17
6.204828454712694 3.1926861005712684e-23 5.258421968159613e-15 5.241406800348409e-15 1.7015167811203382e-17
6.210648424152782 3.26637305650415e-23 5.384832053906699e-15 5.367691592607036e-15 1.714046129966254e-17
6.233982942956859 3.517273979678413e-23 5.820244671456802e-15 5.802656865479344e-15 1.7587805977457543e-17
6.239830258556775 3.549791736602516e-23 5.879563469711311e-15 5.861905790705229e-15 1.7657679006082306e-17
6.245683058788269 3.553491181577425e-23 5.891211532300493e-15 5.873483744512642e-15 1.7727787787851602e-17
6.257405133728602 3.5486324406116287e-23 5.894198066398066e-15 5.876342934376125e-15 1.7855132021941774e-17
6.269149208991335 3.502004664353627e-23 5.8276674286377484e-15 5.809743344339919e-15 1.7924084297831353e-17
6.280915325867298 3.3821161301847924e-23 5.638724646482769e-15 5.620804187300177e-15 1.792045918259246e-17
6.304513850009849 3.085390208197092e-23 5.163344866390012e-15 5.1454976292969626e-15 1.7847237093050283e-17
6.32820103803542 2.716945661303266e-23 4.563842552555804e-15 4.5461387075485276e-15 1.770384500727741e-17
6.3519772230701035 2.379363557836286e-23 4.011799046883127e-15 3.994216240959339e-15 1.758280592378779e-17
6.375842739491607 2.095351826475302e-23 3.5462061990051994e-15 3.528721835507048e-15 1.7484363498151663e-17
6.399797922933955 1.869204396111277e-23 3.175356477648005e-15 3.1578852960824163e-15 1.7471181565588545e-17
6.42384311029221 1.6814089751163897e-23 2.8670661941518978e-15 2.8495911021696696e-15 1.7475091982228345e-17
6.447978639727206 1.5459987155233237e-23 2.6460750140170666e-15 2.628528514966193e-15 1.7546499050872962e-17
6.472204850670314 1.433674690983167e-23 2.4630447717359285e-15 2.445412796715452e-15 1.7631975020475918e-17
6.496522083828205 1.3624110670645177e-23 2.3494083879540935e-15 2.3316353034009665e-15 1.7773084553126715e-17
6.520930681187647 1.3029977101120633e-23 2.2553952898853264e-15 2.2374714590836905e-15 1.792383080163596e-17
6.57002334288761 1.2467675595906975e-23 2.1743118822576845e-15 2.1560057760659026e-15 1.830610619178187e-17
