Dust emission spectrum from A.P. Jones, M. Kohler, N. Ysard, M. Bocchio, and L. Verstraete (2017), A&A, 602A, 46J 
inside the DustPedia framework.

lambda    nu*dP/dnu     j_nu    j_nu(carb.) j_nu(sil)
 (um)   (erg s-1 H-1) (Jy cm2 sr-1 H-1)
0.9927057738263894 4.02657366211921e-24 1.0610250304502328e-16 1.0610249177593079e-16 1.1269092462034382e-23
1.0001793341362166 4.093640152781073e-24 1.0868183780006165e-16 1.0868182423145826e-16 1.35686034352586e-23
1.0077091589558085 4.1607259807377696e-24 1.112945130474697e-16 1.1129449673152477e-16 1.631594493117365e-23
1.0114953028030835 4.194269489818764e-24 1.126132869069608e-16 1.126132690241045e-16 1.788285625391965e-23
1.0152956718711033 4.227809880326681e-24 1.1394031538227019e-16 1.1394029578846623e-16 1.9593803913776532e-23
1.0229392996569957 4.29483809650938e-24 1.166181355095364e-16 1.1661811200999422e-16 2.3499542173632914e-23
1.0267826658714554 4.328246424139157e-24 1.1796683842849764e-16 1.1796681270495455e-16 2.5723543108889894e-23
1.0306404723013447 4.3616395795622255e-24 1.1932361468290543e-16 1.193235865341477e-16 2.8148757741826076e-23
1.03451277320114 4.395015032140262e-24 1.206884348482752e-16 1.2068840405579156e-16 3.079248362266608e-23
1.0383996230291617 4.428370274107617e-24 1.2206126926745247e-16 1.220612355940311e-16 3.367342135384094e-23
1.0403485208654093 4.445039538878416e-24 1.2275068249663664e-16 1.2275064728753834e-16 3.520909829744791e-23
1.0423010764483396 4.461702821337462e-24 1.2344208807461785e-16 1.234420512628368e-16 3.6811781053443683e-23
1.0462171883269815 4.495010214102738e-24 1.2483086121968915e-16 1.248308209902929e-16 4.022939629179615e-23
1.0471985131304309 4.503332846044139e-24 1.251792938342193e-16 1.2517925270406257e-16 4.113015675803258e-23
1.048180758391296 4.511653715754375e-24 1.2552822123399994e-16 1.2552817918377849e-16 4.205022146606774e-23
1.0501480137395462 4.528290017831953e-24 1.2622755849312345e-16 1.262275145432775e-16 4.3949845978831035e-23
1.0521189612883777 4.544918820067762e-24 1.2692886920008718e-16 1.269288232685759e-16 4.5931511285951405e-23
1.0531058218030118 4.553218116153298e-24 1.2727992239325236e-16 1.2727987543902847e-16 4.6954223876623984e-23
1.0540936079674168 4.5614754571255304e-24 1.276303485661552e-16 1.2763030056720727e-16 4.799894795702299e-23
1.058054026499678 4.5944825634174995e-24 1.290368893131226e-16 1.2903683690835255e-16 5.240477004396411e-23
1.0590464539527713 4.6027285929299976e-24 1.2938973107998092e-16 1.2938967751470748e-16 5.356527344253716e-23
1.06003981227728 4.610972250942586e-24 1.29743054504716e-16 1.2974299975436236e-16 5.475035368592176e-23
1.0620293250338977 4.6274523080157324e-24 1.3045114437830355e-16 1.3045108718207e-16 5.719623352817165e-23
1.0660195594769086 4.660382381574799e-24 1.318730825706293e-16 1.318730201653006e-16 6.240532867262249e-23
1.070024785945596 4.6932705041309154e-24 1.3330267268437023e-16 1.3330260461782787e-16 6.80665423549907e-23
1.0740450607676866 4.726114425821706e-24 1.3473988352656986e-16 1.347398093095302e-16 7.42170397006442e-23
1.07808044048254 4.75891192760162e-24 1.361846839449248e-16 1.361846030480669e-16 8.08968578834142e-23
1.0861967418109137 4.824303555663e-24 1.3909533202986356e-16 1.3909523600963206e-16 9.602023146324927e-23
1.0902777775684922 4.8567674260989594e-24 1.4055745997279724e-16 1.4055735541261574e-16 1.0456018153719097e-22
1.0943741465085532 4.889174115008179e-24 1.4202695026257148e-16 1.4202683643989917e-16 1.1382267232670304e-22
1.1026131145906286 4.953807822564222e-24 1.4498789391619364e-16 1.4498775916544366e-16 1.34750749959133e-22
1.1109141095355224 5.018188785593456e-24 1.4797791754536916e-16 1.479777582247802e-16 1.593205889285865e-22
1.1192775983109025 5.082245090965094e-24 1.509950985141531e-16 1.50994910386349e-16 1.881278041363006e-22
1.1277040513999907 5.1457019321352636e-24 1.5403137758795055e-16 1.5403115572915022e-16 2.2185880037084134e-22
1.1361939428280308 5.2088537476392414e-24 1.5709561629808588e-16 1.570953549946039e-16 2.6130348197781596e-22
1.1447477501889525 5.271687258338293e-24 1.6018759077891178e-16 1.6018728340922655e-16 3.073696852001315e-22
1.1533659546722406 5.334220077503021e-24 1.6330801138850802e-16 1.633076502886199e-16 3.610998881270891e-22
1.1707974979042381 5.458584697701093e-24 1.696411750740448e-16 1.6964067856498072e-16 4.965090640709023e-22
1.1884924949847024 5.581589031523534e-24 1.7608555608647133e-16 1.760848767898606e-16 6.792966106725082e-22
1.2064549276569216 5.70415814806236e-24 1.826720457567468e-16 1.826711209418841e-16 9.248148627172127e-22
1.2246888378427687 5.8251627499272275e-24 1.8936654533846796e-16 1.8936529240340264e-16 1.2529350653282905e-21
1.2431983285522175 5.944404202036162e-24 1.961634916049848e-16 1.9616180231706006e-16 1.6892879247897336e-21
1.2619875648066055 6.061938448445269e-24 2.0306544674529573e-16 2.030631799811751e-16 2.2667641206493096e-21
1.3004222497298317 6.2905093923783144e-24 2.1713990309976358e-16 2.1713587886307825e-16 4.0242366853259946e-21
1.3400274889804893 6.51087454048348e-24 2.315914209658213e-16 2.315844070056643e-16 7.013960157001177e-21
1.3808389325824078 6.723282920795571e-24 2.464301512265477e-16 2.464181438641455e-16 1.2007362402254106e-20
1.4228933163050095 6.929633095042021e-24 2.6172910071336374e-16 2.617089007657393e-16 2.0199947624391733e-20
1.466228494730424 7.134921600801666e-24 2.7769003408918936e-16 2.7765662323865516e-16 3.3410850534239527e-20
1.5108834753276823 7.338037066961565e-24 2.942932530153113e-16 2.9423889666275414e-16 5.4356352557167e-20
1.5568984535646726 7.538685004746078e-24 3.1154825100081523e-16 3.1146117609624255e-16 8.707490457277513e-20
1.6043148490894465 7.739423846332557e-24 3.2958517423175876e-16 3.2944757418084955e-16 1.3760005090925498e-19
1.6531753430134553 7.943411320756513e-24 3.485743319729217e-16 3.4836008184027857e-16 2.142501326431164e-19
1.7035239163302658 8.155028399532965e-24 3.687594393267925e-16 3.6843066082263454e-16 3.287785041580837e-19
1.755405889504358 8.384201495304893e-24 3.9066876642893113e-16 3.901712785564319e-16 4.974878724993878e-19
1.8088679632656115 8.63439821019076e-24 4.145800257211559e-16 4.138374994225729e-16 7.425262985830616e-19
1.8639582606462262 8.91031132618722e-24 4.4085776503519073e-16 4.397641523306254e-16 1.0936127045651263e-18
1.9207263702978936 9.21936173477061e-24 4.700410497517923e-16 4.684510360394256e-16 1.5900137123667236e-18
1.979223391128241 9.571064122297799e-24 5.028338127285419e-16 5.005508916345166e-16 2.2829210940252486e-18
2.039501978296691 9.976386299967672e-24 5.400908519431051e-16 5.368527685443364e-16 3.2380833987687257e-18
2.1016163906111602 1.0451427559587746e-23 5.830401929348254e-16 5.785010793835898e-16 4.539113551235556e-18
2.1656225393682647 1.1011325916380082e-23 6.329826600285637e-16 6.266921060927517e-16 6.2905539358118615e-18
2.231578038680979 1.1669297493937056e-23 6.912358014149415e-16 6.826144331919054e-16 8.621368223036067e-18
2.299542257339062 1.244196189598617e-23 7.594508889162156e-16 7.477622142273435e-16 1.1688674688872171e-17
2.369576372248914 1.334962273653846e-23 8.396709657968213e-16 8.23989161829537e-16 1.568180396728425e-17
2.4417434235010123 1.4414703017296343e-23 9.342759272748362e-16 9.134502744748277e-16 2.0825652800008598e-17
2.5161083711144245 1.5664672292062236e-23 1.046212945346687e-15 1.018827949111759e-15 2.738499623492777e-17
2.5927381535095444 1.7133251441275972e-23 1.1791468092194385e-15 1.1434792054648132e-15 3.566760375462562e-17
2.6717017477616296 1.8856600883682268e-23 1.3372752798903643e-15 1.2912503341291886e-15 4.602494576117527e-17
2.753070231689431 2.0878472610708697e-23 1.5257572691590183e-15 1.466903257422994e-15 5.885401173602464e-17
2.836916847834745 2.327240002535201e-23 1.7524967161468022e-15 1.6778962309999402e-15 7.460048514686203e-17
2.9233170693905177 2.6170947230500026e-23 2.030788976284564e-15 1.9370479648606936e-15 9.374101142387059e-17
2.967498994190263 2.7908577505927156e-23 2.1983544386725864e-15 2.0937955179238043e-15 1.0455892074878188e-16
3.0123486681368425 2.980474297904458e-23 2.38319759809285e-15 2.2667273862821484e-15 1.1647021181070183e-16
3.0578761833420214 3.2488944103922134e-23 2.637089845104675e-15 2.5074865937976922e-15 1.296032513069843e-16
3.1040917844459814 3.560528573189424e-23 2.9337186569256534e-15 2.7897807450398596e-15 1.439379118857943e-16
3.127460860933648 3.809940872477666e-23 3.1628569656777657e-15 3.0112268686743327e-15 1.516300970034334e-16
3.1510058709225794 4.117501310904645e-23 3.4439147423448692e-15 3.2842541319781414e-15 1.5966061036672756e-16
3.162844764501044 4.3711170225962694e-23 3.6697775825100764e-15 3.505956352472085e-15 1.6382123003799173e-16
3.1747281389236908 4.658596885421568e-23 3.9258265373303795e-15 3.7577567162445815e-15 1.680698210857981e-16
3.1986289994194426 5.426513984245848e-23 4.607382091519768e-15 4.430524401871154e-15 1.7685768964861414e-16
3.2227097969389145 7.125266043586209e-23 6.095252721624068e-15 5.909070037378164e-15 1.8618268424590258e-16
3.2348180950136065 8.696905487553096e-23 7.467651589607143e-15 7.276489209042904e-15 1.911623805642373e-16
3.240889293275058 9.86178388706674e-23 8.483774379209965e-15 8.289985272580651e-15 1.9378910662931206e-16
3.2469718861334385 1.1206831527973723e-22 9.658969720167498e-15 9.462462645987817e-15 1.9650707417967843e-16
3.2714166318528037 1.8322608377315212e-22 1.5910820988541744e-14 1.5703071149317606e-14 2.077498392241381e-16
3.2744851364798273 1.877313831780077e-22 1.6317339006211014e-14 1.6108261188793396e-14 2.09077817417621e-16
3.2775565192852394 1.9236113508869897e-22 1.673543300972122e-14 1.652502029151382e-14 2.1041271820740109e-16
3.283707930232385 1.8824495601208296e-22 1.6408062552838615e-14 1.6195256440981682e-14 2.1280611185693295e-16
3.2898708863219004 1.7468882524436597e-22 1.5255042129640914e-14 1.5040052212558645e-14 2.149899170822665e-16
3.29141343181113 1.7149282448858016e-22 1.4982967014100398e-14 1.4767428581868343e-14 2.1553843223205926e-16
3.292184975758714 1.699225617017276e-22 1.48492564757104e-14 1.4633443400705726e-14 2.1581307500467204e-16
3.295272960557952 1.5998336328120815e-22 1.3993799604692083e-14 1.3776917150144949e-14 2.168824545471308e-16
3.3076538914384823 1.255317807897052e-22 1.1021562863175477e-14 1.0800382339673195e-14 2.211805235022837e-16
3.310756385682612 1.185183483458956e-22 1.0415550981313533e-14 1.0193286488823335e-14 2.22264492490195e-16
3.313861789986515 1.120471922111357e-22 9.85609322307525e-15 9.632740970473709e-15 2.2335225260154485e-16
3.3200813396944477 1.0305462218132418e-22 9.082086464703781e-15 8.856397168228811e-15 2.25689296474967e-16
3.345076488085796 8.765933660665749e-23 7.783477340850731e-15 7.547379914334032e-15 2.360974265166987e-16
3.3482140837626964 8.841266324041923e-23 7.857730415277018e-15 7.620223302744568e-15 2.3750711253245124e-16
3.3513546224236106 8.917309937667029e-23 7.93274839090352e-15 7.693824919879684e-15 2.3892347102383443e-16
3.3576445397418455 9.401358512731365e-23 8.379049667218041e-15 8.137165925707874e-15 2.418837415101668e-16
3.3702598118196083 1.1136136166260245e-22 9.962477358198142e-15 9.71438366744996e-15 2.4809369074818387e-16
3.382922481734668 1.1576870100319742e-22 1.0395673703721673e-14 1.0141532504219762e-14 2.5414119950191357e-16
3.389271646505754 1.1804299387003257e-22 1.0619792405767017e-14 1.0362583654843907e-14 2.5720875092310927e-16
3.395632727569191 1.2049402839164765e-22 1.08606462411698e-14 1.0600276109866466e-14 2.60370131303336e-16
3.421196662673239 1.3212004764263267e-22 1.1998202690771062e-14 1.1724732966119692e-14 2.734697246513716e-16
3.4276182099114902 1.3031729903750895e-22 1.1856703092005739e-14 1.1580297357981018e-14 2.764057340247224e-16
3.4340518103208963 1.2146462985282619e-22 1.1072000769016505e-14 1.0792811955581012e-14 2.79188813435492e-16
3.4469541582030403 1.0896345470351059e-22 9.969785277726217e-15 9.685242208142352e-15 2.845430695838636e-16
3.472904465399547 1.0637480794422642e-22 9.806207048241994e-15 9.509347957895853e-15 2.968590903461385e-16
3.4990501388274233 1.0189718833767613e-22 9.464154018369181e-15 9.154662994909577e-15 3.0949102345960427e-16
3.5253949054701885 8.325717722556576e-23 7.79110196197745e-15 7.469293340429489e-15 3.218086215479623e-16
3.5519380250092896 6.57288971174117e-23 6.197137864164715e-15 5.86291174735939e-15 3.342261168053268e-16
3.578680990867387 5.951327818101289e-23 5.653355456680182e-15 5.3055132302858334e-15 3.4784222639434847e-16
3.605625307711299 5.774439452780676e-23 5.526623232803745e-15 5.1644176839255305e-15 3.622055488782149e-16
3.660119384959845 5.808129165514601e-23 5.642881761679067e-15 5.250397979368267e-15 3.9248378231080214e-16
3.715437065384467 5.912932081304671e-23 5.8315262231239714e-15 5.406974095032241e-15 4.245521280917303e-16
3.8285932144167436 6.382184668152991e-23 6.4860161342245374e-15 5.992017420089888e-15 4.939987141346492e-16
3.94519561050918 6.951393787047085e-23 7.279639380111073e-15 6.709116126241675e-15 5.705232538693979e-16
4.06534921144712 7.582665209664905e-23 8.18255949395664e-15 7.528321399344158e-15 6.542380946124832e-16
4.189162171576248 8.264284929582159e-23 9.189711728797856e-15 8.444210772965196e-15 7.455009558326597e-16
4.316745939156006 8.990599462735279e-23 1.0301834584192285e-14 9.457625001207385e-15 8.442095829848998e-16
4.448215356677963 9.757594487003096e-23 1.1521207635904217e-14 1.0571933547033675e-14 9.492740888705397e-16
4.58368876423945 1.0563909018619938e-22 1.285313906124246e-14 1.1792094351544335e-14 1.0610447096981253e-15
4.723288106065518 1.1409468549902068e-22 1.4304717505497375e-14 1.3124283130020558e-14 1.1804343754768184e-15
4.867139040275056 1.2292549382663042e-22 1.58812670143518e-14 1.4576513530881572e-14 1.3047534834702227e-15
4.940699165968905 1.2751485261081497e-22 1.6723170486434266e-14 1.5353982673138543e-14 1.3691878132957235e-15
5.015371051989984 1.321688135171312e-22 1.7595495175276057e-14 1.6160504519286104e-14 1.4349906559899567e-15
5.091171501069577 1.3700415503439626e-22 1.851487986803635e-14 1.7011371340941304e-14 1.503508527095046e-15
5.129500256944802 1.3944439217656964e-22 1.8986527495664613e-14 1.744828135798282e-14 1.5382461376817964e-15
5.168117569889187 1.4191075631956298e-22 1.9467811505585695e-14 1.789421107053279e-14 1.5736004350529019e-15
5.20702561229733 1.4449312084142645e-22 1.9971299206280344e-14 1.8359320190063432e-14 1.6119790162169124e-15
5.246226572918644 1.4709420950188347e-22 2.048387196454133e-14 1.883308195404696e-14 1.65079001049437e-15
5.265937586045735 1.484016933700387e-22 2.0743593680295187e-14 1.9073238873894553e-14 1.6703548064006274e-15
5.285722656980489 1.497137612422859e-22 2.1005621039317323e-14 1.9315596800767865e-14 1.6900242385494621e-15
5.305582063971359 1.5103038228122161e-22 2.1269965774264694e-14 1.956016866379768e-14 1.709797110467018e-15
5.3255160863122235 1.523686018788149e-22 2.153905357119275e-14 1.9809242557900308e-14 1.72981101329245e-15
5.365609099470188 1.5519250498527858e-22 2.2103406260751646e-14 2.0332184000582727e-14 1.771222260168922e-15
5.406003951863644 1.5804456356710587e-22 2.2679075845088317e-14 2.0865980147103012e-14 1.813095697985306e-15
5.446702915881641 1.6092517087670835e-22 2.3266288008487112e-14 2.141086579878381e-14 1.855422209703302e-15
5.487708281020852 1.6386754817243162e-22 2.3870054226143134e-14 2.1971700158233835e-14 1.8983540679092987e-15
5.529022354014368 1.6713444471864392e-22 2.4529220186284115e-14 2.2586075027665192e-14 1.943145158618934e-15
5.570647458961463 1.7045945513000975e-22 2.520555146864504e-14 2.3217114429302494e-14 1.9884370393425473e-15
5.612585937458331 1.7384561383713397e-22 2.589978593825375e-14 2.3865565122773026e-14 2.0342208154807255e-15
5.654840148729818 1.7734684024844168e-22 2.6620316885888955e-14 2.453962704764977e-14 2.08068983823919e-15
5.67608639626678 1.7934848374161405e-22 2.7021916006771033e-14 2.4916930374908546e-14 2.1049856318624863e-15
5.686739436050992 1.8036128009954674e-22 2.722551298975342e-14 2.5108326975017493e-14 2.117186014735929e-15
5.6974124697621304 1.813822836919984e-22 2.743102022783178e-14 2.53015990122368e-14 2.1294212155949774e-15
5.718818669136295 1.8344961218709955e-22 2.784790683237277e-14 2.5693911286349e-14 2.1539955460237698e-15
5.740305295436557 1.8561570307072862e-22 2.828258744199e-14 2.6103711244550328e-14 2.178876197439674e-15
5.7835210386641895 1.9059599532352423e-22 2.926008100355861e-14 2.702971269708798e-14 2.230368306470635e-15
5.827062130521658 1.9596191972129088e-22 3.031033714647265e-14 2.8027454429327784e-14 2.282882717144863e-15
5.8489554468988025 1.993117695800974e-22 3.094430202879991e-14 2.863313433212882e-14 2.3111676966710844e-15
5.870931020387893 2.028005358054046e-22 3.160425147821443e-14 2.926460235339171e-14 2.339649124822723e-15
5.892989160043636 2.0643886560271759e-22 3.2292118625382935e-14 2.992379224790229e-14 2.3683263774806463e-15
5.915130176081913 2.1041877592211687e-22 3.303834086601675e-14 3.064030635359659e-14 2.398034512420157e-15
5.95966208400165 2.2072347986561084e-22 3.491721549870632e-14 3.245191328126386e-14 2.4653022174424534e-15
6.004529249263818 2.345429042765642e-22 3.7382702655246384e-14 3.484192123297619e-14 2.5407814222701973e-15
6.027089341400364 2.43724441714186e-22 3.89920569809254e-14 3.6407877991760035e-14 2.5841789891653705e-15
6.049734195844842 2.5429148225282377e-22 4.0835468262712304e-14 3.8205358116419927e-14 2.630110146292369e-15
6.095279466722835 2.838181739037475e-22 4.5920145681449984e-14 4.3177878759005835e-14 2.7422669224441444e-15
6.141167624020661 3.2773034252348184e-22 5.3424078100331715e-14 5.053716077898917e-14 2.8869173213425463e-15
6.164241091010745 3.555262862035434e-22 5.817290682589895e-14 5.519564747675141e-14 2.977259349147544e-15
6.187401249150058 3.8660350938647396e-22 6.349558162503439e-14 6.042542403321044e-14 3.0701575918239346e-15
6.1990139391386085 4.0176980587200693e-22 6.611033245611968e-14 6.299287819579476e-14 3.1174542603249206e-15
6.204828454712694 4.097071650587335e-22 6.74796422007084e-14 6.433828506997934e-14 3.141357130729052e-15
6.210648424152782 4.1556659169638233e-22 6.850890161010589e-14 6.534707436507741e-14 3.161827245028467e-15
6.233982942956859 4.354793489369663e-22 7.206138545998614e-14 6.882774104735992e-14 3.233644412626217e-15
6.239830258556775 4.380628869734074e-22 7.255689175022504e-14 6.931294553012245e-14 3.243946220102608e-15
6.245683058788269 4.3842272378724665e-22 7.268460436284173e-14 6.943033475468042e-14 3.2542696081613005e-15
6.257405133728602 4.381818693157995e-22 7.278101550598254e-14 6.950847840909422e-14 3.2725370968883214e-15
6.269149208991335 4.3468766480032175e-22 7.233614425396547e-14 6.905594059276702e-14 3.28020366119846e-15
6.280915325867298 4.255090354793666e-22 7.094162924345005e-14 6.766688431253248e-14 3.274744930917579e-15
6.304513850009849 4.0273253847499086e-22 6.739656395934958e-14 6.414463233983808e-14 3.2519316195115268e-15
6.32820103803542 3.7461920382558995e-22 6.292739261497384e-14 5.971093203806533e-14 3.2164605769085146e-15
6.3519772230701035 3.4901407526162616e-22 5.884659071422694e-14 5.566158767641371e-14 3.18500303781325e-15
6.375842739491607 3.2742137278700875e-22 5.5413305163994084e-14 5.2255660255409636e-14 3.157644908584437e-15
6.399797922933955 3.1065736543215827e-22 5.277367631417352e-14 4.962830453780907e-14 3.1453717763644475e-15
6.42384311029221 2.967429879106528e-22 5.059933672183269e-14 4.746323894268808e-14 3.1360977791446234e-15
6.447978639727206 2.870337479641849e-22 4.912764939850582e-14 4.598901717464948e-14 3.1386322238563322e-15
6.472204850670314 2.7905133199375316e-22 4.7940856362737466e-14 4.479732633802245e-14 3.1435300247150213e-15
6.496522083828205 2.7433763124246424e-22 4.7308125099220166e-14 4.415008811309839e-14 3.158036986121775e-15
