Dust emission spectrum from A.P. Jones, M. Kohler, N. Ysard, M. Bocchio, and L. Verstraete (2017), A&A, 602A, 46J 
inside the DustPedia framework.

lambda    nu*dP/dnu     j_nu    j_nu(carb.) j_nu(sil)
 (um)   (erg s-1 H-1) (Jy cm2 sr-1 H-1)
0.9927057738263894 8.24814285904719e-25 2.173432491875103e-17 2.1734324918750946e-17 8.791929744608198e-32
1.0001793341362166 8.384453708264285e-25 2.225984219313078e-17 2.2259842193130668e-17 1.0595079770414586e-31
1.0077091589558085 8.520571410731259e-25 2.2791523653172137e-17 2.2791523653172017e-17 1.2751964610407378e-31
1.0114953028030835 8.588541069939124e-25 2.305964940900979e-17 2.305964940900965e-17 1.3983231566960212e-31
1.0152956718711033 8.656442380968756e-25 2.332928402399726e-17 2.3329284023997102e-17 1.5328523173600878e-31
1.0229392996569957 8.791946831746265e-25 2.3872854435433448e-17 2.3872854435433273e-17 1.8402522842926404e-31
1.0267826658714554 8.859385683678363e-25 2.414635436867699e-17 2.4146354368676785e-17 2.015457440828065e-31
1.0306404723013447 8.926726372935442e-25 2.4421303931096232e-17 2.4421303931096007e-17 2.2066404949194137e-31
1.03451277320114 8.9939624014219e-25 2.4697691301939606e-17 2.469769130193936e-17 2.4151888285779274e-31
1.0383996230291617 9.061087307016698e-25 2.4975504512448157e-17 2.4975504512447882e-17 2.6426037571365256e-31
1.0403485208654093 9.094606079459235e-25 2.5114942027565564e-17 2.5114942027565296e-17 2.763888656649196e-31
1.0423010764483396 9.128094664812677e-25 2.5254731448686756e-17 2.5254731448686466e-17 2.8905093070535805e-31
1.0462171883269815 9.194978088328609e-25 2.5535359854379116e-17 2.55353598543788e-17 3.160661621698319e-31
1.0471985131304309 9.211678834815426e-25 2.560573448579859e-17 2.5605734485798265e-17 3.2318949431833837e-31
1.048180758391296 9.228371339755356e-25 2.5676195739960952e-17 2.5676195739960616e-17 3.304667701269483e-31
1.0501480137395462 9.261731230693776e-25 2.5817377333745062e-17 2.5817377333744714e-17 3.454959036257977e-31
1.0521189612883777 9.29505697416405e-25 2.595890306492727e-17 2.5958903064926912e-17 3.6117969057341525e-31
1.0531058218030118 9.311681218007884e-25 2.6029722990297574e-17 2.6029722990297204e-17 3.692760385049715e-31
1.0540936079674168 9.328212831393385e-25 2.6100393751110252e-17 2.610039375110987e-17 3.7754806008090056e-31
1.058054026499678 9.3942455616028e-25 2.6383911745899925e-17 2.638391174589951e-17 4.124487925199636e-31
1.0590464539527713 9.410729830398332e-25 2.645499897369495e-17 2.6454998973694535e-17 4.216458399601173e-31
1.06003981227728 9.427204341136346e-25 2.652616888789812e-17 2.65261688878977e-17 4.310393688077572e-31
1.0620293250338977 9.460123704750427e-25 2.6668755961186537e-17 2.6668755961186088e-17 4.504319430521413e-31
1.0660195594769086 9.52584112477756e-25 2.6954913360092178e-17 2.6954913360091682e-17 4.917560560158789e-31
1.070024785945596 9.591391731930603e-25 2.7242370783950362e-17 2.7242370783949832e-17 5.3670012817947965e-31
1.0740450607676866 9.656769483762704e-25 2.7531114955154647e-17 2.7531114955154062e-17 5.855651216606658e-31
1.07808044048254 9.721968386108022e-25 2.782113248000217e-17 2.7821132480001526e-17 6.386755803403321e-31
1.0861967418109137 9.85169073417818e-25 2.840460136712359e-17 2.840460136712284e-17 7.590595605228969e-31
1.0902777775684922 9.915940522197012e-25 2.8697264883462554e-17 2.869726488346173e-17 8.27116486689138e-31
1.0943741465085532 9.979983403971103e-25 2.899112556016471e-17 2.899112556016381e-17 9.009892546426601e-31
1.1026131145906286 1.0107425679733432e-24 2.9582382173647665e-17 2.95823821736466e-17 1.0681013559384747e-30
1.1109141095355224 1.0233972572860793e-24 3.0178257818757396e-17 3.017825781875613e-17 1.2646077778512905e-30
1.1192775983109025 1.035946254220567e-24 3.077828871131803e-17 3.0778288711316533e-17 1.4953793860194282e-30
1.1277040513999907 1.0483312909280519e-24 3.1380735814053703e-17 3.1380735814051947e-17 1.7660416531528828e-30
1.1361939428280308 1.0606121633511828e-24 3.198736795603345e-17 3.198736795603136e-17 2.083081804678686e-30
1.1447477501889525 1.0727847748650024e-24 3.259806587314333e-17 3.2598065873140875e-17 2.4539720457117486e-30
1.1533659546722406 1.0848517545265894e-24 3.321291212379132e-17 3.321291212378843e-17 2.8873117054030757e-30
1.1707974979042381 1.1087077582848978e-24 3.4456273438126167e-17 3.44562734381222e-17 3.982344188085316e-30
1.1884924949847024 1.132089834170614e-24 3.571468032918955e-17 3.5714680329184076e-17 5.4658030441687015e-30
1.2064549276569216 1.1551807056690914e-24 3.699392920846281e-17 3.699392920845536e-17 7.465660060924696e-30
1.2246888378427687 1.177728282072162e-24 3.828602662238068e-17 3.828602662237052e-17 1.0148338484931975e-29
1.2431983285522175 1.199679801015307e-24 3.9589060665579605e-17 3.958906066556588e-17 1.3729542138364487e-29
1.2619875648066055 1.221027021830196e-24 4.090249344904172e-17 4.090249344902324e-17 1.8487418892649378e-29
1.3004222497298317 1.2615537551552047e-24 4.354713474896746e-17 4.354713474893441e-17 3.3058291632899546e-29
1.3400274889804893 1.2991496382469769e-24 4.621067552416823e-17 4.621067552411018e-17 5.805035952505353e-29
1.3808389325824078 1.3336749863351036e-24 4.888351902506778e-17 4.8883519024967625e-17 1.0014952027225147e-28
1.4228933163050095 1.3652973005156206e-24 5.156666013471955e-17 5.1566660134549715e-17 1.69834175454307e-28
1.466228494730424 1.3947765651481858e-24 5.428448602424506e-17 5.428448602396182e-17 2.8323749715944383e-28
1.5108834753276823 1.4215398754006551e-24 5.701110397850083e-17 5.701110397803608e-17 4.647495437321895e-28
1.5568984535646726 1.4451235489747493e-24 5.972204885596476e-17 5.972204885521368e-17 7.5106936419719005e-28
1.6043148490894465 1.4655702112333084e-24 6.241165014461596e-17 6.241165014341833e-17 1.1976302815763376e-27
1.6531753430134553 1.4829415491438665e-24 6.50747316202786e-17 6.50747316183964e-17 1.8822089398042707e-27
1.7035239163302658 1.497443265089389e-24 6.771237472203882e-17 6.771237471912255e-17 2.916283451878267e-27
1.755405889504358 1.510265786414497e-24 7.03720768267289e-17 7.037207682227198e-17 4.456939670261505e-27
1.8088679632656115 1.5211147913232716e-24 7.303622023910574e-17 7.303622023238441e-17 6.72135440500764e-27
1.8639582606462262 1.529790802195662e-24 7.568985295107076e-17 7.568985294106432e-17 1.0006427784802573e-26
1.9207263702978936 1.5364379443993476e-24 7.833393732021993e-17 7.833393730550737e-17 1.471258021390688e-26
1.979223391128241 1.541392107182282e-24 8.097992660591147e-17 8.097992658453779e-17 2.1373689463324505e-26
2.039501978296691 1.5450553650705054e-24 8.36445425557447e-17 8.364454252505179e-17 3.0692918498490054e-26
2.1016163906111602 1.548554451062611e-24 8.638719263660482e-17 8.638719259301522e-17 4.3589625517799456e-26
2.1656225393682647 1.5525426509962955e-24 8.924743346062916e-17 8.92474333993785e-17 6.125069600498531e-26
2.231578038680979 1.5570665992348019e-24 9.223350241415235e-17 9.223350232895758e-17 8.519476069659565e-26
2.299542257339062 1.562517451343886e-24 9.537525329932363e-17 9.537525318197234e-17 1.1735129891637668e-25
2.369576372248914 1.5697603293733818e-24 9.873553716442034e-17 9.873553700426005e-17 1.6016027629233118e-25
2.4417434235010123 1.579816862776806e-24 1.0239439984467072e-16 1.0239439962798247e-16 2.166882581712292e-25
2.5161083711144245 1.5944367927478356e-24 1.0648932719487054e-16 1.0648932690408347e-16 2.9078706039939667e-25
2.5927381535095444 1.6164835312336801e-24 1.1124983512574972e-16 1.1124983473846398e-16 3.8728571317030557e-25
2.6717017477616296 1.649375790600241e-24 1.1697068234222556e-16 1.169706818300127e-16 5.122128704521948e-25
2.753070231689431 1.698260867094332e-24 1.2410552779461783e-16 1.2410552712150903e-16 6.731087711427682e-25
2.836916847834745 1.774799916459629e-24 1.336489155405051e-16 1.3364891466103607e-16 8.794690458575906e-25
2.9233170693905177 1.9046749164678026e-24 1.47797203888009e-16 1.477972027448768e-16 1.1431321931054436e-24
2.967498994190263 2.014967828527828e-24 1.5871871178980234e-16 1.5871871049043665e-16 1.2993657464107561e-24
3.0123486681368425 2.1437774636850422e-24 1.7141719040797955e-16 1.7141718893172133e-16 1.4762581799177765e-24
3.0578761833420214 2.431985727319173e-24 1.9740145584413335e-16 1.97401454166989e-16 1.677144355069539e-24
3.1040917844459814 2.803369250464726e-24 2.3098527376717424e-16 2.309852718632191e-16 1.9039551450398684e-24
3.127460860933648 3.1962401675842328e-24 2.6533877601750426e-16 2.653387739883604e-16 2.0291438741817236e-24
3.1510058709225794 3.7196817199453704e-24 3.1111748958583976e-16 3.111174874233279e-16 2.162511835658401e-24
3.162844764501044 4.206926700010545e-24 3.5319313610578987e-16 3.531931338725321e-16 2.2332577734478218e-24
3.1747281389236908 4.773548372017315e-24 4.0226968198816297e-16 4.02269679681889e-16 2.3062739145069804e-24
3.1986289994194426 6.354007002386126e-24 5.394870105776312e-16 5.394870081171473e-16 2.4604838299464482e-24
3.2227097969389145 1.0079530147944402e-23 8.622454683253907e-16 8.62245465692086e-16 2.633304678903908e-24
3.2348180950136065 1.3612486606278588e-23 1.1688445664882431e-15 1.168844563756857e-15 2.7313858821982765e-24
3.240889293275058 1.625383199117816e-23 1.3982647053499287e-15 1.3982647025639649e-15 2.7859639207117242e-24
3.2469718861334385 1.9309463721240322e-23 1.664248498164542e-15 1.6642484953201052e-15 2.8444366991794763e-24
3.2714166318528037 3.5608724820987426e-23 3.092158248377036e-15 3.092158245279547e-15 3.0974888145887768e-24
3.2744851364798273 3.662765254475607e-23 3.1836223302514268e-15 3.1836223271251954e-15 3.1262313071922054e-24
3.2775565192852394 3.767584673695637e-23 3.2778014584917037e-15 3.2778014553364234e-15 3.1552802945489016e-24
3.283707930232385 3.6667849365810655e-23 3.196092893100767e-15 3.196092889900329e-15 3.200439434405373e-24
3.2898708863219004 3.3471118855535997e-23 2.922930688629654e-15 2.9229306853942043e-15 3.2354507129271624e-24
3.29141343181113 3.271724958057516e-23 2.8584372128671233e-15 2.858437209622872e-15 3.2442519621733593e-24
3.292184975758714 3.234682485708035e-23 2.826736447869753e-15 2.8267364446210936e-15 3.2486598744284777e-24
3.295272960557952 3.0008664326082165e-23 2.62486815110601e-15 2.6248681478417258e-15 3.2642844288299766e-24
3.3076538914384823 2.1908541060527482e-23 1.9235476547853398e-15 1.923547651459008e-15 3.326332075184699e-24
3.310756385682612 2.0259955357807968e-23 1.7804719763097583e-15 1.780471972967748e-15 3.34201076554857e-24
3.313861789986515 1.8738877038796904e-23 1.6483422328165323e-15 1.6483422294587756e-15 3.357756675871853e-24
3.3200813396944477 1.66057370265743e-23 1.4634446887799257e-15 1.4634446853839586e-15 3.395966700492152e-24
3.345076488085796 1.2800434869086793e-23 1.1365805242587915e-15 1.1365805206673297e-15 3.5914617031833704e-24
3.3482140837626964 1.2943134569937259e-23 1.1503291321816446e-15 1.1503291285608916e-15 3.6207534729667114e-24
3.3513546224236106 1.308741198244118e-23 1.1642428834537421e-15 1.1642428798034526e-15 3.6502896974791035e-24
3.3576445397418455 1.4141803861377662e-23 1.2604016406572835e-15 1.2604016369414747e-15 3.7158087017344835e-24
3.3702598118196083 1.8030834487743458e-23 1.6130530163397474e-15 1.6130530124784869e-15 3.861260257489791e-24
3.382922481734668 1.89166255782885e-23 1.69865486425326e-15 1.6986548602589978e-15 3.9942620125417026e-24
3.389271646505754 1.9375527161733135e-23 1.7431282405159601e-15 1.7431282364533968e-15 4.062562635382544e-24
3.395632727569191 1.9870017697562313e-23 1.7909703567846384e-15 1.7909703526504002e-15 4.13423833118499e-24
3.421196662673239 2.2244379318140122e-23 2.0200762605789412e-15 2.020076256140013e-15 4.438928363188518e-24
3.4276182099114902 2.1765924316442363e-23 1.9803364867840357e-15 1.9803364822817963e-15 4.5022392743810575e-24
3.4340518103208963 1.9669282231722967e-23 1.7929360033411583e-15 1.792935998782812e-15 4.558345934920886e-24
3.4469541582030403 1.6683277801425613e-23 1.5264631418070387e-15 1.526463137146601e-15 4.660437536489039e-24
3.472904465399547 1.5846460022094543e-23 1.4608126769998333e-15 1.4608126720606472e-15 4.939186494483669e-24
3.4990501388274233 1.456656180946302e-23 1.3529341361804697e-15 1.352934130951337e-15 5.229132848201662e-24
3.5253949054701885 1.0011555628799033e-23 9.368687877881928e-16 9.368687822963068e-16 5.491885816127527e-24
3.5519380250092896 5.730343974330244e-24 5.402757869887178e-16 5.402757812350502e-16 5.753667535285554e-24
3.578680990867387 4.032803747315446e-24 3.8308884617752103e-16 3.8308884010226116e-16 6.0752597473447026e-24
3.605625307711299 3.346172830380557e-24 3.2025682590632316e-16 3.2025681947038466e-16 6.435938420887277e-24
3.660119384959845 2.8452486044157108e-24 2.7642982791478126e-16 2.764298206731798e-16 7.241601528948562e-24
3.715437065384467 2.490500650300657e-24 2.456212865501245e-16 2.456212784028479e-16 8.147276638952995e-24
3.8285932144167436 2.310445790424819e-24 2.348034325726175e-16 2.3480342224635185e-16 1.0326265694903881e-23
3.94519561050918 2.2759695827880347e-24 2.3834411213577424e-16 2.3834409904690185e-16 1.3088872389000523e-23
4.06534921144712 2.301429167884892e-24 2.4835042253141314e-16 2.483504059371432e-16 1.6594269937002635e-23
4.189162171576248 2.361759935082414e-24 2.626227575763057e-16 2.626227365266125e-16 2.1049693194121143e-23
4.316745939156006 2.4476751012492353e-24 2.804656587520161e-16 2.804656320407114e-16 2.6711304658740007e-23
4.448215356677963 2.5561227443363587e-24 3.0181230547736685e-16 3.0181227159127957e-16 3.388608727466153e-23
4.58368876423945 2.687590576415763e-24 3.269999330500611e-16 3.2699989006133217e-16 4.2988729005583216e-23
4.723288106065518 2.8451904153414666e-24 3.567181500417717e-16 3.567180954911798e-16 5.455059189090438e-23
4.867139040275056 3.0350464354653122e-24 3.9211054877323745e-16 3.921104796002608e-16 6.917297661587186e-23
4.940699165968905 3.149625747181528e-24 4.130634766079972e-16 4.1306339871291716e-16 7.789508016463838e-23
5.015371051989984 3.2684826522428122e-24 4.351296588628119e-16 4.351295711705862e-16 8.769222572734545e-23
5.091171501069577 3.413343152067295e-24 4.612826406107472e-16 4.612825418401685e-16 9.877057864939371e-23
5.129500256944802 3.487777240935093e-24 4.748902229063195e-16 4.748901180991385e-16 1.0480718105556493e-22
5.168117569889187 3.5654051376454364e-24 4.891146870109354e-16 4.891145757995346e-16 1.1121140079097846e-22
5.20702561229733 3.6604539495344806e-24 5.059342661523071e-16 5.059341480579897e-16 1.1809431742267378e-22
5.246226572918644 3.757981115374026e-24 5.233245025291094e-16 5.233243771434663e-16 1.253856432045674e-22
5.265937586045735 3.807699136002472e-24 5.322403130340083e-16 5.322401838425598e-16 1.2919144844156555e-22
5.285722656980489 3.85806723953359e-24 5.413069426977835e-16 5.413068095899036e-16 1.3310787978436422e-22
5.305582063971359 3.9090960456080704e-24 5.505272372520183e-16 5.505271001140946e-16 1.3713792389559838e-22
5.3255160863122235 3.963881568563439e-24 5.603402302205041e-16 5.603400889193355e-16 1.4130116856257095e-22
5.365609099470188 4.0999931687594725e-24 5.839445318831188e-16 5.839443817577453e-16 1.501253735378862e-22
5.406003951863644 4.241324164889391e-24 6.086214561773921e-16 6.086212967019962e-16 1.594753957674681e-22
5.446702915881641 4.388126208858197e-24 6.344278377128781e-16 6.344276683327003e-16 1.6938017773603845e-22
5.487708281020852 4.546707169982605e-24 6.623040858808506e-16 6.623039059699569e-16 1.7991089335529335e-22
5.529022354014368 4.766441343361806e-24 6.995391609021659e-16 6.995389694668298e-16 1.914353360846413e-22
5.570647458961463 4.999126250929104e-24 7.392123477101534e-16 7.392121440470286e-16 2.0366312467377407e-22
5.612585937458331 5.245690612581929e-24 7.815110255899854e-16 7.815108089562078e-16 2.166337773875351e-22
5.654840148729818 5.516620556509113e-24 8.280620458067171e-16 8.280618153387761e-16 2.304679410996017e-22
5.67608639626678 5.700740207903405e-24 8.589139972675744e-16 8.589137592199858e-16 2.380475885869921e-22
5.686739436050992 5.795638592590793e-24 8.74850930861703e-16 8.748506889353573e-16 2.4192634585120134e-22
5.6974124697621304 5.892489579559638e-24 8.911399589811149e-16 8.911397131155817e-16 2.4586553335215923e-22
5.718818669136295 6.0922369880127505e-24 9.248100664823587e-16 9.248098125536695e-16 2.539286888682359e-22
5.740305295436557 6.312321193889412e-24 9.618193567387767e-16 9.618190943772948e-16 2.6236148188869843e-22
5.7835210386641895 6.882576220051893e-24 1.056605294198586e-15 1.0566050132042204e-15 2.809943659855151e-22
5.827062130521658 7.539235235812624e-24 1.1661284097903182e-15 1.166128108632679e-15 3.0115763930532556e-22
5.8489554468988025 7.999369601283664e-24 1.2419482778343685e-15 1.2419479649182665e-15 3.129161023971061e-22
5.870931020387893 8.49307705816605e-24 1.3235534221058024e-15 1.3235530969822594e-15 3.251235424033464e-22
5.892989160043636 9.023057367888271e-24 1.411428211624739e-15 1.4114278738286423e-15 3.3779609705647025e-22
5.915130176081913 9.625630023332385e-24 1.5113425328485333e-15 1.5113421814668177e-15 3.513817154884863e-22
5.95966208400165 1.1309299061705127e-23 1.789067627591348e-15 1.7890672433407015e-15 3.842506457702143e-22
6.004529249263818 1.3734799369711133e-23 2.1891257910831657e-15 2.1891253655461495e-15 4.255370156324275e-22
6.027089341400364 1.5420255692209573e-23 2.466997090575664e-15 2.4669966388977344e-15 4.516779300044251e-22
6.049734195844842 1.741173677923809e-23 2.7960685837694117e-15 2.796068102892269e-15 4.808771433441431e-22
6.095279466722835 2.3162957886837816e-23 3.747633162271006e-15 3.747632602662539e-15 5.596084662114904e-22
6.141167624020661 3.201221893502188e-23 5.218385552527805e-15 5.218384879130321e-15 6.733974865268697e-22
6.164241091010745 3.7663185233274586e-23 6.162630023051216e-15 6.1626292749828074e-15 7.480684073622605e-22
6.187401249150058 4.410008461819052e-23 7.242977506823448e-15 7.242976676438126e-15 8.303853235991998e-22
6.1990139391386085 4.724326137136337e-23 7.77377411125608e-15 7.773773238482609e-15 8.727734722917373e-22
6.204828454712694 4.88989292180033e-23 8.053757730001144e-15 8.05375683519546e-15 8.948056828032343e-22
6.210648424152782 5.0107806462930776e-23 8.260603358065938e-15 8.26060244490665e-15 9.131592885804004e-22
6.233982942956859 5.421546498644555e-23 8.971358871132446e-15 8.97135789269898e-15 9.784334662165173e-22
6.239830258556775 5.474096155655054e-23 9.066812414544895e-15 9.066811427008353e-15 9.875365410689988e-22
6.245683058788269 5.478727748315658e-23 9.082995410413306e-15 9.082994413693999e-15 9.967193093292736e-22
6.257405133728602 5.467616417900447e-23 9.081586965552449e-15 9.081585952726713e-15 1.0128257362641486e-21
6.269149208991335 5.387056650084788e-23 8.964572462018685e-15 8.964571443766705e-15 1.0182519799810463e-21
6.280915325867298 5.1847813968706835e-23 8.644160497103543e-15 8.644159486709125e-15 1.0103944185637208e-21
6.304513850009849 4.6858708289368275e-23 7.841720319484512e-15 7.841719337173301e-15 9.823112105378204e-22
6.32820103803542 4.067385821973186e-23 6.832270794506478e-15 6.8322698556981996e-15 9.388082781190758e-22
6.3519772230701035 3.500206691770126e-23 5.901631057469323e-15 5.9016301597477495e-15 8.977215776420979e-22
6.375842739491607 3.023066294345947e-23 5.116284672367711e-15 5.116283810668268e-15 8.616994430666301e-22
6.399797922933955 2.6407417652432884e-23 4.486024368178146e-15 4.486023530447279e-15 8.377308668396184e-22
6.42384311029221 2.322908183192372e-23 3.960923025100805e-15 3.960922207523921e-15 8.175768851137292e-22
6.447978639727206 2.0913969728149692e-23 3.579558778794556e-15 3.5795579701505996e-15 8.086439557025117e-22
6.472204850670314 1.89858539545661e-23 3.261758655142848e-15 3.2617578526342298e-15 8.025086162518689e-22
6.496522083828205 1.773404122822702e-23 3.0581449476692504e-15 3.0581441415174454e-15 8.061518044277872e-22
