Dust emission spectrum from A.P. Jones, M. Kohler, N. Ysard, M. Bocchio, and L. Verstraete (2017), A&A, 602A, 46J 
inside the DustPedia framework.

lambda    nu*dP/dnu     j_nu    j_nu(carb.) j_nu(sil)
 (um)   (erg s-1 H-1) (Jy cm2 sr-1 H-1)
0.9927057738263894 2.2048320654271076e-24 5.809857724361648e-17 5.809857392732127e-17 3.316295206412589e-24
1.0001793341362166 2.2419100825441893e-24 5.952035324547516e-17 5.952034925321154e-17 3.992263632545973e-24
1.0077091589558085 2.279081984776197e-24 6.096275526559696e-17 6.096275046591445e-17 4.799682520852478e-24
1.0114953028030835 2.2977006010231416e-24 6.169170045878383e-17 6.169169519868405e-17 5.2600997755169674e-24
1.0152956718711033 2.3163396623162724e-24 6.242581363104813e-17 6.242580786827084e-17 5.762777307588431e-24
1.0229392996569957 2.3536570762321035e-24 6.390906797676424e-17 6.390906106670028e-17 6.910063959967132e-24
1.0267826658714554 2.3722923962655214e-24 6.465709351820649e-17 6.465708595497892e-17 7.563227557007707e-24
1.0306404723013447 2.3909433557740424e-24 6.541026568308738e-17 6.541025740769534e-17 8.27539202885783e-24
1.03451277320114 2.409609026105415e-24 6.616858869202116e-17 6.616857964040158e-17 9.051619586883275e-24
1.0383996230291617 2.4282884936670704e-24 6.693206695419834e-17 6.693205705681626e-17 9.897382083029093e-24
1.0403485208654093 2.4376331201377896e-24 6.731574073890462e-17 6.731573039073615e-17 1.0348168481330704e-23
1.0423010764483396 2.4469808603661483e-24 6.770070508453881e-17 6.770069426594681e-17 1.0818592003972314e-23
1.0462171883269815 2.465685244047188e-24 6.847450792111928e-17 6.847449609948362e-17 1.182163563313826e-23
1.0471985131304309 2.4703631157960113e-24 6.86687662052541e-17 6.866875411927468e-17 1.2085979408496487e-23
1.048180758391296 2.4750416710474054e-24 6.886334768151834e-17 6.886333532553929e-17 1.2355979034472555e-23
1.0501480137395462 2.48440077892735e-24 6.925348054287353e-17 6.925346762946501e-17 1.2913408518524562e-23
1.0521189612883777 2.4937624620933747e-24 6.964490718063432e-17 6.96448936857625e-17 1.3494871822068698e-23
1.0531058218030118 2.4984377833868753e-24 6.984092548645752e-17 6.984091169151528e-17 1.3794942228575418e-23
1.0540936079674168 2.503092566675512e-24 7.003667558467278e-17 7.003666148321212e-17 1.4101460665992623e-23
1.058054026499678 2.5217166217457256e-24 7.082287594040349e-17 7.082286054640437e-17 1.539399911021632e-23
1.0590464539527713 2.5263738029425875e-24 7.102022645270964e-17 7.102021071828267e-17 1.5734426961823784e-23
1.06003981227728 2.5310314261402453e-24 7.121789731172942e-17 7.121788122967742e-17 1.6082052009905784e-23
1.0620293250338977 2.5403479491710654e-24 7.161420043474067e-17 7.161418363526577e-17 1.6799474904496666e-23
1.0660195594769086 2.5589857602853147e-24 7.241065492766231e-17 7.241063660042561e-17 1.832723667989132e-23
1.070024785945596 2.577629285173892e-24 7.321224561864674e-17 7.321222563128594e-17 1.9987360792938967e-23
1.0740450607676866 2.5962777730891304e-24 7.401897906604956e-17 7.401895727534548e-17 2.1790704103801822e-23
1.07808044048254 2.6149304928624e-24 7.483086220674926e-17 7.483083845778901e-17 2.3748960276323602e-23
1.0861967418109137 2.6522161414037416e-24 7.646925209970909e-17 7.646922391817169e-17 2.818153741299982e-23
1.0902777775684922 2.670780257046866e-24 7.729381626526192e-17 7.72937855812632e-17 3.068399872017363e-23
1.0943741465085532 2.689344702800125e-24 7.812350662068095e-17 7.81234732229021e-17 3.3397778859972864e-23
1.1026131145906286 2.726472122941931e-24 7.979830164706376e-17 7.979826211906226e-17 3.9528001495467676e-23
1.1109141095355224 2.7635937026216755e-24 8.149371387331912e-17 8.149366715055825e-17 4.6722760855672575e-23
1.1192775983109025 2.8006747047206777e-24 8.320892546036008e-17 8.320887030462819e-17 5.515573190711816e-23
1.1277040513999907 2.8375714198961748e-24 8.493982756390163e-17 8.493976253691906e-17 6.502698255119083e-23
1.1361939428280308 2.874445935342776e-24 8.669140613380799e-17 8.66913295671487e-17 7.656665928386951e-23
1.1447477501889525 2.911295144244753e-24 8.846377494516098e-17 8.84636849059997e-17 9.003916126386881e-23
1.1533659546722406 2.9481312391988395e-24 9.025751524884055e-17 9.025740950086305e-17 1.0574797748624657e-22
1.1707974979042381 3.021877424364755e-24 9.391350791256632e-17 9.39133625957432e-17 1.4531682309773792e-22
1.1884924949847024 3.0955401119022075e-24 9.765676027270938e-17 9.765656157796691e-17 1.986947424638157e-22
1.2064549276569216 3.1696362078181484e-24 1.0150558861757356e-16 1.0150531827499406e-16 2.703425794927928e-22
1.2246888378427687 3.2436089247820747e-24 1.0544443870219373e-16 1.0544407267294979e-16 3.6602924392585376e-22
1.2431983285522175 3.317374178427674e-24 1.0947231710415774e-16 1.0947182391501675e-16 4.931891409824576e-22
1.2619875648066055 3.3910111625168284e-24 1.1359356458186601e-16 1.1359290322773043e-16 6.613541356368648e-22
1.3004222497298317 3.5372948649514514e-24 1.2210264961077358e-16 1.2210147705473346e-16 1.1725560401366836e-21
1.3400274889804893 3.682734481900542e-24 1.3099464694029277e-16 1.3099260605431485e-16 2.0408859778938685e-21
1.3808389325824078 3.827730472633702e-24 1.4029875141919076e-16 1.4029526248956285e-16 3.488929627892064e-21
1.4228933163050095 3.973525071987345e-24 1.5007824072205734e-16 1.5007237976838808e-16 5.860953669294147e-21
1.466228494730424 4.122981318371955e-24 1.604657888208834e-16 1.6045610908187288e-16 9.679739010514118e-21
1.5108834753276823 4.2756431883473415e-24 1.714754138128813e-16 1.7145968958703128e-16 1.5724225849969786e-20
1.5568984535646726 4.43135518096282e-24 1.8313286141060477e-16 1.8310771123364874e-16 2.5150176956031814e-20
1.6043148490894465 4.59134808531389e-24 1.9552363182356305e-16 1.9548395057862898e-16 3.9681244934044647e-20
1.6531753430134553 4.757019811949549e-24 2.0874847545655568e-16 2.086867886399347e-16 6.16868166209555e-20
1.7035239163302658 4.930154030341518e-24 2.229349484702694e-16 2.2284044136867323e-16 9.450710159608772e-20
1.755405889504358 5.115302180963701e-24 2.383517135254201e-16 2.3820894969454307e-16 1.4276383087705614e-19
1.8088679632656115 5.313176353450771e-24 2.5511179072965097e-16 2.5489907153252223e-16 2.1271919712877483e-19
1.8639582606462262 5.524665993760586e-24 2.7334532020413906e-16 2.730325670797785e-16 3.127531243605628e-19
1.9207263702978936 5.7517263285058525e-24 2.932467082986392e-16 2.9279280244307423e-16 4.539058555648885e-19
1.979223391128241 5.996944031025903e-24 3.150607072849158e-16 3.14410179815197e-16 6.505274697188583e-19
2.039501978296691 6.2630702937095495e-24 3.390633510973914e-16 3.3814236108929777e-16 9.209900080936877e-19
2.1016163906111602 6.555161394388686e-24 3.65684261055535e-16 3.6439568011855475e-16 1.2885809369803082e-18
2.1656225393682647 6.877004956607874e-24 3.953225000803812e-16 3.935401864358047e-16 1.782313644576426e-18
2.231578038680979 7.230468078450365e-24 4.282998526183387e-16 4.258620079323396e-16 2.4378446859991235e-18
2.299542257339062 7.618713264885194e-24 4.650422987777696e-16 4.617438568218665e-16 3.2984419559031384e-18
2.369576372248914 8.04606539147821e-24 5.060852753265687e-16 5.016692506342761e-16 4.416024692292692e-18
2.4417434235010123 8.517326043253488e-24 5.520427772541994e-16 5.461907933357582e-16 5.851983918441297e-18
2.5161083711144245 9.039242164136082e-24 6.037133743956395e-16 5.96035124522949e-16 7.67824987269042e-18
2.5927381535095444 9.621077396649373e-24 6.621430119318613e-16 6.521650156704879e-16 9.977996261373241e-18
2.6717017477616296 1.0272078712262517e-23 7.284768352330034e-16 7.156311824018969e-16 1.28456528311065e-17
2.753070231689431 1.1004349442238273e-23 8.041759791015249e-16 7.877887781358853e-16 1.6387200965639536e-17
2.836916847834745 1.1843355406006932e-23 8.91847915753274e-16 8.711270832998486e-16 2.0720832453425525e-17
2.9233170693905177 1.2840713672529337e-23 9.964018323115479e-16 9.704302361779275e-16 2.597159613362044e-17
2.967498994190263 1.3443800686952923e-23 1.0589661514104711e-15 1.0300368237868387e-15 2.892932762363254e-17
3.0123486681368425 1.4096267568782336e-23 1.1271424496301124e-15 1.0949611665280912e-15 3.218128310202168e-17
3.0578761833420214 1.5080331070244413e-23 1.2240529516426229e-15 1.1882910155589605e-15 3.576193608366221e-17
3.1040917844459814 1.6227401579449617e-23 1.337066387432792e-15 1.2974031992438793e-15 3.966318818891263e-17
3.127460860933648 1.7210672273806222e-23 1.4287595662818075e-15 1.3870056872944947e-15 4.1753878987313327e-17
3.1510058709225794 1.844119076884814e-23 1.5424376086300899e-15 1.4985031173163601e-15 4.393449131372968e-17
3.162844764501044 1.9503920374439942e-23 1.6374544399332626e-15 1.5923909533562535e-15 4.5063486577008865e-17
3.1747281389236908 2.0707706037976135e-23 1.7450503636733247e-15 1.6988345597357298e-15 4.6215803937595536e-17
3.1986289994194426 2.3946420857277335e-23 2.0331710363987613e-15 1.984573439518037e-15 4.8597596880724355e-17
3.2227097969389145 3.12840508952959e-23 2.676169495939342e-15 2.625046646475129e-15 5.1122849464213214e-17
3.2348180950136065 3.812378551671842e-23 3.273522380152528e-15 3.221051551916535e-15 5.2470828235993245e-17
3.240889293275058 4.321480481448492e-23 3.717630178131334e-15 3.664448319912785e-15 5.318185821855024e-17
3.2469718861334385 4.910535300724023e-23 4.232303453577726e-15 4.178385879827726e-15 5.3917573750000865e-17
3.2714166318528037 8.014036720124744e-23 6.9591567436092775e-15 6.90219764732958e-15 5.695909627969546e-17
3.2744851364798273 8.209359424760393e-23 7.135455909928079e-15 7.0781380349996835e-15 5.731787492839731e-17
3.2775565192852394 8.409992747691602e-23 7.316699923627283e-15 7.25902144513416e-15 5.767847849312227e-17
3.283707930232385 8.224752450088791e-23 7.168970449014703e-15 7.110646396917824e-15 5.832405209687827e-17
3.2898708863219004 7.625156085258449e-23 6.6588161642845e-15 6.599903960707393e-15 5.891220357710744e-17
3.29141343181113 7.483602309020797e-23 6.538265777421537e-15 6.479205869213489e-15 5.905990820804867e-17
3.292184975758714 7.414024904139685e-23 6.478995856484612e-15 6.419861995808822e-15 5.913386067579046e-17
3.295272960557952 6.977022029850299e-23 6.102825076356887e-15 6.0434034332179756e-15 5.942164313891205e-17
3.3076538914384823 5.456357601996379e-23 4.7906265597484734e-15 4.7300487173233364e-15 6.057784242513653e-17
3.310756385682612 5.145051669549964e-23 4.521540226775003e-15 4.460670887722845e-15 6.086933905215737e-17
3.313861789986515 4.8571250437882236e-23 4.272510206012325e-15 4.211348389455907e-15 6.116181655641774e-17
3.3200813396944477 4.4559479543275344e-23 3.926976175044047e-15 3.865185567862961e-15 6.179060718108586e-17
3.345076488085796 3.7617943854118096e-23 3.3401851409366702e-15 3.2755931769858262e-15 6.45919639508435e-17
3.3482140837626964 3.79270213110217e-23 3.3707875998042573e-15 3.3058161809821133e-15 6.497141882214371e-17
3.3513546224236106 3.823896754320279e-23 3.4016997319655176e-15 3.3363471129637544e-15 6.53526190017635e-17
3.3576445397418455 4.032383113483384e-23 3.593899577318891e-15 3.5277500747787913e-15 6.614950254009969e-17
3.3702598118196083 4.783691218780863e-23 4.279528801031176e-15 4.211707735776641e-15 6.78210652545356e-17
3.382922481734668 4.9688780426856115e-23 4.461899836288238e-15 4.392452608830428e-15 6.94472274578086e-17
3.389271646505754 5.064398356924164e-23 4.5562093477447785e-15 4.485937596940465e-15 7.02717508043142e-17
3.395632727569191 5.1684389921047115e-23 4.658536880339578e-15 4.587415400090274e-15 7.112148024930416e-17
3.421196662673239 5.66777598005533e-23 5.14707088196993e-15 5.0724303354066225e-15 7.464054656330665e-17
3.4276182099114902 5.584155700835375e-23 5.080651352763171e-15 5.005223901654461e-15 7.542745110870989e-17
3.4340518103208963 5.189724748271928e-23 4.7306476357334246e-15 4.6544751494686445e-15 7.617248626477923e-17
3.4469541582030403 4.6278440819718545e-23 4.2343198388485855e-15 4.156715805690047e-15 7.760403315853785e-17
3.472904465399547 4.490553733906822e-23 4.139636115633197e-15 4.058736694868198e-15 8.089942076499863e-17
3.4990501388274233 4.270878347507743e-23 3.966767987805812e-15 3.8824928492185244e-15 8.42751385872865e-17
3.5253949054701885 3.433276480112226e-23 3.2128169620431937e-15 3.1252567283792313e-15 8.756023366396139e-17
3.5519380250092896 2.6396601855244406e-23 2.4887589479891356e-15 2.3978923712426784e-15 9.086657674645688e-17
3.578680990867387 2.342811515375525e-23 2.225511124448022e-15 2.131020019801619e-15 9.449110464640289e-17
3.605625307711299 2.241416678561145e-23 2.145223894271616e-15 2.046912760805927e-15 9.831113346568903e-17
3.660119384959845 2.2072359514269935e-23 2.1444377594047865e-15 2.0380889926235354e-15 1.0634876678125113e-16
3.715437065384467 2.2006551185484253e-23 2.1703577608210125e-15 2.0555182900851325e-15 1.1483947073587998e-16
3.8285932144167436 2.293858184605178e-23 2.331176856917539e-15 2.1980279940715844e-15 1.3314886284595412e-16
3.94519561050918 2.4192568158158788e-23 2.53349439357493e-15 2.3802885045276724e-15 1.532058890472586e-16
4.06534921144712 2.559987008101487e-23 2.7625175869359244e-15 2.5875085975426257e-15 1.7500898939329836e-16
4.189162171576248 2.710780658573462e-23 3.014331309309108e-15 2.815711738206126e-15 1.9861957110298168e-16
4.316745939156006 2.8691143833634224e-23 3.287560735304343e-15 3.0635869419554193e-15 2.2397379334892377e-16
4.448215356677963 3.033409343178042e-23 3.581675681849327e-15 3.3309277886648256e-15 2.5074789318450054e-16
4.58368876423945 3.203037850367473e-23 3.897145539272596e-15 3.618150697680743e-15 2.7899484159185286e-16
4.723288106065518 3.3779168612184924e-23 4.235091778854296e-15 3.926181998932785e-15 3.089097799215105e-16
4.867139040275056 3.557726226727957e-23 4.596377725381865e-15 4.256631129784176e-15 3.3974659559769005e-16
4.940699165968905 3.6508311743298086e-23 4.7879498658753296e-15 4.432342138074171e-15 3.5560772780115834e-16
5.015371051989984 3.7439181940584224e-23 4.9842389265032345e-15 4.61251948561902e-15 3.7171944088421447e-16
5.091171501069577 3.8417195434015694e-23 5.191738587410716e-15 4.803317669170865e-15 3.884209182398502e-16
5.129500256944802 3.8905365548137926e-23 5.2972929293080664e-15 4.900440849116097e-15 3.96852080191968e-16
5.168117569889187 3.9397326024989015e-23 5.404662315740619e-15 4.999248171899117e-15 4.0541414384150265e-16
5.20702561229733 3.992772700204061e-23 5.518661220277368e-15 5.1039235143397326e-15 4.1473770593763497e-16
5.246226572918644 4.0458758039832653e-23 5.634158015728536e-15 5.21001763191512e-15 4.2414038381341643e-16
5.265937586045735 4.0724488765906294e-23 5.69247040659618e-15 5.263600017573111e-15 4.288703890230678e-16
5.285722656980489 4.09903524121064e-23 5.751160093048154e-15 5.317541132473792e-15 4.3361896057436097e-16
5.305582063971359 4.1256341511016425e-23 5.810228105473066e-15 5.371842421479502e-15 4.383856839935641e-16
5.3255160863122235 4.152934387680301e-23 5.870650196359884e-15 5.427443966604692e-15 4.4320622975519264e-16
5.365609099470188 4.212942403604129e-23 6.000314094346431e-15 5.547134529189142e-15 4.531795651572889e-16
5.406003951863644 4.273341682084784e-23 6.132159052647686e-15 5.668923563149436e-15 4.632354894982488e-16
5.446702915881641 4.334148687776947e-23 6.2662385935064466e-15 5.7928678610668005e-15 4.733707324396461e-16
5.487708281020852 4.3967008970106033e-23 6.4045315865311456e-15 5.920908092450846e-15 4.836234940803008e-16
5.529022354014368 4.471501549208238e-23 6.5625279246585054e-15 6.068213504274864e-15 4.943144203836397e-16
5.570647458961463 4.547764573347691e-23 6.724702594723661e-15 6.219609623403152e-15 5.050929713205108e-16
5.612585937458331 4.625601189281847e-23 6.8912915312529846e-15 6.3753356867469545e-15 5.159558445060289e-16
5.654840148729818 4.7071429998192077e-23 7.06556926003548e-15 6.538618021139415e-15 5.269512388960664e-16
5.67608639626678 4.75753089926089e-23 7.168033856626163e-15 6.6353309549323476e-15 5.327029016938135e-16
5.686739436050992 4.783100520614857e-23 7.220084337581913e-15 6.684496452830056e-15 5.355878847518546e-16
5.6974124697621304 4.808928775363459e-23 7.272696088400648e-15 6.734217187575156e-15 5.384789008254932e-16
5.718818669136295 4.861386724386612e-23 7.37965280835695e-15 6.835373982458688e-15 5.442788258982632e-16
5.740305295436557 4.9174787652689704e-23 7.492847904137335e-15 6.9427034727222895e-15 5.501444314150449e-16
5.7835210386641895 5.05433591253484e-23 7.759359160140312e-15 7.197084810606795e-15 5.622743495335187e-16
5.827062130521658 5.2050071708417077e-23 8.050825508466329e-15 7.47621226000929e-15 5.746132484570382e-16
5.8489554468988025 5.305872519973289e-23 8.237673175561344e-15 7.65640082266079e-15 5.812723529005528e-16
5.870931020387893 5.411747983326774e-23 8.43361895088352e-15 7.845651397666994e-15 5.87967553216523e-16
5.892989160043636 5.523028229166473e-23 8.639375256537671e-15 8.044676761744516e-15 5.946984947931561e-16
5.915130176081913 5.647109900800303e-23 8.866658452549633e-15 8.26498367706105e-15 6.016747754885839e-16
5.95966208400165 5.984451122631276e-23 9.467065742965738e-15 8.849512643641635e-15 6.175530993240987e-16
6.004529249263818 6.455013118874104e-23 1.02883451879681e-14 9.652932830572722e-15 6.354123573953784e-16
6.027089341400364 6.776547636816811e-23 1.0841404732750561e-14 1.0195682279493622e-14 6.45722453256939e-16
6.049734195844842 7.150551997281752e-23 1.1482733773031464e-14 1.0826091587166422e-14 6.566421858650434e-16
6.095279466722835 8.217155903793051e-23 1.3294884925774006e-14 1.2611432180292936e-14 6.83452745481069e-16
6.141167624020661 9.82965910264892e-23 1.602355374104325e-14 1.5305341333394242e-14 7.182124076490126e-16
6.164241091010745 1.0855506909780886e-22 1.7762298218620208e-14 1.7022287441206668e-14 7.400107774135416e-16
6.187401249150058 1.2006919010482122e-22 1.9720108265574845e-14 1.8957705381467898e-14 7.624028841069508e-16
6.1990139391386085 1.2567512475653784e-22 2.067956366478638e-14 1.9905765265720244e-14 7.737983990661386e-16
6.204828454712694 1.2861332908689776e-22 2.1182889070982387e-14 2.0403334016502045e-14 7.795550544803438e-16
6.210648424152782 1.3075637854075574e-22 2.155605395461431e-14 2.0771590041674544e-14 7.844639129397659e-16
6.233982942956859 1.379800335996489e-22 2.2832385533958697e-14 2.2030788987680746e-14 8.015965462779503e-16
6.239830258556775 1.3887507952930177e-22 2.3002049276142227e-14 2.2198061751639824e-14 8.039875245024082e-16
6.245683058788269 1.3891987721076656e-22 2.3031051460961802e-14 2.2224668815146604e-14 8.063826458151969e-16
6.257405133728602 1.3864454400305206e-22 2.3028544569089894e-14 2.2217961635628044e-14 8.105829334618475e-16
6.269149208991335 1.37131777895297e-22 2.282002658666107e-14 2.2007861512551922e-14 8.121650741091512e-16
6.280915325867298 1.334581846215768e-22 2.2250387802603805e-14 2.1439879111537414e-14 8.105086910663829e-16
6.304513850009849 1.244506384783504e-22 2.0826589894496174e-14 2.0022325581304638e-14 8.04264313191536e-16
6.32820103803542 1.1341355157017039e-22 1.905086288859168e-14 1.825596220793411e-14 7.949006806575685e-16
6.3519772230701035 1.0334366054582778e-22 1.7424575471609868e-14 1.663804716793121e-14 7.865283036786591e-16
6.375842739491607 9.484306511600602e-23 1.60513886592877e-14 1.5272217444622494e-14 7.7917121466521e-16
6.399797922933955 8.814136506374718e-23 1.497322898909154e-14 1.4197710408615752e-14 7.755185804757904e-16
6.42384311029221 8.255074048697129e-23 1.4076196859602143e-14 1.3303593578823613e-14 7.726032807785265e-16
6.447978639727206 7.853848951623597e-23 1.3442361410837676e-14 1.2669781211584903e-14 7.72580199252771e-16
6.472204850670314 7.519512720699976e-23 1.2918479072836852e-14 1.2145346855948427e-14 7.731322168884268e-16
6.496522083828205 7.307431860005635e-23 1.260129348720801e-14 1.1825262681559962e-14 7.760308056480512e-16
6.520930681187647 7.129613894649256e-23 1.23408486998108e-14 1.156156097051463e-14 7.792877292961662e-16
6.57002334288761 6.956627526841213e-23 1.2132075281953462e-14 1.1343014199164594e-14 7.890610827888682e-16
