Dust emission spectrum from A.P. Jones, M. Kohler, N. Ysard, M. Bocchio, and L. Verstraete (2017), A&A, 602A, 46J 
inside the DustPedia framework.

lambda    nu*dP/dnu     j_nu    j_nu(carb.) j_nu(sil)
 (um)   (erg s-1 H-1) (Jy cm2 sr-1 H-1)
0.9927057738263894 2.9657955117832177e-25 7.815039627370883e-18 7.815039318562248e-18 3.088086366297728e-25
1.0001793341362166 3.015511714767358e-25 8.005866242197247e-18 8.005865870409301e-18 3.7178794670241166e-25
1.0077091589558085 3.065309071294263e-25 8.199340259586005e-18 8.199339812562661e-18 4.470233420044364e-25
1.0114953028030835 3.0902341377831776e-25 8.297068760426713e-18 8.297068270497766e-18 4.89928947152589e-25
1.0152956718711033 3.1151746680185616e-25 8.39545755821611e-18 8.395457021440477e-18 5.3677562952229655e-25
1.0229392996569957 3.165071540039297e-25 8.59414798554732e-18 8.594147341840888e-18 6.4370643255383e-25
1.0267826658714554 3.189969695295924e-25 8.694297938722894e-18 8.694297234133846e-18 7.045890495884799e-25
1.0306404723013447 3.214875823421452e-25 8.795100947929136e-18 8.795100176953587e-18 7.709755487234095e-25
1.03451277320114 3.239788412997791e-25 8.896556438257989e-18 8.896555594919376e-18 8.433386111963088e-25
1.0383996230291617 3.2647059708867414e-25 8.998663840768571e-18 8.99866291857936e-18 9.221892128414588e-25
1.0403485208654093 3.2771661514783447e-25 9.04996183341815e-18 9.049960869199951e-18 9.642182019212863e-25
1.0423010764483396 3.2896270227870665e-25 9.101422594474725e-18 9.101421586395201e-18 1.008079525642572e-24
1.0462171883269815 3.314550113787147e-25 9.204832148361644e-18 9.20483104675562e-18 1.1016060225895357e-24
1.0471985131304309 3.3207810365396334e-25 9.230786160904256e-18 9.230785034649073e-18 1.1262551843878083e-24
1.048180758391296 3.327011974726549e-25 9.25678080641015e-18 9.256779654977983e-18 1.1514321641381997e-24
1.0501480137395462 3.3394738089130944e-25 9.308891963431543e-18 9.308890760018742e-18 1.2034127988047283e-24
1.0521189612883777 3.3519354401794857e-25 9.361165554269134e-18 9.361164296632673e-18 1.2576364619959937e-24
1.0531058218030118 3.358157316901845e-25 9.387338620199955e-18 9.387337334580075e-18 1.2856198821956304e-24
1.0540936079674168 3.364350219504956e-25 9.413471479787942e-18 9.413470165582852e-18 1.3142050947346557e-24
1.058054026499678 3.3891190469658584e-25 9.51840328689892e-18 9.518401852149351e-18 1.4347495666299216e-24
1.0590464539527713 3.3953104517348617e-25 9.544736288770869e-18 9.544734822271021e-18 1.4664998498642456e-24
1.06003981227728 3.4015014934266455e-25 9.57110929412577e-18 9.57110779520382e-18 1.498921951924039e-24
1.0620293250338977 3.4138824038048196e-25 9.62397528285403e-18 9.623973717018113e-18 1.5658359207403107e-24
1.0660195594769086 3.438638951116544e-25 9.73018695040949e-18 9.730185242071788e-18 1.7083377003296517e-24
1.070024785945596 3.4633873729523376e-25 9.837037795914103e-18 9.83703593271757e-18 1.8631965339547165e-24
1.0740450607676866 3.4881263768343125e-25 9.944527351533531e-18 9.944525320106448e-18 2.0314270809436076e-24
1.07808044048254 3.5128546942643785e-25 1.0052655177502744e-17 1.0052652963380435e-17 2.214122307522328e-24
1.0861967418109137 3.562234033079588e-25 1.0270707883164919e-17 1.0270705255460268e-17 2.627704650221308e-24
1.0902777775684922 3.58679102951767e-25 1.038036604044597e-17 1.0380363179223397e-17 2.861222575865042e-24
1.0943741465085532 3.6113309082740266e-25 1.0490653497421295e-17 1.0490650382942765e-17 3.1144785310094222e-24
1.1026131145906286 3.660354811924578e-25 1.0713115126299781e-17 1.0713111439670377e-17 3.6866294060058814e-24
1.1109141095355224 3.7092970173130986e-25 1.0938090845745826e-17 1.093808648750795e-17 4.358237879465511e-24
1.1192775983109025 3.758108005489612e-25 1.1165456965554848e-17 1.116545182000492e-17 5.1455499253845934e-24
1.1277040513999907 3.8065904163508232e-25 1.1394643014238912e-17 1.139463694695483e-17 6.067284080345946e-24
1.1361939428280308 3.854961629727276e-25 1.1626311706331727e-17 1.1626304561354583e-17 7.144977142959915e-24
1.1447477501889525 3.9032148845936274e-25 1.1860464363975331e-17 1.1860455960599127e-17 8.403376202609951e-24
1.1533659546722406 3.9513648734958406e-25 1.2097167540621477e-17 1.2097157669728735e-17 9.870892740806406e-24
1.1707974979042381 4.0475043981982195e-25 1.2578780769251138e-17 1.2578767200918126e-17 1.356833301183904e-23
1.1884924949847024 4.143154147175148e-25 1.3070643464378636e-17 1.3070624906598828e-17 1.8557779810973157e-23
1.2064549276569216 4.2390003970898445e-25 1.3575129833367278e-17 1.3575104576132579e-17 2.5257234704972355e-23
1.2246888378427687 4.33425546202796e-25 1.408995797531792e-17 1.4089923767817973e-17 3.4207499943486726e-23
1.2431983285522175 4.4287873248551185e-25 1.461486055948043e-17 1.46148144536698e-17 4.610581062949991e-23
1.2619875648066055 4.522669622173028e-25 1.515023511239197e-17 1.5150173265894943e-17 6.184649702345405e-23
1.3004222497298317 4.70755837509341e-25 1.6249856818317072e-17 1.6249747095004332e-17 1.0972331273840513e-22
1.3400274889804893 4.889064129855992e-25 1.739037209189254e-17 1.7390180984926116e-17 1.9110696642243e-22
1.3808389325824078 5.067476972726696e-25 1.8573948641422328e-17 1.8573621714811107e-17 3.2692661121833917e-22
1.4228933163050095 5.24421696054401e-25 1.9807169733286294e-17 1.980662014915305e-17 5.495841332447387e-22
1.466228494730424 5.4228797599809935e-25 2.110576330987995e-17 2.1104854977559445e-17 9.083323205025542e-22
1.5108834753276823 5.602516066523534e-25 2.246898814004578e-17 2.2467511505880482e-17 1.4766341653011705e-21
1.5568984535646726 5.782582197405698e-25 2.3897448543559056e-17 2.3895084944647406e-17 2.3635989116561303e-21
1.6043148490894465 5.964396568895333e-25 2.539952225614554e-17 2.539579016677187e-17 3.732089373672123e-21
1.6531753430134553 6.149470783151548e-25 2.6985228180528164e-17 2.6979421875849818e-17 5.806304678345517e-21
1.7035239163302658 6.339841844929532e-25 2.866791394976186e-17 2.8659011292398025e-17 8.90265736383354e-21
1.755405889504358 6.541240910014623e-25 3.047945017376926e-17 3.0465990692165293e-17 1.3459481603965334e-20
1.8088679632656115 6.754186354029964e-25 3.2430178504789604e-17 3.2410107038117495e-17 2.0071466672106853e-20
1.8639582606462262 6.979463143949335e-25 3.453246929480337e-17 3.450293382481003e-17 2.953546999333928e-20
1.9207263702978936 7.219249344296849e-25 3.680670785934466e-17 3.676380506241841e-17 4.290279692625539e-20
1.979223391128241 7.47653874893618e-25 3.927939920893247e-17 3.9217857284293027e-17 6.15419246394521e-20
2.039501978296691 7.75455401996298e-25 4.1980768999434266e-17 4.189356140497067e-17 8.72075944635866e-20
2.1016163906111602 8.059516291244738e-25 4.496057506611137e-17 4.4838447497208154e-17 1.2212756890323622e-19
2.1656225393682647 8.3959382883995e-25 4.826379122355405e-17 4.809470905963632e-17 1.690821639177199e-19
2.231578038680979 8.765835584747102e-25 5.1924800003106e-17 5.1693305458561046e-17 2.3149454454494777e-19
2.299542257339062 9.172855274794703e-25 5.599063194840682e-17 5.567710531184409e-17 3.1352663656276036e-19
2.369576372248914 9.622255262449243e-25 6.052252208783627e-17 6.01023393381885e-17 4.2018274964776916e-19
2.4417434235010123 1.0119927633804812e-24 6.559139486038884e-17 6.503400160041487e-17 5.573932599739748e-19
2.5161083711144245 1.0674411451804513e-24 7.129231455734836e-17 7.056019174922906e-17 7.321228081193288e-19
2.5927381535095444 1.1297821522674515e-24 7.775401093746068e-17 7.680156583361079e-17 9.524451038498928e-19
2.6717017477616296 1.2002743359416803e-24 8.512123730266875e-17 8.38936848448902e-17 1.2275524577785834e-18
2.753070231689431 1.2806216114681118e-24 9.358528131686376e-17 9.201748776771094e-17 1.5677935491527934e-18
2.836916847834745 1.3744685575407805e-24 1.0350250214474029e-16 1.0151775561700777e-16 1.9847465277325045e-18
2.9233170693905177 1.4893672096946316e-24 1.155705402807375e-16 1.1307981451973208e-16 2.4907257610054308e-18
2.967498994190263 1.5615757396440937e-24 1.23005085366352e-16 1.2022888139045682e-16 2.776203975895119e-18
3.0123486681368425 1.6405049169008885e-24 1.3117534280924826e-16 1.2808504403131774e-16 3.0902987779304846e-18
3.0578761833420214 1.767353436699126e-24 1.4345402502839326e-16 1.4001765942740921e-16 3.436365600984049e-18
3.1040917844459814 1.9181758782406783e-24 1.5804924031879253e-16 1.5423549615496308e-16 3.813744163829505e-18
3.127460860933648 2.0536615371013182e-24 1.7048657486228457e-16 1.664704633687157e-16 4.0161114935688226e-18
3.1510058709225794 2.225844040400462e-24 1.861715765479969e-16 1.8194429916521548e-16 4.227277382781391e-18
3.162844764501044 2.3774956796773092e-24 1.9960299169963919e-16 1.9526634836650696e-16 4.3366433331322535e-18
3.1747281389236908 2.5504628751583887e-24 2.1492898149453577e-16 2.104806874265596e-16 4.448294067976173e-18
3.1986289994194426 3.0203927081383118e-24 2.5644646476972726e-16 2.517673148605287e-16 4.679149909198538e-18
3.2227097969389145 4.0970992957035046e-24 3.5048313256148644e-16 3.455591234387961e-16 4.9240091226903105e-18
3.2348180950136065 5.105711463683149e-24 4.3840506697947596e-16 4.333503267958703e-16 5.05474018360572e-18
3.240889293275058 5.857448731232135e-24 5.038974088525044e-16 4.987737103714485e-16 5.1236984810558196e-18
3.2469718861334385 6.727267379897637e-24 5.798112674372504e-16 5.746162160264808e-16 5.195051410769362e-18
3.2714166318528037 1.132602707959896e-23 9.835192984749078e-16 9.780291860417788e-16 5.490112433129032e-18
3.2744851364798273 1.1614979243931475e-23 1.0095571164765e-15 1.00403217606839e-15 5.524940408109957e-18
3.2775565192852394 1.191191368420828e-23 1.036337373387442e-15 1.0307774257387434e-15 5.559947648698599e-18
3.283707930232385 1.1634786582787308e-23 1.0141270718937506e-15 1.008504406914632e-15 5.6226649791185755e-18
3.2898708863219004 1.0742615602837755e-23 9.381198446699907e-16 9.324399991379263e-16 5.679845532064424e-18
3.29141343181113 1.0532047507123278e-23 9.20162816495419e-16 9.144686098936666e-16 5.6942066017523324e-18
3.292184975758714 1.0428556235640089e-23 9.113345789019744e-16 9.056331818608827e-16 5.701397041091678e-18
3.295272960557952 9.77763443858584e-24 8.552530346608735e-16 8.49523648510246e-16 5.7293861506275614e-18
3.3076538914384823 7.515202291394056e-24 6.598271287399179e-16 6.539852715460035e-16 5.841857193914435e-18
3.310756385682612 7.052747166603019e-24 6.198048546684141e-16 6.139346372249131e-16 5.870217443501161e-18
3.313861789986515 6.625291786941748e-24 5.82785629818602e-16 5.768869548903887e-16 5.898674928213109e-18
3.3200813396944477 6.028603098249041e-24 5.3129392394785e-16 5.253340880702883e-16 5.959835877561789e-18
3.345076488085796 4.987045689574921e-24 4.4281144057443957e-16 4.365791717234555e-16 6.2322688509840225e-18
3.3482140837626964 5.031292270970817e-24 4.471592287436234e-16 4.4089005957613674e-16 6.2691691674867106e-18
3.3513546224236106 5.075970612410845e-24 4.515531924912582e-16 4.452469509144144e-16 6.306241576843744e-18
3.3576445397418455 5.3817892084483326e-24 4.796570518507486e-16 4.732733191655824e-16 6.383732685166148e-18
3.3702598118196083 6.49095927542668e-24 5.806864593695137e-16 5.741401744114837e-16 6.546284958029872e-18
3.382922481734668 6.758694739014072e-24 6.069100245662259e-16 6.002055238710309e-16 6.704500695195041e-18
3.389271646505754 6.896961902846107e-24 6.204883596848857e-16 6.137036222371629e-16 6.784737447722648e-18
3.395632727569191 7.047163761762857e-24 6.351912509002242e-16 6.283238232424755e-16 6.867427657748751e-18
3.421196662673239 7.768308201651672e-24 7.054624792439166e-16 6.982525102132206e-16 7.20996903069569e-18
3.4276182099114902 7.64133532942357e-24 6.952342083252634e-16 6.879475574546849e-16 7.286650870578347e-18
3.4340518103208963 7.054585257521787e-24 6.430544718327837e-16 6.356951777184457e-16 7.359294114338215e-18
3.4469541582030403 6.218721740299493e-24 5.689918755000374e-16 5.614929165685893e-16 7.498958931447923e-18
3.472904465399547 6.006077903019703e-24 5.536728535929543e-16 5.458525087730312e-16 7.820344819922961e-18
3.4990501388274233 5.6704246782603144e-24 5.266658813663693e-16 5.185161199692006e-16 8.149761397168669e-18
3.5253949054701885 4.415910739050095e-24 4.1323537464786647e-16 4.0476472913763716e-16 8.470645510229201e-18
3.5519380250092896 3.2295598548964277e-24 3.0449358712978007e-16 2.956997287968854e-16 8.793858332894722e-18
3.578680990867387 2.7779924784873395e-24 2.63890335348447e-16 2.5474211627302896e-16 9.148219075418018e-18
3.605625307711299 2.615166131475821e-24 2.5029334913012057e-16 2.4077149684515773e-16 9.521852284962695e-18
3.660119384959845 2.5386971930556868e-24 2.4664685789319095e-16 2.36338145979123e-16 1.0308711914067926e-17
3.715437065384467 2.503297683048693e-24 2.468833716040743e-16 2.3574240872315365e-16 1.114096288092065e-17
3.8285932144167436 2.5884688952199963e-24 2.6305805755059683e-16 2.501187712004915e-16 1.2939286350105251e-17
3.94519561050918 2.72016867002661e-24 2.8486153392385777e-16 2.6994671328877135e-16 1.4914820635086532e-17
4.06534921144712 2.8737280479751618e-24 3.1010799068429147e-16 2.930391369300523e-16 1.706885375423897e-17
4.189162171576248 3.0416588120533666e-24 3.3822608850372023e-16 3.188171607716996e-16 1.9408927732020678e-17
4.316745939156006 3.220663220352469e-24 3.6903812571101835e-16 3.4710766864843067e-16 2.193045706258765e-17
4.448215356677963 3.40896698280792e-24 4.025112591549686e-16 3.779079691199724e-16 2.4603290034996074e-17
4.58368876423945 3.60606337303839e-24 4.387507873801292e-16 4.113163860157972e-16 2.7434401364332186e-17
4.723288106065518 3.8122321043259955e-24 4.77961818109742e-16 4.475168183960359e-16 3.044499971370599e-17
4.867139040275056 4.027800713707582e-24 5.203686934559155e-16 4.868052662007714e-16 3.3563427255144024e-17
4.940699165968905 4.1412068395219e-24 5.431062074649544e-16 5.079329232141148e-16 3.517328425083959e-17
5.015371051989984 4.2553505007737524e-24 5.665103379003104e-16 5.296975766103406e-16 3.68127612899699e-17
5.091171501069577 4.377084234318299e-24 5.915235837214791e-16 5.530076952446619e-16 3.851588847681712e-17
5.129500256944802 4.438184920323239e-24 6.042962266554318e-16 5.649188042428691e-16 3.937742241256265e-17
5.168117569889187 4.500058038559624e-24 6.173336252369584e-16 5.770803810508985e-16 4.025324418605979e-17
5.20702561229733 4.5675592708677945e-24 6.313109739046306e-16 5.901054989031148e-16 4.120547500151589e-17
5.246226572918644 4.635439019822336e-24 6.455165006360354e-16 6.033494495057368e-16 4.2167051130298657e-17
5.265937586045735 4.669520871560109e-24 6.527057841568851e-16 6.100545282784806e-16 4.265125587840461e-17
5.285722656980489 4.703697490880045e-24 6.599532745498029e-16 6.16815583985107e-16 4.3137690564696144e-17
5.305582063971359 4.7379690287954595e-24 6.672593789397804e-16 6.236330602608882e-16 4.3626318678892044e-17
5.3255160863122235 4.773330589448861e-24 6.747651551001535e-16 6.306444840736851e-16 4.412067102646826e-17
5.365609099470188 4.852128669553244e-24 6.910679818123253e-16 6.459245092859761e-16 4.5143472526349257e-17
5.406003951863644 4.9318812200865615e-24 7.077149996482986e-16 6.6153884924812455e-16 4.61761504001741e-17
5.446702915881641 5.0126263832459476e-24 7.247170127344024e-16 6.774985926742303e-16 4.7218420060172104e-17
5.487708281020852 5.096325537395363e-24 7.423652107353075e-16 6.9409109132869805e-16 4.827411940660947e-17
5.529022354014368 5.19836246398548e-24 7.62929375221661e-16 7.135541814666029e-16 4.937519375505812e-17
5.570647458961463 5.3031255785482745e-24 7.841642143748351e-16 7.336773530074803e-16 5.048686136735478e-17
5.612585937458331 5.4108075678154086e-24 8.061104025942839e-16 7.545015645779748e-16 5.1608838016309107e-17
5.654840148729818 5.524569389266291e-24 8.29255190531329e-16 7.765092095104947e-16 5.27459810208344e-17
5.67608639626678 5.595861599734036e-24 8.431122414805409e-16 7.897715834138901e-16 5.334065806665078e-17
5.686739436050992 5.632149472893864e-24 8.501722684041324e-16 7.965331640241629e-16 5.363910437996942e-17
5.6974124697621304 5.6688787184622015e-24 8.573225765495291e-16 8.033842930747535e-16 5.393828347477576e-17
5.718818669136295 5.7437035048570994e-24 8.719021979337902e-16 8.173633753478921e-16 5.4538822585898346e-17
5.740305295436557 5.824135572497347e-24 8.874336647066641e-16 8.322871778763488e-16 5.514648683031516e-17
5.7835210386641895 6.0223650063619435e-24 9.245466444351782e-16 8.68143083493887e-16 5.640356094129124e-17
5.827062130521658 6.242554866187077e-24 9.655648552463429e-16 9.07880995894735e-16 5.76838593516082e-17
5.8489554468988025 6.391071071160097e-24 9.922506529852826e-16 9.338765241216899e-16 5.837412886359265e-17
5.870931020387893 6.5476880416646384e-24 1.0203857630249506e-15 9.613171215943898e-16 5.906864143056136e-17
5.892989160043636 6.713042749356512e-24 1.0500850804744665e-15 9.903177102778683e-16 5.976737019659852e-17
5.915130176081913 6.898120194176587e-24 1.0830898778458544e-15 1.0225984943533614e-15 6.049138349249292e-17
5.95966208400165 7.403659805108061e-24 1.1712174212343293e-15 1.109082343100356e-15 6.213507813397329e-17
6.004529249263818 8.113377667438531e-24 1.2931535311506638e-15 1.2291718937761398e-15 6.398163737452401e-17
6.027089341400364 8.599898831186181e-24 1.3758478341250727e-15 1.3108022959284641e-15 6.504553819660846e-17
6.049734195844842 9.1677750200055e-24 1.4722096963393832e-15 1.4060377486728191e-15 6.61719476665642e-17
6.095279466722835 1.0791443855462933e-23 1.7459934546830765e-15 1.6770632342812036e-15 6.893022040187227e-17
6.141167624020661 1.325604415209756e-23 2.160898294097879e-15 2.0884010566434698e-15 7.249723745440977e-17
6.164241091010745 1.482569156758328e-23 2.4258503735410776e-15 2.3511206074901307e-15 7.47297660509472e-17
6.187401249150058 1.6594006910522868e-23 2.725392022295888e-15 2.6483678107762503e-15 7.702421151963839e-17
6.1990139391386085 1.74559404156047e-23 2.872336366106819e-15 2.7941442647751156e-15 7.819210133170425e-17
6.204828454712694 1.7908263170803413e-23 2.9495290643225683e-15 2.8707468647321613e-15 7.878219959040644e-17
6.210648424152782 1.8238618504180175e-23 3.006756908697898e-15 2.927470486062839e-15 7.928642263505853e-17
6.233982942956859 1.9355421868564366e-23 3.2028579986996126e-15 3.121807372622325e-15 8.105062607728856e-17
6.239830258556775 1.949560213262226e-23 3.2290804256786968e-15 3.1477803048978326e-15 8.130012078086478e-17
6.245683058788269 1.9505063100942354e-23 3.233677721623375e-15 3.152127630911194e-15 8.155009071218182e-17
6.257405133728602 1.9468057046475886e-23 3.233600157814254e-15 3.1516097756536683e-15 8.199038216058589e-17
6.269149208991335 1.9241131278170868e-23 3.2019064732067017e-15 3.119740996170771e-15 8.216547703592982e-17
6.280915325867298 1.8682078139636506e-23 3.114709560482466e-15 3.0326971695905318e-15 8.201239089193297e-17
6.304513850009849 1.7307880877945314e-23 2.896442649030412e-15 2.815033687276124e-15 8.140896175428799e-17
6.32820103803542 1.5617474735523403e-23 2.6233758288436786e-15 2.5428865877417464e-15 8.048924110193223e-17
6.3519772230701035 1.4072927041398517e-23 2.372809111310386e-15 2.2931392026024247e-15 7.966990870796124e-17
6.375842739491607 1.2770243867327691e-23 2.161256042681068e-15 2.0823027782371178e-15 7.895326444395041e-17
6.399797922933955 1.1739313928937429e-23 1.9942445355331692e-15 1.9156317011769497e-15 7.861283435621978e-17
6.42384311029221 1.0880194647542371e-23 1.8552439484630357e-15 1.7768967156970765e-15 7.834723276595845e-17
6.447978639727206 1.0261909651350772e-23 1.7563910274885488e-15 1.6780153123005376e-15 7.837571518801076e-17
6.472204850670314 9.747021470076808e-24 1.6745326134903775e-15 1.596069773937974e-15 7.846283955240358e-17
6.496522083828205 9.41934013451656e-24 1.6243171577215228e-15 1.545528263193547e-15 7.878889452797589e-17
6.520930681187647 9.144629176533883e-24 1.5828695179156249e-15 1.5037177219041236e-15 7.915179601150107e-17
6.57002334288761 8.876603393488279e-24 1.5480435053095732e-15 1.4678328135644078e-15 8.021069174516503e-17
