Dust emission spectrum from A.P. Jones, M. Kohler, N. Ysard, M. Bocchio, and L. Verstraete (2017), A&A, 602A, 46J 
inside the DustPedia framework.

lambda    nu*dP/dnu     j_nu    j_nu(carb.) j_nu(sil)
 (um)   (erg s-1 H-1) (Jy cm2 sr-1 H-1)
0.9927057738263894 6.868643193449793e-24 1.8099264945885123e-16 1.809926492570569e-16 2.0179431091120033e-25
1.0001793341362166 6.982370089089753e-24 1.8537457743248737e-16 1.853745771894932e-16 2.429942065446392e-25
1.0077091589558085 7.096007641367097e-24 1.8980983575540322e-16 1.898098354631793e-16 2.9222390237411783e-25
1.0114953028030835 7.152779950792832e-24 1.9204728326023603e-16 1.9204728293993193e-16 3.2030406896855723e-25
1.0152956718711033 7.20951441736001e-24 1.942978444441192e-16 1.9429784409315167e-16 3.5096745095238576e-25
1.0229392996569957 7.32279373426427e-24 1.9883649460613603e-16 1.988364941851634e-16 4.209725689879306e-25
1.0267826658714554 7.379202233951826e-24 2.011209788816351e-16 2.0112097842079646e-16 4.608386791919606e-25
1.0306404723013447 7.435549683802624e-24 2.0341815256425082e-16 2.034181520599363e-16 5.043145689278749e-25
1.03451277320114 7.491831085476634e-24 2.0572793522699691e-16 2.0572793467528606e-16 5.517108701775528e-25
1.0383996230291617 7.54804147301748e-24 2.0805024549704016e-16 2.080502448936767e-16 6.033634421526197e-25
1.0403485208654093 7.576118493746219e-24 2.0921607280402112e-16 2.0921607217312298e-16 6.308981527989291e-25
1.0423010764483396 7.604175913926467e-24 2.1038500108360354e-16 2.103850004239682e-16 6.5963528840968e-25
1.0462171883269815 7.660229510216492e-24 2.1273211880602566e-16 2.1273211808510708e-16 7.209186087867899e-25
1.0471985131304309 7.674229706704288e-24 2.1332081999017647e-16 2.133208192531051e-16 7.370713987096556e-25
1.048180758391296 7.688224470699981e-24 2.139102872378384e-16 2.1391028648426776e-16 7.53570654763695e-25
1.0501480137395462 7.716197399445674e-24 2.1509151462196862e-16 2.1509151383433166e-16 7.876369947999929e-25
1.0521189612883777 7.74414769436853e-24 2.1627579032313811e-16 2.162757894999622e-16 8.231758679727626e-25
1.0531058218030118 7.758093055429846e-24 2.1686847781607466e-16 2.1686847697455712e-16 8.41517525589072e-25
1.0540936079674168 7.771963366603509e-24 2.1745998698151e-16 2.174599861212557e-16 8.60254270033532e-25
1.058054026499678 7.82738143496214e-24 2.1983344977231116e-16 2.1983344883303647e-16 9.392747095819958e-25
1.0590464539527713 7.841219789331881e-24 2.2042866517028786e-16 2.2042866421019807e-16 9.600898110094351e-25
1.06003981227728 7.855051531708253e-24 2.2102461770561344e-16 2.2102461672426732e-16 9.813461194347265e-25
1.0620293250338977 7.882694887938359e-24 2.222187286804267e-16 2.2221872765520855e-16 1.0252180993919987e-24
1.0660195594769086 7.937899047505137e-24 2.246157355386877e-16 2.246157344200283e-16 1.1186593571655178e-24
1.070024785945596 7.992989276986692e-24 2.2702438148877625e-16 2.270243802685579e-16 1.2202183289309258e-24
1.0740450607676866 8.047960981955073e-24 2.2944457701031425e-16 2.2944457567975124e-16 1.3305630629943587e-24
1.07808044048254 8.102809611106085e-24 2.318762319500433e-16 2.3187623049963e-16 1.4504133036637382e-24
1.0861967418109137 8.212024296039948e-24 2.3677080700159305e-16 2.367708052798024e-16 1.7217905862224064e-24
1.0902777775684922 8.266164619404689e-24 2.3922724740265417e-16 2.392272455276032e-16 1.8750509453735625e-24
1.0943741465085532 8.320160317878614e-24 2.416946027789378e-16 2.4169460073764658e-16 2.0412912003257665e-24
1.1026131145906286 8.427700700775308e-24 2.466616830785627e-16 2.46661680661616e-16 2.416946712634662e-24
1.1109141095355224 8.534611657271032e-24 2.5167129298266195e-16 2.516712901246204e-16 2.8580415348648172e-24
1.1192775983109025 8.64076288728583e-24 2.5671978034325833e-16 2.5671977696796617e-16 3.375292209118318e-24
1.1277040513999907 8.745675169358931e-24 2.6179293166211284e-16 2.617929276810614e-16 3.981051404622735e-24
1.1361939428280308 8.849847590337646e-24 2.669056050917771e-16 2.6690560040223987e-16 4.689537258969576e-24
1.1447477501889525 8.953249935394113e-24 2.720570220708254e-16 2.7205701655373124e-16 5.517094159091441e-24
1.1533659546722406 9.055906653924386e-24 2.7724804854032795e-16 2.772480420578334e-16 6.482494541106006e-24
1.1707974979042381 9.25931194087132e-24 2.8775967490035974e-16 2.8775966598425034e-16 8.916109470176707e-24
1.1884924949847024 9.459359152349885e-24 2.9841977027615887e-16 2.9841975807378786e-16 1.2202371030304749e-23
1.2064549276569216 9.657583579060918e-24 3.092779869809696e-16 3.0927797036295435e-16 1.6618015280819376e-23
1.2246888378427687 9.851943512401688e-24 3.2027062382704175e-16 3.2027060130564493e-16 2.252139681689282e-23
1.2431983285522175 1.0042026951992904e-23 3.3138376912854273e-16 3.313837387535929e-16 3.03749499023732e-23
1.2619875648066055 1.022781459483994e-23 3.426157750681062e-16 3.426157342957376e-16 4.077236868925435e-23
1.3004222497298317 1.058371265774251e-23 3.6533549154579154e-16 3.653354191111988e-16 7.243459268790327e-23
1.3400274889804893 1.0918647518033532e-23 3.8837564416324193e-16 3.8837551782404077e-16 1.26339201189122e-22
1.3808389325824078 1.1231819557432435e-23 4.1168265930416155e-16 4.11682442861026e-16 2.164431356392817e-22
1.4228933163050095 1.1524988759275842e-23 4.35293601021253e-16 4.352932366227362e-16 3.6439851683112606e-22
1.466228494730424 1.1804855777813802e-23 4.59443142723637e-16 4.594425395356136e-16 6.031880232368923e-22
1.5108834753276823 1.2067127544561684e-23 4.839542492404153e-16 4.839532671241152e-16 9.821163001227931e-22
1.5568984535646726 1.2308402285144435e-23 5.086644689540717e-16 5.086628943878004e-16 1.5745662711211963e-21
1.6043148490894465 1.2529481460017635e-23 5.335708977859308e-16 5.335684075069012e-16 2.4902790297331614e-21
1.6531753430134553 1.2731347058596994e-23 5.586794661469476e-16 5.586755853570097e-16 3.880789938008645e-21
1.7035239163302658 1.2916132751887893e-23 5.840501882408373e-16 5.840442277691392e-16 5.960471698012138e-21
1.755405889504358 1.3094184983102814e-23 6.101343219870918e-16 6.101252949200982e-16 9.02706699365256e-21
1.8088679632656115 1.326347451680771e-23 6.368448005837979e-16 6.368313149299719e-16 1.3485653825910943e-20
1.8639582606462262 1.3422635430811477e-23 6.641151852369489e-16 6.640953046585889e-16 1.9880578360006237e-20
1.9207263702978936 1.3573136591755696e-23 6.920144317530733e-16 6.919854995633196e-16 2.893218975381497e-20
1.979223391128241 1.3717984981475913e-23 7.207000813126289e-16 7.206585001802722e-16 4.158113235664442e-20
2.039501978296691 1.3860602754385905e-23 7.503703771059358e-16 7.503113394829505e-16 5.903762298525358e-20
2.1016163906111602 1.4010495894334526e-23 7.815853081095836e-16 7.815024646555365e-16 8.284345404722212e-20
2.1656225393682647 1.4173063102641037e-23 8.147341429715563e-16 8.146192128793252e-16 1.149300922309923e-19
2.231578038680979 1.4348332738778998e-23 8.499295938604033e-16 8.497719087512611e-16 1.5768510914210067e-19
2.299542257339062 1.45392248364182e-23 8.874667289997618e-16 8.872527053103527e-16 2.1402368940907644e-19
2.369576372248914 1.4752388359557948e-23 9.27902789924967e-16 9.276153230849125e-16 2.8746684005424845e-19
2.4417434235010123 1.4995652748309113e-23 9.71929658190468e-16 9.715474506579657e-16 3.822075325022986e-19
2.5161083711144245 1.5282759833272555e-23 1.0207057562446576e-15 1.020202560911494e-15 5.031953331632696e-19
2.5927381535095444 1.56363956932932e-23 1.0761300126035007e-15 1.0754738124267387e-15 6.562001767620023e-19
2.6717017477616296 1.6082990114959706e-23 1.1405759309499047e-15 1.139728098356256e-15 8.478325936483971e-19
2.753070231689431 1.6662440264925688e-23 1.2176580073725681e-15 1.2165724217943704e-15 1.0855855781976349e-18
2.836916847834745 1.746683827077308e-23 1.3153167132591051e-15 1.3139388110291474e-15 1.377902229957532e-18
2.9233170693905177 1.8699657135461858e-23 1.4510387123756917e-15 1.4493048476302453e-15 1.7338647454464968e-18
2.967498994190263 1.9678175689656228e-23 1.5500469295917136e-15 1.5481115103188033e-15 1.935419272910301e-18
3.0123486681368425 2.080375962220859e-23 1.663475843351757e-15 1.6613183159091686e-15 2.1575274425886404e-18
3.0578761833420214 2.3202333539744753e-23 1.8833064554106554e-15 1.8809038485719353e-15 2.4026068387208633e-18
3.1040917844459814 2.6256534215912915e-23 2.163422725363212e-15 2.1607523456561447e-15 2.670379707067117e-18
3.127460860933648 2.9435547678120893e-23 2.4436186840805206e-15 2.440804506585385e-15 2.8141774951363453e-18
3.1510058709225794 3.3649416889260273e-23 2.8144671767152616e-15 2.8115027980704067e-15 2.964378644854583e-18
3.162844764501044 3.755829167417237e-23 3.153211778836952e-15 3.150169550434317e-15 3.0422284026347455e-18
3.1747281389236908 4.209166340680698e-23 3.547088818093079e-15 3.5439670725920376e-15 3.121745501041004e-18
3.1986289994194426 5.469940024860036e-23 4.644252974449821e-15 4.640966688828266e-15 3.2862856215543733e-18
3.2227097969389145 8.436200876617868e-23 7.216681600213186e-15 7.21322063477355e-15 3.4609654396379006e-18
3.2348180950136065 1.1246184169327445e-22 9.656605468380404e-15 9.653051199473292e-15 3.554268907113031e-18
3.240889293275058 1.3346835023814832e-22 1.1481851388680324e-14 1.1478247902735128e-14 3.603485945196203e-18
3.2469718861334385 1.5777471108782564e-22 1.3598323069295062e-14 1.3594668656091722e-14 3.654413203341346e-18
3.2714166318528037 2.872388102820955e-22 2.494298408417868e-14 2.4939118944508343e-14 3.865139670341563e-18
3.2744851364798273 2.9533537994778847e-22 2.567012203051165e-14 2.5666231981571723e-14 3.890048939930205e-18
3.2775565192852394 3.03663089619864e-22 2.6418711303168877e-14 2.64147962133343e-14 3.9150898345655694e-18
3.283707930232385 2.956703898462198e-22 2.5771624134819088e-14 2.5767664111107122e-14 3.960023711974389e-18
3.2898708863219004 2.702940145150765e-22 2.3603951615389604e-14 2.359995055840178e-14 4.001056987818857e-18
3.29141343181113 2.6430831880386565e-22 2.309206133842853e-14 2.3088049974013325e-14 4.011364415206245e-18
3.292184975758714 2.6136696335475586e-22 2.2840434102829976e-14 2.2836417577321964e-14 4.0165255080180824e-18
3.295272960557952 2.4281926886221087e-22 2.1239484649681423e-14 2.123544802194871e-14 4.036627732712589e-18
3.3076538914384823 1.7851573591309888e-22 1.5673500312469138e-14 1.5669382871442962e-14 4.117441026175004e-18
3.310756385682612 1.6541490468554228e-22 1.4536883080695154e-14 1.4532745254855172e-14 4.137825839982397e-18
3.313861789986515 1.5332210178144699e-22 1.348678979360974e-14 1.3482631510137368e-14 4.158283472369861e-18
3.3200813396944477 1.3637091038017785e-22 1.2018212993532232e-14 1.2014010772443313e-14 4.202221088920343e-18
3.345076488085796 1.061993526192131e-22 9.429688687170419e-15 9.425290824951842e-15 4.3978622185757696e-18
3.3482140837626964 1.0734251944151563e-22 9.540133154618706e-15 9.535708795808816e-15 4.424358809891577e-18
3.3513546224236106 1.0849811615146663e-22 9.651882264190829e-15 9.647431281370539e-15 4.450982820290289e-18
3.3576445397418455 1.1689879933153522e-22 1.041871602184561e-14 1.0414209399094395e-14 4.5066227512125066e-18
3.3702598118196083 1.4782499450333587e-22 1.3224543402919019e-14 1.3219920055881074e-14 4.623347037940746e-18
3.382922481734668 1.549115296662083e-22 1.3910579469228252e-14 1.3905842385770674e-14 4.7370834575748444e-18
3.389271646505754 1.585812245194285e-22 1.426683302952215e-14 1.4262038240922134e-14 4.794788600014113e-18
3.395632727569191 1.6254359677421017e-22 1.4650755119532662e-14 1.4645900859979378e-14 4.8542595532804515e-18
3.421196662673239 1.8158868054896632e-22 1.6490591961254615e-14 1.6485491200376244e-14 5.100760878370084e-18
3.4276182099114902 1.778054850307045e-22 1.6177336851743217e-14 1.6172180771433782e-14 5.156080309436534e-18
3.4340518103208963 1.611425621991124e-22 1.4688807554525708e-14 1.4683599001878555e-14 5.2085526471490244e-18
3.4469541582030403 1.3739582608757477e-22 1.2571250497482642e-14 1.256594092508575e-14 5.3095723968913655e-18
3.472904465399547 1.3076881959149957e-22 1.2054979418066713e-14 1.2049437571177588e-14 5.541846889122894e-18
3.4990501388274233 1.2062829009748717e-22 1.1203888302313609e-14 1.1198108055615603e-14 5.780246698004444e-18
3.5253949054701885 8.447978515224982e-23 7.905512074519583e-15 7.899499098337731e-15 6.012976181853949e-18
3.5519380250092896 5.0452294037578397e-23 4.7568091878332265e-15 4.7505613797280514e-15 6.2478081051725575e-18
3.578680990867387 3.6988397716018296e-23 3.5136454662385383e-15 3.5071401160913346e-15 6.505350147202774e-18
3.605625307711299 3.1576827486680274e-23 3.0221674299846776e-15 3.0153902660303054e-15 6.777163954372276e-18
3.660119384959845 2.7698182256257695e-23 2.69101397423298e-15 2.6836632111992604e-15 7.350763033719512e-18
3.715437065384467 2.4970486948589702e-23 2.4626707603369928e-15 2.454711587197768e-15 7.959173139224133e-18
3.8285932144167436 2.373278755386415e-23 2.411889517277694e-15 2.402609601596921e-15 9.279915680773483e-18
3.94519561050918 2.3645212172406015e-23 2.476174173905459e-15 2.4654340237236112e-15 1.074015018184655e-17
4.06534921144712 2.4025072968101518e-23 2.5925790401186358e-15 2.5802356827827115e-15 1.2343357335924124e-17
4.189162171576248 2.467197816672092e-23 2.7434722914717218e-15 2.729374505572607e-15 1.4097785899114668e-17
4.316745939156006 2.551028814599394e-23 2.9230839363313856e-15 2.907080801888843e-15 1.600313444254244e-17
4.448215356677963 2.6513909948166825e-23 3.1306103380231545e-15 3.112569997324879e-15 1.8040340698275844e-17
4.58368876423945 2.768486368530806e-23 3.3684254778378642e-15 3.3482075856190176e-15 2.0217892218846873e-17
4.723288106065518 2.904607522421835e-23 3.641676199978973e-15 3.619120911992592e-15 2.255528798638237e-17
4.867139040275056 3.0643539613337053e-23 3.958969126051567e-15 3.9339659165747536e-15 2.5003209476814392e-17
4.940699165968905 3.159097733641138e-23 4.1430569773883865e-15 4.116779504049592e-15 2.627747333879303e-17
5.015371051989984 3.256515071029449e-23 4.335364273591323e-15 4.307781518141073e-15 2.7582755450249338e-17
5.091171501069577 3.374170231098225e-23 4.559887725113431e-15 4.5309423358227454e-15 2.894538929068415e-17
5.129500256944802 3.4342552055324973e-23 4.67602747369056e-15 4.646389566125162e-15 2.9637907565399546e-17
5.168117569889187 3.4966839815078693e-23 4.796872796118837e-15 4.766529182212106e-15 3.0343613906731784e-17
5.20702561229733 3.573020488464672e-23 4.938495398933861e-15 4.90738690387155e-15 3.1108495062312463e-17
5.246226572918644 3.651052775150025e-23 5.084340018224768e-15 5.052456808176579e-15 3.1883210048190503e-17
5.265937586045735 3.690722084231752e-23 5.1588925681121865e-15 5.1266183539287655e-15 3.227421418341942e-17
5.285722656980489 3.730836353681723e-23 5.234557862608286e-15 5.201890235813179e-15 3.26676267951072e-17
5.305582063971359 3.77140292579621e-23 5.311355896807591e-15 5.278292466334832e-15 3.306343047275868e-17
5.3255160863122235 3.814939693192974e-23 5.392855838364027e-15 5.359391568508272e-15 3.3464269855756106e-17
5.365609099470188 3.923287768908923e-23 5.58777135804708e-15 5.553477592457517e-15 3.429376558956449e-17
5.406003951863644 4.035412924990311e-23 5.790736089017431e-15 5.7556022035096985e-15 3.5133885507735414e-17
5.446702915881641 4.151500399924147e-23 6.002168799683076e-15 5.966184296280167e-15 3.598450340290795e-17
5.487708281020852 4.2766594877397114e-23 6.229671159275366e-15 6.192822548724527e-15 3.684861055083969e-17
5.529022354014368 4.450881127947332e-23 6.532264692307197e-15 6.494514189526777e-15 3.7750502780422024e-17
5.570647458961463 4.6348137307970233e-23 6.853420712279409e-15 6.814756693463333e-15 3.8664018816077263e-17
5.612585937458331 4.829160034464566e-23 7.194556617998843e-15 7.1549675753607e-15 3.9589042638142523e-17
5.654840148729818 5.0423638141910016e-23 7.56874621502503e-15 7.528216829224027e-15 4.052938580100232e-17
5.67608639626678 5.187971524915077e-23 7.816566266249798e-15 7.77554531833777e-15 4.102094791202741e-17
5.686739436050992 5.2629396212424245e-23 7.944400868265052e-15 7.903132917344315e-15 4.126795092073941e-17
5.6974124697621304 5.339396575876783e-23 8.074939431571014e-15 8.0334236650287e-15 4.1515766542311477e-17
5.718818669136295 5.496920466902597e-23 8.344401887922401e-15 8.302388058488807e-15 4.201382943359282e-17
5.740305295436557 5.670526690246021e-23 8.640280122092348e-15 8.59776168889965e-15 4.251843319270048e-17
5.7835210386641895 6.121499516981734e-23 9.39765662054407e-15 9.35409335806763e-15 4.3563262476439434e-17
5.827062130521658 6.639818067143368e-23 1.0270113932982148e-14 1.0225483504342185e-14 4.463042863996206e-17
5.8489554468988025 7.004407483410317e-23 1.0874746692383927e-14 1.0829542032443442e-14 4.5204659940490625e-17
5.870931020387893 7.394967972313855e-23 1.1524250985934534e-14 1.147846760272277e-14 4.578338321176221e-17
5.892989160043636 7.813579768656979e-23 1.2222361522947732e-14 1.2175994925801567e-14 4.6366597146161043e-17
5.915130176081913 8.289487225831756e-23 1.3015516479997489e-14 1.2968545823765814e-14 4.697065623167767e-17
5.95966208400165 9.621907554665823e-23 1.5221317632335935e-14 1.5172982907316583e-14 4.833472501935059e-17
6.004529249263818 1.1541652464331269e-22 1.839570306145473e-14 1.834583958287497e-14 4.986347857975549e-17
6.027089341400364 1.2876589344121405e-22 2.0600506945247202e-14 2.0549766382304704e-14 5.0740562942496533e-17
6.049734195844842 1.4452457027939173e-22 2.320851823482853e-14 2.315684970133036e-14 5.166853349817026e-17
6.095279466722835 1.9005285301047463e-22 3.074945687014359e-14 3.069552910147373e-14 5.392776866985821e-17
6.141167624020661 2.6006789003743313e-22 4.239426585212448e-14 4.233743265304244e-14 5.683319908204333e-17
6.164241091010745 3.047897239983644e-22 4.987114850207549e-14 4.981250482870594e-14 5.864367336955332e-17
6.187401249150058 3.5566367513437414e-22 5.841403755333959e-14 5.835353102789714e-14 6.050652544245225e-17
6.1990139391386085 3.8049977190584487e-22 6.26103954367014e-14 6.254894023848237e-14 6.145519821903417e-17
6.204828454712694 3.9357633021016553e-22 6.482285936454774e-14 6.476092460352126e-14 6.193476102647685e-17
6.210648424152782 4.031193933225871e-22 6.645689862008971e-14 6.639455216231699e-14 6.234645777270952e-17
6.233982942956859 4.355111734080827e-22 7.20666516465132e-14 7.200285650248271e-14 6.379514403048272e-17
6.239830258556775 4.396352061781181e-22 7.2817316903155e-14 7.275331077378912e-14 6.40061293658694e-17
6.245683058788269 4.399669953586145e-22 7.294062386663032e-14 7.287640626564832e-14 6.421760098200835e-17
6.257405133728602 4.390179138689409e-22 7.291988061165405e-14 7.285528698888443e-14 6.459362276961749e-17
6.269149208991335 4.325740836559922e-22 7.198442433428725e-14 7.191966427305329e-14 6.476006123396133e-17
6.280915325867298 4.1650132559655934e-22 6.94398477028565e-14 6.937518084430591e-14 6.466685855059192e-17
6.304513850009849 3.7689867818163716e-22 6.307331403231139e-14 6.300906904803379e-14 6.424498427759519e-17
6.32820103803542 3.2786971929209827e-22 5.50745566211301e-14 5.501098405910248e-14 6.357256202762788e-17
6.3519772230701035 2.8291940643131575e-22 4.770249596064412e-14 4.7639516426109477e-14 6.297953453466026e-17
6.375842739491607 2.4508204058941467e-22 4.147806781761338e-14 4.141560035014236e-14 6.246746747102027e-17
6.399797922933955 2.1478541636689683e-22 3.648719554607487e-14 3.6424940832098243e-14 6.225471397662735e-17
6.42384311029221 1.8957647660364537e-22 3.232576460103147e-14 3.226366313172866e-14 6.210146930281959e-17
6.447978639727206 1.7121245057669236e-22 2.930409857463965e-14 2.924191566672813e-14 6.218290791152289e-17
6.472204850670314 1.5590187077965796e-22 2.67838506282312e-14 2.6721539087495487e-14 6.231154073572414e-17
6.496522083828205 1.4594812001507885e-22 2.5168008808704068e-14 2.5105377306722896e-14 6.263150198117343e-17
