Dust emission spectrum from A.P. Jones, M. Kohler, N. Ysard, M. Bocchio, and L. Verstraete (2017), A&A, 602A, 46J 
inside the DustPedia framework.

lambda    nu*dP/dnu     j_nu    j_nu(carb.) j_nu(sil)
 (um)   (erg s-1 H-1) (Jy cm2 sr-1 H-1)
0.9927057738263894 1.2517770853054086e-20 3.298503719298786e-13 3.29850365366175e-13 6.563703648860776e-21
1.0001793341362166 1.2728046520256497e-20 3.37916239776568e-13 3.3791623187843495e-13 7.898133088295209e-21
1.0077091589558085 1.2939187663300825e-20 3.461080102087244e-13 3.4610800071755877e-13 9.491165584176166e-21
1.0114953028030835 1.304507365288262e-20 3.502513669091834e-13 3.5025135651000136e-13 1.0399182039002574e-20
1.0152956718711033 1.3151165217293834e-20 3.5442651276150034e-13 3.5442650137124577e-13 1.1390254613381829e-20
1.0229392996569957 1.3363847949685581e-20 3.628697976745418e-13 3.6286978402332336e-13 1.3651218511297323e-20
1.0267826658714554 1.3470197773662713e-20 3.6713174081386104e-13 3.6713172587601013e-13 1.493785101552584e-20
1.0306404723013447 1.3576734665597392e-20 3.7142570502177746e-13 3.7142568868149533e-13 1.6340282149691975e-20
1.03451277320114 1.368345557934773e-20 3.7575180633299657e-13 3.7575178846459353e-13 1.786840305314218e-20
1.0383996230291617 1.3790357570575917e-20 3.8011016345188564e-13 3.801101439189848e-13 1.953290096619155e-20
1.0403485208654093 1.3843875578589392e-20 3.823014757927557e-13 3.823014553728922e-13 2.041986339052991e-20
1.0423010764483396 1.3897437799240375e-20 3.8450089786820414e-13 3.84500876522885e-13 2.134531907225848e-20
1.0462171883269815 1.4004693532067478e-20 3.889241339743565e-13 3.889241106562359e-13 2.3318120491973608e-20
1.0471985131304309 1.4031534577858564e-20 3.9003503625313633e-13 3.9003501241520204e-13 2.383793434297175e-20
1.048180758391296 1.405838638819176e-20 3.9114797985663147e-13 3.911479554878035e-13 2.4368827954739698e-20
1.0501480137395462 1.4112122145001416e-20 3.9337999918413697e-13 3.933799737193803e-13 2.5464756690745365e-20
1.0521189612883777 1.4165900491952853e-20 3.9562020837541075e-13 3.9562018176765607e-13 2.660775455365347e-20
1.0531058218030118 1.4192770059791873e-20 3.9674239750274366e-13 3.9674237030520274e-13 2.719754094746361e-20
1.0540936079674168 1.4219533920168934e-20 3.9786338603322775e-13 3.978633582332733e-13 2.779995449509556e-20
1.058054026499678 1.432668929364166e-20 4.023677084611778e-13 4.0236767812145965e-13 3.0339718179971454e-20
1.0590464539527713 1.4353502944326992e-20 4.0349889169544377e-13 4.0349886068693813e-13 3.100850565080125e-20
1.06003981227728 1.4380326449300377e-20 4.0463212024878006e-13 4.046320885574031e-13 3.16913769911802e-20
1.0620293250338977 1.4434002888594493e-20 4.069047219601273e-13 4.069046888596239e-13 3.3100503248750726e-20
1.0660195594769086 1.454147257657723e-20 4.114745651281774e-13 4.114745290276609e-13 3.6100516575921165e-20
1.070024785945596 1.4649096351424332e-20 4.1607738022705903e-13 4.1607734086768513e-13 3.935937407631443e-20
1.0740450607676866 1.4756872331528627e-20 4.2071331330936324e-13 4.2071327041116093e-13 4.289820217546609e-20
1.07808044048254 1.4864798762082762e-20 4.2538251434700943e-13 4.2538246760726353e-13 4.6739745991902663e-20
1.0861967418109137 1.5080931989766054e-20 4.3481659440230165e-13 4.3481653897154147e-13 5.543076014915566e-20
1.0902777775684922 1.51887616781977e-20 4.395709273924228e-13 4.3957086705751714e-13 6.033490567388319e-20
1.0943741465085532 1.529672967328899e-20 4.443588658090942e-13 4.443588001577351e-13 6.565135906850113e-20
1.1026131145906286 1.5513076494580947e-20 4.540362423558549e-13 4.540361647013297e-13 7.765452515094357e-20
1.1109141095355224 1.5729965693131337e-20 4.63850139120344e-13 4.638500473880712e-13 9.173227270397276e-20
1.1192775983109025 1.594722367779824e-20 4.737970261483633e-13 4.737969179272034e-13 1.0822116004139366e-19
1.1277040513999907 1.6164070939743005e-20 4.838550983159679e-13 4.838549708074274e-13 1.2750854047887836e-19
1.1361939428280308 1.638142929371428e-20 4.94053174732714e-13 4.940530246930964e-13 1.5003961759470724e-19
1.1447477501889525 1.6599301798574834e-20 5.043930023580179e-13 5.043928260326329e-13 1.7632538511334974e-19
1.1533659546722406 1.6817770508105386e-20 5.148787672353837e-13 5.148785602835347e-13 2.0695184900778104e-19
1.1707974979042381 1.725715729473733e-20 5.363156576373735e-13 5.363153736289113e-13 2.84008462002156e-19
1.1884924949847024 1.7699023355442323e-20 5.583611319516698e-13 5.583607441514882e-13 3.8780018160590034e-19
1.2064549276569216 1.814634200471933e-20 5.811250899713708e-13 5.811245630678742e-13 5.269034964910568e-19
1.2246888378427687 1.859626130949816e-20 6.045341412023337e-13 6.045334288138486e-13 7.123884847856983e-19
1.2431983285522175 1.904842726328739e-20 6.28592180906898e-13 6.285912224137553e-13 9.584931425444769e-19
1.2619875648066055 1.9503513915846636e-20 6.533371792054822e-13 6.533358957686404e-13 1.2834368418987107e-18
1.3004222497298317 2.0419721819451496e-20 7.048612664933076e-13 7.048589977946337e-13 2.268698674000474e-18
1.3400274889804893 2.1347663774784885e-20 7.593351334237039e-13 7.593311967362155e-13 3.9366874885666845e-18
1.3808389325824078 2.2290695677914005e-20 8.17026380053526e-13 8.170196713048225e-13 6.708748703714345e-18
1.4228933163050095 2.3256519394059633e-20 8.783881950525144e-13 8.783769613162511e-13 1.1233736263241319e-17
1.466228494730424 2.4261452778904327e-20 9.442519520425045e-13 9.442334594987649e-13 1.8492543739566665e-17
1.5108834753276823 2.5303134785974627e-20 1.0147866220486014e-12 1.014756682141069e-12 2.993990753251875e-17
1.5568984535646726 2.6380098741692567e-20 1.0901998981293095e-12 1.0901521732294068e-12 4.7724899902811216e-17
1.6043148490894465 2.7497699567728393e-20 1.1709959659719222e-12 1.1709209256871094e-12 7.5040284813052e-17
1.6531753430134553 2.866134704086026e-20 1.257722846619563e-12 1.2576065997302105e-12 1.1624688935223952e-16
1.7035239163302658 2.9877166677456854e-20 1.3510053788755767e-12 1.3508279163578834e-12 1.7746251769295976e-16
1.755405889504358 3.116540123669259e-20 1.4521775106692643e-12 1.4519104027683855e-12 2.671079008788652e-16
1.8088679632656115 3.252339414205626e-20 1.561608493344562e-12 1.5612119650058466e-12 3.9652833871505145e-16
1.8639582606462262 3.394727287502825e-20 1.6796179505804896e-12 1.679037132014009e-12 5.80818566480339e-16
1.9207263702978936 3.543727442070205e-20 1.8067382697684738e-12 1.8058985248208312e-12 8.397449476431078e-16
1.979223391128241 3.699502661122938e-20 1.943603140175424e-12 1.9424043011587273e-12 1.1988390166969518e-15
2.039501978296691 3.8620514622198165e-20 2.0907958069799026e-12 2.0891052352563714e-12 1.6905717235312992e-15
2.1016163906111602 4.0324614428740323e-20 2.2495368065759795e-12 2.2471809835253736e-12 2.3558230506069168e-15
2.1656225393682647 4.210838667258888e-20 2.4205875666505525e-12 2.417342414696832e-12 3.245151953719888e-15
2.231578038680979 4.3959159679183084e-20 2.6039395247361763e-12 2.5995193099209658e-12 4.42021481521028e-15
2.299542257339062 4.5869855499845977e-20 2.799872144364516e-12 2.7939169237606844e-12 5.955220603831863e-15
2.369576372248914 4.7837047997290137e-20 3.0088775604732078e-12 3.00093910624223e-12 7.938454230978176e-15
2.4417434235010123 4.985815450582491e-20 3.2315111506111706e-12 3.2210378092345694e-12 1.0473341376601132e-14
2.5161083711144245 5.1938972499710836e-20 3.4689027886487207e-12 3.455222896842696e-12 1.3679891806024796e-14
2.5927381535095444 5.409648904714474e-20 3.723035447681759e-12 3.705340031704299e-12 1.7695415977461718e-14
2.6717017477616296 5.634344127413042e-20 3.995772709229425e-12 3.973098731099351e-12 2.2673978130073637e-14
2.753070231689431 5.870426305836067e-20 4.2899908322784495e-12 4.261204551373603e-12 2.878628090484661e-14
2.836916847834745 6.126526033286514e-20 4.613497852832699e-12 4.577277680934604e-12 3.622017189809597e-14
2.9233170693905177 6.422979263415518e-20 4.984044088342066e-12 4.938874187412768e-12 4.5169900929297714e-14
2.967498994190263 6.607014157253928e-20 5.2043350815307925e-12 5.154158180855506e-12 5.017690067528814e-14
3.0123486681368425 6.803651997295598e-20 5.440223762243045e-12 5.38455703169565e-12 5.566673054739314e-14
3.0578761833420214 7.139405007170907e-20 5.794972093976737e-12 5.73327602717242e-12 6.169606680431534e-14
3.1040917844459814 7.534713931837133e-20 6.208272278131848e-12 6.140030084757304e-12 6.824219337454303e-14
3.127460860933648 7.911259805786112e-20 6.5676040709116836e-12 6.495862890972295e-12 7.174117993938911e-14
3.1510058709225794 8.39239092906053e-20 7.019470465636057e-12 6.9440864324496824e-12 7.53840331863787e-14
3.162844764501044 8.832627907505448e-20 7.415445462122147e-12 7.338177910705036e-12 7.726755141711152e-14
3.1747281389236908 9.331192805999236e-20 7.86345014254719e-12 7.784261945335305e-12 7.918819721188808e-14
3.1986289994194426 1.0684594702807528e-19 9.071755906606008e-12 8.988603250145224e-12 8.315265646078438e-14
3.2227097969389145 1.383440784499708e-19 1.1834535237484927e-11 1.1747186113066352e-11 8.734912441857338e-14
3.2348180950136065 1.6794412153172596e-19 1.4420625680208781e-11 1.4331038185170662e-11 8.958749503811928e-14
3.240889293275058 1.9007213542742762e-19 1.635129233419617e-11 1.6260524150840442e-11 9.076818335572175e-14
3.2469718861334385 2.1572367773356229e-19 1.8592841928162653e-11 1.8500852084750148e-11 9.198984341250648e-14
3.2714166318528037 3.5027962670510586e-19 3.041726549882634e-11 3.032023074274956e-11 9.703475607678438e-14
3.2744851364798273 3.5867614493780757e-19 3.117560927381856e-11 3.107798099917365e-11 9.762827464490855e-14
3.2775565192852394 3.6729686223975495e-19 3.195485423736901e-11 3.185662957027146e-11 9.822466709755257e-14
3.283707930232385 3.5895084607953764e-19 3.1287361216145174e-11 3.118807205597129e-11 9.92891601738847e-14
3.2898708863219004 3.325189819817951e-19 2.9037868174691338e-11 2.893761214992869e-11 1.0025602476265342e-13
3.29141343181113 3.262714230552336e-19 2.850564729957954e-11 2.84051485379707e-11 1.0049876160882868e-13
3.292184975758714 3.2319945613234225e-19 2.8243875144394488e-11 2.8143254861117804e-11 1.0062028327668524e-13
3.295272960557952 3.040636899861596e-19 2.659655515086508e-11 2.6495462527149057e-11 1.0109262371602154e-13
3.3076538914384823 2.37246434962519e-19 2.0829996042070937e-11 2.0727007210939312e-11 1.029888311316237e-13
3.310756385682612 2.2349837795363927e-19 1.964133640323065e-11 1.953786981044787e-11 1.0346659278277776e-13
3.313861789986515 2.1075530900264524e-19 1.853883111032263e-11 1.843488527036092e-11 1.0394583996171154e-13
3.3200813396944477 1.9294889046590323e-19 1.7004365931269818e-11 1.6899388399856972e-11 1.0497753141284245e-13
3.345076488085796 1.6178232034650336e-19 1.4365030278721364e-11 1.4255452760556492e-11 1.0957751816487692e-13
3.3482140837626964 1.6302409474221552e-19 1.4488867778991191e-11 1.4378667020032183e-11 1.1020075895900974e-13
3.3513546224236106 1.6427713527163359e-19 1.4613927177563486e-11 1.4503100471746817e-11 1.1082670581667033e-13
3.3576445397418455 1.7316380034077962e-19 1.543338743708944e-11 1.5321251687222167e-11 1.1213574986727062e-13
3.3702598118196083 2.0540176507683723e-19 1.8375407801780856e-11 1.82605264475218e-11 1.1488135425905645e-13
3.382922481734668 2.1304402150959743e-19 1.9130698651281122e-11 1.901315167096475e-11 1.1754698031637632e-13
3.389271646505754 2.169834281943313e-19 1.952101422853226e-11 1.9402116733283615e-11 1.188974952486491e-13
3.395632727569191 2.213230072148434e-19 1.9948796786670514e-11 1.9828507503329827e-11 1.2028928334068713e-13
3.421196662673239 2.4240923469235223e-19 2.2013881949396333e-11 2.1887834614707564e-11 1.2604733468877027e-13
3.4276182099114902 2.3854026786671595e-19 2.170319023239658e-11 2.157586123458707e-11 1.2732899780951063e-13
3.4340518103208963 2.211054885894562e-19 2.0154675008374606e-11 2.0026135405920283e-11 1.2853960245432023e-13
3.4469541582030403 1.960635165990143e-19 1.7939144519663488e-11 1.7808284610942084e-11 1.3085990872140474e-13
3.472904465399547 1.88983628018088e-19 1.7421536366439122e-11 1.728532649139984e-11 1.3620987503928066e-13
3.4990501388274233 1.7836297085574114e-19 1.6566253248898284e-11 1.642457607675126e-11 1.4167717214702596e-13
3.5253949054701885 1.4111543163900794e-19 1.3205404662342589e-11 1.305842792448278e-11 1.46976737859807e-13
3.5519380250092896 1.0565051357813032e-19 9.961079932528498e-12 9.808786237048614e-12 1.5229369547988193e-13
3.578680990867387 9.175825202205463e-20 8.71640801211682e-12 8.558288039664814e-12 1.581199724520069e-13
3.605625307711299 8.635535245587849e-20 8.264932052059059e-12 8.10068174865326e-12 1.6425030340580195e-13
3.660119384959845 8.281027639663298e-20 8.045423664691536e-12 7.868320797640958e-12 1.7710286705058208e-13
3.715437065384467 8.034639104643924e-20 7.924022800838615e-12 7.733409930297942e-12 1.9061287054067212e-13
3.8285932144167436 7.978146179695035e-20 8.107942269504917e-12 7.88843048462024e-12 2.1951178488467842e-13
3.94519561050918 8.025310691046301e-20 8.404266760577831e-12 8.153448529897386e-12 2.508182306804449e-13
4.06534921144712 8.104486256633747e-20 8.745663843675118e-12 8.461218394530408e-12 2.844454491447112e-13
4.189162171576248 8.194769513720562e-20 9.112412042506923e-12 8.792007106927584e-12 3.204049355793385e-13
4.316745939156006 8.287583586513373e-20 9.496287268140939e-12 9.137784350939334e-12 3.5850291720160595e-13
4.448215356677963 8.37937301618399e-20 9.89388281166414e-12 9.495741079096989e-12 3.9814173256715315e-13
4.58368876423945 8.469819602676748e-20 1.0305254331986234e-11 9.865940264768195e-12 4.39314067218038e-13
4.723288106065518 8.560788680287238e-20 1.0733161072328801e-11 1.0250936037225723e-11 4.822250351030749e-13
4.867139040275056 8.654996743715309e-20 1.118175815418288e-11 1.0656133981797166e-11 5.256241723857127e-13
4.940699165968905 8.709200252686704e-20 1.1421841271361317e-11 1.0874212999797301e-11 5.476282715640134e-13
5.015371051989984 8.760057346391996e-20 1.1662172238052454e-11 1.1092415649324488e-11 5.697565887279659e-13
5.091171501069577 8.825788414976563e-20 1.1927259593183338e-11 1.1334753323087099e-11 5.925062700962383e-13
5.129500256944802 8.857276489276908e-20 1.205992732840902e-11 1.1456029311019554e-11 6.038980173894674e-13
5.168117569889187 8.889475180976377e-20 1.2194891472294518e-11 1.1579470364353595e-11 6.154211079409227e-13
5.20702561229733 8.934740837051609e-20 1.2349264902593943e-11 1.172120267977769e-11 6.280622228162547e-13
5.246226572918644 8.979543316107913e-20 1.2504626539010846e-11 1.1863881090144023e-11 6.407454488668241e-13
5.265937586045735 9.001780157399657e-20 1.258269132541728e-11 1.1935590462239803e-11 6.471008631774758e-13
5.285722656980489 9.023912606301093e-20 1.2661019730385398e-11 1.200755532434742e-11 6.53464406037979e-13
5.305582063971359 9.045944726944414e-20 1.2739617806153219e-11 1.2079782539272522e-11 6.598352668806975e-13
5.3255160863122235 9.070452653402808e-20 1.2822127604215701e-11 1.2155859279704367e-11 6.662683245113344e-13
5.365609099470188 9.13910546809468e-20 1.3016437942045953e-11 1.2336855411930061e-11 6.795825301158916e-13
5.406003951863644 9.208476934911731e-20 1.3213978520427624e-11 1.2521042387413936e-11 6.929361330136879e-13
5.446702915881641 9.278672565849499e-20 1.341494727502248e-11 1.2708624646890237e-11 7.0632262813224e-13
5.487708281020852 9.354686466351955e-20 1.3626668349575934e-11 1.2906870123262093e-11 7.197982263138421e-13
5.529022354014368 9.475179033397376e-20 1.3906095371658632e-11 1.3172250945799033e-11 7.338444258595971e-13
5.570647458961463 9.600039673350629e-20 1.4195416376470253e-11 1.3447487876387898e-11 7.479285000823535e-13
5.612585937458331 9.729689071626549e-20 1.4495439869824722e-11 1.3733396043432486e-11 7.620438263922391e-13
5.654840148729818 9.871904051468736e-20 1.4818037566896986e-11 1.4041777121512417e-11 7.762604453845701e-13
5.67608639626678 9.977606359408551e-20 1.50329701912057e-11 1.4249260622024415e-11 7.837095691812893e-13
5.686739436050992 1.0031681248594082e-19 1.5142810474172852e-11 1.435537229515522e-11 7.874381790176318e-13
5.6974124697621304 1.0086600565075556e-19 1.5254287160728526e-11 1.4463117813433117e-11 7.91169347295407e-13
5.718818669136295 1.0199061557762647e-19 1.5482317604930967e-11 1.4683678668166774e-11 7.986389367641923e-13
5.740305295436557 1.032429439066591e-19 1.5731306891076458e-11 1.4925128687672217e-11 8.061782034042401e-13
5.7835210386641895 1.0662488174604587e-19 1.6368930897988782e-11 1.5547177610881015e-11 8.217532871077648e-13
5.827062130521658 1.1048082277394588e-19 1.708858022650899e-11 1.62510562544767e-11 8.375239720322873e-13
5.8489554468988025 1.1331173567972467e-19 1.7592300643700053e-11 1.6746224919338858e-11 8.460757243611956e-13
5.870931020387893 1.1631390352403513e-19 1.812625318166646e-11 1.7271603031697913e-11 8.54650149968549e-13
5.892989160043636 1.1950091769313748e-19 1.869288420434974e-11 1.782963780318786e-11 8.632464011618769e-13
5.915130176081913 1.231331485506626e-19 1.933342172481991e-11 1.8461253087189583e-11 8.721686376303268e-13
5.95966208400165 1.3351845709591226e-19 2.112187041592173e-11 2.0229164878234487e-11 8.927055376872427e-13
6.004529249263818 1.485505407611303e-19 2.3676779784398183e-11 2.2760847924263236e-11 9.159318601349373e-13
6.027089341400364 1.590715304027288e-19 2.544892967599806e-11 2.451947468384249e-11 9.294549921555687e-13
6.049734195844842 1.7141810699293286e-19 2.7527224292965486e-11 2.658342246075501e-11 9.438018322104717e-13
6.095279466722835 2.0718500526022218e-19 3.352134041912304e-11 3.2541924148503765e-11 9.794162706192795e-13
6.141167624020661 2.6189295845241904e-19 4.2691774458712136e-11 4.166570245465834e-11 1.0260720040537876e-12
6.164241091010745 2.967660142486921e-19 4.855827083935742e-11 4.750270834950776e-11 1.055562489849661e-12
6.187401249150058 3.3600548687088246e-19 5.518538580243932e-11 5.4099581680051965e-11 1.0858041223873462e-12
6.1990139391386085 3.550455476071669e-19 5.84219591575094e-11 5.732077473254659e-11 1.1011844249628006e-12
6.204828454712694 3.6503459522223044e-19 6.01219748572016e-11 5.901302632775831e-11 1.1089485294432911e-12
6.210648424152782 3.7223305227893563e-19 6.136508098619853e-11 6.02495636305702e-11 1.1155173556283445e-12
6.233982942956859 3.9628573779559046e-19 6.557578303837442e-11 6.44375592389047e-11 1.138223799469714e-12
6.239830258556775 3.991251905726085e-19 6.610759347189954e-11 6.496636640523393e-11 1.1412270666656172e-12
6.245683058788269 3.9898823473006203e-19 6.614689525275647e-11 6.500266164863068e-11 1.144233604125797e-12
6.257405133728602 3.974472442237632e-19 6.601508658910807e-11 6.486567675708742e-11 1.14940983202063e-12
6.269149208991335 3.9160871636788165e-19 6.516739924356917e-11 6.401650476185966e-11 1.1508944817095099e-12
6.280915325867298 3.7827046860181863e-19 6.306593068479646e-11 6.191811081771219e-11 1.1478198670842575e-12
6.304513850009849 3.4592557988450777e-19 5.7890021894292754e-11 5.6752467899246236e-11 1.1375539950465265e-12
6.32820103803542 3.0659844596948446e-19 5.150147292941493e-11 5.0378563902502253e-11 1.1229090269126766e-12
6.3519772230701035 2.707351190069389e-19 4.564812673593785e-11 4.4538460486563784e-11 1.1096662493740564e-12
6.375842739491607 2.4050283075176486e-19 4.070307518355366e-11 3.9605208894335496e-11 1.0978662892181486e-12
6.399797922933955 2.164384437535475e-19 3.676800759802867e-11 3.5676762117485236e-11 1.091245480543435e-12
6.42384311029221 1.9634618190904603e-19 3.34801056038884e-11 3.239444453279348e-11 1.0856610710949208e-12
6.447978639727206 1.8168267290574348e-19 3.109614364026103e-11 3.001204010389088e-11 1.0841035363701488e-12
6.472204850670314 1.6939609736393635e-19 2.9102150898582926e-11 2.8018809207221682e-11 1.083341691361244e-12
6.496522083828205 1.6129054648660058e-19 2.781373199131347e-11 2.6727900006964383e-11 1.0858319843490867e-12
