Dust emission spectrum from A.P. Jones, M. Kohler, N. Ysard, M. Bocchio, and L. Verstraete (2017), A&A, 602A, 46J 
inside the DustPedia framework.

lambda    nu*dP/dnu     j_nu    j_nu(carb.) j_nu(sil)
 (um)   (erg s-1 H-1) (Jy cm2 sr-1 H-1)
0.9927057738263894 9.92329412187613e-25 2.6148443642997536e-17 2.6148443597041525e-17 4.595600916557745e-26
1.0001793341362166 1.0087343413911434e-24 2.678083514496134e-17 2.678083508961735e-17 5.534399429188045e-26
1.0077091589558085 1.0251244504849423e-24 2.7420870073627468e-17 2.742087000706437e-17 6.656310197490761e-26
1.0114953028030835 1.0333120583249052e-24 2.774372690429887e-17 2.7743726831335877e-17 7.29629903104781e-26
1.0152956718711033 1.0414937011085885e-24 2.8068461953589786e-17 2.806846187363769e-17 7.995209273537822e-26
1.0229392996569957 1.0578280766807446e-24 2.872330346804213e-17 2.872330337213214e-17 9.590997925411635e-26
1.0267826658714554 1.0659611071064937e-24 2.905288871534255e-17 2.905288861034405e-17 1.0499848695710016e-25
1.0306404723013447 1.0740847938596453e-24 2.9384289495130623e-17 2.938428938022e-17 1.149106226877438e-25
1.03451277320114 1.0821984081369577e-24 2.9717493823847316e-17 2.9717493698129986e-17 1.2571733537794476e-25
1.0383996230291617 1.0903012257876194e-24 3.005248957649874e-17 3.00524894390034e-17 1.3749534319033104e-25
1.0403485208654093 1.0943483608909797e-24 3.0220655410039033e-17 3.022065526626479e-17 1.437742421520121e-25
1.0423010764483396 1.0983925274674401e-24 3.038926449061289e-17 3.038926434028532e-17 1.5032757262220863e-25
1.0462171883269815 1.1064715987901359e-24 3.0727806170218e-17 3.072780600591438e-17 1.6430362854885635e-25
1.0471985131304309 1.108489372394466e-24 3.081271618218651e-17 3.081271601419897e-17 1.6798754223019192e-25
1.048180758391296 1.1105063262140915e-24 3.0897735637818227e-17 3.089773546606769e-17 1.717505421592455e-25
1.0501480137395462 1.114537730475666e-24 3.1068102089840815e-17 3.1068101910320515e-17 1.7952029719353918e-25
1.0521189612883777 1.118565723736561e-24 3.1238903941026166e-17 3.123890375339996e-17 1.8762620227388339e-25
1.0531058218030118 1.1205753598626566e-24 3.132438227220385e-17 3.132438208039406e-17 1.9180978493948376e-25
1.0540936079674168 1.1225741045791485e-24 3.1409688730203655e-17 3.140968853412009e-17 1.9608355974904954e-25
1.058054026499678 1.130559598183503e-24 3.175197461717662e-17 3.175197440306797e-17 2.1410864746587177e-25
1.0590464539527713 1.1325535464771046e-24 3.1837810084532174e-17 3.1837809865675246e-17 2.188569303913543e-25
1.06003981227728 1.1345465032897482e-24 3.192375074136824e-17 3.192375051766229e-17 2.2370595141388445e-25
1.0620293250338977 1.1385293997784297e-24 3.2095946802556274e-17 3.2095946568841896e-17 2.337143775652406e-25
1.0660195594769086 1.1464828266455313e-24 3.2441592145266335e-17 3.2441591890234174e-17 2.5503216389764654e-25
1.070024785945596 1.1544192020069355e-24 3.2788897398995926e-17 3.278889712079222e-17 2.782037041019713e-25
1.0740450607676866 1.1623378551538661e-24 3.313784921632011e-17 3.313784891293837e-17 3.0338173025157354e-25
1.07808044048254 1.1702381215722271e-24 3.348843415283254e-17 3.348843382210172e-17 3.30730809995507e-25
1.0861967418109137 1.1859670807062156e-24 3.419405163128223e-17 3.419405123861741e-17 3.926648138546031e-25
1.0902777775684922 1.1937631247159458e-24 3.454814651358273e-17 3.454814608593657e-17 4.276461600217438e-25
1.0943741465085532 1.2015376407688766e-24 3.490379412347911e-17 3.490379365788595e-17 4.655931806204828e-25
1.1026131145906286 1.2170195842525393e-24 3.561969149707557e-17 3.561969094572241e-17 5.513531631960209e-25
1.1109141095355224 1.232407972223093e-24 3.6341631032184723e-17 3.6341630380115664e-17 6.520690547593939e-25
1.1192775983109025 1.2476839138212354e-24 3.7069081106866966e-17 3.7069080336673635e-17 7.701933428711639e-25
1.1277040513999907 1.2627780822550928e-24 3.7799983396416693e-17 3.779998248786313e-17 9.085535576012227e-25
1.1361939428280308 1.2777625669316657e-24 3.853648185567305e-17 3.853648078526813e-17 1.0704049142479066e-24
1.1447477501889525 1.2926329426030913e-24 3.9278459948383556e-17 3.9278458688893307e-17 1.2594902552954077e-24
1.1533659546722406 1.3073927105039512e-24 4.002603952482138e-17 4.002603804471198e-17 1.4801093898969177e-24
1.1707974979042381 1.3366279123438838e-24 4.153954591604659e-17 4.153954387964136e-17 2.0364052196184895e-24
1.1884924949847024 1.3653655992823218e-24 4.3073963248301195e-17 4.307396046042453e-17 2.7878766603553937e-24
1.2064549276569216 1.3938274469691597e-24 4.4636439692025254e-17 4.4636435894049317e-17 3.797975921511414e-24
1.2246888378427687 1.4217175494242778e-24 4.621771997441812e-17 4.621771482551027e-17 5.148907842323627e-24
1.2431983285522175 1.4489760822451725e-24 4.781576048411446e-17 4.7815753537310836e-17 6.946803627108244e-24
1.2619875648066055 1.4755994803853228e-24 4.943027222231574e-17 4.9430262894331184e-17 9.327984544406929e-24
1.3004222497298317 1.5265357711760881e-24 5.269395668228639e-17 5.2693940098613195e-17 1.6583673175070828e-23
1.3400274889804893 1.5743792970417737e-24 5.600057815182538e-17 5.600054920534254e-17 2.8946482818363055e-23
1.3808389325824078 1.6190105617273967e-24 5.934199441909691e-17 5.934194479024783e-17 4.9628849107687643e-23
1.4228933163050095 1.6606806284813476e-24 6.272315453115505e-17 6.27230709113392e-17 8.361981585077124e-23
1.466228494730424 1.7003549884442357e-24 6.617755052161341e-17 6.617741199381541e-17 1.3852779801806322e-22
1.5108834753276823 1.737410861115413e-24 6.967916480605945e-17 6.967893906626362e-17 2.257397958134841e-22
1.5568984535646726 1.771356399674996e-24 7.320414473749912e-17 7.320378251469103e-17 3.622228080894696e-22
1.6043148490894465 1.802309080561762e-24 7.675175363575829e-17 7.675118025992823e-17 5.733758300805395e-22
1.6531753430134553 1.8304144239866637e-24 8.032260439636741e-17 8.032171006800864e-17 8.943283587839325e-22
1.7035239163302658 1.855988056290566e-24 8.39252889755882e-17 8.392391413469336e-17 1.3748408948021641e-21
1.755405889504358 1.880534694547705e-24 8.762506122463398e-17 8.762297710265842e-17 2.0841219755335864e-21
1.8088679632656115 1.903775692631464e-24 9.140965663211247e-17 9.14065401605425e-17 3.1164715699736805e-21
1.8639582606462262 1.9255346845280775e-24 9.527017479444608e-17 9.526557598707319e-17 4.59880737286972e-21
1.9207263702978936 1.946049446097896e-24 9.921761948692085e-17 9.921092012672929e-17 6.6993601915660525e-21
1.979223391128241 1.9657858099177015e-24 1.0327624610786481e-16 1.0326660792106642e-16 9.638186798430107e-21
2.039501978296691 1.9852771265766323e-24 1.0747679394084889e-16 1.0746309501265312e-16 1.3698928195793934e-20
2.1016163906111602 2.0059402619649253e-24 1.119027798531569e-16 1.1188353622996437e-16 1.9243623192501003e-20
2.1656225393682647 2.028607772272186e-24 1.1661388951691297e-16 1.165871627683035e-16 2.672674860945904e-20
2.231578038680979 2.0533473469651777e-24 1.2163090363410137e-16 1.2159419229798042e-16 3.671133612092843e-20
2.299542257339062 2.0806493817564417e-24 1.2700175709488933e-16 1.2695187065138102e-16 4.9886443508328073e-20
2.369576372248914 2.1115526807043225e-24 1.328134520150196e-16 1.3274636562699466e-16 6.708638802499036e-20
2.4417434235010123 2.1472738661401202e-24 1.391736118318837e-16 1.390843044452828e-16 8.930738660086222e-20
2.5161083711144245 2.1898928598677137e-24 1.4625867788353584e-16 1.4614094912485726e-16 1.1772875867863395e-19
2.5927381535095444 2.2427935617716208e-24 1.5435382368403255e-16 1.5420009413215228e-16 1.5372955188027388e-19
2.6717017477616296 2.3099194221812756e-24 1.63815215736721e-16 1.6361632054504745e-16 1.9889519167354262e-19
2.753070231689431 2.3971786357222603e-24 1.7518104878275324e-16 1.7492601924937177e-16 2.5502953338148013e-19
2.836916847834745 2.5180656123933245e-24 1.8961953696027273e-16 1.8929536376140189e-16 3.2417319887088113e-19
2.9233170693905177 2.7022716845975243e-24 2.0968838077098984e-16 2.0927984604449488e-16 4.085347264949451e-19
2.967498994190263 2.847409028582849e-24 2.24289979500822e-16 2.238335832875607e-16 4.563962132612966e-19
3.0123486681368425 3.014255074103089e-24 2.410208824042657e-16 2.4051169679132407e-16 5.091856129416387e-19
3.0578761833420214 3.3664737717612755e-24 2.732527646612918e-16 2.7268528060804315e-16 5.674840532486888e-19
3.1040917844459814 3.814466373194529e-24 3.142952214881994e-16 3.136639712118981e-16 6.312502763011993e-19
3.127460860933648 4.278756810313879e-24 3.5520487679226485e-16 3.545393555330275e-16 6.655212592373441e-19
3.1510058709225794 4.893688247525528e-24 4.093124404225185e-16 4.0861110174389176e-16 7.01338678626642e-19
3.162844764501044 5.463134520956186e-24 4.586582443709992e-16 4.579383335485252e-16 7.199108224737509e-19
3.1747281389236908 6.1235066675280344e-24 5.160314482699795e-16 5.152925620209545e-16 7.388862490249654e-19
3.1986289994194426 7.95949340763302e-24 6.758008454481961e-16 6.750226774922014e-16 7.781679559944179e-19
3.2227097969389145 1.2275941718642282e-23 1.0501357663466657e-15 1.0493158744296794e-15 8.198919169863284e-19
3.2348180950136065 1.6364065308505533e-23 1.4051105705171707e-15 1.4042683864810072e-15 8.421840361632977e-19
3.240889293275058 1.9419886263656727e-23 1.670630135657803e-15 1.669776192450453e-15 8.539432073498747e-19
3.2469718861334385 2.2955614650546774e-23 1.978503792655431e-15 1.9776376814755635e-15 8.661111798672657e-19
3.2714166318528037 4.178915522755229e-23 3.62884887563915e-15 3.627932398242834e-15 9.164773963158927e-19
3.2744851364798273 4.296723643914448e-23 3.734649749385521e-15 3.7337273135801195e-15 9.224358054011595e-19
3.2775565192852394 4.417895521525916e-23 3.843572378087303e-15 3.842643951925595e-15 9.284261617081455e-19
3.283707930232385 4.301732972113375e-23 3.749534924458433e-15 3.7485957395608894e-15 9.391848975431766e-19
3.2898708863219004 3.932725666520595e-23 3.434329336359581e-15 3.433380317879295e-15 9.490184802856928e-19
3.29141343181113 3.845687292364188e-23 3.3598960201320064e-15 3.3589445312437896e-15 9.51488888217575e-19
3.292184975758714 3.802917138553247e-23 3.32330747492949e-15 3.3223547490320736e-15 9.527258974155271e-19
3.295272960557952 3.533172708069421e-23 3.090478274205547e-15 3.08952072856805e-15 9.575456374973538e-19
3.3076538914384823 2.5980408286169386e-23 2.2810534618056182e-15 2.2800765355512694e-15 9.769262543491667e-19
3.310756385682612 2.407538794367338e-23 2.1157772954310264e-15 2.1147954795124414e-15 9.818159185854423e-19
3.313861789986515 2.2317011744713117e-23 1.963088444035971e-15 1.962101720588758e-15 9.867234472134552e-19
3.3200813396944477 1.9852393268171368e-23 1.7495688051293467e-15 1.748571545528604e-15 9.972596007425152e-19
3.345076488085796 1.5467091699519758e-23 1.3733592157133587e-15 1.3723150508951022e-15 1.0441648182568156e-18
3.3482140837626964 1.56337691251203e-23 1.3894609511515724e-15 1.3884104340121033e-15 1.0505171394693424e-18
3.3513546224236106 1.5802258499381506e-23 1.4057528734546366e-15 1.4046959729237535e-15 1.0569005308826613e-18
3.3576445397418455 1.7024972112229125e-23 1.5173667371389824e-15 1.5162964977964642e-15 1.0702393425179255e-18
3.3702598118196083 2.1525196003452636e-23 1.9256614198458483e-15 1.9245631963156035e-15 1.0982235302444488e-18
3.382922481734668 2.2557644178835922e-23 2.0256071492186663e-15 2.0244816408849377e-15 1.1255083337294897e-18
3.389271646505754 2.3092286756424084e-23 2.0775082322774284e-15 2.0763688773078537e-15 1.1393549695747484e-18
3.395632727569191 2.3669453907317752e-23 2.1334299221327352e-15 2.1322762965801474e-15 1.1536255525876533e-18
3.421196662673239 2.6442837310468154e-23 2.401350343350198e-15 2.4001375477517887e-15 1.2127955984097224e-18
3.4276182099114902 2.589342742829319e-23 2.3558705046772325e-15 2.354644411833055e-15 1.2260928441774605e-18
3.4340518103208963 2.3470555470260495e-23 2.139437699113214e-15 2.1381989845109166e-15 1.2387146022969978e-18
3.4469541582030403 2.0018279195357063e-23 1.8316044195765935e-15 1.8303413873793092e-15 1.263032197284355e-18
3.472904465399547 1.9058282304023876e-23 1.7568958841748789e-15 1.7555769622306982e-15 1.318921944180502e-18
3.4990501388274233 1.7587116108870344e-23 1.6334815347573953e-15 1.632105205331833e-15 1.3763294255622245e-18
3.5253949054701885 1.2332013532061222e-23 1.1540143207650257e-15 1.1525818810002172e-15 1.4324397648084536e-18
3.5519380250092896 7.385589340713798e-24 6.963377960039491e-16 6.948486827698699e-16 1.4891132340792109e-18
3.578680990867387 5.430727324225935e-24 5.15882050032155e-16 5.143307706005634e-16 1.55127943159149e-18
3.605625307711299 4.647351976355214e-24 4.447905915988597e-16 4.431736642273715e-16 1.6169273714882183e-18
3.660119384959845 4.091167206371252e-24 3.974769182111745e-16 3.957212957284873e-16 1.7556224826871054e-18
3.715437065384467 3.702887099186598e-24 3.65190787299041e-16 3.6328781480215485e-16 1.9029724968862714e-18
3.8285932144167436 3.54124057661193e-24 3.598852855149787e-16 3.5766160052951957e-16 2.2236849854590983e-18
3.94519561050918 3.548793509384338e-24 3.716367936302875e-16 3.6905722305981335e-16 2.57957057047404e-18
4.06534921144712 3.6262901105785804e-24 3.913180095876491e-16 3.8834616549937636e-16 2.9718440882727106e-18
4.189162171576248 3.744631932548481e-24 4.1639522697714654e-16 4.129923155373323e-16 3.4029114398142347e-18
4.316745939156006 3.89286102358625e-24 4.460615834401099e-16 4.4218842145504184e-16 3.873161985068103e-18
4.448215356677963 4.067210943521006e-24 4.802329287381517e-16 4.758544846896455e-16 4.378444048506147e-18
4.58368876423945 4.268034980293181e-24 5.192930668303127e-16 5.143717192680102e-16 4.921347562302728e-18
4.723288106065518 4.498745196618524e-24 5.640339765640846e-16 5.585267455649425e-16 5.507230999141973e-18
4.867139040275056 4.766075164753958e-24 6.157495076544543e-16 6.096248354235325e-16 6.1246722309219994e-18
4.940699165968905 4.92228909630828e-24 6.455426803677165e-16 6.39095078001157e-16 6.447602366559472e-18
5.015371051989984 5.082958053725715e-24 6.76688861240847e-16 6.699093726642704e-16 6.779488576576845e-18
5.091171501069577 5.273806135573015e-24 7.127074870315644e-16 7.055805527162214e-16 7.126934315342835e-18
5.129500256944802 5.371276998946888e-24 7.313445656402069e-16 7.240405848588971e-16 7.303980781309608e-18
5.168117569889187 5.4723214585684825e-24 7.507121053846209e-16 7.432274541307369e-16 7.484651253883784e-18
5.20702561229733 5.5939090649540255e-24 7.731692070761273e-16 7.654890360327335e-16 7.680171043394154e-18
5.246226572918644 5.718120096728887e-24 7.962872252817362e-16 7.884086807955287e-16 7.878544486207387e-18
5.265937586045735 5.781234574321241e-24 8.081011628429696e-16 8.001223672704389e-16 7.978795572530769e-18
5.285722656980489 5.845035582708676e-24 8.200889577078205e-16 8.120092047007483e-16 8.07975300707219e-18
5.305582063971359 5.909533837317311e-24 8.32253620516901e-16 8.240722062459409e-16 8.181414270960053e-18
5.3255160863122235 5.9784226689401034e-24 8.45118774798169e-16 8.36834345182422e-16 8.284429615747076e-18
5.365609099470188 6.147506942593989e-24 8.755631817131614e-16 8.670655295757635e-16 8.497652137397687e-18
5.406003951863644 6.322263430601623e-24 9.072320402489633e-16 8.9851805053354e-16 8.713989715423498e-18
5.446702915881641 6.5029625278194534e-24 9.40187282426837e-16 9.31253855542654e-16 8.933426884183007e-18
5.487708281020852 6.697103423021648e-24 9.755453330967073e-16 9.663886143207617e-16 9.156718775945445e-18
5.529022354014368 6.963384230851662e-24 1.0219699794844594e-15 1.012580086362441e-15 9.389893122018236e-18
5.570647458961463 7.244021189573841e-24 1.0711611672963368e-15 1.0615346591059773e-15 9.626508190359666e-18
5.612585937458331 7.540040030158578e-24 1.1233267175203122e-15 1.1134601643954015e-15 9.866553124910506e-18
5.654840148729818 7.863836485510483e-24 1.1803865176839189e-15 1.1702755239576982e-15 1.0110993726220707e-17
5.67608639626678 8.083047531916817e-24 1.2178493340421509e-15 1.2076105734739803e-15 1.0238760568170326e-17
5.686739436050992 8.195832683029417e-24 1.2371599328331876e-15 1.2268569257709634e-15 1.0303007062224135e-17
5.6974124697621304 8.310804771806571e-24 1.2568694646722211e-15 1.246501969144543e-15 1.0367495527678118e-17
5.718818669136295 8.54751907220256e-24 1.297525309172417e-15 1.2870281110548335e-15 1.0497198117583099e-17
5.740305295436557 8.807861443499085e-24 1.3420691640392754e-15 1.3314404639327892e-15 1.0628700106485737e-17
5.7835210386641895 9.480947795119206e-24 1.4555043509954522e-15 1.4446032041955603e-15 1.0901146799891956e-17
5.827062130521658 1.0252817199954222e-23 1.5858506921842632e-15 1.574670815453753e-15 1.1179876730510618e-17
5.8489554468988025 1.0793642360192626e-23 1.6757752434204552e-15 1.6644455261794158e-15 1.1329717241040183e-17
5.870931020387893 1.1372484131913159e-23 1.7722776076975644e-15 1.7607967336539555e-15 1.14808740436087e-17
5.892989160043636 1.1992379154407244e-23 1.8759032080710597e-15 1.8642698577966206e-15 1.1633350274439102e-17
5.915130176081913 1.2696324774538882e-23 1.9934794497717604e-15 1.98168819853217e-15 1.1791251239590158e-17
5.95966208400165 1.466295999215666e-23 2.319597961244413e-15 2.307451124828051e-15 1.2146836416362453e-17
6.004529249263818 1.749125629510344e-23 2.7878499891667528e-15 2.7753051064865853e-15 1.2544882680167144e-17
6.027089341400364 1.9455859889091947e-23 3.1126299523869967e-15 3.0998572071353186e-15 1.2772745251677891e-17
6.049734195844842 2.1773575122407087e-23 3.4965156048476456e-15 3.4835018562300167e-15 1.301374861762965e-17
6.095279466722835 2.846493377887066e-23 4.605462321034645e-15 4.591863657116954e-15 1.3598663917690693e-17
6.141167624020661 3.874813413967547e-23 6.316422607015187e-15 6.3020740042019066e-15 1.4348602813280603e-17
6.164241091010745 4.5316358703351675e-23 7.414878772226259e-15 7.400063992135052e-15 1.4814780091208634e-17
6.187401249150058 5.2785378873704494e-23 8.669446219468107e-15 8.654151441514553e-15 1.529477795355155e-17
6.1990139391386085 5.643226701226336e-23 9.285804654573185e-15 9.270265358704284e-15 1.5539295868900544e-17
6.204828454712694 5.835214648325884e-23 9.610722736003795e-15 9.595059799087669e-15 1.5662936916128184e-17
6.210648424152782 5.975408428762351e-23 9.85085606750041e-15 9.835086703405285e-15 1.5769364095123693e-17
6.233982942956859 6.451408279382965e-23 1.0675533062938735e-14 1.0659387990227672e-14 1.6145072711064928e-17
6.239830258556775 6.512116533682365e-23 1.0786098262369465e-14 1.0769897580815118e-14 1.6200681554346174e-17
6.245683058788269 6.517210099101819e-23 1.0804659792967418e-14 1.0788403361546605e-14 1.62564314208131e-17
6.257405133728602 6.503742961817304e-23 1.0802569674780527e-14 1.0786213610216557e-14 1.6356064563969003e-17
6.269149208991335 6.409680805640258e-23 1.0666315907345806e-14 1.0649913370290928e-14 1.640253705488087e-17
6.280915325867298 6.174370062647946e-23 1.0294020461933717e-14 1.0277637353871463e-14 1.6383108062253247e-17
6.304513850009849 5.594288905792778e-23 9.361941587189536e-15 9.345657140816976e-15 1.6284446372562774e-17
6.32820103803542 4.875936131591876e-23 8.19044897284733e-15 8.174326818831011e-15 1.6122154016319957e-17
6.3519772230701035 4.2173488639033015e-23 7.110790655282046e-15 7.094810630894441e-15 1.598002438760803e-17
6.375842739491607 3.662900222938183e-23 6.1991496190742534e-15 6.183291202765654e-15 1.5858416308599366e-17
6.399797922933955 3.2192304370010724e-23 5.46874608386296e-15 5.4529330302854425e-15 1.5813053577518093e-17
6.42384311029221 2.850045122821328e-23 4.8597742395676795e-15 4.843991381183316e-15 1.5782858384363335e-17
6.447978639727206 2.5813618714997808e-23 4.418164828810852e-15 4.402352271056336e-15 1.5812557754517386e-17
6.472204850670314 2.357398972225325e-23 4.049997708652731e-15 4.034143333217532e-15 1.5854375435200555e-17
6.496522083828205 2.212102671138154e-23 3.8146582160298325e-15 3.798713088018269e-15 1.5945128011564166e-17
6.520930681187647 2.089679066130556e-23 3.617084118066086e-15 3.601040358315345e-15 1.6043759750741354e-17
