Dust emission spectrum from A.P. Jones, M. Kohler, N. Ysard, M. Bocchio, and L. Verstraete (2017), A&A, 602A, 46J 
inside the DustPedia framework.

lambda    nu*dP/dnu     j_nu    j_nu(carb.) j_nu(sil)
 (um)   (erg s-1 H-1) (Jy cm2 sr-1 H-1)
0.9927057738263894 8.57770232688857e-24 2.260273283511715e-16 2.2602732835050505e-16 6.664503742211816e-28
1.0001793341362166 8.719335832353484e-24 2.3148918988698077e-16 2.3148918988617796e-16 8.028256255710768e-28
1.0077091589558085 8.86076531454923e-24 2.3701502225239156e-16 2.3701502225142575e-16 9.658647853645818e-28
1.0114953028030835 8.931386128884269e-24 2.398016510504084e-16 2.398016510493495e-16 1.0588974139245287e-27
1.0152956718711033 9.001935091122864e-24 2.4260393734971127e-16 2.426039373485508e-16 1.1605160886144599e-27
1.0229392996569957 9.142720641859484e-24 2.482531380181158e-16 2.482531380167233e-16 1.3926109310141133e-27
1.0267826658714554 9.212786406993463e-24 2.5109551976727183e-16 2.51095519765747e-16 1.5248370976663883e-27
1.0306404723013447 9.28274934268208e-24 2.5395294259397846e-16 2.5395294259230937e-16 1.6690772091997582e-27
1.03451277320114 9.35260269788091e-24 2.568252834428486e-16 2.5682528344102225e-16 1.8263695467805405e-27
1.0383996230291617 9.422339759120915e-24 2.5971241772442885e-16 2.5971241772243106e-16 1.9978371580652657e-27
1.0403485208654093 9.457162592139143e-24 2.611614930560675e-16 2.6116149305397823e-16 2.089262408315263e-27
1.0423010764483396 9.491953851795616e-24 2.626142193446954e-16 2.6261421934251074e-16 2.1846943406500868e-27
1.0462171883269815 9.561438341419917e-24 2.6553056073458895e-16 2.655305607322006e-16 2.388253585150433e-27
1.0471985131304309 9.578788439790641e-24 2.6626190283351384e-16 2.6626190283107197e-16 2.441916846719072e-27
1.048180758391296 9.596129923085617e-24 2.6699414358175857e-16 2.6699414357926187e-16 2.4967353021357294e-27
1.0501480137395462 9.630786634860362e-24 2.684613128795723e-16 2.684613128769624e-16 2.6099330076687295e-27
1.0521189612883777 9.66540765926083e-24 2.6993205228020935e-16 2.6993205227748133e-16 2.728041774988826e-27
1.0531058218030118 9.682677936254394e-24 2.70668012128199e-16 2.7066801212541e-16 2.7890047882339155e-27
1.0540936079674168 9.69985184366394e-24 2.7140241868735827e-16 2.71402418684507e-16 2.8512855604862993e-27
1.058054026499678 9.768449576327511e-24 2.7434870615850283e-16 2.7434870615538885e-16 3.1140000694552772e-27
1.0590464539527713 9.785574033645982e-24 2.750874328374623e-16 2.7508743283427904e-16 3.1832160776506256e-27
1.06003981227728 9.802688300625267e-24 2.758270172241387e-16 2.7582701722088477e-16 3.253904735898558e-27
1.0620293250338977 9.836885865047504e-24 2.7730875064695374e-16 2.773087506435539e-16 3.399819852453636e-27
1.0660195594769086 9.905154336622475e-24 2.8028241649708884e-16 2.8028241649337813e-16 3.710672778849359e-27
1.070024785945596 9.973248666154598e-24 2.832695667922989e-16 2.8326956678825034e-16 4.0486382440487465e-27
1.0740450607676866 1.0041162578089639e-23 2.8627006338466294e-16 2.8627006338024704e-16 4.415958289289556e-27
1.07808044048254 1.0108889847228365e-23 2.89283766924568e-16 2.892837669197529e-16 4.8150494744932424e-27
1.0861967418109137 1.0243640051244481e-23 2.9534677859350513e-16 2.9534677858778594e-16 5.719161743654082e-27
1.0902777775684922 1.031037845585404e-23 2.983878946571504e-16 2.9838789465092036e-16 6.230008858083395e-27
1.0943741465085532 1.037690108102263e-23 3.0144142528897436e-16 3.0144142528219005e-16 6.784305442336847e-27
1.1026131145906286 1.0509275351280742e-23 3.0758514547680703e-16 3.075851454687695e-16 8.037499502419957e-27
1.1109141095355224 1.0640716151281615e-23 3.137767598099273e-16 3.1377675980041734e-16 9.51000511698883e-27
1.1192775983109025 1.0771055586397053e-23 3.2001144578027443e-16 3.200114457690365e-16 1.1237937670381088e-26
1.1277040513999907 1.0899687896061843e-23 3.262711218122269e-16 3.262711217989639e-16 1.326296434511636e-26
1.1361939428280308 1.1027234893813812e-23 3.325741795865483e-16 3.325741795709152e-16 1.5633086889667423e-26
1.1447477501889525 1.1153654060346855e-23 3.389193790815987e-16 3.3891937906319514e-16 1.8403536698171984e-26
1.1533659546722406 1.1278972815373015e-23 3.453075790314663e-16 3.4530757900982837e-16 2.1637808879649252e-26
1.1707974979042381 1.1526714323386765e-23 3.582257070016118e-16 3.5822570697181176e-16 2.980017225477125e-26
1.1884924949847024 1.1769520655250693e-23 3.7129974595878493e-16 3.7129974591794595e-16 4.083896594829131e-26
1.2064549276569216 1.2009292214677727e-23 3.845899640231662e-16 3.8458996396747185e-16 5.56943280933836e-26
1.2246888378427687 1.2243408646711725e-23 3.980132569899255e-16 3.9801325691433935e-16 7.558608255176054e-26
1.2431983285522175 1.2471322216470962e-23 4.115497580187734e-16 4.1154975791668185e-16 1.0209153421180823e-25
1.2619875648066055 1.2692947923707024e-23 4.2519388188499393e-16 4.251938817477541e-16 1.3723980033899767e-25
1.3004222497298317 1.3113650529949757e-23 4.526655359274285e-16 4.52665535682874e-16 2.445545737957743e-25
1.3400274889804893 1.3503871872784416e-23 4.803319210212118e-16 4.803319205933249e-16 4.2788690283013765e-25
1.3808389325824078 1.3862166911703777e-23 5.080934312332322e-16 5.080934304978049e-16 7.354272442865011e-25
1.4228933163050095 1.4190283983840575e-23 5.35960593442548e-16 5.35960592200265e-16 1.2422831581551769e-24
1.466228494730424 1.4496129202432474e-23 5.641870839803593e-16 5.641870819169396e-16 2.0634197324329173e-24
1.5108834753276823 1.4773754368859103e-23 5.925039888441171e-16 5.925039854725519e-16 3.371564999815587e-24
1.5568984535646726 1.501834773512631e-23 6.206573118328953e-16 6.206573064078501e-16 5.425045066753491e-24
1.6043148490894465 1.523035998009919e-23 6.485884411191746e-16 6.485884325073145e-16 8.611859926747378e-24
1.6531753430134553 1.5410439814627224e-23 6.762439393961803e-16 6.762439259246323e-16 1.3471548321937923e-23
1.7035239163302658 1.556073240340643e-23 7.036354351534852e-16 7.036354143818526e-16 2.0771632458090393e-23
1.755405889504358 1.5693615771112622e-23 7.31256938128636e-16 7.312569065440714e-16 3.158456466891342e-23
1.8088679632656115 1.5806037594516047e-23 7.589257888001958e-16 7.589257414212047e-16 4.737899110457781e-23
1.8639582606462262 1.5895931738627975e-23 7.864871027398974e-16 7.864870325980188e-16 7.014187855577253e-23
1.9207263702978936 1.596480213790975e-23 8.139513961884333e-16 8.139512936668088e-16 1.0252162452983396e-22
1.979223391128241 1.6016145220567183e-23 8.414382417216902e-16 8.41438093718987e-16 1.4800270308973943e-22
2.039501978296691 1.6054144410676232e-23 8.691219717512204e-16 8.691217606467891e-16 2.1110443103208347e-22
2.1016163906111602 1.609051158379701e-23 8.976204374713286e-16 8.97620139838697e-16 2.9763263148535566e-22
2.1656225393682647 1.6132038724245934e-23 9.273452498728601e-16 9.273448349458742e-16 4.1492698601792814e-22
2.231578038680979 1.6179213999256134e-23 9.583826242196905e-16 9.58382052070842e-16 5.721488488212547e-22
2.299542257339062 1.6236104649133557e-23 9.910433910185064e-16 9.91042610418031e-16 7.806004754552655e-22
2.369576372248914 1.631170103082487e-23 1.0259811852850308e-15 1.0259801312009947e-15 1.0540840361089504e-21
2.4417434235010123 1.6416618623735053e-23 1.064028275088541e-15 1.0640268658546774e-15 1.4092338634871294e-21
2.5161083711144245 1.6569035830032925e-23 1.1066136242171867e-15 1.1066117582807926e-15 1.8659363942048827e-21
2.5927381535095444 1.6798699668661594e-23 1.1561222445856302e-15 1.1561197968883616e-15 2.44769726879625e-21
2.6717017477616296 1.7141123951829354e-23 1.2156168267926874e-15 1.215613644926606e-15 3.1818660815522467e-21
2.753070231689431 1.764977625484007e-23 1.2898105585578268e-15 1.2898064585873509e-15 4.099970476023284e-21
2.836916847834745 1.844579384114312e-23 1.3890356429981173e-15 1.3890304048277104e-15 5.238170407187417e-21
2.9233170693905177 1.9795971715285556e-23 1.5361095179387154e-15 1.536102881526558e-15 6.63641215690433e-21
2.967498994190263 2.0942269960452294e-23 1.6496194445475523e-15 1.649612009442982e-15 7.435104569548622e-21
3.0123486681368425 2.22809469471393e-23 1.7815922547961787e-15 1.781583935911285e-15 8.318884893276992e-21
3.0578761833420214 2.5275622541261424e-23 2.051592914779053e-15 2.0515836168572553e-15 9.297921798068395e-21
3.1040917844459814 2.9134488025510606e-23 2.400553438161394e-15 2.4005430651992047e-15 1.0372962189306128e-20
3.127460860933648 3.321631931520255e-23 2.7574828701198223e-15 2.7574719177124346e-15 1.0952407386751868e-20
3.1510058709225794 3.865473327058839e-23 3.233116293598454e-15 3.2331047343653547e-15 1.1559233099430089e-20
3.162844764501044 4.371690579734026e-23 3.670259113229924e-15 3.670247238863477e-15 1.1874366445616466e-20
3.1747281389236908 4.9603800351060684e-23 4.180140942866961e-15 4.180128746188129e-15 1.2196678832015217e-20
3.1986289994194426 6.6024012155222e-23 5.605769230437711e-15 5.605756365488826e-15 1.2864948883975109e-20
3.2227097969389145 1.047299893576514e-22 8.959044459013549e-15 8.959030882895358e-15 1.3576118192323764e-20
3.2348180950136065 1.414352495370128e-22 1.2144425020407102e-14 1.2144411063951318e-14 1.3956455782588386e-20
3.240889293275058 1.6887713571551658e-22 1.452795491793935e-14 1.452794076082553e-14 1.4157113820831717e-20
3.2469718861334385 2.0062314230741943e-22 1.7291353509465934e-14 1.729133914469589e-14 1.4364770034388507e-20
3.2714166318528037 3.6996126814447916e-22 3.212636208187746e-14 3.212634685644486e-14 1.5225432607089772e-20
3.2744851364798273 3.8054701624529647e-22 3.3076593624139577e-14 3.307657829660701e-14 1.532753256365362e-20
3.2775565192852394 3.9143680966127177e-22 3.40550314521931e-14 3.405501602198429e-14 1.5430208811462982e-20
3.283707930232385 3.8096384135449474e-22 3.320608781099563e-14 3.320607219584104e-14 1.5615154587761517e-20
3.2898708863219004 3.477514664666483e-22 3.036807457015183e-14 3.0368058785456507e-14 1.5784695335109618e-20
3.29141343181113 3.3991916533653214e-22 2.969802180870226e-14 2.9698005981399614e-14 1.5827302646694018e-20
3.292184975758714 3.3607065080347225e-22 2.9368667925919876e-14 2.9368652077280186e-14 1.5848639700080406e-20
3.295272960557952 3.1177852356145777e-22 2.7271374287193085e-14 2.7271358355326566e-14 1.5931866518395882e-20
3.3076538914384823 2.276233110503402e-22 1.9985095535832727e-14 1.9985079269018656e-14 1.6266814063644562e-20
3.310756385682612 2.1049560642439406e-22 1.8498635448894277e-14 1.849861909751311e-14 1.6351381167793675e-20
3.313861789986515 1.9469264114991567e-22 1.712589832152525e-14 1.7125881885243387e-14 1.643628186131173e-20
3.3200813396944477 1.7253073661635972e-22 1.5204937290554424e-14 1.5204920672208568e-14 1.6618345855500635e-20
3.345076488085796 1.3299598796755405e-22 1.1809024558496315e-14 1.1809007130029025e-14 1.742846728844948e-20
3.3482140837626964 1.344784370790458e-22 1.195185470616895e-14 1.1951837167987811e-14 1.753818113677645e-20
3.3513546224236106 1.3597727510978835e-22 1.209640034793749e-14 1.2096382699473172e-14 1.764846431730875e-20
3.3576445397418455 1.4693131362139417e-22 1.309539225459842e-14 1.3095374375753786e-14 1.78788446378029e-20
3.3702598118196083 1.8733450793188336e-22 1.6759096385109374e-14 1.6759078022812303e-14 1.8362297067829837e-20
3.382922481734668 1.965364381142174e-22 1.7648368374373165e-14 1.7648349539709077e-14 1.883466408518876e-20
3.389271646505754 2.0130366507949754e-22 1.8110377105633852e-14 1.8110358031032794e-14 1.907460104944472e-20
3.395632727569191 2.0644057147818654e-22 1.8607378694004453e-14 1.8607359372096038e-14 1.9321908418081384e-20
3.421196662673239 2.3110596635827283e-22 2.0987399542220014e-14 2.0987379193626994e-14 2.034859301932633e-20
3.4276182099114902 2.2613496958113237e-22 2.0574514763934048e-14 2.0574494183517306e-14 2.0580416741160307e-20
3.4340518103208963 2.0435286112826078e-22 1.8627604087744075e-14 1.862758328675762e-14 2.0800986458014878e-20
3.4469541582030403 1.733311365214495e-22 1.5859209106073117e-14 1.5859187879043625e-14 2.1227029490616192e-20
3.472904465399547 1.6463675276941936e-22 1.5177109285627445e-14 1.5177087080586804e-14 2.2205040640984203e-20
3.4990501388274233 1.513393182057087e-22 1.4056311463544307e-14 1.4056288251168918e-14 2.3212375383724065e-20
3.5253949054701885 1.0401769934997213e-22 9.733845519291701e-15 9.73382131818774e-15 2.4201103959600936e-20
3.5519380250092896 5.954122485748532e-23 5.613743653479358e-15 5.6137184502162594e-15 2.5203263099285608e-20
3.578680990867387 4.190587821274444e-23 3.9807725687773876e-15 3.980746265237849e-15 2.630353953849306e-20
3.605625307711299 3.477245125914725e-23 3.328015447417977e-15 3.327987979519296e-15 2.746789868071285e-20
3.660119384959845 2.956774329016427e-23 2.8726509791951896e-15 2.8726210409219452e-15 2.993827324264539e-20
3.715437065384467 2.5881499533930185e-23 2.5525177889846953e-15 2.5524852106967707e-15 3.2578287924690163e-20
3.8285932144167436 2.4007947659558552e-23 2.4398531845456506e-15 2.4398148046572873e-15 3.83798883633687e-20
3.94519561050918 2.3645021944103124e-23 2.476154252814993e-15 2.47610934826201e-15 4.4904552983370453e-20
4.06534921144712 2.3902477084507604e-23 2.5793495478031534e-15 2.5792973469057803e-15 5.220089737358016e-20
4.189162171576248 2.451926356680603e-23 2.7264907478541604e-15 2.72643040544527e-15 6.034240889019146e-20
4.316745939156006 2.539809056436246e-23 2.910227831112766e-15 2.9101584596965294e-15 6.937141623717931e-20
4.448215356677963 2.6506272049781735e-23 3.1297084988115148e-15 3.1296292479653767e-15 7.925084613823481e-20
4.58368876423945 2.784770310686874e-23 3.3882381979804032e-15 3.388148127209999e-15 9.007077040508547e-20
4.723288106065518 2.945333043293313e-23 3.692736165549037e-15 3.6926341854811194e-15 1.0198006791832961e-19
4.867139040275056 3.138514888116126e-23 4.054780779403516e-15 4.054665957098625e-15 1.148223048923241e-19
4.940699165968905 3.255126383090584e-23 4.268995520502768e-15 4.268873864186021e-15 1.2165631674506684e-19
5.015371051989984 3.375889170117251e-23 4.494285756553723e-15 4.494156990944083e-15 1.287656096404284e-19
5.091171501069577 3.523335449704563e-23 4.761471107916115e-15 4.761334821191449e-15 1.36286724666385e-19
5.129500256944802 3.5990110464360557e-23 4.900356416185848e-15 4.900216259689762e-15 1.4015649608566028e-19
5.168117569889187 3.677912407600513e-23 5.045488259113109e-15 5.045344132695548e-15 1.4412641756202975e-19
5.20702561229733 3.7748072175072235e-23 5.217397475247104e-15 5.21724907084494e-15 1.4840440216391112e-19
5.246226572918644 3.8741765554296986e-23 5.395055100957836e-15 5.394902328524222e-15 1.5277243361487053e-19
5.265937586045735 3.92481391383196e-23 5.486106206099151e-15 5.48595121555837e-15 1.5499054078108642e-19
5.285722656980489 3.9761000255109557e-23 5.578675577800738e-15 5.5785183462513086e-15 1.5723154943043493e-19
5.305582063971359 4.0280453892920536e-23 5.672791545206814e-15 5.672632049616098e-15 1.5949559071664889e-19
5.3255160863122235 4.083863660944536e-23 5.7730107834481546e-15 5.772848988328412e-15 1.6179511974290302e-19
5.365609099470188 4.2229694397565474e-23 6.014595174073134e-15 6.0144286131826e-15 1.6656089053497028e-19
5.406003951863644 4.3673773277272377e-23 6.267098305952754e-15 6.266926877699542e-15 1.7142825321229128e-19
5.446702915881641 4.517343987089064e-23 6.53109924721128e-15 6.530922848683452e-15 1.7639852782963997e-19
5.487708281020852 4.6794125113655917e-23 6.81634842520826e-15 6.816166937075364e-15 1.814881328961217e-19
5.529022354014368 4.904829208571557e-23 7.19849435199928e-15 7.198307534827242e-15 1.8681717203755473e-19
5.570647458961463 5.143552736788748e-23 7.605684480214816e-15 7.60549221811598e-15 1.922620988348269e-19
5.612585937458331 5.396542065913421e-23 8.039851062614733e-15 8.039653238002352e-15 1.9782461238142984e-19
5.654840148729818 5.674675549276352e-23 8.517865958859102e-15 8.51766243277636e-15 2.0352608274278217e-19
5.67608639626678 5.864184308723862e-23 8.835396460159382e-15 8.835189952047826e-15 2.0650811155502143e-19
5.686739436050992 5.961870524825187e-23 8.99943620533574e-15 8.999228193741393e-15 2.080115943479703e-19
5.6974124697621304 6.061573708886389e-23 9.167110901707704e-15 9.166901378273077e-15 2.0952343463028868e-19
5.718818669136295 6.267225413915778e-23 9.513735534431327e-15 9.513522962106956e-15 2.1257232436986737e-19
5.740305295436557 6.493943449730484e-23 9.894934556822228e-15 9.89471888414178e-15 2.156726804523271e-19
5.7835210386641895 7.082262347611504e-23 1.087260881991831e-14 1.0872386704318392e-14 2.221155999153972e-19
5.827062130521658 7.760089124523232e-23 1.2002889029945534e-14 1.2002660279730416e-14 2.2875021511702357e-19
5.8489554468988025 8.235711732965e-23 1.2786417572023223e-14 1.2786185260376374e-14 2.323116468452443e-19
5.870931020387893 8.746138678574685e-23 1.3629903154015533e-14 1.3629667236242729e-14 2.3591777280543243e-19
5.892989160043636 9.29417217395819e-23 1.4538372388839565e-14 1.4538132819775918e-14 2.395690636475177e-19
5.915130176081913 9.91749481825426e-23 1.5571689023783518e-14 1.5571445672287123e-14 2.433514963965443e-19
5.95966208400165 1.166056440759796e-22 1.8446358335077974e-14 1.8446106526940887e-14 2.5180813709133896e-19
6.004529249263818 1.4173258797870409e-22 2.259009800065761e-14 2.258983673908533e-14 2.6126157228232314e-19
6.027089341400364 1.5920039176994577e-22 2.546954545723783e-14 2.546927881120898e-14 2.6664602884381487e-19
6.049734195844842 1.798436714363083e-22 2.888024589783709e-14 2.8879973555552614e-14 2.723422844809293e-19
6.095279466722835 2.39476987886138e-22 3.874599719895207e-14 3.8745711139176295e-14 2.8605977577074544e-19
6.141167624020661 3.3125593482078235e-22 5.399879302233322e-14 5.3998489497182436e-14 3.035251507814189e-19
6.164241091010745 3.8986669063255577e-22 6.379184760393449e-14 6.379153329367706e-14 3.143102574190115e-19
6.187401249150058 4.566350740187325e-22 7.499753341924647e-14 7.499720795546207e-14 3.254637844214164e-19
6.1990139391386085 4.892367382223392e-22 8.050282261362925e-14 8.050249145957833e-14 3.3115405092113946e-19
6.204828454712694 5.064102776278111e-22 8.340685068611703e-14 8.340651664957415e-14 3.340365428717745e-19
6.210648424152782 5.189466399834643e-22 8.555178642824403e-14 8.555144989002532e-14 3.3653821872648254e-19
6.233982942956859 5.615382435796908e-22 9.292110847482886e-14 9.292076300578321e-14 3.4546904564651966e-19
6.239830258556775 5.669827508188922e-22 9.39100464767482e-14 9.390969961680371e-14 3.4685994446364934e-19
6.245683058788269 5.674546591420305e-22 9.40763677514233e-14 9.407601949571331e-14 3.4825570997425403e-19
6.257405133728602 5.662840850135221e-22 9.405850323409126e-14 9.405815244526698e-14 3.507888242782613e-19
6.269149208991335 5.579065787317032e-22 9.284093851135883e-14 9.284058636309502e-14 3.5214826380435385e-19
6.280915325867298 5.368988315512162e-22 8.951273574305773e-14 8.951238369418053e-14 3.5204887720673213e-19
6.304513850009849 4.850931977637318e-22 8.117947174849144e-14 8.11791212254948e-14 3.505229966232476e-19
6.32820103803542 4.208794029040092e-22 7.069803992863859e-14 7.069769235122483e-14 3.4757741374859205e-19
6.3519772230701035 3.6199075920281674e-22 6.103456438876341e-14 6.103421931366695e-14 3.4507509645040336e-19
6.375842739491607 3.124495776306157e-22 5.287945513828515e-14 5.2879112107976775e-14 3.4303030836221694e-19
6.399797922933955 2.7274317949513544e-22 4.633291166797754e-14 4.6332568981524336e-14 3.4268645320136616e-19
6.42384311029221 2.3973175274439327e-22 4.087802635350235e-14 4.0877683664900305e-14 3.4268860204730207e-19
6.447978639727206 2.1567520517304533e-22 3.6914181481594504e-14 3.6913837438282316e-14 3.4404331219386073e-19
6.472204850670314 1.9563555974440375e-22 3.361007525798216e-14 3.360972957640798e-14 3.4568157418739947e-19
6.496522083828205 1.8261120612800116e-22 3.149037098883337e-14 3.1490022552276126e-14 3.484365572430543e-19
