Dust emission spectrum from A.P. Jones, M. Kohler, N. Ysard, M. Bocchio, and L. Verstraete (2017), A&A, 602A, 46J 
inside the DustPedia framework.

lambda    nu*dP/dnu     j_nu    j_nu(carb.) j_nu(sil)
 (um)   (erg s-1 H-1) (Jy cm2 sr-1 H-1)
0.9927057738263894 3.460674196546754e-22 9.119073070270943e-15 9.119072076733753e-15 9.935371915360672e-22
1.0001793341362166 3.518862847785088e-22 9.342210526341164e-15 9.342209330712027e-15 1.1956291367948692e-21
1.0077091589558085 3.5772832587074475e-22 9.568810831424066e-15 9.568809394513081e-15 1.4369109851326615e-21
1.0114953028030835 3.6065777244679824e-22 9.683416218811357e-15 9.683414644360422e-15 1.5744509345731354e-21
1.0152956718711033 3.635926997610715e-22 9.798895422011373e-15 9.798893697431397e-15 1.724579976704412e-21
1.0229392996569957 3.6947574050519335e-22 1.0032408907041287e-14 1.0032406839938107e-14 2.0671031813279654e-21
1.0267826658714554 3.7241717494002518e-22 1.0150271587848719e-14 1.01502693258118e-14 2.2620369151628497e-21
1.0306404723013447 3.7536355884781654e-22 1.0269013714896746e-14 1.0269011240369545e-14 2.474527198727592e-21
1.03451277320114 3.783148032870843e-22 1.038863829924534e-14 1.0388635593170415e-14 2.7060749288679173e-21
1.0383996230291617 3.812708221862009e-22 1.0509148424827918e-14 1.050914546652599e-14 2.9583019275614274e-21
1.0403485208654093 3.827505959640376e-22 1.0569736550067872e-14 1.0569733457355606e-14 3.0927122643687436e-21
1.0423010764483396 3.842315324185205e-22 1.063054725183029e-14 1.0630544018870248e-14 3.232960042987611e-21
1.0462171883269815 3.871968538772622e-22 1.0752838020124699e-14 1.0752834488183814e-14 3.531940883012705e-21
1.0471985131304309 3.8793889565213973e-22 1.0783550465566848e-14 1.0783546854844514e-14 3.6107223337827765e-21
1.048180758391296 3.8868121962728387e-22 1.0814318917363222e-14 1.0814315226179007e-14 3.691184214091353e-21
1.0501480137395462 3.9016670955011923e-22 1.0876024052758645e-14 1.0876020195472425e-14 3.85728622099515e-21
1.0521189612883777 3.9165331451493356e-22 1.0937953855269395e-14 1.0937949824741982e-14 4.0305274130365905e-21
1.0531058218030118 3.9239604784848e-22 1.096897562196468e-14 1.096897150204287e-14 4.11992180948673e-21
1.0540936079674168 3.931358312981622e-22 1.0999963422810722e-14 1.0999959211579266e-14 4.2112314521311324e-21
1.058054026499678 3.9609756754745363e-22 1.1124473164351284e-14 1.1124468568145293e-14 4.5962059945919014e-21
1.0590464539527713 3.968386470388007e-22 1.1155740510393118e-14 1.1155735812809215e-14 4.697583904655864e-21
1.06003981227728 3.975799826748198e-22 1.118706393247507e-14 1.1187059131376763e-14 4.801098308880111e-21
1.0620293250338977 3.9906341843434502e-22 1.1249879231408196e-14 1.1249874216699725e-14 5.014708471453206e-21
1.0660195594769086 4.020333210384357e-22 1.1376185257041234e-14 1.1376179787537901e-14 5.469503328981108e-21
1.070024785945596 4.050072159355546e-22 1.1503394976519198e-14 1.1503389012950004e-14 5.963569191681551e-21
1.0740450607676866 4.07985047269808e-22 1.1631512231140774e-14 1.1631505731026471e-14 6.50011430670632e-21
1.07808044048254 4.109667628251761e-22 1.1760540972108665e-14 1.1760533889515654e-14 7.082593011550104e-21
1.0861967418109137 4.169370930053566e-22 1.2021217719409472e-14 1.2021209318903077e-14 8.400506397754323e-21
1.0902777775684922 4.199152466917054e-22 1.2152572956585724e-14 1.2152563812339316e-14 9.144246407375565e-21
1.0943741465085532 4.2289693452262227e-22 1.228484821214798e-14 1.2284838261580543e-14 9.950567436507539e-21
1.1026131145906286 4.288707883326025e-22 1.2552176949475431e-14 1.2552165178264308e-14 1.1771211121704863e-20
1.1109141095355224 4.348584471525176e-22 1.282324164873612e-14 1.2823227741926285e-14 1.3906809831763798e-20
1.1192775983109025 4.408550835117358e-22 1.3097943049550763e-14 1.3097926641037704e-14 1.6408513057938303e-20
1.1277040513999907 4.468390803009144e-22 1.3375675467918541e-14 1.3375656132718483e-14 1.9335200062658724e-20
1.1361939428280308 4.528359773446664e-22 1.3657236388168484e-14 1.3657213633613897e-14 2.2754554589688973e-20
1.1447477501889525 4.588458567083867e-22 1.3942673137285246e-14 1.3942646393009438e-14 2.6744275805576097e-20
1.1533659546722406 4.648710141538596e-22 1.423210137013376e-14 1.4232069976649593e-14 3.139348416468558e-20
1.1707974979042381 4.769856774567251e-22 1.4823697954403174e-14 1.4823654860918864e-14 4.309348430951345e-20
1.1884924949847024 4.891642356567107e-22 1.5431941686633725e-14 1.5431882829299012e-14 5.885733471433456e-20
1.2064549276569216 5.014896303616477e-22 1.6059887248230528e-14 1.6059807257819617e-14 7.999041091301498e-20
1.2246888378427687 5.138830628219126e-22 1.6705500685925416e-14 1.6705392507694554e-14 1.0817823085826169e-19
1.2431983285522175 5.263355640676013e-22 1.7368910069744912e-14 1.7368764480289314e-14 1.4558945559950003e-19
1.2619875648066055 5.388665487249659e-22 1.8051185669989043e-14 1.8050990669805895e-14 1.950001831506952e-19
1.3004222497298317 5.640935696257242e-22 1.9471749489180803e-14 1.9471404598611214e-14 3.448905695881506e-19
1.3400274889804893 5.896552086266021e-22 2.097400077311151e-14 2.0973401968202996e-14 5.98804908518568e-19
1.3808389325824078 6.156658604361828e-22 2.256615300585301e-14 2.2565131945547318e-14 1.0210603056869486e-18
1.4228933163050095 6.42370555452176e-22 2.4262044685097786e-14 2.4260333902524937e-14 1.7107825728406067e-18
1.466228494730424 6.702662455670747e-22 2.6086657568800925e-14 2.6083839620382453e-14 2.8179484184664276e-18
1.5108834753276823 6.993473422433978e-22 2.804744681150024e-14 2.804288163530041e-14 4.565176199827393e-18
1.5568984535646726 7.296536929200403e-22 3.0154109333711477e-14 3.014682772989182e-14 7.281603819657137e-18
1.6043148490894465 7.614400608675536e-22 3.242610304215275e-14 3.241464648401424e-14 1.1456558138519377e-17
1.6531753430134553 7.94992040583787e-22 3.48859964919822e-14 3.486823731370117e-14 1.7759178281031012e-17
1.7035239163302658 8.306521312541158e-22 3.7560974553370704e-14 3.7533845517935785e-14 2.7129035434908777e-17
1.755405889504358 8.691971166443238e-22 4.0500954746039695e-14 4.046009412139174e-14 4.086062464794549e-17
1.8088679632656115 9.108158498990096e-22 4.373275928282968e-14 4.367205945434545e-14 6.069982848422148e-17
1.8639582606462262 9.557186800703765e-22 4.728633892509578e-14 4.719736697047084e-14 8.89719546249533e-17
1.9207263702978936 1.004289431245141e-21 5.1202813393984024e-14 5.10740880701081e-14 1.2872532387592804e-16
1.979223391128241 1.0570168622687925e-21 5.553236423677567e-14 5.534846241271689e-14 1.8390182405878773e-16
2.039501978296691 1.1144132421961355e-21 6.033090332481804e-14 6.007138256646742e-14 2.59520758350627e-16
2.1016163906111602 1.1773671653299685e-21 6.568025040745631e-14 6.531834139622491e-14 3.619090112314002e-16
2.1656225393682647 1.2465705563439752e-21 7.165872236095745e-14 7.115982057619885e-14 4.98901784758648e-16
2.231578038680979 1.3224008250935137e-21 7.833297545119776e-14 7.765290812779512e-14 6.800673234026444e-16
2.299542257339062 1.4054570660340256e-21 8.578836899327405e-14 8.487143030627419e-14 9.169386869998658e-16
2.369576372248914 1.496504492205735e-21 9.412785642626322e-14 9.290459887601718e-14 1.2232575502460585e-15
2.4417434235010123 1.5963783720981035e-21 1.0346781907916066e-13 1.0185267018579184e-13 1.6151488933688065e-15
2.5161083711144245 1.706198917779709e-21 1.1395370179701598e-13 1.118423462449123e-13 2.1113555521036905e-15
2.5927381535095444 1.827421885425482e-21 1.257670613591808e-13 1.2303369886182118e-13 2.7333624973596666e-15
2.6717017477616296 1.9613911663764744e-21 1.3909823605909563e-13 1.3559290947566776e-13 3.5053265834278743e-15
2.753070231689431 2.1097505932951373e-21 1.5417637888806004e-13 1.4972230441508425e-13 4.454074472975759e-15
2.836916847834745 2.2758844427115656e-21 1.7138241040188059e-13 1.6577321365897445e-13 5.60919674290613e-15
2.9233170693905177 2.4663563891871275e-21 1.91382043708111e-13 1.8438062311488063e-13 7.0014205932303404e-15
2.967498994190263 2.575747053327909e-21 2.0289120670441462e-13 1.9510994320119006e-13 7.78126350322462e-15
3.0123486681368425 2.6924317729820854e-21 2.1528777949574088e-13 2.0665106495837108e-13 8.636714537369781e-15
3.0578761833420214 2.853093406132776e-21 2.3158227686259456e-13 2.2200563632287462e-13 9.576640539719965e-15
3.1040917844459814 3.034481988078052e-21 2.500279449956774e-13 2.3943018997016823e-13 1.0597755025509151e-14
3.127460860933648 3.1777595688237664e-21 2.638045923523014e-13 2.5266079196643195e-13 1.1143800385869472e-14
3.1510058709225794 3.3519602286787382e-21 2.803609367828984e-13 2.6864845994702835e-13 1.1712476835870004e-14
3.162844764501044 3.496534886368766e-21 2.935520892286501e-13 2.8154551241742783e-13 1.2006576811222272e-14
3.1747281389236908 3.658104904738036e-21 3.082706159079792e-13 2.959640936375586e-13 1.2306522270420587e-14
3.1986289994194426 4.084154757611988e-21 3.4676518928812583e-13 3.338393940648942e-13 1.2925795223231657e-14
3.2227097969389145 5.025852352759631e-21 4.299325813835939e-13 4.1635108958144023e-13 1.358149180215363e-14
3.2348180950136065 5.894088068846798e-21 5.060995109076671e-13 4.921682293610858e-13 1.3931281546581295e-14
3.240889293275058 6.538295059872534e-21 5.624684210065399e-13 5.483526339169642e-13 1.4115787089575827e-14
3.2469718861334385 7.28339337484764e-21 6.277427825350894e-13 6.13436087073944e-13 1.430669546114559e-14
3.2714166318528037 1.1179870103318029e-20 9.708274511246606e-13 9.557322391966855e-13 1.509521192797542e-14
3.2744851364798273 1.1425704044415128e-20 9.931055911977034e-13 9.779175694286633e-13 1.5188021769040086e-14
3.2775565192852394 1.1677989297085193e-20 1.015985934370234e-12 1.0007046494437518e-12 1.5281284926482188e-14
3.283707930232385 1.144961638863041e-20 9.979870159102447e-13 9.825391783957146e-13 1.5447837514530223e-14
3.2898708863219004 1.0703096213313506e-20 9.346687369572518e-13 9.190695406414173e-13 1.5599196315834695e-14
3.29141343181113 1.052678211833166e-20 9.197027905624591e-13 9.040655927208213e-13 1.5637197841637994e-14
3.292184975758714 1.0440108114320505e-20 9.123440788034815e-13 8.966878559009417e-13 1.565622290254018e-14
3.295272960557952 9.897330592725181e-21 8.657228982774676e-13 8.499927117868912e-13 1.573018649057631e-14
3.3076538914384823 8.004787712182032e-21 7.028122314618212e-13 6.867850785496692e-13 1.6027152912152e-14
3.310756385682612 7.616312894673431e-21 6.693317646697865e-13 6.532297809628679e-13 1.6101983706918785e-14
3.313861789986515 7.256616761501742e-21 6.383193534267205e-13 6.221423029472e-13 1.6177050479520247e-14
3.3200813396944477 6.757444710214932e-21 5.955259049967107e-13 5.79187294181342e-13 1.633861081536866e-14
3.345076488085796 5.910189274765289e-21 5.247795167181419e-13 5.07720665005276e-13 1.705885171286594e-14
3.3482140837626964 5.951761462404003e-21 5.289665004257575e-13 5.118100698284459e-13 1.7156430597311643e-14
3.3513546224236106 5.9936782462751846e-21 5.331915319315692e-13 5.159370944351937e-13 1.725443749637546e-14
3.3576445397418455 6.2606650783858676e-21 5.579876947631905e-13 5.405283101313286e-13 1.745938463186214e-14
3.3702598118196083 7.209962212103583e-21 6.450090428058038e-13 6.271197932268179e-13 1.788924957898594e-14
3.382922481734668 7.453653124290297e-21 6.693151526223609e-13 6.51008412246831e-13 1.830674037553003e-14
3.389271646505754 7.57901889474613e-21 6.818499316461591e-13 6.633316449502612e-13 1.8518286695897903e-14
3.395632727569191 7.716194438796049e-21 6.954938700817364e-13 6.767575721413439e-13 1.8736297940392362e-14
3.421196662673239 8.373501000154958e-21 7.604217832480905e-13 7.40783379946647e-13 1.9638403301443536e-14
3.4276182099114902 8.27379705277178e-21 7.527776881716313e-13 7.329383265424874e-13 1.9839361629143802e-14
3.4340518103208963 7.783658516125903e-21 7.09512499076723e-13 6.894832417132487e-13 2.0029257363474303e-14
3.4469541582030403 7.085698569276118e-21 6.483173048302663e-13 6.27923923596389e-13 2.0393381233877246e-14
3.472904465399547 6.929805394039979e-21 6.388270664010025e-13 6.175943676111036e-13 2.1232698789898843e-14
3.4990501388274233 6.672486505413062e-21 6.197368249597706e-13 5.976460481667258e-13 2.2090776793044856e-14
3.5253949054701885 5.647994210245093e-21 5.285321967313287e-13 5.05609094841573e-13 2.2923101889755734e-14
3.5519380250092896 4.674740306684174e-21 4.40749981061454e-13 4.169913632944225e-13 2.3758617767031348e-14
3.578680990867387 4.3252166805329004e-21 4.108660801349702e-13 3.861918572772686e-13 2.467422285770152e-14
3.605625307711299 4.221428626683704e-21 4.040261520556476e-13 3.7838827037299655e-13 2.563788168265108e-14
3.660119384959845 4.225321200408015e-21 4.1051063534510433e-13 3.8285114930650234e-13 2.7659486038601842e-14
3.715437065384467 4.263185576179717e-21 4.204492481850124e-13 3.9066294728701385e-13 2.978630089799852e-14
3.8285932144167436 4.472723126294176e-21 4.5454896511884854e-13 4.202069656844954e-13 3.434199943435322e-14
3.94519561050918 4.721951114491872e-21 4.944922174897581e-13 4.552055993020357e-13 3.928661818772247e-14
4.06534921144712 4.9888229368860936e-21 5.383508220019376e-13 4.937422062604338e-13 4.460861574150396e-14
4.189162171576248 5.265802505993958e-21 5.855462083313294e-13 5.352342955826931e-13 5.0311912748636274e-14
4.316745939156006 5.548546876661174e-21 6.357775401175517e-13 5.794093244470386e-13 5.636821567051302e-14
4.448215356677963 5.833624470101396e-21 6.88800901487069e-13 6.261155781823922e-13 6.268532330467675e-14
4.58368876423945 6.119193591766994e-21 7.445240775835437e-13 6.752599207490759e-13 6.926415683446798e-14
4.723288106065518 6.404183258351049e-21 8.029298819964213e-13 7.267905183910783e-13 7.613936360534279e-14
4.867139040275056 6.686313541609542e-21 8.638332650974727e-13 7.807179918780356e-13 8.311527321943677e-14
4.940699165968905 6.827728233728639e-21 8.954350097252956e-13 8.087742056204769e-13 8.666080410481869e-14
5.015371051989984 6.966445638827135e-21 9.27435583061489e-13 8.372031642092358e-13 9.02324188522531e-14
5.091171501069577 7.108486134699605e-21 9.60647994905867e-13 8.667385986584118e-13 9.390939624745484e-14
5.129500256944802 7.178268799980296e-21 9.773817061751856e-13 8.816285582694506e-13 9.575314790573501e-14
5.168117569889187 7.247816607943502e-21 9.942807100031395e-13 8.966613425753189e-13 9.761936742782045e-14
5.20702561229733 7.32193064483219e-21 1.0120098924021084e-12 9.123461185757363e-13 9.966377382637192e-14
5.246226572918644 7.395284244157012e-21 1.029843772312209e-12 9.281270148918397e-13 1.01716757420369e-13
5.265937586045735 7.431668073508062e-21 1.0387988127553069e-12 9.360526540128258e-13 1.0274615874248125e-13
5.285722656980489 7.467852559343492e-21 1.0477786379650391e-12 9.440013037775034e-13 1.0377733418753561e-13
5.305582063971359 7.503834765354158e-21 1.0567827891584772e-12 9.519726306826203e-13 1.0481015847585714e-13
5.3255160863122235 7.540485288979713e-21 1.0659342842910654e-12 9.600809685550047e-13 1.0585331573606108e-13
5.365609099470188 7.619913382320061e-21 1.0852717479954024e-12 9.772597050606246e-13 1.0801204293477727e-13
5.406003951863644 7.698829057682518e-21 1.104766429016809e-12 9.94587349411443e-13 1.1017907960536582e-13
5.446702915881641 7.777231398701066e-21 1.1244189124985271e-12 1.0120654911263436e-12 1.1235342137218352e-13
5.487708281020852 7.856747461439843e-21 1.1444669187845488e-12 1.0299229013565986e-12 1.1454401742795026e-13
5.529022354014368 7.950174412141067e-21 1.166794666431895e-12 1.0499673022902071e-12 1.168273641416881e-13
5.570647458961463 8.044083161124345e-21 1.1894649785260586e-12 1.0703460150623964e-12 1.1911896346366174e-13
5.612585937458331 8.138567499220142e-21 1.2124962570025221e-12 1.091078464789007e-12 1.2141779221351498e-13
5.654840148729818 8.236156099225411e-21 1.23627285930714e-12 1.112537833624394e-12 1.2373502568274583e-13
5.67608639626678 8.295963335328116e-21 1.2499287407718067e-12 1.1249799817716617e-12 1.249487590001448e-13
5.686739436050992 8.326147587485988e-21 1.256830951591109e-12 1.1312744544594719e-12 1.25556497131637e-13
5.6974124697621304 8.35652675633574e-21 1.2637841459572243e-12 1.1376193513343457e-12 1.2616479462287879e-13
5.718818669136295 8.417894309691205e-21 1.2778480895449199e-12 1.150465087056772e-12 1.2738300248814737e-13
5.740305295436557 8.48312414188137e-21 1.2925883767096647e-12 1.1639754105838355e-12 1.2861296612582895e-13
5.7835210386641895 8.641220005227826e-21 1.3265902932186658e-12 1.1954360625823785e-12 1.311542306362874e-13
5.827062130521658 8.813063765535044e-21 1.3631573644851682e-12 1.229428019715253e-12 1.3372934476991534e-13
5.8489554468988025 8.928075510185256e-21 1.386135227764754e-12 1.251010774245715e-12 1.3512445351903855e-13
5.870931020387893 9.04793526961495e-21 1.4100220222983066e-12 1.2734981230621672e-12 1.365238992361402e-13
5.892989160043636 9.173040076899429e-21 1.4348891980867806e-12 1.2969616452653186e-12 1.379275528214622e-13
5.915130176081913 9.312079142200022e-21 1.462111180540291e-12 1.322727167861785e-12 1.3938401267850564e-13
5.95966208400165 9.690406424055264e-21 1.5329678998573235e-12 1.3902382983922052e-12 1.42729601465118e-13
6.004529249263818 1.02155846102935e-20 1.6282145184226386e-12 1.4817050748313454e-12 1.4650944359129278e-13
6.027089341400364 1.057403815610857e-20 1.691678911649617e-12 1.542972060968702e-12 1.4870685068091513e-13
6.049734195844842 1.0989072723139183e-20 1.7646832935451367e-12 1.6136459262545587e-12 1.5103736729057777e-13
6.095279466722835 1.2170931932137356e-20 1.9691866793290628e-12 1.8123751541016555e-12 1.5681152522740695e-13
6.141167624020661 1.3948334597925123e-20 2.273750154445095e-12 2.1093879318836353e-12 1.6436222256145998e-13
6.164241091010745 1.507701948470544e-20 2.46697384618671e-12 2.2978453489702854e-12 1.691284972164242e-13
6.187401249150058 1.633499443164896e-20 2.6828519325270697e-12 2.5088344357421657e-12 1.740174967849038e-13
6.1990139391386085 1.6945343806310804e-20 2.7883188239768847e-12 2.6118146430640427e-12 1.765041809128424e-13
6.204828454712694 1.7264505676982552e-20 2.843500834767858e-12 2.6657412132418e-12 1.7775962152605855e-13
6.210648424152782 1.749574017610555e-20 2.8842885021818904e-12 2.7054653269315567e-12 1.7882317525033258e-13
6.233982942956859 1.8268028575493785e-20 3.0229204943613647e-12 2.8404150319800542e-12 1.8250546238130993e-13
6.239830258556775 1.835938995004764e-20 3.04088821221379e-12 2.857891200627162e-12 1.8299701158662799e-13
6.245683058788269 1.835767468557436e-20 3.0434561192823412e-12 2.8599669717252362e-12 1.8348914755710545e-13
6.257405133728602 1.8313905844168334e-20 3.0418982585947426e-12 2.8575590612913745e-12 1.8433919730336785e-13
6.269149208991335 1.813371653020206e-20 3.017622171063372e-12 2.833025545452113e-12 1.8459662561125907e-13
6.280915325867298 1.7716487246930227e-20 2.95372451574881e-12 2.769602551015292e-12 1.8412196473351776e-13
6.304513850009849 1.670177078575713e-20 2.7950112182618624e-12 2.6124998909698974e-12 1.8251132729196557e-13
6.32820103803542 1.5471641937862495e-20 2.598879279759077e-12 2.4186821047719742e-12 1.801971749871026e-13
6.3519772230701035 1.435276320102066e-20 2.4199917469676474e-12 2.241883805843866e-12 1.7810794112378073e-13
6.375842739491607 1.3406078203993384e-20 2.2688656401593664e-12 2.0926156644603582e-12 1.7624997569900825e-13
6.399797922933955 1.2663840868830087e-20 2.1513008004047752e-12 1.9760763299418804e-12 1.7522447046289484e-13
6.42384311029221 1.2042605054429595e-20 2.0534531664842492e-12 1.8790878109276663e-12 1.7436535555658272e-13
6.447978639727206 1.159693655885877e-20 1.984889363711396e-12 1.8107354642486071e-12 1.7415389946278918e-13
6.472204850670314 1.1224059818192137e-20 1.928286941711385e-12 1.7542164516329167e-12 1.7407049007846817e-13
6.496522083828205 1.0985980689538796e-20 1.8944763299314765e-12 1.7199658320444327e-12 1.745104978870436e-13
