Dust emission spectrum from A.P. Jones, M. Kohler, N. Ysard, M. Bocchio, and L. Verstraete (2017), A&A, 602A, 46J 
inside the DustPedia framework.

lambda    nu*dP/dnu     j_nu    j_nu(carb.) j_nu(sil)
 (um)   (erg s-1 H-1) (Jy cm2 sr-1 H-1)
0.9927057738263894 5.008525552405288e-23 1.3197749309160056e-15 1.319774930915989e-15 1.6472215051116457e-29
1.0001793341362166 5.091286616269369e-23 1.3516830145588133e-15 1.3516830145587936e-15 1.984864471292045e-29
1.0077091589558085 5.173930090982491e-23 1.3839652807788177e-15 1.3839652807787936e-15 2.388688474610767e-29
1.0114953028030835 5.215197554878367e-23 1.4002451200372803e-15 1.4002451200372545e-15 2.619188541474234e-29
1.0152956718711033 5.256423440605032e-23 1.4166165498412074e-15 1.416616549841179e-15 2.8710160181821846e-29
1.0229392996569957 5.338693930293128e-23 1.4496204937570773e-15 1.4496204937570425e-15 3.446377183458351e-29
1.0267826658714554 5.379638776009984e-23 1.466226540970272e-15 1.4662265409702346e-15 3.774272114109332e-29
1.0306404723013447 5.42052394123799e-23 1.4829205814586462e-15 1.4829205814586045e-15 4.1320412650908506e-29
1.03451277320114 5.461345480583821e-23 1.499701897256964e-15 1.4997018972569186e-15 4.522275495117488e-29
1.0383996230291617 5.502099470512711e-23 1.5165697614161126e-15 1.5165697614160627e-15 4.9477781028051475e-29
1.0403485208654093 5.522449914503637e-23 1.5250359195451824e-15 1.5250359195451313e-15 5.174693164741327e-29
1.0423010764483396 5.542782010100868e-23 1.53352343817506e-15 1.5335234381750059e-15 5.411581162715151e-29
1.0462171883269815 5.583389221771314e-23 1.5505621831330351e-15 1.5505621831329762e-15 5.916963027319656e-29
1.0471985131304309 5.59352880257956e-23 1.5548350732354749e-15 1.5548350732354141e-15 6.050214316781641e-29
1.048180758391296 5.603663374455812e-23 1.5591132212413965e-15 1.5591132212413346e-15 6.186342424178332e-29
1.0501480137395462 5.623917252013036e-23 1.56768524342185e-15 1.5676852434217853e-15 6.467467071032893e-29
1.0521189612883777 5.644150376629694e-23 1.57627815427113e-15 1.5762781542710615e-15 6.760824591300697e-29
1.0531058218030118 5.654243476434073e-23 1.5805780714082805e-15 1.5805780714082115e-15 6.912257946627585e-29
1.0540936079674168 5.664280324159435e-23 1.584868928801492e-15 1.5848689288014212e-15 7.066973879390306e-29
1.058054026499678 5.704370760262195e-23 1.602083038150555e-15 1.6020830381504774e-15 7.719704469707634e-29
1.0590464539527713 5.714378837385139e-23 1.606399174164042e-15 1.6063991741639634e-15 7.89170280878567e-29
1.06003981227728 5.724380984839177e-23 1.610720329036734e-15 1.6107203290366537e-15 8.06737175723918e-29
1.0620293250338977 5.744367257787705e-23 1.6193776459016417e-15 1.6193776459015577e-15 8.430021342611044e-29
1.0660195594769086 5.7842660912957e-23 1.6367519602762154e-15 1.6367519602761239e-15 9.202748095177344e-29
1.070024785945596 5.824063563476098e-23 1.6542051821042133e-15 1.6542051821041131e-15 1.0043089258416985e-28
1.0740450607676866 5.863756005757078e-23 1.6717365049970529e-15 1.6717365049969434e-15 1.0956658417116815e-28
1.07808044048254 5.903339778896501e-23 1.6893451155203268e-15 1.6893451155202074e-15 1.1949508248190196e-28
1.0861967418109137 5.98209697237211e-23 1.7247707467126575e-15 1.7247707467125157e-15 1.4199652704495011e-28
1.0902777775684922 6.021104224232979e-23 1.7425399277754575e-15 1.7425399277753027e-15 1.5471552930139186e-28
1.0943741465085532 6.059985773060266e-23 1.7603817694696308e-15 1.7603817694694618e-15 1.6852011356224143e-28
1.1026131145906286 6.137357938209149e-23 1.7962800204271363e-15 1.7962800204269367e-15 1.997436836111657e-28
1.1109141095355224 6.214186154788561e-23 1.8324586134838445e-15 1.8324586134836082e-15 2.364520872106345e-28
1.1192775983109025 6.290372337637669e-23 1.8688893861117152e-15 1.868889386111436e-15 2.7955272220315343e-28
1.1277040513999907 6.365562682428648e-23 1.9054667410361782e-15 1.9054667410358473e-15 3.300932767807963e-28
1.1361939428280308 6.440120284395988e-23 1.942298083468981e-15 1.9422980834685914e-15 3.892816113958607e-28
1.1447477501889525 6.514020273682872e-23 1.979376170837496e-15 1.9793761708370368e-15 4.585085917215621e-28
1.1533659546722406 6.587278620718716e-23 2.016706015840229e-15 2.0167060158396895e-15 5.393744360662442e-28
1.1707974979042381 6.732106865366706e-23 2.0921952898263698e-15 2.092195289825626e-15 7.436503947992528e-28
1.1884924949847024 6.874056493878387e-23 2.1685976044782393e-15 2.1685976044772193e-15 1.0202623581516018e-27
1.2064549276569216 7.01423706663312e-23 2.2462649196006603e-15 2.2462649195992668e-15 1.392992276091839e-27
1.2246888378427687 7.151117907604341e-23 2.3247118606051044e-15 2.324711860603212e-15 1.8927490455649998e-27
1.2431983285522175 7.284378703795242e-23 2.4038223380233982e-15 2.4038223380208388e-15 2.5595690441470853e-27
1.2619875648066055 7.413969461356388e-23 2.4835636878042564e-15 2.483563687800811e-15 3.445046258981126e-27
1.3004222497298317 7.659986683166023e-23 2.6441241279178727e-15 2.6441241279117173e-15 6.15462024045066e-27
1.3400274889804893 7.888205559211546e-23 2.8058300355341153e-15 2.805830035523318e-15 1.079716355927986e-26
1.3808389325824078 8.097778429673877e-23 2.9680987495725925e-15 2.968098749553983e-15 1.8608841302130534e-26
1.4228933163050095 8.289722844475523e-23 3.1309907400435754e-15 3.1309907400120513e-15 3.15240877644694e-26
1.466228494730424 8.468653739986634e-23 3.2959868059127684e-15 3.295986805860252e-15 5.2516464496174e-26
1.5108834753276823 8.631092946987873e-23 3.461514840096508e-15 3.4615148400104347e-15 8.607356753944277e-26
1.5568984535646726 8.774225575605924e-23 3.6260894708369915e-15 3.626089470698056e-15 1.3893597136098948e-25
1.6043148490894465 8.898310913508701e-23 3.789366509739423e-15 3.789366509518156e-15 2.212680458677578e-25
1.6531753430134553 9.003723954936278e-23 3.951031787387796e-15 3.951031787040504e-15 3.4729298387328827e-25
1.7035239163302658 9.091714080467015e-23 4.111151086885887e-15 4.111151086348538e-15 5.373479967938983e-25
1.755405889504358 9.169509478819342e-23 4.27260838000468e-15 4.272608379184669e-15 8.20009925345658e-25
1.8088679632656115 9.235323411628052e-23 4.43433407208047e-15 4.4343340708458155e-15 1.234654811257535e-24
1.8639582606462262 9.287945061997515e-23 4.595420465015325e-15 4.595420463180422e-15 1.8349026043489093e-24
1.9207263702978936 9.328249757204846e-23 4.755926098101587e-15 4.755926095408859e-15 2.6927277017827097e-24
1.979223391128241 9.35827709354848e-23 4.9165464690141854e-15 4.916546465110641e-15 3.903544781917389e-24
2.039501978296691 9.380468445536762e-23 5.0782969324190864e-15 5.078296926826951e-15 5.592136051149646e-24
2.1016163906111602 9.401664756010249e-23 5.244784410550879e-15 5.2447844026306405e-15 7.920239189191057e-24
2.1656225393682647 9.425832376821633e-23 5.418410549440294e-15 5.418410538345913e-15 1.1094380453660419e-23
2.231578038680979 9.453254373840825e-23 5.5996754444526034e-15 5.5996754290773786e-15 1.537522651893998e-23
2.299542257339062 9.486305366446376e-23 5.790391502004626e-15 5.790391480916252e-15 2.1088374424550116e-23
2.369576372248914 9.530237371535778e-23 5.9943743549605235e-15 5.9943743263235276e-15 2.863699579212466e-23
2.4417434235010123 9.591252289217251e-23 6.216483347234486e-15 6.216483308719722e-15 3.8514765454710495e-23
2.5161083711144245 9.679972091872045e-23 6.4650647803484526e-15 6.4650647290259486e-15 5.1322503423595e-23
2.5927381535095444 9.813779520936656e-23 6.754051820320297e-15 6.754051752535142e-15 6.778515853862823e-23
2.6717017477616296 1.0013427860575831e-22 7.101337949249003e-15 7.101337860482088e-15 8.876691267968267e-23
2.753070231689431 1.031016366589972e-22 7.534462627020554e-15 7.534462511728423e-15 1.1529213154203455e-22
2.836916847834745 1.0774779522499102e-22 8.113802491283825e-15 8.113802342710288e-15 1.485735372292531e-22
2.9233170693905177 1.1563191189695011e-22 8.972698233610997e-15 8.97269804359996e-15 1.900110386549118e-22
2.967498994190263 1.2232753385622557e-22 9.635721382345341e-15 9.635721168357998e-15 2.139873467257991e-22
3.0123486681368425 1.301472563186879e-22 1.0406619807966359e-14 1.0406619567253527e-14 2.4071283223291364e-22
3.0578761833420214 1.4764457392995586e-22 1.1984138522633299e-14 1.1984138252088149e-14 2.7054514798702964e-22
3.1040917844459814 1.7019172122095113e-22 1.4023047913724219e-14 1.402304761012778e-14 3.035964365922759e-22
3.127460860933648 1.9404393660109523e-22 1.610873336538654e-14 1.6108733043846e-14 3.2154054445968873e-22
3.1510058709225794 2.258236801997967e-22 1.888809359576822e-14 1.888809325533722e-14 3.4043099409385196e-22
3.162844764501044 2.5540601775123834e-22 2.1442648950747063e-14 2.1442648600451378e-14 3.5029568316419707e-22
3.1747281389236908 2.8980773548147993e-22 2.442226547304835e-14 2.4422265112635262e-14 3.604130819068418e-22
3.1986289994194426 3.857638013784382e-22 3.275327835121417e-14 3.275327796971634e-14 3.8149783051278516e-22
3.2227097969389145 6.119564101123795e-22 5.2349329153966836e-14 5.234932874975494e-14 4.042118923132192e-22
3.2348180950136065 8.264579242257354e-22 7.096431989999883e-14 7.096431948347555e-14 4.1652327265278343e-22
3.240889293275058 9.868258073529957e-22 8.489343912863494e-14 8.489343870553938e-14 4.2309559002766037e-22
3.2469718861334385 1.1723468196637704e-21 1.010424971982641e-13 1.010424967683127e-13 4.299513815298723e-22
3.2714166318528037 2.1619482591216475e-21 1.877373080787002e-13 1.877373076200119e-13 4.586882712504815e-22
3.2744851364798273 2.223811629897576e-21 1.9329047512842436e-13 1.9329047466635283e-13 4.620715660516514e-22
3.2775565192852394 2.2874518927438838e-21 1.9900848420510426e-13 1.9900848373962551e-13 4.654787251039989e-22
3.283707930232385 2.2262507986023428e-21 1.9404749606905533e-13 1.9404749559761562e-13 4.714396453556595e-22
3.2898708863219004 2.032161734256595e-21 1.7746248408827928e-13 1.7746248361153169e-13 4.76747577489193e-22
3.29141343181113 1.9863906746133344e-21 1.7354677108854842e-13 1.7354677061046638e-13 4.780820550946057e-22
3.292184975758714 1.963900395012707e-21 1.7162206340487484e-13 1.716220629261244e-13 4.7875042142329085e-22
3.295272960557952 1.8219394512926654e-21 1.5936566809423357e-13 1.5936566761291547e-13 4.813180606878935e-22
3.3076538914384823 1.330142615564883e-21 1.1678517075286557e-13 1.1678517026122751e-13 4.91638074944789e-22
3.310756385682612 1.2300492788230666e-21 1.0809837592166609e-13 1.0809837542742013e-13 4.942459282211167e-22
3.313861789986515 1.137697547828036e-21 1.0007616317531265e-13 1.0007616267844769e-13 4.96864989408368e-22
3.3200813396944477 1.0081845250463964e-21 8.88501537828842e-14 8.885015328028968e-14 5.025945112150664e-22
3.345076488085796 7.771452194425198e-22 6.900454007795816e-14 6.900453954919538e-14 5.28762782841188e-22
3.3482140837626964 7.858088186648229e-22 6.983924732846001e-14 6.983924679607747e-14 5.323825204324467e-22
3.3513546224236106 7.94568203712301e-22 7.06839807466745e-14 7.068398021064993e-14 5.360245519144617e-22
3.3576445397418455 8.585842303508687e-22 7.652213134790885e-14 7.652213080417562e-14 5.437332522255973e-22
3.3702598118196083 1.0947027966480846e-21 9.793299635294584e-14 9.793299579281793e-14 5.601278849085224e-22
3.382922481734668 1.1484812264173199e-21 1.0313008594917896e-13 1.0313008537324612e-13 5.7593282085829795e-22
3.389271646505754 1.1763421982429894e-21 1.0583016860143896e-13 1.0583016801745128e-13 5.839876857887249e-22
3.395632727569191 1.2063638052026324e-21 1.0873477052216688e-13 1.0873476992984163e-13 5.9232521548804465e-22
3.421196662673239 1.3505165160128655e-21 1.2264430103889601e-13 1.2264430041172572e-13 6.271703065467186e-22
3.4276182099114902 1.3214665552856033e-21 1.2023144055132106e-13 1.2023143991639637e-13 6.349246971404053e-22
3.4340518103208963 1.194169993411461e-21 1.0885350823040842e-13 1.0885350758820065e-13 6.422077688247399e-22
3.4469541582030403 1.0128760347641736e-21 9.267471013130628e-14 9.267470947516605e-14 6.561402226290656e-22
3.472904465399547 9.620662446747312e-22 8.868848716842366e-14 8.868848647914136e-14 6.892822737144143e-22
3.4990501388274233 8.843550908258362e-22 8.213840757576549e-14 8.213840685218281e-14 7.2358270987504175e-22
3.5253949054701885 6.077991032824106e-22 5.68770758734974e-14 5.68770751167026e-14 7.567947919687988e-22
3.5519380250092896 3.4786719672363987e-22 3.279807011923579e-14 3.279806932878768e-14 7.904481050025286e-22
3.578680990867387 2.4479972908186675e-22 2.3254304358591587e-14 2.3254303530242248e-14 8.283493354274568e-22
3.605625307711299 2.0310801464604315e-22 1.943914178493855e-14 1.9439140915852955e-14 8.690856006564097e-22
3.660119384959845 1.7268639703932812e-22 1.6777328681480146e-14 1.6777327724541504e-14 9.569386383650056e-22
3.715437065384467 1.5113844240139568e-22 1.4905765499531655e-14 1.490576444699802e-14 1.052533639115541e-21
3.8285932144167436 1.4018121588205202e-22 1.424618175752866e-14 1.424618048800987e-14 1.2695187854635222e-21
3.94519561050918 1.380535609733538e-22 1.445724655822011e-14 1.4457245033371385e-14 1.5248487286136842e-21
4.06534921144712 1.395530824727172e-22 1.5059367232019856e-14 1.5059365406902058e-14 1.8251177990026046e-21
4.189162171576248 1.4315468341371688e-22 1.5918500927894455e-14 1.5918498748835588e-14 2.1790588661307875e-21
4.316745939156006 1.4829046819607416e-22 1.6991791037965002e-14 1.699178844184936e-14 2.596115645253291e-21
4.448215356677963 1.547702514436291e-22 1.8274383149640613e-14 1.8274380064531098e-14 3.085109511800459e-21
4.58368876423945 1.6261780597677243e-22 1.978575610949986e-14 1.9785752447995346e-14 3.661504509757565e-21
4.723288106065518 1.7201518395996944e-22 2.156654889262696e-14 2.1566544546688433e-14 4.3459385231970486e-21
4.867139040275056 1.8332613376244318e-22 2.3684682406859707e-14 2.3684677254184483e-14 5.152675225518325e-21
4.940699165968905 1.901549376641728e-22 2.4938219950744277e-14 2.4938214339093124e-14 5.611651156396319e-21
5.015371051989984 1.9722872317415706e-22 2.625685254098862e-14 2.6256846429189977e-14 6.111798652955125e-21
5.091171501069577 2.0586480705278626e-22 2.7820777922260017e-14 2.782077125912384e-14 6.663136183607391e-21
5.129500256944802 2.1029801848073731e-22 2.8633844988993436e-14 2.863383803171882e-14 6.95727461970748e-21
5.168117569889187 2.1492052158257374e-22 2.9483545231975634e-14 2.948353796643974e-14 7.265535898298538e-21
5.20702561229733 2.2059556667088857e-22 3.048989488155751e-14 3.048988728476095e-14 7.596796546633285e-21
5.246226572918644 2.264160737399397e-22 3.15299825935275e-14 3.1529974650346615e-14 7.943180883789777e-21
5.265937586045735 2.293823327432101e-22 3.2063070169953134e-14 3.206306204768909e-14 8.122264038810565e-21
5.285722656980489 2.3238673125440133e-22 3.260506963949617e-14 3.2605061334100483e-14 8.305395676172731e-21
5.305582063971359 2.354298875270796e-22 3.315614761946205e-14 3.31561391267928e-14 8.4926692619213e-21
5.3255160863122235 2.3869965409431814e-22 3.374294030112476e-14 3.3742931616144486e-14 8.684980270351853e-21
5.365609099470188 2.4684556672402935e-22 3.515716075002631e-14 3.5157151660881123e-14 9.089145182856996e-21
5.406003951863644 2.553024062563878e-22 3.6635379947528034e-14 3.663537043527069e-14 9.512257342957226e-21
5.446702915881641 2.640852175402388e-22 3.8180992424004115e-14 3.818098246878502e-14 9.95521908505382e-21
5.487708281020852 2.7357650914723363e-22 3.9851002722466047e-14 3.985099230194206e-14 1.0420523982268951e-20
5.529022354014368 2.8677189114638165e-22 4.208761917992609e-14 4.208760825815182e-14 1.0921774262461377e-20
5.570647458961463 3.0074637495464333e-22 4.4470858053289203e-14 4.447084660571563e-14 1.1447573594628595e-20
5.612585937458331 3.1555607217025325e-22 4.701202716786615e-14 4.701201516872828e-14 1.1999137881659354e-20
5.654840148729818 3.3183692981149214e-22 4.980976381449814e-14 4.9809751234022673e-14 1.2580475474749485e-20
5.67608639626678 3.4292648346466824e-22 5.166773891453601e-14 5.166772602063184e-14 1.2893904196466766e-20
5.686739436050992 3.486427919010341e-22 5.262758644453287e-14 5.262757339090581e-14 1.3053627044713945e-20
5.6974124697621304 3.5447710466722456e-22 5.360870108428807e-14 5.360868786889795e-14 1.3215390120313365e-20
5.718818669136295 3.665111140446019e-22 5.5636897975742735e-14 5.563688443060014e-14 1.3545142578675565e-20
5.740305295436557 3.7977698017620433e-22 5.786727885945904e-14 5.786726497235553e-14 1.3887103506181165e-20
5.7835210386641895 4.141947352405176e-22 6.358670592114603e-14 6.358669129284671e-14 1.4628299309541873e-20
5.827062130521658 4.53846807180836e-22 7.01985863277227e-14 7.019857090821705e-14 1.5419505648149285e-20
5.8489554468988025 4.816651695289912e-22 7.478129622780973e-14 7.478128035865771e-14 1.586915201567727e-20
5.870931020387893 5.115187503283551e-22 7.971461789781175e-14 7.971460156474222e-14 1.63330695285193e-20
5.892989160043636 5.435713900905214e-22 8.502794160837684e-14 8.502792479664947e-14 1.681172736557415e-20
5.915130176081913 5.800259272385934e-22 9.107121838941306e-14 9.107120106945766e-14 1.7319955375132625e-20
5.95966208400165 6.819571796561402e-22 1.0788179770200056e-13 1.0788177918100905e-13 1.8520991501747698e-20
6.004529249263818 8.288833254258674e-22 1.3211185810912282e-13 1.3211183812418924e-13 1.9984933577369815e-20
6.027089341400364 9.310183139395017e-22 1.4894820926489444e-13 1.4894818837683657e-13 2.0888057869693e-20
6.049734195844842 1.0517183935465347e-21 1.6889049015916608e-13 1.6889046827425515e-13 2.1884910920479497e-20
6.095279466722835 1.4003782337016664e-21 2.2657313172101648e-13 2.2657310721438555e-13 2.4506630945836524e-20
6.141167624020661 1.936970976040593e-21 3.1575010084595384e-13 3.1575007264353216e-13 2.8202421694325106e-20
6.164241091010745 2.2796410791510974e-21 3.730057473669489e-13 3.7300571676724453e-13 3.0599704519686616e-20
6.187401249150058 2.6700040117999873e-21 4.3852022434938293e-13 4.385201911323168e-13 3.3217066221286594e-20
6.1990139391386085 2.8606119086555676e-21 4.707073591523248e-13 4.70707324589076e-13 3.456324895670315e-20
6.204828454712694 2.9610180463124744e-21 4.87685975143644e-13 4.876859398832909e-13 3.526035318976554e-20
6.210648424152782 3.03431482494383e-21 5.002268708550088e-13 5.002268350093329e-13 3.584567604420926e-20
6.233982942956859 3.283342318794302e-21 5.433143890962508e-13 5.433143511635904e-13 3.793266046474766e-20
6.239830258556775 3.3151795447152236e-21 5.490972426821099e-13 5.490972044500831e-13 3.8232026881254865e-20
6.245683058788269 3.317946115653128e-21 5.500709421040515e-13 5.50070903570274e-13 3.853377744804129e-20
6.257405133728602 3.3111182250526353e-21 5.49969233679126e-13 5.499691946111749e-13 3.9067951211651104e-20
6.269149208991335 3.2621573525515376e-21 5.428538786388113e-13 5.428538393635401e-13 3.927527105020817e-20
6.280915325867298 3.1393573980567574e-21 5.233992936124715e-13 5.233992545365535e-13 3.9075917885247654e-20
6.304513850009849 2.8365208872204198e-21 4.746866546256319e-13 4.746866163260184e-13 3.829961345424176e-20
6.32820103803542 2.461142189447477e-21 4.1341516733547234e-13 4.134151302748541e-13 3.7060618215707144e-20
6.3519772230701035 2.116893751848339e-21 3.5692537645406566e-13 3.569253405521154e-13 3.590195020836642e-20
6.375842739491607 1.8272901571697532e-21 3.0925344378260405e-13 3.092534088874886e-13 3.489511543401848e-20
6.399797922933955 1.5951838254605585e-21 2.7098573616418803e-13 2.709857018927037e-13 3.42714844003976e-20
6.42384311029221 1.4022165180164327e-21 2.390999236463581e-13 2.390998898837097e-13 3.3762648423801945e-20
6.447978639727206 1.2616024489138142e-21 2.1593127369213675e-13 2.1593124008915903e-13 3.360297768791282e-20
6.472204850670314 1.144471744523377e-21 1.9661957935622773e-13 1.9661954582727247e-13 3.352895528394934e-20
6.496522083828205 1.0683553966317123e-21 1.8423243842041583e-13 1.842324046629224e-13 3.375749333996457e-20
