Dust emission spectrum from A.P. Jones, M. Kohler, N. Ysard, M. Bocchio, and L. Verstraete (2017), A&A, 602A, 46J 
inside the DustPedia framework.

lambda    nu*dP/dnu     j_nu    j_nu(carb.) j_nu(sil)
 (um)   (erg s-1 H-1) (Jy cm2 sr-1 H-1)
0.9927057738263894 1.9939210285996403e-22 5.254095162813536e-15 5.254095162783484e-15 3.005196416775353e-26
1.0001793341362166 2.0268443006985548e-22 5.3810583078448796e-15 5.381058307808677e-15 3.6201475557442205e-26
1.0077091589558085 2.059720146807273e-22 5.509508480352527e-15 5.509508480308975e-15 4.3553331265799816e-26
1.0114953028030835 2.0761362362241961e-22 5.574284775820538e-15 5.574284775772789e-15 4.774841214212562e-26
1.0152956718711033 2.0925356233441203e-22 5.639425036161783e-15 5.639425036109454e-15 5.233065995633858e-26
1.0229392996569957 2.1252617850928756e-22 5.7707429541671165e-15 5.77074295410432e-15 6.279641428270638e-26
1.0267826658714554 2.1415488511520323e-22 5.836815249280369e-15 5.836815249211611e-15 6.87588327552254e-26
1.0306404723013447 2.1578120141079134e-22 5.903237180257788e-15 5.903237180182526e-15 7.526299095067868e-26
1.03451277320114 2.174049704653876e-22 5.9700058866296416e-15 5.970005886547286e-15 8.235570764149576e-26
1.0383996230291617 2.1902603622178516e-22 6.0371184722663075e-15 6.0371184721762196e-15 9.008762393951058e-26
1.0403485208654093 2.198355068414949e-22 6.0708028051863955e-15 6.070802805092185e-15 9.421022398719094e-26
1.0423010764483396 2.206442435261553e-22 6.1045720060639266e-15 6.104572005965412e-15 9.85134956513971e-26
1.0462171883269815 2.2225943815731066e-22 6.1723635226309625e-15 6.172363522523269e-15 1.0769250636001613e-25
1.0471985131304309 2.2266274810323626e-22 6.189363860864524e-15 6.1893638607544115e-15 1.1011232106215378e-25
1.048180758391296 2.2306585778838185e-22 6.206385088561705e-15 6.206385088449119e-15 1.1258422643070898e-25
1.0501480137395462 2.238714668553013e-22 6.240490022975289e-15 6.2404900228575995e-15 1.1768860257353133e-25
1.0521189612883777 2.246762463553522e-22 6.2746779458603996e-15 6.2746779457373846e-15 1.2301443114336144e-25
1.0531058218030118 2.250777008221245e-22 6.2917856255246355e-15 6.291785625398869e-15 1.2576341045294713e-25
1.0540936079674168 2.2547691513966997e-22 6.308857198375043e-15 6.3088571982464705e-15 1.2857181091075455e-25
1.058054026499678 2.270714967566438e-22 6.3773448236481176e-15 6.3773448235077e-15 1.404182848798192e-25
1.0590464539527713 2.2746956158761154e-22 6.394516819416956e-15 6.3945168192734175e-15 1.4353941299164956e-25
1.06003981227728 2.2786738954018655e-22 6.411708752946019e-15 6.41170875279929e-15 1.467269466879371e-25
1.0620293250338977 2.2866232554643574e-22 6.446152236310704e-15 6.446152236157398e-15 1.5330663517467728e-25
1.0660195594769086 2.3024925336151776e-22 6.515276282996531e-15 6.5152762828292066e-15 1.6732379439137421e-25
1.070024785945596 2.318321331772027e-22 6.584713781027345e-15 6.58471378084478e-15 1.825635278253589e-25
1.0740450607676866 2.334108191158189e-22 6.654461519102703e-15 6.654461518903575e-15 1.9912693489160044e-25
1.07808044048254 2.3498516647022134e-22 6.724516257988529e-15 6.724516257771408e-15 2.1712298450208062e-25
1.0861967418109137 2.381174886548099e-22 6.865453378794749e-15 6.865453378536857e-15 2.5789173573610814e-25
1.0902777775684922 2.3966884946593083e-22 6.93614533290348e-15 6.936145332622552e-15 2.809271480816567e-25
1.0943741465085532 2.412151944003415e-22 7.007125868663507e-15 7.007125868357586e-15 3.0592180894858047e-25
1.1026131145906286 2.442922870774677e-22 7.149939091702224e-15 7.149939091339793e-15 3.624315573793919e-25
1.1109141095355224 2.473476808775055e-22 7.293865633554719e-15 7.29386563312589e-15 4.288306287544401e-25
1.1192775983109025 2.5037747302412475e-22 7.438793393142578e-15 7.43879339263583e-15 5.067475587877109e-25
1.1277040513999907 2.5336758237321686e-22 7.584302057091878e-15 7.584302056493819e-15 5.980612280747997e-25
1.1361939428280308 2.5633246322917604e-22 7.730819147388124e-15 7.73081914668319e-15 7.049361591081413e-25
1.1447477501889525 2.592711272153021e-22 7.878315839290404e-15 7.878315838460545e-15 8.298628777269643e-25
1.1533659546722406 2.6218421171535226e-22 8.02681209447596e-15 8.026812093500254e-15 9.757045419620557e-25
1.1707974979042381 2.679430620549454e-22 8.327099132323051e-15 8.327099130979282e-15 1.3437665330142828e-24
1.1884924949847024 2.735871923547112e-22 8.631010386439373e-15 8.631010384597838e-15 1.8415341768850806e-24
1.2064549276569216 2.7916077827573917e-22 8.939946814061824e-15 8.939946811550422e-15 2.5114007238204326e-24
1.2246888378427687 2.8460290864950484e-22 9.251976625873602e-15 9.251976622465227e-15 3.408371174044086e-24
1.2431983285522175 2.8990085119093163e-22 9.566638010482368e-15 9.5666380058788e-15 4.603570268153261e-24
1.2619875648066055 2.950526300717544e-22 9.883801138604756e-15 9.88380113241626e-15 6.18849613070879e-24
1.3004222497298317 3.048320326140752e-22 1.052239077867408e-14 1.0522390767646483e-14 1.1027595711622701e-23
1.3400274889804893 3.139028875258392e-22 1.1165507078252683e-14 1.116550705895816e-14 1.9294522696801338e-23
1.3808389325824078 3.222316049136446e-22 1.1810834686612636e-14 1.1810834653450328e-14 3.316230892527456e-23
1.4228933163050095 3.298588264721716e-22 1.2458618346864069e-14 1.2458618290846324e-14 5.601774775610375e-23
1.466228494730424 3.369683341895617e-22 1.311475492562709e-14 1.3114754832582175e-14 9.304491116022664e-23
1.5108834753276823 3.434218614994089e-22 1.3772993493351633e-14 1.3772993341319084e-14 1.5203255108396596e-22
1.5568984535646726 3.4910755964566034e-22 1.4427429923162272e-14 1.4427429678533016e-14 2.446292571221763e-22
1.6043148490894465 3.540359078089135e-22 1.5076701919457817e-14 1.5076701531126865e-14 3.883309484802437e-22
1.6531753430134553 3.5822198939194725e-22 1.571956752686666e-14 1.5719566919399845e-14 6.074668169076281e-22
1.7035239163302658 3.6171567459297027e-22 1.6356297344869484e-14 1.6356296408223074e-14 9.366464158201672e-22
1.755405889504358 3.6480470191337976e-22 1.6998375213642374e-14 1.699837378941299e-14 1.4242293836108906e-21
1.8088679632656115 3.6741812692593276e-22 1.764155564791896e-14 1.76415535114782e-14 2.1364407584630523e-21
1.8639582606462262 3.6950793154138038e-22 1.8282238958738532e-14 1.828223579586054e-14 3.162877991448807e-21
1.9207263702978936 3.7110908774878413e-22 1.8920670453789142e-14 1.8920665830824995e-14 4.622964148517288e-21
1.979223391128241 3.723028867359265e-22 1.9559630740654194e-14 1.955962406683105e-14 6.6738231412672115e-21
2.039501978296691 3.7318659255309525e-22 2.0203173638775276e-14 2.0203164119532672e-14 9.519242605938864e-21
2.1016163906111602 3.7403247527092533e-22 2.0865663116594628e-14 2.0865649695572563e-14 1.3421022063352637e-20
2.1656225393682647 3.749984451437104e-22 2.1556669479789098e-14 2.1556650769662434e-14 1.871012666264392e-20
2.231578038680979 3.760958835640743e-22 2.2278199661920084e-14 2.2278173862254623e-14 2.5799665464200598e-20
2.299542257339062 3.7741937661969136e-22 2.3037482630492312e-14 2.3037447431206023e-14 3.519928628613475e-20
2.369576372248914 3.791779602005001e-22 2.3849716979566077e-14 2.384966944820153e-14 4.753136453703026e-20
2.4417434235010123 3.8161845983776695e-22 2.473425501741606e-14 2.4734191471430924e-14 6.354598512903661e-20
2.5161083711144245 3.8516352245042735e-22 2.5724321310389612e-14 2.5724237170510903e-14 8.413987871712438e-20
2.5927381535095444 3.9050473652619157e-22 2.6875366630681066e-14 2.6875256257705876e-14 1.103729751841367e-19
2.6717017477616296 3.98467775672609e-22 2.8258598117807933e-14 2.825845463926974e-14 1.4347853818994732e-19
2.753070231689431 4.102957022986042e-22 2.998359420055061e-14 2.998340932232021e-14 1.848782303983034e-19
2.836916847834745 4.288046542307289e-22 3.2290556521423965e-14 3.2290320318826635e-14 2.3620259732818387e-19
2.9233170693905177 4.6019672934000595e-22 3.5709920494461204e-14 3.5709621241541465e-14 2.9925291973134027e-19
2.967498994190263 4.868468700494817e-22 3.834885448747197e-14 3.8348519219453894e-14 3.352680180706458e-19
3.0123486681368425 5.179694844478675e-22 4.141701983773055e-14 4.1416644717781054e-14 3.7511994950948406e-19
3.0578761833420214 5.875871064766538e-22 4.7693762735027227e-14 4.769334346778165e-14 4.1926724557197377e-19
3.1040917844459814 6.77293901604897e-22 5.5806033135702755e-14 5.58055653921166e-14 4.677435861458963e-19
3.127460860933648 7.721809860469758e-22 6.410330480783388e-14 6.410281093557111e-14 4.9387226276516555e-19
3.1510058709225794 8.986026107716835e-22 7.515992212437833e-14 7.515940088878097e-14 5.212355973492123e-19
3.162844764501044 1.016276702116854e-21 8.532165667897223e-14 8.532112123320053e-14 5.354457717207467e-19
3.1747281389236908 1.1531218509689742e-21 9.71742452641912e-14 9.717369528452366e-14 5.499796675088582e-19
3.1986289994194426 1.5348203212885323e-21 1.3031393050004576e-13 1.3031335038636016e-13 5.8011368563338885e-19
3.2227097969389145 2.4345607299803516e-21 2.0826258029662402e-13 2.0826196811448228e-13 6.121821417381293e-19
3.2348180950136065 3.287791637322577e-21 2.823082587466042e-13 2.8230762941406075e-13 6.293325434430414e-19
3.240889293275058 3.925690568664232e-21 3.37714489067412e-13 3.3771385068668076e-13 6.383807312879459e-19
3.2469718861334385 4.66364055432827e-21 4.0195092419798836e-13 4.019502764535036e-13 6.477444848852229e-19
3.2714166318528037 8.599978718705898e-21 7.46797175821361e-13 7.467964892673836e-13 6.865539773782994e-19
3.2744851364798273 8.84604935811251e-21 7.688857547335579e-13 7.688850635756303e-13 6.911579274320025e-19
3.2775565192852394 9.099187658642764e-21 7.916300006957293e-13 7.91629304907865e-13 6.9578786394250745e-19
3.283707930232385 8.855740597732813e-21 7.718960909103222e-13 7.718953867827766e-13 7.041275454211112e-19
3.2898708863219004 8.083706843510441e-21 7.059254550994557e-13 7.059247433268814e-13 7.117725744605699e-19
3.29141343181113 7.901642168555863e-21 6.903498401274563e-13 6.903491264336083e-13 7.13693847897493e-19
3.292184975758714 7.812182057928219e-21 6.826938921551096e-13 6.82693177499119e-13 7.146559905995099e-19
3.295272960557952 7.247502441799938e-21 6.3394152194935e-13 6.339408035404477e-13 7.184089022318811e-19
3.3076538914384823 5.291283259364536e-21 4.645692963413844e-13 4.645685628288346e-13 7.335125498810453e-19
3.310756385682612 4.893143514328717e-21 4.3001599704742564e-13 4.300152597215274e-13 7.373258984542675e-19
3.313861789986515 4.52579786654182e-21 3.98106233642846e-13 3.9810549248855646e-13 7.411542894314707e-19
3.3200813396944477 4.010636835773582e-21 3.5345285587416057e-13 3.534521065101366e-13 7.493640239312029e-19
3.345076488085796 3.09164176164572e-21 2.7451409660759085e-13 2.7451331071310454e-13 7.858944862375052e-19
3.3482140837626964 3.1261027119794414e-21 2.778343221536503e-13 2.7783353131188396e-13 7.908417662843975e-19
3.3513546224236106 3.160944636882156e-21 2.811944258665323e-13 2.8119363005181324e-13 7.95814718987043e-19
3.3576445397418455 3.415577408842843e-21 3.0441656609697103e-13 3.0441575989380987e-13 8.062031611040374e-19
3.3702598118196083 4.354769574916163e-21 3.8958120341340793e-13 3.895803754101313e-13 8.280032765604378e-19
3.382922481734668 4.5686758081629554e-21 4.1025305240694764e-13 4.102522031034254e-13 8.4930352220331525e-19
3.389271646505754 4.6794938007062446e-21 4.209928187884608e-13 4.2099195866556285e-13 8.601228980057011e-19
3.395632727569191 4.798905217303798e-21 4.3254601581279214e-13 4.325451445381678e-13 8.712746243279735e-19
3.421196662673239 5.372270658901975e-21 4.878713974546648e-13 4.878704798841872e-13 9.175704777653034e-19
3.4276182099114902 5.2567197687947674e-21 4.782739206291949e-13 4.782729926051882e-13 9.280240065669506e-19
3.4340518103208963 4.750387598173471e-21 4.330173747191422e-13 4.330164367490788e-13 9.379700632934566e-19
3.4469541582030403 4.029278697111419e-21 3.686652882255125e-13 3.686643310440714e-13 9.57181441131781e-19
3.472904465399547 3.82718269735267e-21 3.52810469574404e-13 3.5280946829192075e-13 1.0012824832849494e-18
3.4990501388274233 3.518087459079236e-21 3.267580009418963e-13 3.2675695423609453e-13 1.046705801756528e-18
3.5253949054701885 2.4180864476310718e-21 2.2628148940635076e-13 2.262803981162305e-13 1.0912901202342672e-18
3.5519380250092896 1.3842223954464034e-21 1.3050906671874316e-13 1.3050793023868573e-13 1.1364800574315944e-18
3.578680990867387 9.742925085995062e-22 9.255114216932717e-14 9.254995607497074e-14 1.1860943564172112e-18
3.605625307711299 8.084850225529008e-22 7.737880266218858e-14 7.737756406387902e-14 1.2385983095604237e-18
3.660119384959845 6.875260995825111e-22 6.679652565317498e-14 6.679517565931266e-14 1.3499938623093938e-18
3.715437065384467 6.018683981874357e-22 5.935822192169037e-14 5.935675288276531e-14 1.4690389250717453e-18
3.8285932144167436 5.583921950101233e-22 5.674766517072357e-14 5.6745934522689635e-14 1.7306480339308049e-18
3.94519561050918 5.500544495726249e-22 5.760280822783257e-14 5.760078336586322e-14 2.0248619693585416e-18
4.06534921144712 5.561676106988153e-22 6.001682043609421e-14 6.001446656316071e-14 2.3538729334928345e-18
4.189162171576248 5.706715509312922e-22 6.34574810715016e-14 6.345476007684108e-14 2.720994660529866e-18
4.316745939156006 5.9131451045177325e-22 6.775548503918675e-14 6.775235690332598e-14 3.128135860771747e-18
4.448215356677963 6.17348456722889e-22 7.289296314868648e-14 7.288938952388178e-14 3.57362480468795e-18
4.58368876423945 6.488779736636128e-22 7.894917321396229e-14 7.894511169089998e-14 4.061523062296684e-18
4.723288106065518 6.866389408962303e-22 8.60879368292644e-14 8.608333828529858e-14 4.598543965840133e-18
4.867139040275056 7.320917414074667e-22 9.458204366208542e-14 9.457686602857247e-14 5.177633512946004e-18
4.940699165968905 7.595200894090639e-22 9.960866270085238e-14 9.960317690414043e-14 5.48579671198484e-18
5.015371051989984 7.8794924574073305e-22 1.0489885460004098e-13 1.0489304822699863e-13 5.806373042366739e-18
5.091171501069577 8.226209518917444e-22 1.1116982618068433e-13 1.1116368066119081e-13 6.145519493482075e-18
5.129500256944802 8.404264127416865e-22 1.144311287426872e-13 1.1442480872523176e-13 6.3200174554126366e-18
5.168117569889187 8.589928971608788e-22 1.1783963555875748e-13 1.178331365273161e-13 6.499031441406823e-18
5.20702561229733 8.817544005155906e-22 1.2187279821076756e-13 1.2186610627398022e-13 6.691936787309253e-18
5.246226572918644 9.051032417806797e-22 1.2604179989212522e-13 1.2603491098954763e-13 6.888902577599718e-18
5.265937586045735 9.17003818207511e-22 1.281788244878362e-13 1.2817183556509255e-13 6.988922743628219e-18
5.285722656980489 9.290584159129174e-22 1.3035173818439317e-13 1.3034464820879664e-13 7.089975596526002e-18
5.305582063971359 9.412695387126498e-22 1.3256121430916394e-13 1.325540222421136e-13 7.192067050352746e-18
5.3255160863122235 9.543844732300646e-22 1.3491321730947175e-13 1.349059215507339e-13 7.295758737795272e-18
5.365609099470188 9.870115542053959e-22 1.4057584397343958e-13 1.4056833331382e-13 7.510659619563552e-18
5.406003951863644 1.0208855180899429e-21 1.4649501109909055e-13 1.4648728095754943e-13 7.730141541141357e-18
5.446702915881641 1.0560665845200357e-21 1.5268431394369717e-13 1.5267635967967e-13 7.95426402719894e-18
5.487708281020852 1.0940767878208112e-21 1.5937061696539644e-13 1.5936243319796584e-13 8.183767430606383e-18
5.529022354014368 1.1468331553542449e-21 1.6831313875467848e-13 1.6830471468714523e-13 8.424067533242008e-18
5.570647458961463 1.2027000006243958e-21 1.7784121592994972e-13 1.7783254633664095e-13 8.669593308809146e-18
5.612585937458331 1.2619008891328415e-21 1.879999281112233e-13 1.879910076898495e-13 8.92042137381024e-18
5.654840148729818 1.3269661437836037e-21 1.9918177958446033e-13 1.9917260206910085e-13 9.177515359544883e-18
5.67608639626678 1.3712355870762285e-21 2.0660008987224992e-13 2.0659077788952944e-13 9.311982720475321e-18
5.686739436050992 1.394053750674179e-21 2.1043224175635975e-13 2.1042286197772714e-13 9.379778632621572e-18
5.6974124697621304 1.4173420656598571e-21 2.1434915296850217e-13 2.1433970501709672e-13 9.447951405492609e-18
5.718818669136295 1.4653743945789974e-21 2.2244587561821097e-13 2.2243629018451314e-13 9.585433697872329e-18
5.740305295436557 1.5183104150785282e-21 2.313475981187847e-13 2.313378728820445e-13 9.725236740231236e-18
5.7835210386641895 1.6555643736538021e-21 2.541603646891374e-13 2.541503489245614e-13 1.00157645759552e-17
5.827062130521658 1.813651987057086e-21 2.8052594745068565e-13 2.805156325142193e-13 1.0314936466344051e-17
5.8489554468988025 1.92449746207774e-21 2.9878933314201616e-13 2.9877885761141894e-13 1.0475530597313617e-17
5.870931020387893 2.043440577642974e-21 3.184479253969271e-13 3.1843728725682067e-13 1.063814010633613e-17
5.892989160043636 2.171132868584155e-21 3.396186078580376e-13 3.396078050718215e-13 1.0802786216229342e-17
5.915130176081913 2.316338931014404e-21 3.6369375702672243e-13 3.6368278368086987e-13 1.0973345852531626e-17
5.95966208400165 2.722216858733533e-21 4.3063942607503015e-13 4.306280713974642e-13 1.1354677565994202e-17
6.004529249263818 3.3070976116880213e-21 5.271029070392638e-13 5.270911260819529e-13 1.178095731105944e-17
6.027089341400364 3.713603991231072e-21 5.941179202719486e-13 5.941058965156208e-13 1.2023756327922274e-17
6.049734195844842 4.193958423624703e-21 6.734879775988237e-13 6.734756969836553e-13 1.2280615168307766e-17
6.095279466722835 5.581364696751014e-21 9.0303265802502e-13 9.030197588528328e-13 1.2899172187192731e-17
6.141167624020661 7.716366781974961e-21 1.2578627246926293e-12 1.257849037961692e-12 1.3686730937700608e-17
6.164241091010745 9.079763963506036e-21 1.4856742906143157e-12 1.4856601175551368e-12 1.4173059178714938e-17
6.187401249150058 1.0632838087285026e-20 1.7463324110751126e-12 1.7463177350746692e-12 1.4676000443039453e-17
6.1990139391386085 1.1391193558905614e-20 1.874395691873293e-12 1.874380759284075e-12 1.493258921779178e-17
6.204828454712694 1.179066306535566e-20 1.9419473048396652e-12 1.9419322422714598e-12 1.5062568205222844e-17
6.210648424152782 1.208230262979235e-20 1.9918475128355066e-12 1.991832337460293e-12 1.5175375213896034e-17
6.233982942956859 1.3073200278963485e-20 2.163301030916042e-12 2.163285452826835e-12 1.5578089205771285e-17
6.239830258556775 1.3199917967194076e-20 2.1863185573072545e-12 2.186302916498838e-12 1.564080841642849e-17
6.245683058788269 1.3210996566094014e-20 2.1902059508926772e-12 2.190190247145599e-12 1.570374707883122e-17
6.257405133728602 1.3183983836932062e-20 2.189829838383451e-12 2.1898140204117227e-12 1.58179717281696e-17
6.269149208991335 1.2989373026894906e-20 2.161554691168091e-12 2.1615388118957323e-12 1.5879272358353963e-17
6.280915325867298 1.2501036669556345e-20 2.0841952452815635e-12 2.0841793704908024e-12 1.5874790760644645e-17
6.304513850009849 1.1296670037912601e-20 1.8904773565623476e-12 1.890461550577473e-12 1.580598487442583e-17
6.32820103803542 9.803748684012535e-21 1.6468038377034432e-12 1.6467881645424885e-12 1.5673160954706762e-17
6.3519772230701035 8.434655767227577e-21 1.4221510561640334e-12 1.4221354958390118e-12 1.5560325021694652e-17
6.375842739491607 7.282890830420776e-21 1.2325678333915206e-12 1.2325523652712608e-12 1.546812025936912e-17
6.399797922933955 6.35989793909004e-21 1.0804031469262347e-12 1.0803876943112904e-12 1.54526149443862e-17
6.42384311029221 5.5925644960349736e-21 9.53620020024343e-13 9.536045673125016e-13 1.5452711841384935e-17
6.447978639727206 5.03351874015713e-21 8.615187087272526e-13 8.61503194928041e-13 1.551379921166311e-17
6.472204850670314 4.567874285768291e-21 7.847581427131907e-13 7.847425550405256e-13 1.55876726651588e-17
6.496522083828205 4.265408933121557e-21 7.355480124748242e-13 7.355323005728764e-13 1.5711901948048856e-17
