Dust emission spectrum from A.P. Jones, M. Kohler, N. Ysard, M. Bocchio, and L. Verstraete (2017), A&A, 602A, 46J 
inside the DustPedia framework.

lambda    nu*dP/dnu     j_nu    j_nu(carb.) j_nu(sil)
 (um)   (erg s-1 H-1) (Jy cm2 sr-1 H-1)
0.9927057738263894 6.472619073971693e-22 1.7055718897339402e-14 1.7055718247818018e-14 6.495213822718471e-22
1.0001793341362166 6.581582441594725e-22 1.747340871911234e-14 1.7473407937337918e-14 7.817744198498668e-22
1.0077091589558085 6.690927583609683e-22 1.78974421940106e-14 1.7897441254301447e-14 9.397091513900184e-22
1.0114953028030835 6.745737449747836e-22 1.811184685846946e-14 1.8111845828716377e-14 1.0297530906200014e-21
1.0152956718711033 6.800635794516709e-22 1.8327848440699418e-14 1.832784731264934e-14 1.128050082656988e-21
1.0229392996569957 6.9106355951884565e-22 1.8764512658852282e-14 1.876451130649545e-14 1.352356830833585e-21
1.0267826658714554 6.96561155838612e-22 1.8984851894777247e-14 1.898485041474299e-14 1.4800342566006997e-21
1.0306404723013447 7.0206645171446455e-22 1.9206792592105845e-14 1.9206790972878364e-14 1.6192274793874138e-21
1.03451277320114 7.075792412240757e-22 1.9430338811122984e-14 1.9430337040200268e-14 1.7709227134900722e-21
1.0383996230291617 7.130993233340005e-22 1.9655494715253858e-14 1.965549277906805e-14 1.9361858002328145e-21
1.0403485208654093 7.158620376601628e-22 1.976867762989353e-14 1.976867560563192e-14 2.02426160691587e-21
1.0423010764483396 7.1862650203058235e-22 1.9882264576694047e-14 1.9882262460525832e-14 2.1161682163171623e-21
1.0462171883269815 7.241605864500788e-22 2.0110652782123438e-14 2.0110650470009934e-14 2.312113501009281e-21
1.0471985131304309 7.25545164708134e-22 2.016800322516209e-14 2.0168000861413028e-14 2.3637490648813952e-21
1.048180758391296 7.26930160101016e-22 2.02254551674008e-14 2.0225452750913118e-14 2.4164876801753355e-21
1.0501480137395462 7.297013910079497e-22 2.0340663838503224e-14 2.034066131313909e-14 2.525364128701526e-21
1.0521189612883777 7.324742568187534e-22 2.0456279378559385e-14 2.0456276739632063e-14 2.6389273196087283e-21
1.0531058218030118 7.338594354678722e-22 2.051418790207633e-14 2.0514185204546382e-14 2.6975299443443797e-21
1.0540936079674168 7.352389194255613e-22 2.0572027723858762e-14 2.0572024966468826e-14 2.7573899326032694e-21
1.058054026499678 7.407605584226312e-22 2.0804396766196216e-14 2.0804393756407728e-14 3.0097884837690725e-21
1.0590464539527713 7.421418809054989e-22 2.086274183992803e-14 2.0862738763668507e-14 3.0762595203027006e-21
1.06003981227728 7.435235633381304e-22 2.0921188190625024e-14 2.092118504649145e-14 3.1441335774788028e-21
1.0620293250338977 7.462879979488619e-22 2.103838503091302e-14 2.1038381746709188e-14 3.284203831771769e-21
1.0660195594769086 7.518210767260664e-22 2.1273997455962768e-14 2.1273993873507975e-14 3.582454788588987e-21
1.070024785945596 7.573596394530001e-22 2.151123913132534e-14 2.1511235224823938e-14 3.906501404714315e-21
1.0740450607676866 7.629035369277045e-22 2.1750115305296463e-14 2.1750111046841287e-14 4.2584551822914e-21
1.07808044048254 7.684526261686309e-22 2.1990631390853315e-14 2.199062675026334e-14 4.640589967280128e-21
1.0861967418109137 7.795572402011793e-22 2.247635786408662e-14 2.247635235870589e-14 5.505380734676894e-21
1.0902777775684922 7.850929571713902e-22 2.2721012192090553e-14 2.2721006198584413e-14 5.9935061323528195e-21
1.0943741465085532 7.906330186168215e-22 2.29673138590709e-14 2.296730733629525e-14 6.522775648540729e-21
1.1026131145906286 8.017257481693571e-22 2.3464884365516334e-14 2.3464876647422005e-14 7.718094323672517e-21
1.1109141095355224 8.128346457504549e-22 2.3969121793941354e-14 2.3969112673363505e-14 9.120577848234257e-21
1.1192775983109025 8.239502156629356e-22 2.4479819795774026e-14 2.4479809031828897e-14 1.0763945127772417e-20
1.1277040513999907 8.350313302955967e-22 2.499581744742783e-14 2.4995804760403283e-14 1.26870245494838e-20
1.1361939428280308 8.461256530778361e-22 2.551859533321056e-14 2.5518580398744677e-14 1.493446587832085e-20
1.1447477501889525 8.572328945699602e-22 2.6048220501016468e-14 2.6048202943472056e-14 1.7557544406708892e-20
1.1533659546722406 8.683570224630234e-22 2.6584890846885394e-14 2.658487023179169e-14 2.0615093701984982e-20
1.1707974979042381 8.90689752305706e-22 2.768073861182099e-14 2.768071029875956e-14 2.83130614376374e-20
1.1884924949847024 9.130891185220496e-22 2.8805740494938314e-14 2.8805701803947337e-14 3.8690990972697323e-20
1.2064549276569216 9.357082461988609e-22 2.996546293560705e-14 2.996541032351255e-14 5.26120945049357e-20
1.2246888378427687 9.583929601868588e-22 3.115579284880248e-14 3.1155721656995986e-14 7.119180650390755e-20
1.2431983285522175 9.811223859343492e-22 3.237673387869067e-14 3.237663801228667e-14 9.586640400182113e-20
1.2619875648066055 1.0039267755219863e-21 3.3629975115174906e-14 3.362984663930305e-14 1.2847587184721422e-19
1.3004222497298317 1.049604898548497e-21 3.623094597712526e-14 3.623071847869447e-14 2.274984307961398e-19
1.3400274889804893 1.0955476369125947e-21 3.8968564421070055e-14 3.8968168957942315e-14 3.954631277598409e-19
1.3808389325824078 1.1419096715456279e-21 4.1854697528145695e-14 4.185402236634917e-14 6.751617965201362e-19
1.4228933163050095 1.1890820168396588e-21 4.491108875079476e-14 4.4909956092749466e-14 1.1326580453067176e-18
1.466228494730424 1.2379171736084682e-21 4.817954301001775e-14 4.8177674928237555e-14 1.8680817802046345e-18
1.5108834753276823 1.2882991212009179e-21 5.166746035421338e-14 5.166443002171553e-14 3.0303324978415347e-18
1.5568984535646726 1.34017833869547e-21 5.538501969334046e-14 5.5380179760674475e-14 4.839932665990879e-18
1.6043148490894465 1.3938847415109138e-21 5.935890765403165e-14 5.935128243123477e-14 7.625222796873953e-18
1.6531753430134553 1.4497739077562098e-21 6.361926268219033e-14 6.36074263552059e-14 1.1836326984433423e-17
1.7035239163302658 1.5082741980259802e-21 6.820213497318796e-14 6.818402848590597e-14 1.8106487281982016e-17
1.755405889504358 1.5705848190507783e-21 7.318269177740709e-14 7.315538183693778e-14 2.7309940469324456e-17
1.8088679632656115 1.6367448839757851e-21 7.858819104460323e-14 7.854756267323211e-14 4.062837137109818e-17
1.8639582606462262 1.7067814313974934e-21 8.444686383045154e-14 8.438722464614585e-14 5.96391843056983e-17
1.9207263702978936 1.7809795388127128e-21 9.080167544058509e-14 9.071526029474878e-14 8.641514583633518e-17
1.979223391128241 1.8597462174578332e-21 9.770525714619277e-14 9.758161397177304e-14 1.236431744197148e-16
2.039501978296691 1.9434603207329207e-21 1.052129607637251e-13 1.0503820732538834e-13 1.7475343833677198e-16
2.1016163906111602 2.0331154477148534e-21 1.1341876658820754e-13 1.1317468546829341e-13 2.4408111991412718e-16
2.1656225393682647 2.129251305087172e-21 1.2239935183086873e-13 1.2206234160529867e-13 3.370102255700554e-16
2.231578038680979 2.231751386548571e-21 1.321987428156084e-13 1.3173860741761704e-13 4.601353979913538e-16
2.299542257339062 2.340823799044159e-21 1.4288266833173844e-13 1.4226123765049007e-13 6.214306812483605e-16
2.369576372248914 2.4569245371633566e-21 1.5453681648720502e-13 1.5370638764191698e-13 8.304288452880725e-16
2.4417434235010123 2.5805856095480275e-21 1.67258320228979e-13 1.6615996394633484e-13 1.098356282644145e-15
2.5161083711144245 2.7128245552358954e-21 1.8118426707083808e-13 1.7974595600195434e-13 1.4383110688837308e-15
2.5927381535095444 2.855297437601898e-21 1.9650764330754379e-13 1.9464227430692397e-13 1.8653690006197957e-15
2.6717017477616296 3.00951152014162e-21 2.1342899418915622e-13 2.1103243599129832e-13 2.3965581978578833e-15
2.753070231689431 3.1776617274825117e-21 2.3221720142248827e-13 2.291663185249328e-13 3.0508828975555215e-15
2.836916847834745 3.365448498744502e-21 2.5343056306981454e-13 2.49581149532675e-13 3.849413537139584e-15
2.9233170693905177 3.585314728272373e-21 2.7820993877519317e-13 2.733957127343057e-13 4.814226040887453e-15
2.967498994190263 3.719011752556752e-21 2.9294599454136677e-13 2.875899034566474e-13 5.3560910847194144e-15
3.0123486681368425 3.8626656217843685e-21 3.0886008440148695e-13 3.029089613003838e-13 5.951123101103177e-15
3.0578761833420214 4.089399688506881e-21 3.319318213802412e-13 3.2532627114284853e-13 6.605550237392656e-15
3.1040917844459814 4.354192522245687e-21 3.587662779775353e-13 3.5144881113608424e-13 7.317466841451013e-15
3.127460860933648 4.591279548257045e-21 3.8114923529338294e-13 3.7345068766390493e-13 7.698547629478038e-15
3.1510058709225794 4.890438684760879e-21 4.0904064410076094e-13 4.0094494441718693e-13 8.095699683574003e-15
3.162844764501044 5.1557152844726666e-21 4.3284881816146003e-13 4.245476186685665e-13 8.301199492893626e-15
3.1747281389236908 5.455926286408696e-21 4.597740634724052e-13 4.5126320506792727e-13 8.51085840447789e-15
3.1986289994194426 6.266365187845061e-21 5.320457816789848e-13 5.231018297881995e-13 8.943951890785224e-15
3.2227097969389145 8.125577428103871e-21 6.950961217511199e-13 6.856933194669406e-13 9.402802284179354e-15
3.2348180950136065 9.864985933183213e-21 8.470631075710876e-13 8.374154546652566e-13 9.647652905831231e-15
3.240889293275058 1.1162440062360882e-20 9.602686906850407e-13 9.504918851262495e-13 9.776805558791118e-15
3.2469718861334385 1.2665186848285773e-20 1.0915900356179848e-12 1.0816795948148059e-12 9.91044080317871e-15
3.2714166318528037 2.0561736658474042e-20 1.7855214958998886e-12 1.7750588631804432e-12 1.0462632719445886e-14
3.2744851364798273 2.1056778866669633e-20 1.8302246184404562e-12 1.8196969250716633e-12 1.0527693368792635e-14
3.2775565192852394 2.156513499824797e-20 1.876168343165365e-12 1.8655752652690783e-12 1.0593077896287521e-14
3.283707930232385 2.108519178295107e-20 1.8378561266260604e-12 1.8271461471559416e-12 1.0709979470118706e-14
3.2898708863219004 1.95474708745706e-20 1.7070209917684508e-12 1.6962046502057705e-12 1.0816341562680687e-14
3.29141343181113 1.9184193840426424e-20 1.6760826253833018e-12 1.6652395763991853e-12 1.0843048984116542e-14
3.292184975758714 1.9005596100009505e-20 1.660868151565379e-12 1.6500117313151725e-12 1.0856420250206164e-14
3.295272960557952 1.7888799894371124e-20 1.5647394563786546e-12 1.553831029130129e-12 1.0908427248525838e-14
3.3076538914384823 1.399480796014812e-20 1.2287299257646682e-12 1.2176126261906457e-12 1.1117299574022575e-14
3.310756385682612 1.3195317196453022e-20 1.1596221251172978e-12 1.1484521802518849e-12 1.116994486541293e-14
3.313861789986515 1.2454950606825555e-20 1.095584385892985e-12 1.0843616245593435e-12 1.1222761333641284e-14
3.3200813396944477 1.1422048537798654e-20 1.0066121269340798e-12 9.952757513906515e-13 1.1336375543428118e-14
3.345076488085796 9.6258736604249e-21 8.547038161833282e-13 8.42861102475861e-13 1.1842713707467232e-14
3.3482140837626964 9.701885655620678e-21 8.622611197041566e-13 8.503498136542413e-13 1.1911306049915584e-14
3.3513546224236106 9.778591597683466e-21 8.698935811815076e-13 8.579133751463839e-13 1.198020603512362e-14
3.3576445397418455 1.030527350155495e-20 9.18467244780225e-13 9.063429811206355e-13 1.21242636595893e-14
3.3702598118196083 1.2208259002040039e-20 1.092160710636198e-12 1.0797342830954474e-12 1.2426427540750675e-14
3.382922481734668 1.2669456807196009e-20 1.1376783001768974e-12 1.1249581779859017e-12 1.27201221909958e-14
3.389271646505754 1.2907242913020548e-20 1.1612060637669418e-12 1.1483370793530481e-12 1.2868984413893598e-14
3.395632727569191 1.3167826606131256e-20 1.1868729798743147e-12 1.1738505836639378e-12 1.3022396210376421e-14
3.421196662673239 1.4426450685665372e-20 1.310107606857787e-12 1.2964501619967643e-12 1.3657444861022584e-14
3.4276182099114902 1.420695061104572e-20 1.2925958140789484e-12 1.2787966511409477e-12 1.3799162938000641e-14
3.4340518103208963 1.3193171021180437e-20 1.202611820982528e-12 1.1886786192583796e-12 1.3933201724148864e-14
3.4469541582030403 1.1742624673056164e-20 1.0744101947377792e-12 1.0602197265052744e-12 1.419046823250455e-14
3.472904465399547 1.1360695442807293e-20 1.0472905556981003e-12 1.0325074551425788e-12 1.4783100555521458e-14
3.4990501388274233 1.076997378661941e-20 1.0003091582133188e-12 9.849196235738102e-13 1.5389534639508606e-14
3.5253949054701885 8.610988131821094e-21 8.058054424140967e-13 7.898267805956695e-13 1.597866181842708e-14
3.5519380250092896 6.5588671643547886e-21 6.183916942595778e-13 6.018209262467784e-13 1.657076801279947e-14
3.578680990867387 5.7730940171451436e-21 5.484045504011209e-13 5.31184823573785e-13 1.7219726827335797e-14
3.605625307711299 5.4857365807209645e-21 5.250310352021172e-13 5.071278570292256e-13 1.7903178172891534e-14
3.660119384959845 5.338915609954312e-21 5.187017826915978e-13 4.993628639188174e-13 1.9338918772780268e-14
3.715437065384467 5.258396419863199e-21 5.186001833331972e-13 4.977479414359864e-13 2.08522418972107e-14
3.8285932144167436 5.360088016005425e-21 5.447291039094294e-13 5.206252638136228e-13 2.410384009580659e-14
3.94519561050918 5.5315030373690944e-21 5.792701230229318e-13 5.516220343520138e-13 2.7648088670917637e-14
4.06534921144712 5.729898773321038e-21 6.183213462634273e-13 5.868410415391528e-13 3.148030472427449e-14
4.189162171576248 5.942224330221761e-21 6.607628982771268e-13 6.251560394452472e-13 3.560685883187969e-14
4.316745939156006 6.162537261884695e-21 7.061313292177594e-13 6.661199072614087e-13 4.001142195635098e-14
4.448215356677963 6.387584002838749e-21 7.542092642454988e-13 7.095775241035163e-13 4.4631740141982534e-14
4.58368876423945 6.616297797005412e-21 8.050068919148288e-13 7.555347167733586e-13 4.947217514147017e-14
4.723288106065518 6.848971173813525e-21 8.586955423575637e-13 8.041339158129107e-13 5.456162654465295e-14
4.867139040275056 7.085837295213282e-21 9.154494369105041e-13 8.556861552276894e-13 5.976328168281479e-14
4.940699165968905 7.209272517527983e-21 9.454733384019953e-13 8.830517572895977e-13 6.24215811123979e-14
5.015371051989984 7.330873439697918e-21 9.75951473015568e-13 9.108417542067197e-13 6.510971880884823e-14
5.091171501069577 7.462076510221884e-21 1.0084325553350391e-12 9.405467014676005e-13 6.788585386743882e-14
5.129500256944802 7.526840482600864e-21 1.0248426741853247e-12 9.55560468837267e-13 6.928220534805757e-14
5.168117569889187 7.592085211685313e-21 1.0415086753720537e-12 9.70810993436478e-13 7.069768193557551e-14
5.20702561229733 7.665911395247178e-21 1.0595536263026153e-12 9.873098578130354e-13 7.224376848957988e-14
5.246226572918644 7.739452765050069e-21 1.0777715863306708e-12 1.003972213559878e-12 7.379937277079285e-14
5.265937586045735 7.776116283277453e-21 1.08694579507811e-12 1.0123652549812565e-12 7.458054009685357e-14
5.285722656980489 7.812708339433859e-21 1.0961637013666152e-12 1.0207998608434458e-12 7.53638405231696e-14
5.305582063971359 7.849229033082175e-21 1.1054254803987258e-12 1.0292762900651837e-12 7.614919033354228e-14
5.3255160863122235 7.887322806230559e-21 1.1149637547492059e-12 1.038020908782966e-12 7.694284596623989e-14
5.365609099470188 7.976063086335872e-21 1.1359966306065485e-12 1.057411665470653e-12 7.858496513589544e-14
5.406003951863644 8.065264124939803e-21 1.1573491214869579e-12 1.0771123940718153e-12 8.023672741514259e-14
5.446702915881641 8.154975900371513e-21 1.1790325712668032e-12 1.0971351066565887e-12 8.189746461021457e-14
5.487708281020852 8.248384562932288e-21 1.2015154250559503e-12 1.1179416981756406e-12 8.357372688030995e-14
5.529022354014368 8.37033727343683e-21 1.2284591985764962e-12 1.1431380667895553e-12 8.532113178694129e-14
5.570647458961463 8.495144903785453e-21 1.2561627158942198e-12 1.1690842124991824e-12 8.707850339503737e-14
5.612585937458331 8.623067359703013e-21 1.2846777886307865e-12 1.1958326270604623e-12 8.884516157032434e-14
5.654840148729818 8.75911794094042e-21 1.3147710717713675e-12 1.2241417463996324e-12 9.062932537173475e-14
5.67608639626678 8.849514524353796e-21 1.3333306933461597e-12 1.2417674945608055e-12 9.156319878535399e-14
5.686739436050992 8.895516229320685e-21 1.3427770778642928e-12 1.2507459002216557e-12 9.203117764263735e-14
5.6974124697621304 8.942072069210619e-21 1.3523380278184628e-12 1.2598381908267746e-12 9.249983699168804e-14
5.718818669136295 9.036903911741167e-21 1.3718146099464482e-12 1.278375455894687e-12 9.34391540517613e-14
5.740305295436557 9.140041364174457e-21 1.3926839961765896e-12 1.2982957555855143e-12 9.438824059107558e-14
5.7835210386641895 9.403334407297276e-21 1.4435892317361236e-12 1.3472393508612154e-12 9.634988087490789e-14
5.827062130521658 9.697677909837707e-21 1.499984728681677e-12 1.4016436226246595e-12 9.834110605701773e-14
5.8489554468988025 9.903807298839086e-21 1.5376232168123429e-12 1.4382053666265061e-12 9.941785018583621e-14
5.870931020387893 1.0121166501143e-20 1.5772734035670063e-12 1.4767743325332401e-12 1.0049907103376631e-13
5.892989160043636 1.0350646183685141e-20 1.6190957717049563e-12 1.5175110848656647e-12 1.015846868392916e-13
5.915130176081913 1.0609334869565121e-20 1.6657963161621438e-12 1.563085822784705e-12 1.0271049337743886e-13
5.95966208400165 1.1331418814003841e-20 1.7925668482372998e-12 1.6872816332901198e-12 1.0528521494718051e-13
6.004529249263818 1.2358437398614177e-20 1.969753857959851e-12 1.861566021949432e-12 1.0818783601041904e-13
6.027089341400364 1.3069418543105176e-20 2.0909003174081675e-12 1.981030620550322e-12 1.0986969685784589e-13
6.049734195844842 1.3900201078028787e-20 2.232167648473648e-12 2.1205153971088423e-12 1.1165225136480561e-13
6.095279466722835 1.629022132178548e-20 2.6356639745456936e-12 2.5196139109457594e-12 1.160500635999343e-13
6.141167624020661 1.9926664341364933e-20 3.2482914577123692e-12 3.1265134353290578e-12 1.217780223833115e-13
6.164241091010745 2.22433287587968e-20 3.639559553249226e-12 3.514176748954938e-12 1.2538280429428679e-13
6.187401249150058 2.4846340135512696e-20 4.0807514154785126e-12 3.9516686381461935e-12 1.2908277733231947e-13
6.1990139391386085 2.6111485328081806e-20 4.2965871270886706e-12 4.1656219969528756e-12 1.3096513013579404e-13
6.204828454712694 2.677486327658957e-20 4.4098769754689145e-12 4.277961257449066e-12 1.3191571801984868e-13
6.210648424152782 2.725561692450202e-20 4.493268745644697e-12 4.3605453258129196e-12 1.3272341983177702e-13
6.233982942956859 2.886831829246877e-20 4.777014150345564e-12 4.6414840157557195e-12 1.355301345898434e-13
6.239830258556775 2.906291139775506e-20 4.813725560735083e-12 4.6778129591130645e-12 1.3591260162201948e-13
6.245683058788269 2.906247715573154e-20 4.818168719953381e-12 4.681873101865029e-12 1.362956180883514e-13
6.257405133728602 2.897820873537978e-20 4.813214801877765e-12 4.676252874525195e-12 1.3696192735257e-13
6.269149208991335 2.861110728265655e-20 4.761159221333383e-12 4.623972253811716e-12 1.3718696752166687e-13
6.280915325867298 2.7750354336585854e-20 4.626588825552454e-12 4.489722247270037e-12 1.3686657828241665e-13
6.304513850009849 2.565266137922448e-20 4.292926615562755e-12 4.157194006411486e-12 1.3573260915127078e-13
6.32820103803542 2.3093547211449816e-20 3.879183708168644e-12 3.745109783206004e-12 1.3407392496263954e-13
6.3519772230701035 2.075897568617872e-20 3.5001308899517077e-12 3.367548415475173e-12 1.325824744765343e-13
6.375842739491607 1.878880551770663e-20 3.1798468284380847e-12 3.0485841435909367e-12 1.31262684847147e-13
6.399797922933955 1.7227374472075834e-20 2.9265421821486728e-12 2.7959775186631428e-12 1.3056466348552998e-13
6.42384311029221 1.5923376826404783e-20 2.715185661035662e-12 2.58519502165309e-12 1.299906393825714e-13
6.447978639727206 1.497841529496384e-20 2.5636509308585487e-12 2.4337498388344727e-12 1.2990109202407688e-13
6.472204850670314 1.4187953529459074e-20 2.43748215562081e-12 2.3075746347381117e-12 1.2990752088269788e-13
6.496522083828205 1.3674743493636097e-20 2.35813975999858e-12 2.227833609138266e-12 1.30306150860314e-13
