Dust emission spectrum from A.P. Jones, M. Kohler, N. Ysard, M. Bocchio, and L. Verstraete (2017), A&A, 602A, 46J 
inside the DustPedia framework.

lambda    nu*dP/dnu     j_nu    j_nu(carb.) j_nu(sil)
 (um)   (erg s-1 H-1) (Jy cm2 sr-1 H-1)
0.9927057738263894 1.7195620734236457e-22 4.531143732647237e-15 4.531143732630362e-15 1.687610984280083e-26
1.0001793341362166 1.7479551786767827e-22 4.640637039913447e-15 4.6406370398931166e-15 2.032945582420258e-26
1.0077091589558085 1.776307383628237e-22 4.751412763031204e-15 4.751412763006746e-15 2.445799543612571e-26
1.0114953028030835 1.7904646567173103e-22 4.807275988658326e-15 4.807275988631513e-15 2.681380303902023e-26
1.0152956718711033 1.8046075257017292e-22 4.863453098410976e-15 4.863453098381587e-15 2.938702976749375e-26
1.0229392996569957 1.832830642474412e-22 4.976701971695495e-15 4.976701971660232e-15 3.526422363787211e-26
1.0267826658714554 1.846876645500487e-22 5.033682870319793e-15 5.0336828702811805e-15 3.8612504918566094e-26
1.0306404723013447 1.8609020344289774e-22 5.090965295695641e-15 5.090965295653376e-15 4.226500788072532e-26
1.03451277320114 1.8749054558859288e-22 5.148546780946329e-15 5.148546780900078e-15 4.6248024274926074e-26
1.0383996230291617 1.8888855640300834e-22 5.206424828441904e-15 5.206424828391314e-15 5.058999234104847e-26
1.0403485208654093 1.8958664571578082e-22 5.235474274258577e-15 5.2354742742056706e-15 5.290509729905461e-26
1.0423010764483396 1.9028410208109237e-22 5.264596910390502e-15 5.264596910335181e-15 5.532166098464831e-26
1.0462171883269815 1.916770496221031e-22 5.323060469430414e-15 5.3230604693699384e-15 6.04762655922605e-26
1.0471985131304309 1.9202486504099733e-22 5.337721600027545e-15 5.33772159996571e-15 6.183514711110373e-26
1.048180758391296 1.923725077544836e-22 5.352400745744395e-15 5.3524007456811725e-15 6.322328088791389e-26
1.0501480137395462 1.9306726685427039e-22 5.381812919222634e-15 5.381812919156544e-15 6.60897162391737e-26
1.0521189612883777 1.937613105334718e-22 5.411296662142325e-15 5.411296662073245e-15 6.908051136479886e-26
1.0531058218030118 1.941075257825657e-22 5.426050364225378e-15 5.4260503641547535e-15 7.062423997186059e-26
1.0540936079674168 1.9445180912176658e-22 5.4407729277074516e-15 5.440772927635249e-15 7.220133737367988e-26
1.058054026499678 1.9582697994945267e-22 5.4998368124102545e-15 5.4998368123314e-15 7.885389408630691e-26
1.0590464539527713 1.9617027196850327e-22 5.514645980838392e-15 5.514645980757785e-15 8.060660817030749e-26
1.06003981227728 1.9651335970302487e-22 5.529472343634777e-15 5.52947234355238e-15 8.239661325902309e-26
1.0620293250338977 1.9719891432942214e-22 5.5591764824612645e-15 5.559176482375174e-15 8.609153133538584e-26
1.0660195594769086 1.9856748449886057e-22 5.618789218388541e-15 5.6187892182945775e-15 9.396306736226678e-26
1.070024785945596 1.9993256366329084e-22 5.678672275441308e-15 5.678672275338785e-15 1.025211574082711e-25
1.0740450607676866 2.0129402601742266e-22 5.7388228841848715e-15 5.7388228840730465e-15 1.118225752943224e-25
1.07808044048254 2.0265174676542729e-22 5.799238251094389e-15 5.799238250972459e-15 1.2192851406982634e-25
1.0861967418109137 2.0535306855530893e-22 5.920782746044791e-15 5.920782745899971e-15 1.4482278880470472e-25
1.0902777775684922 2.0669096565183388e-22 5.981747648699228e-15 5.98174764854147e-15 1.5775865372347172e-25
1.0943741465085532 2.0802453704337963e-22 6.042961424785567e-15 6.042961424613773e-15 1.717947626419822e-25
1.1026131145906286 2.1067822876809184e-22 6.166123874233852e-15 6.166123874030325e-15 2.0352861925062016e-25
1.1109141095355224 2.1331320732493207e-22 6.290246452163727e-15 6.2902464519229114e-15 2.408159664512956e-25
1.1192775983109025 2.1592610694995414e-22 6.4152324823230016e-15 6.41523248203843e-15 2.8457133174173693e-25
1.1277040513999907 2.1850478403139735e-22 6.540719485465339e-15 6.5407194851294896e-15 3.3584982736471686e-25
1.1361939428280308 2.210617039937255e-22 6.667076157501771e-15 6.667076157105903e-15 3.9586697185125823e-25
1.1447477501889525 2.2359601445768047e-22 6.794277639875143e-15 6.794277639409121e-15 4.660213555695165e-25
1.1533659546722406 2.261082651034582e-22 6.9223411475434084e-15 6.922341146995488e-15 5.4792082581876065e-25
1.1707974979042381 2.3107471059102687e-22 7.181309369636747e-15 7.181309368882135e-15 7.54611295542613e-25
1.1884924949847024 2.359422211950718e-22 7.4434031220803e-15 7.443403121046158e-15 1.0341398277631313e-24
1.2064549276569216 2.4074889409424274e-22 7.709830593110149e-15 7.709830591699836e-15 1.410312957845222e-24
1.2246888378427687 2.4544219934152697e-22 7.978925802572847e-15 7.978925800658825e-15 1.91401952954291e-24
1.2431983285522175 2.500111565663228e-22 8.250290482509833e-15 8.250290479924632e-15 2.5852006571261017e-24
1.2619875648066055 2.544540617872436e-22 8.5238126669257e-15 8.523812663450461e-15 3.475238419712133e-24
1.3004222497298317 2.628878390688662e-22 9.074533768391328e-15 9.074533762198627e-15 6.192703927520214e-24
1.3400274889804893 2.7071056233852078e-22 9.629158634928802e-15 9.629158624093687e-15 1.0835114888930528e-23
1.3808389325824078 2.7789326319262505e-22 1.0185690484864198e-14 1.0185690466241434e-14 1.8622768380122934e-23
1.4228933163050095 2.844709905615841e-22 1.0744340359375365e-14 1.0744340327917801e-14 3.145756660034593e-23
1.466228494730424 2.9060223768349975e-22 1.1310193692900395e-14 1.1310193640649691e-14 5.2250699231783663e-23
1.5108834753276823 2.96167762112871e-22 1.1877859617647282e-14 1.187785953227123e-14 8.537605121089928e-23
1.5568984535646726 3.010711038346371e-22 1.2442246329103044e-14 1.244224619172799e-14 1.3737505445272938e-22
1.6043148490894465 3.05321298273366e-22 1.3002178881284411e-14 1.3002178663211624e-14 2.180727923582346e-22
1.6531753430134553 3.08931350992826e-22 1.3556586074855406e-14 1.3556585733723738e-14 3.4113167015519083e-22
1.7035239163302658 3.1194426706709906e-22 1.4105701094978227e-14 1.4105700568991049e-14 5.259871770447561e-22
1.755405889504358 3.1460818887042017e-22 1.4659427391299558e-14 1.4659426591503198e-14 7.997963588999786e-22
1.8088679632656115 3.168619287732699e-22 1.521410333216205e-14 1.521410213241322e-14 1.1997488320962013e-21
1.8639582606462262 3.1866406963078624e-22 1.5766624126989e-14 1.5766622350829673e-14 1.7761593253975123e-21
1.9207263702978936 3.200447636458542e-22 1.631720079973677e-14 1.63171982036452e-14 2.5960915677326255e-21
1.979223391128241 3.210741070108244e-22 1.6868230672547718e-14 1.686822692476698e-14 3.747780736551796e-21
2.039501978296691 3.218359688586836e-22 1.7423208903547002e-14 1.7423203557880306e-14 5.345666690581001e-21
2.1016163906111602 3.2256514132648026e-22 1.799452191203424e-14 1.7994514375267553e-14 7.536766691171113e-21
2.1656225393682647 3.233977892704741e-22 1.8590421757952776e-14 1.859041125101383e-14 1.0506938946450192e-20
2.231578038680979 3.2434370707274284e-22 1.9212637471005054e-14 1.92126229828343e-14 1.4488170751532994e-20
2.299542257339062 3.2548444024328293e-22 1.9867401101019488e-14 1.986738133435736e-14 1.9766662120222005e-20
2.369576372248914 3.2700022985661473e-22 2.0567817101525268e-14 2.056779040960841e-14 2.6691916855333215e-20
2.4417434235010123 3.291038987741581e-22 2.133057128045229e-14 2.1330535595296433e-14 3.568515585604652e-20
2.5161083711144245 3.3215988730036386e-22 2.218431177744019e-14 2.218426452748916e-14 4.724995103360914e-20
2.5927381535095444 3.367645563721166e-22 2.3176853118943552e-14 2.3176791137422402e-14 6.198152115737267e-20
2.6717017477616296 3.4362988130606914e-22 2.4369596012392814e-14 2.4369515439969765e-14 8.057242305566903e-20
2.753070231689431 3.538277656460299e-22 2.5857029655887215e-14 2.5856925834875507e-14 1.0382101170918698e-19
2.836916847834745 3.697866954358252e-22 2.7846288681876468e-14 2.7846156038933217e-14 1.3264294325036337e-19
2.9233170693905177 3.9685516185105345e-22 3.0794800080048443e-14 3.079463203029583e-14 1.6804975262096072e-19
2.967498994190263 4.198358318531377e-22 3.307040512086757e-14 3.3070216846321916e-14 1.8827454565547304e-19
3.0123486681368425 4.466732298658292e-22 3.5716146564225244e-14 3.5715935910258115e-14 2.1065396713539276e-19
3.0578761833420214 5.06708400270786e-22 4.1128932122543566e-14 4.112869667703157e-14 2.354455119893117e-19
3.1040917844459814 5.840680631010872e-22 4.812463482350853e-14 4.812437215541489e-14 2.626680936394113e-19
3.127460860933648 6.658968582935207e-22 5.528003155878237e-14 5.5279754217757075e-14 2.7734102530578667e-19
3.1510058709225794 7.74920966546719e-22 6.481507932431073e-14 6.481478661701393e-14 2.927072967923337e-19
3.162844764501044 8.76402207516816e-22 7.357847336919982e-14 7.357817268197658e-14 3.0068722323709807e-19
3.1747281389236908 9.944165715753904e-22 8.380005958593448e-14 8.379975073699444e-14 3.088489400684782e-19
3.1986289994194426 1.3235916537844558e-21 1.1237955895508575e-13 1.1237923318395725e-13 3.257711284830449e-19
3.2227097969389145 2.0995270098516823e-21 1.796023845655704e-13 1.7960204078594222e-13 3.4377962818348534e-19
3.2348180950136065 2.8353537307709452e-21 2.4345939857565826e-13 2.434590451649769e-13 3.5341068129550875e-19
3.240889293275058 3.385478382866189e-21 2.9124177831149196e-13 2.9124141981967155e-13 3.5849182045488354e-19
3.2469718861334385 4.0218872547596516e-21 3.4663934328523744e-13 3.4663897953506733e-13 3.637501700711169e-19
3.2714166318528037 7.41659056000492e-21 6.440351849229327e-13 6.440347993787378e-13 3.855441950673031e-19
3.2744851364798273 7.628802001278593e-21 6.630843834357185e-13 6.630839953061096e-13 3.8812960899843086e-19
3.2775565192852394 7.847108605498168e-21 6.826990302732764e-13 6.826986395436604e-13 3.907296159956546e-19
3.283707930232385 7.637158522777097e-21 6.656803848684678e-13 6.656799894555847e-13 3.954128832823203e-19
3.2898708863219004 6.971354149846598e-21 6.087870881711524e-13 6.087866884650938e-13 3.9970605856700767e-19
3.29141343181113 6.814340981908045e-21 5.953546246569613e-13 5.953542238719842e-13 4.0078497711551166e-19
3.292184975758714 6.7371902897481906e-21 5.887521088208701e-13 5.88751707495588e-13 4.0132528209634584e-19
3.295272960557952 6.250208953677597e-21 5.467079188195196e-13 5.467075153867364e-13 4.0343278324284935e-19
3.3076538914384823 4.5631596667431185e-21 4.006407843920323e-13 4.0064037247758e-13 4.119144523720757e-19
3.310756385682612 4.219802687148101e-21 3.7084190450243455e-13 3.708414904465417e-13 4.140558927462009e-19
3.313861789986515 3.903002605224325e-21 3.433228157516773e-13 3.4332239954589705e-13 4.162057803971983e-19
3.3200813396944477 3.458725769337586e-21 3.04813562263641e-13 3.048131414475669e-13 4.208160741012742e-19
3.345076488085796 2.6661786528193706e-21 2.367362329468442e-13 2.367357916165671e-13 4.4133027713466395e-19
3.3482140837626964 2.695897339517342e-21 2.3959955219972816e-13 2.3959910809123533e-13 4.441084929287597e-19
3.3513546224236106 2.725944574826052e-21 2.424972619635214e-13 2.424968150623958e-13 4.469011255694893e-19
3.3576445397418455 2.9455393510976128e-21 2.625239797649373e-13 2.625235270300336e-13 4.527349036641036e-19
3.3702598118196083 3.7554984462617834e-21 3.359699242272804e-13 3.359694592502104e-13 4.6497706996559e-19
3.382922481734668 3.939969372081505e-21 3.537971458597023e-13 3.53796668921175e-13 4.769385272314535e-19
3.389271646505754 4.035537880250327e-21 3.630590272985908e-13 3.630585442842886e-13 4.830143022940207e-19
3.395632727569191 4.138517328272977e-21 3.7302240837388754e-13 3.73021919097174e-13 4.892767135394547e-19
3.421196662673239 4.632983707884898e-21 4.2073461660110726e-13 4.2073410132629577e-13 5.152748114845114e-19
3.4276182099114902 4.533331170525115e-21 4.124576100305783e-13 4.124570888854384e-13 5.211451399368121e-19
3.4340518103208963 4.096668147094145e-21 3.7342815706918654e-13 3.7342763033869627e-13 5.267304901948612e-19
3.4469541582030403 3.474780046436454e-21 3.1793054877492674e-13 3.179300112560129e-13 5.375189139005901e-19
3.472904465399547 3.300486770650215e-21 3.042567808907264e-13 3.042562186062421e-13 5.622844842108813e-19
3.4990501388274233 3.0339167899964867e-21 2.8178849924975087e-13 2.817879114571532e-13 5.877925976796654e-19
3.5253949054701885 2.0852679006108754e-21 1.951367482431193e-13 1.9513613541356058e-13 6.128295587147812e-19
3.5519380250092896 1.1936553993727846e-21 1.1254177989635234e-13 1.1254114168973875e-13 6.382066135945977e-19
3.578680990867387 8.401242416336064e-22 7.980607203795297e-14 7.980540596972092e-14 6.660682320492501e-19
3.605625307711299 6.97124119964656e-22 6.672062957884591e-14 6.671993402626883e-14 6.955525770817418e-19
3.660119384959845 5.927923601119725e-22 5.759267919177152e-14 5.759192108343024e-14 7.581083412806204e-19
3.715437065384467 5.189020226874061e-22 5.11758077198479e-14 5.1174982760050774e-14 8.249597971191135e-19
3.8285932144167436 4.813613168956129e-22 4.8919256181285944e-14 4.891828431115602e-14 9.718701299126047e-19
3.94519561050918 4.74109597955614e-22 4.9649710626340864e-14 4.9648573536171964e-14 1.137090168903898e-18
4.06534921144712 4.793018040128927e-22 5.172212432506378e-14 5.1720802474087254e-14 1.321850976524387e-18
4.189162171576248 4.917066548765927e-22 5.467675003886688e-14 5.467522202543931e-14 1.5280134275565789e-18
4.316745939156006 5.093761400216638e-22 5.836661679110169e-14 5.836486014171616e-14 1.7566493855411307e-18
4.448215356677963 5.316578478841522e-22 6.277510778799134e-14 6.277310096792446e-14 2.006820066875508e-18
4.58368876423945 5.586332533117426e-22 6.796907164189234e-14 6.79667908355881e-14 2.2808063042327045e-18
4.723288106065518 5.909267282044349e-22 7.408793736921975e-14 7.40853549911545e-14 2.582378065249379e-18
4.867139040275056 6.297857337354536e-22 8.136469570249087e-14 8.136178812841677e-14 2.9075740741100202e-18
4.940699165968905 6.53240349003766e-22 8.567041016272387e-14 8.56673295352025e-14 3.0806275213808188e-18
5.015371051989984 6.775358195034867e-22 9.019963125873926e-14 9.019637060699939e-14 3.2606517399086744e-18
5.091171501069577 7.071901254285662e-22 9.557038772206726e-14 9.55669366177922e-14 3.4511042750531137e-18
5.129500256944802 7.224124887075739e-22 9.836253983372822e-14 9.835899073762952e-14 3.549096098697204e-18
5.168117569889187 7.382842173523684e-22 1.0128039870775756e-13 1.0127674908379737e-13 3.64962396017646e-18
5.20702561229733 7.57766058937984e-22 1.0473559297001162e-13 1.0473183501729831e-13 3.75795271328359e-18
5.246226572918644 7.777468939168521e-22 1.0830655978751167e-13 1.083026912258447e-13 3.8685616669500106e-18
5.265937586045735 7.879294307206221e-22 1.101368022725994e-13 1.1013287754317918e-13 3.9247294202113215e-18
5.285722656980489 7.982427989197924e-22 1.1199762528400907e-13 1.1199364380691551e-13 3.981477093538488e-18
5.305582063971359 8.086891184922896e-22 1.138896003078577e-13 1.1388556149984968e-13 4.0388080080562185e-18
5.3255160863122235 8.199126899721964e-22 1.159040847999494e-13 1.158999877623928e-13 4.097037556624066e-18
5.365609099470188 8.478694272544614e-22 1.2075842456730697e-13 1.207542068490898e-13 4.2177182171556586e-18
5.406003951863644 8.768925461894595e-22 1.258323102937943e-13 1.2582796932236823e-13 4.340971426043432e-18
5.446702915881641 9.070336341743618e-22 1.3113738299059247e-13 1.3113291615998223e-13 4.4668306102164214e-18
5.487708281020852 9.396046350666485e-22 1.3686915951519429e-13 1.3686456380366887e-13 4.595711525406537e-18
5.529022354014368 9.848799524268941e-22 1.4454433525539716e-13 1.4453960459991585e-13 4.730655481304988e-18
5.570647458961463 1.0328270406929e-21 1.5272238851483979e-13 1.5271751998085133e-13 4.868533988499402e-18
5.612585937458331 1.0836383001998085e-21 1.614420944549204e-13 1.6143708506484833e-13 5.00939007208138e-18
5.654840148729818 1.1394948897702827e-21 1.7104175644202137e-13 1.7103660267714842e-13 5.15376487297499e-18
5.67608639626678 1.1775379826958666e-21 1.7741623346552609e-13 1.7741100418858539e-13 5.229276940694297e-18
5.686739436050992 1.1971477358255105e-21 1.8070930309644235e-13 1.8070403574773855e-13 5.26734870378726e-18
5.6974124697621304 1.2171621419033806e-21 1.8407530578784744e-13 1.8407000015574905e-13 5.3056320984045896e-18
5.718818669136295 1.2584439022718243e-21 1.9103353845464175e-13 1.910281556173978e-13 5.38283724395477e-18
5.740305295436557 1.303950432958448e-21 1.986851948949346e-13 1.986797335492948e-13 5.461345639813243e-18
5.7835210386641895 1.4220100280145932e-21 2.183053664740047e-13 2.1829974197830786e-13 5.624495696851107e-18
5.827062130521658 1.5580197303397109e-21 2.409861230927829e-13 2.4098033059283665e-13 5.7924999462870956e-18
5.8489554468988025 1.6534360907362125e-21 2.5670549152642047e-13 2.5669960884254543e-13 5.8826838750054576e-18
5.870931020387893 1.7558313831790332e-21 2.7362716950894967e-13 2.736211955093816e-13 5.973999568063966e-18
5.892989160043636 1.8657674000584095e-21 2.9185193415084013e-13 2.9184586769189665e-13 6.0664589434391446e-18
5.915130176081913 1.990799566277435e-21 3.125800650553015e-13 3.125739028161575e-13 6.1622391440582476e-18
5.95966208400165 2.3403984075642765e-21 3.7023789041159956e-13 3.702315140301835e-13 6.376381415991446e-18
6.004529249263818 2.8443073061879178e-21 4.533409126800523e-13 4.53334296915155e-13 6.6157648972615776e-18
6.027089341400364 3.1945935077697392e-21 5.110844493468041e-13 5.1107769723465e-13 6.752112154147301e-18
6.049734195844842 3.608546040353035e-21 5.794793675348763e-13 5.794724711799703e-13 6.8963549058104795e-18
6.095279466722835 4.804299486731816e-21 7.773079831133657e-13 7.773007393989283e-13 7.243714437336182e-18
6.141167624020661 6.644559082288041e-21 1.08314488253095e-12 1.0831371965516443e-12 7.685979305849882e-18
6.164241091010745 7.8197555983023e-21 1.2795057115999193e-12 1.2794977525160414e-12 7.95908387795704e-18
6.187401249150058 9.158499119334467e-21 1.5041876606794528e-12 1.5041794191617221e-12 8.241517730660921e-18
6.1990139391386085 9.812185711723492e-21 1.614573444899146e-12 1.614565059290323e-12 8.385608823109262e-18
6.204828454712694 1.0156525360382478e-20 1.672801346353757e-12 1.6727928877533768e-12 8.45860038056281e-18
6.210648424152782 1.040789514218287e-20 1.7158103623138589e-12 1.7158018403650906e-12 8.52194876800197e-18
6.233982942956859 1.1261926664413433e-20 1.86357869866261e-12 1.8635699505640466e-12 8.748098563874948e-18
6.239830258556775 1.137111021288068e-20 1.8834108922035813e-12 1.8834021088841482e-12 8.783319432713882e-18
6.245683058788269 1.138059680140495e-20 1.886750232236031e-12 1.8867414135724927e-12 8.818663537815906e-18
6.257405133728602 1.1357178184014831e-20 1.8864015592559017e-12 1.8863926764478802e-12 8.882808021625002e-18
6.269149208991335 1.118926610911387e-20 1.8619998516329392e-12 1.8619909344006725e-12 8.917232266331585e-18
6.280915325867298 1.076812552455855e-20 1.7952811924418154e-12 1.795272277726254e-12 8.914715561107543e-18
6.304513850009849 9.729554012022719e-21 1.628223316025795e-12 1.628214439949162e-12 8.876076632644225e-18
6.32820103803542 8.442208048827091e-21 1.4180963896158532e-12 1.4180875881283904e-12 8.801487462817666e-18
6.3519772230701035 7.261625202354721e-21 1.2243686329348092e-12 1.2243598948119767e-12 8.738122832502735e-18
6.375842739491607 6.2684401126533826e-21 1.0608806074814233e-12 1.0608719211374922e-12 8.686343930852614e-18
6.399797922933955 5.472450085703801e-21 9.296457821518231e-13 9.296371045151236e-13 8.677636699693333e-18
6.42384311029221 4.810681145873772e-21 8.202966374212357e-13 8.202879597301221e-13 8.677691113587382e-18
6.447978639727206 4.328460532601175e-21 7.408435174927016e-13 7.408348054971025e-13 8.711995599146711e-18
6.472204850670314 3.9267727670677375e-21 6.746172750729527e-13 6.746085215926603e-13 8.753480292416713e-18
6.496522083828205 3.665745306398837e-21 6.321390789575062e-13 6.321302557144853e-13 8.823243021136941e-18
