Dust emission spectrum from A.P. Jones, M. Kohler, N. Ysard, M. Bocchio, and L. Verstraete (2017), A&A, 602A, 46J 
inside the DustPedia framework.

lambda    nu*dP/dnu     j_nu    j_nu(carb.) j_nu(sil)
 (um)   (erg s-1 H-1) (Jy cm2 sr-1 H-1)
0.9927057738263894 3.432892173031238e-24 9.045865860320127e-17 9.045865858632518e-17 1.6876109842376956e-26
1.0001793341362166 3.489407320533552e-24 9.264009201466728e-17 9.264009199433783e-17 2.032945582360761e-26
1.0077091589558085 3.5458418201688686e-24 9.484708691368147e-17 9.484708688922349e-17 2.4457995435292073e-26
1.0114953028030835 3.5740219639501374e-24 9.596006213122173e-17 9.596006210440792e-17 2.6813803038034105e-26
1.0152956718711033 3.602173733119671e-24 9.707929704295763e-17 9.70792970135706e-17 2.938702976632778e-26
1.0229392996569957 3.658353581097401e-24 9.93356126762863e-17 9.933561264102202e-17 3.526422363624432e-26
1.0267826658714554 3.686313394160481e-24 1.0047088218925195e-16 1.0047088215063947e-16 3.861250491664409e-26
1.0306404723013447 3.714232619522079e-24 1.0161216988475107e-16 1.0161216984248606e-16 4.2265007878457015e-26
1.03451277320114 3.742108601421598e-24 1.0275942785977424e-16 1.027594278135262e-16 4.624802427225032e-26
1.0383996230291617 3.76993869955968e-24 1.0391260762888068e-16 1.0391260757829067e-16 5.0589992337893556e-26
1.0403485208654093 3.783835721478626e-24 1.0449140287824095e-16 1.0449140282533586e-16 5.290509729562948e-26
1.0423010764483396 3.7977202896105695e-24 1.0507166013632924e-16 1.0507166008100758e-16 5.532166098093024e-26
1.0462171883269815 3.825450763723331e-24 1.0623653576823367e-16 1.062365357077574e-16 6.047626558788085e-26
1.0471985131304309 3.8323750913870795e-24 1.0652865867312004e-16 1.0652865861128492e-16 6.18351471065414e-26
1.048180758391296 3.8392960219751745e-24 1.0682114160189536e-16 1.0682114153867212e-16 6.32232808831614e-26
1.0501480137395462 3.853127531011929e-24 1.0740718436473656e-16 1.0740718429864684e-16 6.608971623401725e-26
1.0521189612883777 3.8669449697021815e-24 1.0799465770346699e-16 1.0799465763438654e-16 6.908051135920482e-26
1.0531058218030118 3.873837678867461e-24 1.0828863159027868e-16 1.0828863151965443e-16 7.062423996603425e-26
1.0540936079674168 3.880691911394202e-24 1.0858198536515131e-16 1.0858198529294997e-16 7.220133736761183e-26
1.058054026499678 3.9080702374796166e-24 1.097588726697583e-16 1.0975887259090439e-16 7.885389407916958e-26
1.0590464539527713 3.9149049710724826e-24 1.1005395846907653e-16 1.100539583884699e-16 8.060660816287518e-26
1.06003981227728 3.9217356869868736e-24 1.1034938821976515e-16 1.1034938813736856e-16 8.239661325128387e-26
1.0620293250338977 3.935384909371584e-24 1.1094127628443713e-16 1.1094127619834561e-16 8.609153132699501e-26
1.0660195594769086 3.9626334257973016e-24 1.1212914352764382e-16 1.1212914343368077e-16 9.396306735240713e-26
1.070024785945596 3.9898133052168856e-24 1.1332242124738955e-16 1.133224211448684e-16 1.0252115739669132e-25
1.0740450607676866 4.016922086238921e-24 1.1452105583352137e-16 1.1452105572169876e-16 1.1182257528072914e-25
1.07808044048254 4.043957328024841e-24 1.1572499322999196e-16 1.1572499310806343e-16 1.2192851405387747e-25
1.0861967418109137 4.097749658955715e-24 1.1814717768301247e-16 1.181471775381897e-16 1.4482278878278257e-25
1.0902777775684922 4.1243931056632266e-24 1.1936215346572126e-16 1.1936215330796257e-16 1.5775865369778979e-25
1.0943741465085532 4.150951567627899e-24 1.2058212245461103e-16 1.205821222828163e-16 1.717947626119109e-25
1.1026131145906286 4.2038042860635e-24 1.2303681363979942e-16 1.2303681343627076e-16 2.0352861920945444e-25
1.1109141095355224 4.256289544966119e-24 1.2551079487929787e-16 1.255107946384819e-16 2.4081596639505755e-25
1.1192775983109025 4.308340637847981e-24 1.2800215404819272e-16 1.280021537636214e-16 2.8457133166506614e-25
1.1277040513999907 4.3597158377808674e-24 1.3050367962272025e-16 1.305036792868704e-16 3.3584982726040666e-25
1.1361939428280308 4.410664152005404e-24 1.330227410506962e-16 1.330227406548292e-16 3.9586697170963858e-25
1.1447477501889525 4.4611690141107756e-24 1.355588602676702e-16 1.3555885980164887e-16 4.660213553776409e-25
1.1533659546722406 4.511241776339689e-24 1.3811239744192537e-16 1.3811239689400452e-16 5.479208255593347e-25
1.1707974979042381 4.610254355345485e-24 1.4327687661609817e-16 1.432768758614869e-16 7.546112950713115e-25
1.1884924949847024 4.7073307387232845e-24 1.4850483368260043e-16 1.4850483264846063e-16 1.034139826914006e-24
1.2064549276569216 4.8032336596609494e-24 1.5382051059646373e-16 1.5382050918615075e-16 1.4103129563279636e-24
1.2246888378427687 4.8969201895798785e-24 1.5919089283995055e-16 1.5919089092593105e-16 1.9140195268541595e-24
1.2431983285522175 4.9881749843287385e-24 1.6460822454290653e-16 1.6460822195770593e-16 2.585200652400463e-24
1.2619875648066055 5.076968811166723e-24 1.7007050607977018e-16 1.7007050260453177e-16 3.4752384114743196e-24
1.3004222497298317 5.245718665066474e-24 1.8107513582306277e-16 1.8107512963035885e-16 6.1927039030902156e-24
1.3400274889804893 5.402549400790511e-24 1.9216836152923497e-16 1.9216835069412017e-16 1.0835114818765576e-23
1.3808389325824078 5.5469240912907334e-24 2.033127801941744e-16 2.0331276157140616e-16 1.862276818482721e-23
1.4228933163050095 5.679584510910816e-24 2.1451533235284856e-16 2.1451530089528247e-16 3.1457566073160733e-23
1.466228494730424 5.803735472731309e-24 2.2588047794194606e-16 2.258804256912482e-16 5.225069785040309e-23
1.5108834753276823 5.9170536815104244e-24 2.3730446716303665e-16 2.3730438178698894e-16 8.537604769503171e-23
1.5568984535646726 6.017673487886948e-24 2.4869001013636363e-16 2.486898727613178e-16 1.3737504575468275e-22
1.6043148490894465 6.10583526862637e-24 2.6001842266259165e-16 2.600182045898203e-16 2.180727714255174e-22
1.6531753430134553 6.181864400040868e-24 2.712737848486751e-16 2.712734437170539e-16 3.4113162111330123e-22
1.7035239163302658 6.246686006974043e-24 2.824667575301381e-16 2.824662315430731e-16 5.2598706510470155e-22
1.755405889504358 6.305322236072916e-24 2.9380167703304208e-16 2.9380087723693244e-16 7.997961097315045e-22
1.8088679632656115 6.356632999666429e-24 3.052132885637937e-16 3.0521208881550287e-16 1.1997482908796207e-21
1.8639582606462262 6.399871038488022e-24 3.1664806528691545e-16 3.16646289128738e-16 1.7761581774950927e-21
1.9207263702978936 6.435720184868834e-24 3.2811953350258835e-16 3.281169374133995e-16 2.5960891887888653e-21
1.979223391128241 6.465664309941759e-24 3.396858066405204e-16 3.3968205886460473e-16 3.747775915719162e-21
2.039501978296691 6.491459441808043e-24 3.514276367076503e-16 3.514222910505189e-16 5.345657131437003e-21
2.1016163906111602 6.517883551270819e-24 3.636046905165136e-16 3.6359715376838376e-16 7.536748129651308e-21
2.1656225393682647 6.547745485306191e-24 3.7639512134626297e-16 3.7638461444263553e-16 1.0506903627312626e-20
2.231578038680979 6.581316990046132e-24 3.8984711173435516e-16 3.898326236294962e-16 1.4488104858973904e-20
2.299542257339062 6.620309284701337e-24 4.041002386278562e-16 4.040804720863339e-16 1.976654152240064e-20
2.369576372248914 6.668394078446106e-24 4.194318451290201e-16 4.194051534288294e-16 2.669170019063044e-20
2.4417434235010123 6.729891110346357e-24 4.3619180013858044e-16 4.361561153650544e-16 3.568477352591479e-20
2.5161083711144245 6.81214473893565e-24 4.549698760733888e-16 4.549226267854482e-16 4.7249287940696876e-20
2.5927381535095444 6.927114461193106e-24 4.767387522449958e-16 4.76676771854924e-16 6.198039007183356e-20
2.6717017477616296 7.08900456184052e-24 5.027391001197313e-16 5.026585295952485e-16 8.057052448276906e-20
2.753070231689431 7.319136754113337e-24 5.348679625553464e-16 5.34764144680856e-16 1.03817874490368e-19
2.836916847834745 7.665774066248265e-24 5.772607837261599e-16 5.77128145889712e-16 1.326378364481576e-19
2.9233170693905177 8.235090576450981e-24 6.390189477693592e-16 6.388509062112054e-16 1.680415581539068e-19
2.967498994190263 8.708003758731728e-24 6.859281420172654e-16 6.857398777996069e-16 1.882642176583385e-19
3.0123486681368425 9.25800183790497e-24 7.402730417352381e-16 7.400624007412642e-16 2.106409939738041e-19
3.0578761833420214 1.046743926359178e-23 8.496298832603641e-16 8.493944540122997e-16 2.354292480643348e-19
3.1040917844459814 1.2020759363377094e-23 9.904576045337909e-16 9.901949567663453e-16 2.6264776744542424e-19
3.127460860933648 1.3653876354039292e-23 1.1334889275274251e-15 1.133211609237949e-15 2.773182894759865e-19
3.1510058709225794 1.5826377330296503e-23 1.3237322854366175e-15 1.3234396035698955e-15 2.9268186672197146e-19
3.162844764501044 1.7845155025809775e-23 1.4981925565387086e-15 1.4978918962660707e-15 3.0066027263761093e-19
3.1747281389236908 2.0191309256757392e-23 1.7015333082731323e-15 1.7012244878890854e-15 3.0882038404697143e-19
3.1986289994194426 2.673015472584681e-23 2.2695239806801073e-15 2.2691982416628208e-15 3.257390172860901e-19
3.2227097969389145 4.213122650114972e-23 3.60408259039887e-15 3.603738847417834e-15 3.4374298103380225e-19
3.2348180950136065 5.673118486468493e-23 4.871258212951513e-15 4.870904841845999e-15 3.5337110551397404e-19
3.240889293275058 6.764579131178163e-23 5.8193490930673156e-15 5.818990642624127e-15 3.584504431879825e-19
3.2469718861334385 8.027288552048357e-23 6.9185779107809274e-15 6.9182142040326365e-15 3.637067482912299e-19
3.2714166318528037 1.476056510868473e-22 1.2817646063142595e-14 1.2817260571783282e-14 3.8549135931622793e-19
3.2744851364798273 1.5181580595387973e-22 1.3195609228008958e-14 1.3195221152228477e-14 3.880757804788129e-19
3.2775565192852394 1.5614671705341687e-22 1.3584775956590173e-14 1.3584385281813339e-14 3.9067477683322625e-19
3.283707930232385 1.5198656049847304e-22 1.3247659032572784e-14 1.3247263675682877e-14 3.9535688990471526e-19
3.2898708863219004 1.3878554852148602e-22 1.211971851501632e-14 1.2119318865414862e-14 3.99649601455504e-19
3.29141343181113 1.3567227372411377e-22 1.1853400910495592e-14 1.1853000182091916e-14 4.0072840367418326e-19
3.292184975758714 1.341424987427915e-22 1.172249493048997e-14 1.1722093661839538e-14 4.012686504304668e-19
3.295272960557952 1.2448801244847828e-22 1.0889009104830112e-14 1.088860572876051e-14 4.0337606959672106e-19
3.3076538914384823 9.103630182730347e-23 7.992894843908142e-15 7.992482986415232e-15 4.1185749290993846e-19
3.310756385682612 8.422649829345225e-23 7.4019373303505e-15 7.40152333147865e-15 4.1399887185113294e-19
3.313861789986515 7.79427920745913e-23 6.856141680965698e-15 6.855725532267627e-15 4.161486980705801e-19
3.3200813396944477 6.913191886783845e-23 6.092517262582115e-15 6.092096504131675e-15 4.2075845044026896e-19
3.345076488085796 5.342566196127335e-23 4.7437893713644665e-15 4.743348103443671e-15 4.412679207963796e-19
3.3482140837626964 5.401709086929797e-23 4.800802535653292e-15 4.800358490413339e-15 4.440452399521567e-19
3.3513546224236106 5.461503280490439e-23 4.858497872460354e-15 4.8580510354964845e-15 4.468369638696147e-19
3.3576445397418455 5.897533178058482e-23 5.256232207940936e-15 5.2557795394460805e-15 4.526684948533394e-19
3.3702598118196083 7.504838112920995e-23 6.713888790570184e-15 6.713423885343897e-15 4.64905226287747e-19
3.382922481734668 7.871699701790327e-23 7.068544510250257e-15 7.068067648019542e-15 4.76862230713519e-19
3.389271646505754 8.061739429648863e-23 7.252781072845377e-15 7.252298137162427e-15 4.829356829491703e-19
3.395632727569191 8.266601706472152e-23 7.451044499800955e-15 7.450555304216045e-15 4.891955849107608e-19
3.421196662673239 9.250401958640753e-23 8.40055689134217e-15 8.400041708685907e-15 5.151826562632236e-19
3.4276182099114902 9.05315621721451e-23 8.236863878076744e-15 8.236342827051424e-15 5.210510253200584e-19
3.4340518103208963 8.187100832848416e-23 7.462879261818633e-15 7.462352626916895e-15 5.266349017384765e-19
3.4469541582030403 6.95357281460213e-23 6.362282479318641e-15 6.361745058237705e-15 5.374210809361329e-19
3.472904465399547 6.608904229015474e-23 6.092446556115769e-15 6.091884378680762e-15 5.621774350091195e-19
3.4990501388274233 6.081244404583205e-23 5.64822588407387e-15 5.647638208191877e-15 5.87675881991623e-19
3.5253949054701885 4.200492410142813e-23 3.930767982833527e-15 3.930155277369229e-15 6.127054642967894e-19
3.5519380250092896 2.432107884573742e-23 2.2930717724203e-15 2.292433696860905e-15 6.380755593949342e-19
3.578680990867387 1.73168571255258e-23 1.6449832997836081e-15 1.6443173733182603e-15 6.659264653479307e-19
3.605625307711299 1.449220865357933e-23 1.3870260082291154e-15 1.386330610526942e-15 6.953977021732678e-19
3.660119384959845 1.2449449849214983e-23 1.2095249863619246e-15 1.208767064054626e-15 7.579223072989638e-19
3.715437065384467 1.1010087970801367e-23 1.0858507393249677e-15 1.0850260024304374e-15 8.247368945305172e-19
3.8285932144167436 1.0322742171890843e-23 1.0490682385049262e-15 1.0480966876630027e-15 9.715508419234665e-19
3.94519561050918 1.023946243798082e-23 1.0722971000950495e-15 1.0711604631169878e-15 1.1366369780615429e-18
4.06534921144712 1.0406216586876588e-23 1.122949305747854e-15 1.1216280919988292e-15 1.321213749024544e-18
4.189162171576248 1.0719360682520198e-23 1.1919704539319528e-15 1.1904433282681656e-15 1.5271256637873654e-18
4.316745939156006 1.1140333106754526e-23 1.2765096404780769e-15 1.2747542169852407e-15 1.7554234928363206e-18
4.448215356677963 1.1656321794340909e-23 1.3763115882956098e-15 1.3743064467374416e-15 2.0051415581684503e-18
4.58368876423945 1.2269120823969681e-23 1.4927875262056106e-15 1.4905089996611813e-15 2.2785265444289047e-18
4.723288106065518 1.2991400578502258e-23 1.6288078139960784e-15 1.626228508824096e-15 2.5793051719823802e-18
4.867139040275056 1.3848209733729405e-23 1.7891090741704033e-15 1.7862056128151684e-15 2.903461355234775e-18
4.940699165968905 1.4358470082688556e-23 1.8830680363959525e-15 1.8799921558031014e-15 3.075880592850674e-18
5.015371051989984 1.488629893793781e-23 1.9817973254806534e-15 1.978542142754674e-15 3.255182725978914e-18
5.091171501069577 1.5522476161863885e-23 2.097723104231503e-15 2.0942782944769948e-15 3.444809754508408e-18
5.129500256944802 1.5848707707553954e-23 2.157934929926755e-15 2.1543925821514546e-15 3.542347775301026e-18
5.168117569889187 1.618814040441008e-23 2.2207454472960685e-15 2.2171030555151576e-15 3.642391780910383e-18
5.20702561229733 1.660039968227215e-23 2.2944452100410824e-15 2.290695009640861e-15 3.750200400221925e-18
5.246226572918644 1.7022754653222813e-23 2.370534693250121e-15 2.3666744377707448e-15 3.860255479376126e-18
5.265937586045735 1.7237816121629453e-23 2.409502516060338e-15 2.405586383021463e-15 3.916133038875271e-18
5.285722656980489 1.7455520937692317e-23 2.449100569103005e-15 2.4451279877562795e-15 3.972581346725762e-18
5.305582063971359 1.7675910722408904e-23 2.489340293097712e-15 2.485310689631949e-15 4.029603465762616e-18
5.3255160863122235 1.7911983484752776e-23 2.5320647895112832e-15 2.5279772762531168e-15 4.087513258166467e-18
5.365609099470188 1.849519925821671e-23 2.6341923092013713e-15 2.6299847953786423e-15 4.2075138227292784e-18
5.406003951863644 1.9099749457745956e-23 2.740775492669717e-15 2.736445449548021e-15 4.3300431216963414e-18
5.446702915881641 1.972664858213891e-23 2.8520453627847393e-15 2.8475902307096468e-15 4.455132075092527e-18
5.487708281020852 2.040237420074385e-23 2.971947673259635e-15 2.9673644828538993e-15 4.583190405736115e-18
5.529022354014368 2.1334228548266807e-23 3.1310840230803094e-15 3.126366794503123e-15 4.7172285771862145e-18
5.570647458961463 2.231923068468717e-23 3.3003069107218037e-15 3.29545276862218e-15 4.854142099623666e-18
5.612585937458331 2.3361170317038197e-23 3.4803829508474853e-15 3.475388980288011e-15 4.9939705594744295e-18
5.654840148729818 2.4504006967102713e-23 3.6781282910059436e-15 3.672991046293741e-15 5.137244712202251e-18
5.67608639626678 2.5279202477904556e-23 3.808744137810617e-15 3.8035319877794805e-15 5.212150031135594e-18
5.686739436050992 2.5678477618027877e-23 3.876163029896722e-15 3.8709131190371336e-15 5.24991085958801e-18
5.6974124697621304 2.6085784477711116e-23 3.945036235633858e-15 3.939748357454309e-15 5.287878179550126e-18
5.718818669136295 2.6925262191057324e-23 4.08729233054493e-15 4.081927895094586e-15 5.36443545034443e-18
5.740305295436557 2.784951705214231e-23 4.2434793404535976e-15 4.238037076221596e-15 5.442264232002702e-18
5.7835210386641895 3.024196869265633e-23 4.642712729363372e-15 4.6371088272019265e-15 5.603902161446317e-18
5.827062130521658 3.2992406206144e-23 5.10308817551838e-15 5.097317912948306e-15 5.770262570073953e-18
5.8489554468988025 3.491955141651311e-23 5.4214618033810815e-15 5.415602324377115e-15 5.859479003966724e-18
5.870931020387893 3.698524924102918e-23 5.763747681216802e-15 5.7577978929454435e-15 5.949788271356061e-18
5.892989160043636 3.920059869167527e-23 6.13193828323839e-15 6.125897082379962e-15 6.041200858428731e-18
5.915130176081913 4.171816254220063e-23 6.5502656230795274e-15 6.544129767892642e-15 6.1358551868849905e-18
5.95966208400165 4.875227397979701e-23 7.712336076075816e-15 7.705988824745147e-15 6.347251330668573e-18
6.004529249263818 5.88790799376053e-23 9.384462705068983e-15 9.377879553414178e-15 6.5831516548065435e-18
6.027089341400364 6.591543980600209e-23 1.0545428134993631e-14 1.0538710859747459e-14 6.717275246170828e-18
6.049734195844842 7.422426994893643e-23 1.1919324992605514e-14 1.1912465967376431e-14 6.859025229084578e-18
6.095279466722835 9.82187439363159e-23 1.5891227006957736e-14 1.588402739478978e-14 7.199612167953394e-18
6.141167624020661 1.3512469358526583e-22 2.2026987577036447e-14 2.2019355560041854e-14 7.632016994583749e-18
6.164241091010745 1.5869915935102656e-22 2.5967113455544385e-14 2.5959214826260406e-14 7.898629283990436e-18
6.187401249150058 1.8553552886438709e-22 3.047226947331167e-14 3.0464095585569347e-14 8.173887742332451e-18
6.1990139391386085 1.9864199183698864e-22 3.268610017018732e-14 3.267778588729549e-14 8.314282891832103e-18
6.204828454712694 2.0554429594950643e-22 3.385358307092548e-14 3.38451977194123e-14 8.385351513184528e-18
6.210648424152782 2.105860399201226e-22 3.4716501705435584e-14 3.4708054603648855e-14 8.447101786723654e-18
6.233982942956859 2.277174583979205e-22 3.768177661153831e-14 3.767310903823079e-14 8.667573307528074e-18
6.239830258556775 2.2990948056323656e-22 3.80801884606807e-14 3.807148645114655e-14 8.702009534140211e-18
6.245683058788269 2.3010416045332137e-22 3.814818201099829e-14 3.813944544903395e-14 8.736561964340822e-18
6.257405133728602 2.2964417456635695e-22 3.814337698652457e-14 3.8134577664370564e-14 8.799322154033454e-18
6.269149208991335 2.2628920669116386e-22 3.765666712867653e-14 3.7647833825168905e-14 8.83330350762181e-18
6.280915325867298 2.1785980404728856e-22 3.632197710763505e-14 3.631314559299014e-14 8.831514644914778e-18
6.304513850009849 1.9706487631391647e-22 3.297845163175697e-14 3.2969656209563294e-14 8.79542219366987e-18
6.32820103803542 1.7128678987761795e-22 2.877223315387098e-14 2.876350840862089e-14 8.724745250103185e-18
6.3519772230701035 1.4764576144175959e-22 2.4894267337902135e-14 2.488560225328314e-14 8.665084618994949e-18
6.375842739491607 1.2774899634804567e-22 2.162043992049714e-14 2.1611823359323046e-14 8.616561174088712e-18
6.399797922933955 1.1181408772882507e-22 1.8994690388096563e-14 1.8986080330274196e-14 8.610057822360125e-18
6.42384311029221 9.855992194314804e-23 1.6806013556689212e-14 1.6797401577938665e-14 8.611978750550253e-18
6.447978639727206 8.8909304115435e-23 1.521739221198907e-14 1.5208745046503547e-14 8.647165485525637e-18
6.472204850670314 8.086798586444814e-23 1.3893072887242774e-14 1.3884383601006987e-14 8.689286235785791e-18
6.496522083828205 7.564997330044532e-23 1.3045452001760115e-14 1.3036693175543817e-14 8.758826216297605e-18
6.520930681187647 7.125494147501406e-23 1.2333717713899878e-14 1.232488459816963e-14 8.83311573024649e-18
6.57002334288761 6.677542591168718e-23 1.1645362512501041e-14 1.1636341003215418e-14 9.02150928561782e-18
