Dust emission spectrum from A.P. Jones, M. Kohler, N. Ysard, M. Bocchio, and L. Verstraete (2017), A&A, 602A, 46J 
inside the DustPedia framework.

lambda    nu*dP/dnu     j_nu    j_nu(carb.) j_nu(sil)
 (um)   (erg s-1 H-1) (Jy cm2 sr-1 H-1)
0.9927057738263894 2.5619439603114296e-20 6.750867850932531e-13 6.750867462988318e-13 3.8794421178192476e-20
1.0001793341362166 2.6049421793701174e-20 6.915847335152492e-13 6.915846868376482e-13 4.667760110636072e-20
1.0077091589558085 2.648122454091916e-20 7.083415259323829e-13 7.083414698448851e-13 5.608749771428999e-20
1.0114953028030835 2.6697790965692895e-20 7.168175533545777e-13 7.168174919039343e-13 6.145064336619664e-20
1.0152956718711033 2.691479169717181e-20 7.253589781068637e-13 7.253589108028264e-13 6.730403741558905e-20
1.0229392996569957 2.73498580451881e-20 7.426332215578931e-13 7.426331409014456e-13 8.065644758857325e-20
1.0267826658714554 2.756743046494051e-20 7.513533881549449e-13 7.513532999007426e-13 8.825420246180833e-20
1.0306404723013447 2.778540110497665e-20 7.601394922211749e-13 7.601393956858761e-13 9.6535298887544e-20
1.03451277320114 2.800376419007241e-20 7.689917884795429e-13 7.689916829214854e-13 1.0555805733616536e-19
1.0383996230291617 2.822251416034325e-20 7.779105375338877e-13 7.779104221484001e-13 1.1538548760381463e-19
1.0403485208654093 2.833203255013273e-20 7.82394914966997e-13 7.823947943449833e-13 1.2062201361675723e-19
1.0423010764483396 2.844164567650531e-20 7.868960061158443e-13 7.868958800302033e-13 1.2608564088049613e-19
1.0462171883269815 2.866115362510065e-20 7.95948467335197e-13 7.959483296032109e-13 1.377319862092215e-19
1.0471985131304309 2.871608885250599e-20 7.98222082872478e-13 7.982219420719052e-13 1.4080057285458357e-19
1.048180758391296 2.877104722663174e-20 8.004999073371066e-13 8.004997634025867e-13 1.4393451987979877e-19
1.0501480137395462 2.888103312368384e-20 8.050682009336194e-13 8.050680505298065e-13 1.504038128693824e-19
1.0521189612883777 2.8991110742891076e-20 8.096533841708528e-13 8.096532270200965e-13 1.5715075627944464e-19
1.0531058218030118 2.904611137289947e-20 8.119502969235615e-13 8.119501362914623e-13 1.6063209945932588e-19
1.0540936079674168 2.9100897536962456e-20 8.142448054671786e-13 8.142446412792521e-13 1.641879263330702e-19
1.058054026499678 2.9320258559993606e-20 8.234648638265457e-13 8.234646846478881e-13 1.7917865737791608e-19
1.0590464539527713 2.9375152587827096e-20 8.257804076500673e-13 8.257802245240974e-13 1.831259701287338e-19
1.06003981227728 2.9430068000092286e-20 8.281001725466718e-13 8.280999853903241e-13 1.8715634800625726e-19
1.0620293250338977 2.953996273707506e-20 8.327523845613201e-13 8.327521890883506e-13 1.9547296952185137e-19
1.0660195594769086 2.9760006231269e-20 8.421076722276227e-13 8.421074590494724e-13 2.1317815026545205e-19
1.070024785945596 2.9980385464328713e-20 8.515310393860869e-13 8.515308069763057e-13 2.324097812368897e-19
1.0740450607676866 3.020109712156626e-20 8.610228068752175e-13 8.61022553582883e-13 2.5329233470812755e-19
1.07808044048254 3.042213815666188e-20 8.705833040877105e-13 8.705830281279009e-13 2.75959809505152e-19
1.0861967418109137 3.086486142482593e-20 8.899021586032609e-13 8.899018313659642e-13 3.27237296914526e-19
1.0902777775684922 3.108577479586324e-20 8.996390321499222e-13 8.996386759805684e-13 3.561693537785989e-19
1.0943741465085532 3.130699503814436e-20 9.094454242290088e-13 9.094450366971659e-13 3.8753184293470105e-19
1.1026131145906286 3.175035014966353e-20 9.292682647746654e-13 9.292678064413502e-13 4.5833331504752635e-19
1.1109141095355224 3.2194917791596397e-20 9.49373786817663e-13 9.493732454564925e-13 5.413611706656342e-19
1.1192775983109025 3.264034847012546e-20 9.697550087744739e-13 9.697543701776405e-13 6.385968330561584e-19
1.1277040513999907 3.308505550307279e-20 9.903676396190734e-13 9.9036688729868e-13 7.5232039352327595e-19
1.1361939428280308 3.353092693648905e-20 1.0112707876509688e-12 1.0112699024989132e-12 8.85152055600839e-19
1.1447477501889525 3.3977974655493075e-20 1.032468284419061e-12 1.032467244320341e-12 1.0400987197299882e-18
1.1533659546722406 3.442637101122117e-20 1.0539689228190315e-12 1.0539677022109163e-12 1.220608115125111e-18
1.1707974979042381 3.5328574622772516e-20 1.097936781162755e-12 1.097935106485828e-12 1.674676927556949e-18
1.1884924949847024 3.623644507183059e-20 1.1431716926906212e-12 1.1431694065730762e-12 2.2861175449975297e-18
1.2064549276569216 3.7156097927977514e-20 1.1899004629013085e-12 1.1898973575516165e-12 3.105349692028573e-18
1.2246888378427687 3.8081783997252e-20 1.2379767202170368e-12 1.237972522787326e-12 4.197429710725572e-18
1.2431983285522175 3.9012838524838884e-20 1.2874115491393543e-12 1.2874059031381717e-12 5.6460011829241e-18
1.2619875648066055 3.9950723200477374e-20 1.3382866757057333e-12 1.338279117646613e-12 7.558059119980547e-18
1.3004222497298317 4.184174815919683e-20 1.4443207336787175e-12 1.444307380773911e-12 1.335290480610434e-17
1.3400274889804893 4.3761296789250076e-20 1.5565867294344887e-12 1.5565635721593639e-12 2.3157275124931976e-17
1.3808389325824078 4.571716471338228e-20 1.6756825418012702e-12 1.6756431005741077e-12 3.944122716249821e-17
1.4228933163050095 4.7726227037469327e-20 1.8025979603300955e-12 1.8025319547615458e-12 6.60055685501391e-17
1.466228494730424 4.9823219050756195e-20 1.93911190209618e-12 1.9390033106164257e-12 1.085914797541628e-16
1.5108834753276823 5.2005153761785116e-20 2.0856757378651926e-12 2.085500031400988e-12 1.7570646420450137e-16
1.5568984535646726 5.427129895182113e-20 2.242848488474783e-12 2.242568579629105e-12 2.7990884567810356e-16
1.6043148490894465 5.663540118200523e-20 2.4118318025833425e-12 2.411391959306263e-12 4.39843277079156e-16
1.6531753430134553 5.911199522067512e-20 2.593964156406168e-12 2.5932832100216403e-12 6.80946384527794e-16
1.7035239163302658 6.171785549980896e-20 2.7907985938914636e-12 2.7897597211460975e-12 1.0388727453663255e-15
1.755405889504358 6.449955595578426e-20 3.005409874103191e-12 3.003847220822036e-12 1.5626532811536145e-15
1.8088679632656115 6.745805432774462e-20 3.238993757004129e-12 3.2366754747148886e-12 2.3182822892406846e-15
1.8639582606462262 7.059302664934966e-20 3.4927493346092797e-12 3.489355858681882e-12 3.3934759273978626e-15
1.9207263702978936 7.39139740230017e-20 3.768438959290153e-12 3.7635359829627314e-12 4.9029763274222555e-15
1.979223391128241 7.743483206532174e-20 4.068184200614489e-12 4.0611893693476415e-12 6.994831266847855e-15
2.039501978296691 8.116776531117715e-20 4.394173020081803e-12 4.384315907862543e-12 9.857112219260622e-15
2.1016163906111602 8.514903595657082e-20 4.750098497959803e-12 4.736372177679329e-12 1.372632028047421e-14
2.1656225393682647 8.939666063301289e-20 5.1389393497997394e-12 5.120044764883685e-12 1.889458491605411e-14
2.231578038680979 9.390210003720419e-20 5.562330843607935e-12 5.536613156251155e-12 2.571768735677922e-14
2.299542257339062 9.867000931032863e-20 6.0227660964204296e-12 5.988142847254422e-12 3.462324916600902e-14
2.369576372248914 1.0371389627914477e-19 6.523446330577127e-12 6.47732706558152e-12 4.611926499560801e-14
2.4417434235010123 1.0905008590084936e-19 7.0679826009711284e-12 7.007182681863492e-12 6.079991910763587e-14
2.5161083711144245 1.1471304805396005e-19 7.66146100196711e-12 7.582107452398959e-12 7.935354956815013e-14
2.5927381535095444 1.2076010263017589e-19 8.310967138107869e-12 8.208400804264952e-12 1.0256633384291591e-13
2.6717017477616296 1.2723911851696462e-19 9.023563094821673e-12 8.892244461661118e-12 1.313186331605558e-13
2.753070231689431 1.342199160779595e-19 9.808524619603811e-12 9.641940829850563e-12 1.6658378975324976e-13
2.836916847834745 1.4189565222539977e-19 1.0685260836425507e-11 1.047583030487473e-11 2.0943053155078027e-13
2.9233170693905177 1.5068770591529566e-19 1.1692925339659015e-11 1.1431965747351043e-11 2.6095959230797383e-13
2.967498994190263 1.5588662578107373e-19 1.227916598912056e-11 1.198941145819829e-11 2.8975453092226946e-13
3.0123486681368425 1.6142508213549563e-19 1.2907605621284459e-11 1.2586293436623205e-11 3.2131218466125465e-13
3.0578761833420214 1.6984697102789087e-19 1.378628129885475e-11 1.3430324079338581e-11 3.5595721951617023e-13
3.1040917844459814 1.7953467494639497e-19 1.479286613289314e-11 1.4399315978195591e-11 3.9355015469754846e-13
3.127460860933648 1.8798198754632572e-19 1.5605495167335638e-11 1.5191859649818767e-11 4.1363551751686973e-13
3.1510058709225794 1.9853205505168953e-19 1.6605397778739662e-11 1.6170857247638473e-11 4.345405311011864e-13
3.162844764501044 2.0780299422127914e-19 1.744613026440488e-11 1.7000783275554146e-11 4.4534698885072873e-13
3.1747281389236908 2.182354924569251e-19 1.839083116111324e-11 1.7934466361225663e-11 4.56364799887578e-13
3.1986289994194426 2.462032102507891e-19 2.0903885350289186e-11 2.0424783435666526e-11 4.791019146226618e-13
3.2227097969389145 3.0999149410475285e-19 2.6517978227958432e-11 2.6014814834859323e-11 5.031633930991066e-13
3.2348180950136065 3.694856783025076e-19 3.1726115879512694e-11 3.1210119778419956e-11 5.159961010927257e-13
3.240889293275058 4.1383698284324724e-19 3.5601059934191737e-11 3.507829485787774e-11 5.22765076314002e-13
3.2469718861334385 4.652093355866022e-19 4.00955691602395e-11 3.956580021659474e-11 5.297689436447648e-13
3.2714166318528037 7.341481436286677e-19 6.375129267516195e-11 6.319260601595414e-11 5.586866592078053e-13
3.2744851364798273 7.509883363772637e-19 6.527481482815701e-11 6.471272758258113e-11 5.620872455758702e-13
3.2775565192852394 7.682734927623911e-19 6.683985081155251e-11 6.627434664804533e-11 5.655041635071789e-13
3.283707930232385 7.519013069819811e-19 6.553824304184576e-11 6.496664312411617e-11 5.71599917729593e-13
3.2898708863219004 6.995195986604556e-19 6.108691230333246e-11 6.050977850678917e-11 5.771337965432971e-13
3.29141343181113 6.871409390708268e-19 6.003405713818512e-11 5.945553409970087e-11 5.785230384842402e-13
3.292184975758714 6.810546547947449e-19 5.951625929919557e-11 5.893704077318104e-11 5.79218526014529e-13
3.295272960557952 6.430982156434208e-19 5.6252021280678786e-11 5.5670100009380893e-11 5.819212712978824e-13
3.3076538914384823 5.105952346230668e-19 4.482974303904303e-11 4.423697299019507e-11 5.927700488479595e-13
3.310756385682612 4.8334415809987875e-19 4.247693112898243e-11 4.188142794096405e-11 5.955031880183695e-13
3.313861789986515 4.580904113283123e-19 4.029535867477111e-11 3.9697113962149557e-11 5.982447126215612e-13
3.3200813396944477 4.228937344733356e-19 3.7269143106560696e-11 3.666499528901188e-11 6.041478175488105e-13
3.345076488085796 3.619997100246289e-19 3.214280017899706e-11 3.151232856229771e-11 6.304716166993574e-13
3.3482140837626964 3.646250147180946e-19 3.240627488542123e-11 3.1772236550752486e-11 6.340383346687523e-13
3.3513546224236106 3.6727302781827805e-19 3.26722356945456e-11 3.2034615303636076e-11 6.376203909095212e-13
3.3576445397418455 3.8528123294706207e-19 3.433855418170332e-11 3.3693442109410526e-11 6.451120722927883e-13
3.3702598118196083 4.50082265945902e-19 4.0264723032013406e-11 3.9603898022068053e-11 6.608250099453567e-13
3.382922481734668 4.659206266183421e-19 4.183824094237742e-11 4.116216577663738e-11 6.760751657400454e-13
3.389271646505754 4.740761713717539e-19 4.2650481485009005e-11 4.196668093919237e-11 6.838005458166311e-13
3.395632727569191 4.830451938820454e-19 4.3538945782427056e-11 4.2847183748175625e-11 6.917620342514381e-13
3.421196662673239 5.264122556896024e-19 4.7805015630586237e-11 4.708032100221728e-11 7.246946283689656e-13
3.4276182099114902 5.189853344136989e-19 4.7219018999752307e-11 4.648699959755417e-11 7.32019402198137e-13
3.4340518103208963 4.845096707378156e-19 4.4165049969731645e-11 4.342611461266801e-11 7.389353570636353e-13
3.4469541582030403 4.351230267026477e-19 3.981227611976555e-11 3.906009078685339e-11 7.521853329121521e-13
3.472904465399547 4.221595321964885e-19 3.891695656248128e-11 3.813421189729414e-11 7.827446651871427e-13
3.4990501388274233 4.021678839701091e-19 3.735312874896487e-11 3.6539166566957573e-11 8.139621820073011e-13
3.5253949054701885 3.2916500767483255e-19 3.0802847545042775e-11 2.9958645099751376e-11 8.44202445291409e-13
3.5519380250092896 2.5969858447843537e-19 2.4485241677894532e-11 2.361071535825153e-11 8.74526319642997e-13
3.578680990867387 2.3329668227334244e-19 2.216159337994874e-11 2.125384010035209e-11 9.077532795966543e-13
3.605625307711299 2.2384722560583223e-19 2.1424058347968652e-11 2.0481353235088086e-11 9.427051128805678e-13
3.660119384959845 2.194675469254451e-19 2.1322346362046066e-11 2.030640490473388e-11 1.0159414573121844e-12
3.715437065384467 2.1729819312378473e-19 2.1430655620844e-11 2.0337792325199262e-11 1.0928632956447381e-12
3.8285932144167436 2.218194783935898e-19 2.2542824918954636e-11 2.1285631356349004e-11 1.2571935626056358e-12
3.94519561050918 2.285959693249732e-19 2.393902965954166e-11 2.2504130259652042e-11 1.4348993998896079e-12
4.06534921144712 2.3615974663524366e-19 2.5484326730627275e-11 2.3858909166030134e-11 1.6254175645971411e-12
4.189162171576248 2.4405202044501526e-19 2.713807345499842e-11 2.5309328279103842e-11 1.828745175894574e-12
4.316745939156006 2.520496644524936e-19 2.8880987980314096e-11 2.6837279978923934e-11 2.043708001390164e-12
4.448215356677963 2.600152539501078e-19 3.070110910277885e-11 2.843426517163888e-11 2.2668439311399693e-12
4.58368876423945 2.6789505325669624e-19 3.259486963829513e-11 3.0096823174951995e-11 2.4980464633431307e-12
4.723288106065518 2.756831324258591e-19 3.4564005441045594e-11 3.1825595415504084e-11 2.7384100255415087e-12
4.867139040275056 2.833489755630013e-19 3.660705846344304e-11 3.362627719363464e-11 2.9807812698084074e-12
4.940699165968905 2.872446806309842e-19 3.7671233328202105e-11 3.456784286933112e-11 3.103390458870976e-12
5.015371051989984 2.9100754524812964e-19 3.874152852040777e-11 3.5515030789322324e-11 3.226497731085441e-12
5.091171501069577 2.950160898928526e-19 3.98687723166691e-11 3.651587125647036e-11 3.3529010601987393e-12
5.129500256944802 2.969630103901202e-19 4.043401297076137e-11 3.701789681980848e-11 3.4161161509529056e-12
5.168117569889187 2.989071483747417e-19 4.100512303047618e-11 3.7525100841118076e-11 3.4800221893581142e-12
5.20702561229733 3.011250506485464e-19 4.162037922627703e-11 3.8070154557582226e-11 3.5502246686948053e-12
5.246226572918644 3.033116890757245e-19 4.223822151405868e-11 3.8617616450823184e-11 3.6206050632354935e-12
5.265937586045735 3.043932117600947e-19 4.254809335663719e-11 3.889224287905124e-11 3.655850477585957e-12
5.285722656980489 3.0546683834861227e-19 4.285858957243965e-11 3.9167463058152756e-11 3.69112651428689e-12
5.305582063971359 3.065325494945054e-19 4.316970359186388e-11 3.944327509246716e-11 3.726428499396727e-12
5.3255160863122235 3.0764410004611266e-19 4.348903035170479e-11 3.972696289233467e-11 3.762067459370122e-12
5.365609099470188 3.102589373085628e-19 4.4188856530222013e-11 4.035301928552941e-11 3.835837244692598e-12
5.406003951863644 3.128626663679044e-19 4.489516108310512e-11 4.0985396257654234e-11 3.9097648254508975e-12
5.446702915881641 3.1545657520936173e-19 4.5608176104501965e-11 4.1624363434668334e-11 3.983812669833636e-12
5.487708281020852 3.181429093315921e-19 4.634284568300898e-11 4.2284547966897243e-11 4.058297716111751e-12
5.529022354014368 3.217172463746481e-19 4.7216318499357556e-11 4.3080379531184545e-11 4.135938968173002e-12
5.570647458961463 3.253486802591802e-19 4.810875934851427e-11 4.3895035337451467e-11 4.213724011062818e-12
5.612585937458331 3.2904464168828516e-19 4.9021574923598245e-11 4.472996025048802e-11 4.291614673110226e-12
5.654840148729818 3.32963585501885e-19 4.997887836684951e-11 4.560887329959407e-11 4.370005067255449e-12
5.67608639626678 3.3561876159799737e-19 5.056670565034341e-11 4.6155611314751825e-11 4.411094335591582e-12
5.686739436050992 3.3696731072009506e-19 5.08651740000335e-11 4.6433519296745756e-11 4.4316547032877496e-12
5.6974124697621304 3.38330372982687e-19 5.116677944543586e-11 4.67145546942631e-11 4.45222475117277e-12
5.718818669136295 3.411017178082672e-19 5.1779716210023786e-11 4.728632475827944e-11 4.493391451744357e-12
5.740305295436557 3.4412285927146504e-19 5.2434598458645514e-11 4.789966830466627e-11 4.534930153979239e-12
5.7835210386641895 3.519174134700175e-19 5.402596212589269e-11 4.9405227584199524e-11 4.620734541693179e-12
5.827062130521658 3.606192822008717e-19 5.5778653529080564e-11 5.107109649286867e-11 4.707557036211913e-12
5.8489554468988025 3.667916617169735e-19 5.6946521450928e-11 5.219184309795643e-11 4.754678352971563e-12
5.870931020387893 3.732885818407956e-19 5.817295387110182e-11 5.33710490017998e-11 4.801904869302025e-12
5.892989160043636 3.801362679931888e-19 5.946266670283822e-11 5.461343505604633e-11 4.849231646791898e-12
5.915130176081913 3.878685380240707e-19 6.090014027638826e-11 5.600177298828204e-11 4.898367288106232e-12
5.95966208400165 4.096134833915401e-19 6.479855373549922e-11 5.978686765425519e-11 5.011686081244026e-12
6.004529249263818 4.406345610732384e-19 7.023069330122465e-11 6.509072279068063e-11 5.139970510544033e-12
6.027089341400364 4.621682760119194e-19 7.393961650414115e-11 6.872484731039152e-11 5.214769193749633e-12
6.049734195844842 4.87313586449093e-19 7.825538754634973e-11 7.296123946705234e-11 5.294148079297392e-12
6.095279466722835 5.597492277919447e-19 9.056420077595967e-11 8.507264926745393e-11 5.491551508505725e-12
6.141167624020661 6.698727779655248e-19 1.091975046672775e-10 1.0344691629956644e-10 5.7505883677110814e-12
6.164241091010745 7.399627668494816e-19 1.2107623756946347e-10 1.1516171072082135e-10 5.914526848642094e-12
6.187401249150058 8.185097488271444e-19 1.3443166268722614e-10 1.2834906258109527e-10 6.082600106130837e-12
6.1990139391386085 8.565969701832447e-19 1.4095113582965443e-10 1.3478306396542908e-10 6.168071864225346e-12
6.204828454712694 8.765515287318149e-19 1.4436990263723476e-10 1.3815868830706998e-10 6.211214330164794e-12
6.210648424152782 8.90935845180699e-19 1.4687666760997814e-10 1.406289962496287e-10 6.24767136034937e-12
6.233982942956859 9.389097515609997e-19 1.553670402156553e-10 1.489935335728599e-10 6.373506642795427e-12
6.239830258556775 9.44524989797439e-19 1.5644282927869995e-10 1.5005282113916834e-10 6.39000813953159e-12
6.245683058788269 9.44226191178982e-19 1.565400318259545e-10 1.5013350579381874e-10 6.406526032135791e-12
6.257405133728602 9.410919745159889e-19 1.5631324430824468e-10 1.4987836693658898e-10 6.43487737165568e-12
6.269149208991335 9.293650691278942e-19 1.5465514931488385e-10 1.4821256891558095e-10 6.442580399302856e-12
6.280915325867298 9.026781670611541e-19 1.504961223247977e-10 1.4407133503494303e-10 6.424787289854747e-12
6.304513850009849 8.379973159243592e-19 1.402373394370432e-10 1.3387114953258547e-10 6.366189904457718e-12
6.32820103803542 7.595699916979396e-19 1.2759025324388255e-10 1.2130713764481243e-10 6.283115599070121e-12
6.3519772230701035 6.88144224489704e-19 1.1602667170528612e-10 1.0981878102820916e-10 6.207890677076938e-12
6.375842739491607 6.278429177491285e-19 1.0625711724358547e-10 1.0011636945767226e-10 6.140747785913178e-12
6.399797922933955 5.801046378041769e-19 9.854668773502516e-11 9.244414539776e-11 6.102542337265144e-12
6.42384311029221 5.40195412966904e-19 9.211179609922837e-11 8.604166186501225e-11 6.070134234216123e-12
6.447978639727206 5.112174070125704e-19 8.74981068123758e-11 8.143789389601655e-11 6.0602129163592485e-12
6.472204850670314 4.869309468627905e-19 8.365445316219946e-11 7.759971989275963e-11 6.054733269439816e-12
6.496522083828205 4.7104255964381e-19 8.122888660138334e-11 7.516148355139836e-11 6.067403049984986e-12
6.520930681187647 4.575493214445861e-19 7.919849562802331e-11 7.311573951923695e-11 6.08275610878637e-12
6.57002334288761 4.430445783379357e-19 7.726517133364197e-11 7.112682165583056e-11 6.1383496778114066e-12
6.619489833774732 4.399251361991642e-19 7.729879605209521e-11 7.108498155381345e-11 6.213814498281774e-12
