Dust emission spectrum from A.P. Jones, M. Kohler, N. Ysard, M. Bocchio, and L. Verstraete (2017), A&A, 602A, 46J 
inside the DustPedia framework.

lambda    nu*dP/dnu     j_nu    j_nu(carb.) j_nu(sil)
 (um)   (erg s-1 H-1) (Jy cm2 sr-1 H-1)
0.9927057738263894 3.789885737081197e-22 9.986564178421406e-15 9.986563201678747e-15 9.767426594702365e-22
1.0001793341362166 3.8536578496693594e-22 1.023105602162336e-14 1.023105484610334e-14 1.1755200183859804e-21
1.0077091589558085 3.9176713786202405e-22 1.0479308908639926e-14 1.047930749576937e-14 1.4128705545828865e-21
1.0114953028030835 3.94976554996478e-22 1.0604852219751699e-14 1.0604850671571005e-14 1.5481806942993455e-21
1.0152956718711033 3.9819163759264447e-22 1.0731343663538347e-14 1.0731341967654127e-14 1.6958842197019835e-21
1.0229392996569957 4.046351987470535e-22 1.0987096924040947e-14 1.0987094891137932e-14 2.0329030157945223e-21
1.0267826658714554 4.078563489169187e-22 1.1116170222283127e-14 1.1116167997562674e-14 2.2247204529955582e-21
1.0306404723013447 4.1108254530411436e-22 1.1246196377294306e-14 1.1246193943468187e-14 2.4338261207898817e-21
1.03451277320114 4.1431368099130366e-22 1.1377178309835696e-14 1.137717564813643e-14 2.661699264748906e-21
1.0383996230291617 4.175496521104443e-22 1.150911901310117e-14 1.1509116103162737e-14 2.9099384362774857e-21
1.0403485208654093 4.1916941935209534e-22 1.1575449859816416e-14 1.1575446817586761e-14 3.0422296522556837e-21
1.0423010764483396 4.2079035792432535e-22 1.1642021556306568e-14 1.1642018376036085e-14 3.1802704832272027e-21
1.0462171883269815 4.24035700907837e-22 1.1775889088337898e-14 1.1775885613777729e-14 3.4745601662291634e-21
1.0471985131304309 4.24847750095142e-22 1.1809507127745074e-14 1.1809503575636624e-14 3.552108450667493e-21
1.048180758391296 4.256600817598505e-22 1.1843185731886077e-14 1.1843182100573992e-14 3.6313120854040616e-21
1.0501480137395462 4.272855868289442e-22 1.1910724841458399e-14 1.1910721046637956e-14 3.7948204403087464e-21
1.0521189612883777 4.289122048638892e-22 1.197850683473327e-14 1.1978502869371465e-14 3.965361808392844e-21
1.0531058218030118 4.297248447602001e-22 1.2012458770092708e-14 1.2012454716727605e-14 4.053365101536625e-21
1.0540936079674168 4.305342106195128e-22 1.2046372251150912e-14 1.204636810789572e-14 4.143255187477996e-21
1.058054026499678 4.337742446297926e-22 1.2182629582022783e-14 1.2182625059763087e-14 4.522259697510569e-21
1.0590464539527713 4.345848893048012e-22 1.2216845035126478e-14 1.2216840413057104e-14 4.622069368016976e-21
1.06003981227728 4.353957859100555e-22 1.2251121045220833e-14 1.2251116321236739e-14 4.723984093883983e-21
1.0620293250338977 4.370183299483347e-22 1.2319854957187275e-14 1.2319850022889063e-14 4.934298210479564e-21
1.0660195594769086 4.402663874068461e-22 1.2458051916322959e-14 1.245804653422593e-14 5.382097024317667e-21
1.070024785945596 4.435183415672183e-22 1.259722410276833e-14 1.259721823417443e-14 5.868593899183533e-21
1.0740450607676866 4.467741207997378e-22 1.27373752675859e-14 1.2737368870632572e-14 6.396953326974217e-21
1.07808044048254 4.500336573608154e-22 1.2878509273683653e-14 1.2878502303100843e-14 6.970582814268021e-21
1.0861967418109137 4.56558737185029e-22 1.3163597275163451e-14 1.3163589006560161e-14 8.268603290761182e-21
1.0902777775684922 4.5981276420436015e-22 1.3307228559541638e-14 1.3307219558352878e-14 9.001188758292061e-21
1.0943741465085532 4.630701205345929e-22 1.345185003237292e-14 1.3451840236903349e-14 9.795469571100814e-21
1.1026131145906286 4.69594640683666e-22 1.3744081398743796e-14 1.3744069809633843e-14 1.1589109952471977e-20
1.1109141095355224 4.76131980924703e-22 1.4040328497855958e-14 1.4040314804536639e-14 1.3693319322446317e-20
1.1192775983109025 4.826767475654128e-22 1.434047782911835e-14 1.4340461670528205e-14 1.6158590146975936e-20
1.1277040513999907 4.892051015885279e-22 1.464385942181182e-14 1.464384037875624e-14 1.9043055582564933e-20
1.1361939428280308 4.957450023573837e-22 1.4951344469467154e-14 1.495132205591425e-14 2.2413552899780133e-20
1.1447477501889525 5.022964434949739e-22 1.5262979990516026e-14 1.526295364369283e-14 2.634682319748855e-20
1.1533659546722406 5.088618742176761e-22 1.5578888673977987e-14 1.5578857743074382e-14 3.0930903604027385e-20
1.1707974979042381 5.220548545377259e-22 1.622435189366717e-14 1.622430942409837e-14 4.246956880227091e-20
1.1884924949847024 5.353055564759217e-22 1.68875881144033e-14 1.6887530093801372e-14 5.802060192341996e-20
1.2064549276569216 5.487045376205436e-22 1.757191469826316e-14 1.7571835823678716e-14 7.887458444244095e-20
1.2246888378427687 5.621640438237296e-22 1.8275036674938002e-14 1.8274929976385395e-14 1.0669855260632708e-19
1.2431983285522175 5.75673536633691e-22 1.8997047833990476e-14 1.8996904195786107e-14 1.4363820436417133e-19
1.2619875648066055 5.892531382996027e-22 1.9739057529619968e-14 1.9738865088341405e-14 1.9244127855664165e-19
1.3004222497298317 6.165414685292306e-22 2.128218024690165e-14 2.128183968509623e-14 3.4056180542309675e-19
1.3400274889804893 6.441210100800835e-22 2.29113460981095e-14 2.2910754457898137e-14 5.9164021136363665e-19
1.3808389325824078 6.721088581186081e-22 2.463497215542911e-14 2.4633962699502426e-14 1.009455926680414e-18
1.4228933163050095 7.007657092612451e-22 2.6467603173237852e-14 2.646591078471662e-14 1.692388521227033e-18
1.466228494730424 7.306290501025257e-22 2.8435968491472464e-14 2.8433179077149676e-14 2.7894143227882954e-18
1.5108834753276823 7.616827976311491e-22 3.054742109302131e-14 3.054289922822663e-14 4.5218647946760986e-18
1.5568984535646726 7.939611087110462e-22 3.281171644999992e-14 3.280449920041258e-14 7.217249587338011e-18
1.6043148490894465 8.277343750093546e-22 3.5249261911705325e-14 3.5237899079828056e-14 1.1362831877259022e-17
1.6531753430134553 8.633062685975602e-22 3.788377483085828e-14 3.786614908098398e-14 1.762574987429251e-17
1.7035239163302658 9.010436534199227e-22 4.0743984712931756e-14 4.0717041077599646e-14 2.6943635332124362e-17
1.755405889504358 9.41789856653183e-22 4.388347318942854e-14 4.384286358473919e-14 4.0609604689361415e-17
1.8088679632656115 9.85741235393461e-22 4.733029642314776e-14 4.7269926860199286e-14 6.03695629484776e-17
1.8639582606462262 1.0331187113717921e-21 5.111588017949739e-14 5.102732877758899e-14 8.855140190840388e-17
1.9207263702978936 1.0843324372830663e-21 5.5283735660159935e-14 5.515552530432992e-14 1.2821035583000242e-16
1.979223391128241 1.1399066499701785e-21 5.988713476736334e-14 5.970383280530874e-14 1.8330196205461308e-16
2.039501978296691 1.2003917536045368e-21 6.498551533352842e-14 6.472664608222366e-14 2.5886925130476464e-16
2.1016163906111602 1.2667488841319169e-21 7.066647207698585e-14 7.030519488702062e-14 3.612771899652076e-16
2.1656225393682647 1.3397230863713628e-21 7.701356669967727e-14 7.651514761072323e-14 4.984190889540281e-16
2.231578038680979 1.4197163665460075e-21 8.409750294918927e-14 8.341755470451484e-14 6.79948244674449e-16
2.299542257339062 1.5073713074195408e-21 9.200916132976405e-14 9.109164316619047e-14 9.175181635735684e-16
2.369576372248914 1.6035160714015552e-21 1.0085872199663335e-13 9.963368548858431e-14 1.2250365080490722e-15
2.4417434235010123 1.709057374892504e-21 1.1077100664354012e-13 1.091521550794175e-13 1.6188515641226238e-15
2.5161083711144245 1.8252194949664664e-21 1.2190285427807483e-13 1.1978485387770464e-13 2.118000400370147e-15
2.5927381535095444 1.9536068646482332e-21 1.3445138004392706e-13 1.317070314952515e-13 2.7443485486755226e-15
2.6717017477616296 2.0957202034778356e-21 1.4862460307482724e-13 1.451020678540268e-13 3.5225352208004504e-15
2.753070231689431 2.2534159080335967e-21 1.6467515446304122e-13 1.601951656891994e-13 4.479988773841821e-15
2.836916847834745 2.43052267371011e-21 1.830272339577012e-13 1.7738019487512715e-13 5.647039082574006e-15
2.9233170693905177 2.634517087475837e-21 2.0443082216161062e-13 1.9737550340892577e-13 7.055318752684793e-15
2.967498994190263 2.7524877705662543e-21 2.1681304633069355e-13 2.089678745541077e-13 7.845171776585893e-15
3.0123486681368425 2.8785621543261018e-21 2.3017082942048095e-13 2.2145878279624525e-13 8.7120466242357e-15
3.0578761833420214 3.0542645048736164e-21 2.479111012134597e-13 2.3824613157758953e-13 9.66496963587023e-15
3.1040917844459814 3.2535364297469725e-21 2.6807706577076734e-13 2.5737618549027946e-13 1.0700880280487843e-14
3.127460860933648 3.412849867017013e-21 2.833208266480905e-13 2.720657213154807e-13 1.1255105332609759e-14
3.1510058709225794 3.607404077064461e-21 3.0172648760778966e-13 2.898939924296644e-13 1.1832495178125247e-14
3.162844764501044 3.769905325990717e-21 3.1650294380105174e-13 3.043717677133487e-13 1.2131176087703177e-14
3.1747281389236908 3.951887916397821e-21 3.3302788020358814e-13 3.205920343063263e-13 1.2435845897261777e-14
3.1986289994194426 4.4333050068465046e-21 3.7640979372926484e-13 3.633447611189962e-13 1.3065032610268693e-14
3.2227097969389145 5.50177871697091e-21 4.70645327392042e-13 4.569139026289846e-13 1.3731424763057362e-14
3.2348180950136065 6.488707368005388e-21 5.571568641343727e-13 5.430698944074548e-13 1.408696972691792e-14
3.240889293275058 7.221389890040095e-21 6.212328644896963e-13 6.069583536624929e-13 1.4274510827203342e-14
3.2469718861334385 8.068907452690914e-21 6.954448504542392e-13 6.809762899840919e-13 1.446856047014731e-14
3.2714166318528037 1.2506330827078324e-20 1.086013448060617e-12 1.0707432334881528e-12 1.5270214572464072e-14
3.2744851364798273 1.2786220522195383e-20 1.11135970628312e-12 1.095995088717011e-12 1.5364617566109174e-14
3.2775565192852394 1.3073498637570028e-20 1.137395350421742e-12 1.1219358644949149e-12 1.545948592682707e-14
3.283707930232385 1.2812732783760332e-20 1.1168008186910003e-12 1.1011718181528025e-12 1.5629000538197546e-14
3.2898708863219004 1.1961476114834367e-20 1.0445592144159023e-12 1.02877607545362e-12 1.5783138962282512e-14
3.29141343181113 1.1760434631544421e-20 1.0274844133064457e-12 1.0116625727171255e-12 1.5821840589320375e-14
3.292184975758714 1.1661606310073146e-20 1.0190888207123725e-12 1.0032476042292374e-12 1.5841216483135107e-14
3.295272960557952 1.1042424542836378e-20 9.658846584614625e-13 9.499680978422339e-13 1.591656061922853e-14
3.3076538914384823 8.884046730818731e-21 7.800102803220752e-13 7.637911666793903e-13 1.6219113642684754e-14
3.310756385682612 8.441163042590278e-21 7.418206989780704e-13 7.255253378627795e-13 1.6295361115290708e-14
3.313861789986515 8.03114854191952e-21 7.064500872843546e-13 6.900782346463658e-13 1.6371852637988763e-14
3.3200813396944477 7.4617744911146e-21 6.575976862948027e-13 6.410612481970776e-13 1.6536438097725063e-14
3.345076488085796 6.4923114705112005e-21 5.764675067895894e-13 5.591974535624153e-13 1.7270053227174108e-14
3.3482140837626964 6.539151789698367e-21 5.811711809687407e-13 5.638017418171538e-13 1.7369439151586924e-14
3.3513546224236106 6.586387937034083e-21 5.859183842951944e-13 5.684491185466035e-13 1.7469265748591036e-14
3.3576445397418455 6.889537268896139e-21 6.140365233604831e-13 5.963585211674707e-13 1.7678002193012254e-14
3.3702598118196083 7.969724207433044e-21 7.129779645492513e-13 6.948621420067435e-13 1.811582254250778e-14
3.382922481734668 8.24532020391048e-21 7.404044243373677e-13 7.218632242519751e-13 1.8541200085392626e-14
3.389271646505754 8.387161797710347e-21 7.545548807693842e-13 7.35798106999552e-13 1.875677376983235e-14
3.395632727569191 8.542268005414247e-21 7.699514419296999e-13 7.509725063985606e-13 1.89789355311391e-14
3.421196662673239 9.285765284016408e-21 8.432671347342406e-13 8.233687464712665e-13 1.9898388262974137e-14
3.4276182099114902 9.171289861160593e-21 8.344345812692522e-13 8.143311944748358e-13 2.010338679441656e-14
3.4340518103208963 8.612039772687661e-21 7.850228589304827e-13 7.647256729848287e-13 2.0297185945653726e-14
3.4469541582030403 7.81558640291042e-21 7.150995576319875e-13 6.944305893915218e-13 2.0668968240465578e-14
3.472904465399547 7.635060173050352e-21 7.038412790552238e-13 6.823156055808556e-13 2.1525673474368127e-14
3.4990501388274233 7.33861354845155e-21 6.816063331764763e-13 6.592044185670222e-13 2.2401914609454104e-14
3.5253949054701885 6.166497561219259e-21 5.770530883791688e-13 5.538006068692883e-13 2.3252481509880454e-14
3.5519380250092896 5.053264153858294e-21 4.764384616033045e-13 4.52331650385502e-13 2.4106811217802484e-14
3.578680990867387 4.6506886058729125e-21 4.4178369283176507e-13 4.1674059533684704e-13 2.5043097494918026e-14
3.605625307711299 4.528084545163358e-21 4.333756973648519e-13 4.0734687448473235e-13 2.60288228801195e-14
3.660119384959845 4.523957334170245e-21 4.3952459740694717e-13 4.1142651196375957e-13 2.8098085443187644e-14
3.715437065384467 4.558709294475984e-21 4.495947599058155e-13 4.1931773698257806e-13 3.0277022923237597e-14
3.8285932144167436 4.780979072574806e-21 4.858760599148289e-13 4.5092475640716334e-13 3.495130350766575e-14
3.94519561050918 5.049051514487304e-21 5.28746829241056e-13 4.887118018748435e-13 4.003502736621246e-14
4.06534921144712 5.338022489169232e-21 5.760334313854801e-13 5.305146562019919e-13 4.5518775183488085e-14
4.189162171576248 5.6395262303263846e-21 6.271035036338447e-13 5.756945144784932e-13 5.140898915535143e-14
4.316745939156006 5.9488823459984815e-21 6.816497847925822e-13 6.239705390000312e-13 5.767924579255107e-14
4.448215356677963 6.262504017053062e-21 7.394405372887438e-13 6.752032194692197e-13 6.42373178195242e-14
4.58368876423945 6.578517056232497e-21 8.004100981130733e-13 7.293234847261535e-13 7.108661338691973e-14
4.723288106065518 6.895898151636946e-21 8.645790518147727e-13 7.863136068310245e-13 7.826544498374829e-14
4.867139040275056 7.212442305191482e-21 9.31806076255425e-13 8.462311919998666e-13 8.557488425555853e-14
4.940699165968905 7.372077471702911e-21 9.668246943339437e-13 8.775249663719162e-13 8.929972796202742e-14
5.015371051989984 7.529310229200515e-21 1.0023691541566466e-12 9.09310271602805e-13 9.305888255384131e-14
5.091171501069577 7.691005783914557e-21 1.0393702885711777e-12 9.424355413444451e-13 9.693474722673226e-14
5.129500256944802 7.77071702013494e-21 1.0580485171250326e-12 9.591674027453934e-13 9.888111437963921e-14
5.168117569889187 7.850334169164456e-21 1.0769361662551032e-12 9.760835655191321e-13 1.00852600735971e-13
5.20702561229733 7.935243792798256e-21 1.096779743823743e-12 9.937705439848365e-13 1.0300919983890631e-13
5.246226572918644 8.019483437254504e-21 1.1167677674516322e-12 1.0115908959624075e-12 1.0517687148922446e-13
5.265937586045735 8.061343872887483e-21 1.1268149171273262e-12 1.020550363160029e-12 1.0626455396729728e-13
5.285722656980489 8.103027176800256e-21 1.1368969474469446e-12 1.0295423116217032e-12 1.0735463582524131e-13
5.305582063971359 8.144530281873694e-21 1.1470134533616612e-12 1.0385664613423866e-12 1.084469920192744e-13
5.3255160863122235 8.186848526369193e-21 1.1573051587685671e-12 1.0477545872236852e-12 1.0955057154488192e-13
5.365609099470188 8.27865257667172e-21 1.1790931605308608e-12 1.0672590458379322e-12 1.118341146929281e-13
5.406003951863644 8.370097503711069e-21 1.2010920960077653e-12 1.0869634372728065e-12 1.1412865873495903e-13
5.446702915881641 8.461185333882843e-21 1.2233038113231434e-12 1.106870608434728e-12 1.1643320288841556e-13
5.487708281020852 8.553789314542515e-21 1.2460027446208153e-12 1.1272457085390725e-12 1.1875703608174277e-13
5.529022354014368 8.662643967607723e-21 1.27135912429386e-12 1.1501797925196887e-12 1.2117933177417105e-13
5.570647458961463 8.77233569462434e-21 1.2971504495449883e-12 1.1735376464050716e-12 1.2361280313991694e-13
5.612585937458331 8.882978600061974e-21 1.3233997634891784e-12 1.1973433328941183e-12 1.2605643059506006e-13
5.654840148729818 8.997496847885926e-21 1.3505524932667354e-12 1.222030652536028e-12 1.2852184073070715e-13
5.67608639626678 9.067587035677217e-21 1.3661870463045526e-12 1.2363743128710434e-12 1.298127334335092e-13
5.686739436050992 9.102990880562578e-21 1.3740953508844949e-12 1.2436359986089507e-12 1.304593522755447e-13
5.6974124697621304 9.138643233389507e-21 1.3820661107990246e-12 1.2509593795102938e-12 1.3110673128873127e-13
5.718818669136295 9.210722649988322e-21 1.3982005366906843e-12 1.2657968317067631e-12 1.3240370498392075e-13
5.740305295436557 9.28736477409425e-21 1.4151319203251251e-12 1.281418263960288e-12 1.33713656364837e-13
5.7835210386641895 9.472965061006255e-21 1.4542788507094769e-12 1.3178582287244572e-12 1.3642062198501933e-13
5.827062130521658 9.674985004549113e-21 1.4964747119850222e-12 1.3573087993095727e-12 1.391659126754497e-13
5.8489554468988025 9.809898047412896e-21 1.523043263779199e-12 1.3823914313484112e-12 1.406518324307881e-13
5.870931020387893 9.950620810418154e-21 1.5506957178780212e-12 1.4085526027554664e-12 1.421431151225548e-13
5.892989160043636 1.0097623895002885e-20 1.5795168593856197e-12 1.4358772247493307e-12 1.436396346362883e-13
5.915130176081913 1.0260980067891853e-20 1.6111003194310579e-12 1.465908316094025e-12 1.4519200333703234e-13
5.95966208400165 1.0704714499429732e-20 1.693425743633129e-12 1.54467548097662e-12 1.4875026265650892e-13
6.004529249263818 1.1320412216627921e-20 1.8043078520508693e-12 1.6515417477490134e-12 1.5276610430185568e-13
6.027089341400364 1.1740372172940819e-20 1.8782739126403098e-12 1.7231769553403744e-12 1.550969572999355e-13
6.049734195844842 1.2226803395287978e-20 1.9634446170961392e-12 1.8058764231458522e-12 1.575681939502872e-13
6.095279466722835 1.361148807870016e-20 2.2022603659172452e-12 2.0385819070924197e-12 1.6367845882482557e-13
6.141167624020661 1.5694672702666223e-20 2.5584247517951684e-12 2.386771466644144e-12 1.7165328515102396e-13
6.164241091010745 1.7017775474961114e-20 2.7845295988106163e-12 2.6078496250521057e-12 1.7667997375851054e-13
6.187401249150058 1.849394898303678e-20 3.037437629795914e-12 2.8555999767738206e-12 1.8183765302209383e-13
6.1990139391386085 1.9210649803797694e-20 3.1610699128339943e-12 2.9766086321563593e-12 1.8446128067763553e-13
6.204828454712694 1.958554765114443e-20 3.2257813885551388e-12 3.0399953625245247e-12 1.8578602603061354e-13
6.210648424152782 1.985758937706773e-20 3.27365496656997e-12 3.086745074491247e-12 1.8690989207872342e-13
6.233982942956859 2.0767872439547043e-20 3.4365846846773045e-12 3.245776876517275e-12 1.908078081600295e-13
6.239830258556775 2.087664648524569e-20 3.4578244909152507e-12 3.266491160998791e-12 1.9133332991646018e-13
6.245683058788269 2.0876293840426897e-20 3.461009377539016e-12 3.2691498378716828e-12 1.9185953966733419e-13
6.257405133728602 2.0828388485494655e-20 3.4595481271154355e-12 3.2667765337584003e-12 1.927715933570361e-13
6.269149208991335 2.0620803564317936e-20 3.431497008194109e-12 3.238433740508669e-12 1.930632676854397e-13
6.280915325867298 2.01354747985031e-20 3.357022457083655e-12 3.1644341008089495e-12 1.9258835627470495e-13
6.304513850009849 1.8953184853038916e-20 3.1717813018491344e-12 2.9808355793710973e-12 1.909457224780375e-13
6.32820103803542 1.751703846513296e-20 2.942458757293753e-12 2.7538927270135713e-12 1.8856603028018137e-13
6.3519772230701035 1.6210165821230546e-20 2.7331648237299227e-12 2.5467432105899575e-12 1.8642161313996499e-13
6.375842739491607 1.5104920349197394e-20 2.5563803415251875e-12 2.3718614231603935e-12 1.845189183647943e-13
6.399797922933955 1.423790020241016e-20 2.4186979620787003e-12 2.235209039516722e-12 1.83488922561979e-13
6.42384311029221 1.351274237481641e-20 2.304134652929291e-12 2.121501493256676e-12 1.8263315967261448e-13
6.447978639727206 1.2992875301489943e-20 2.22381314746916e-12 2.0413563017485507e-12 1.8245684572060946e-13
6.472204850670314 1.2558372525876946e-20 2.157521088006464e-12 1.9751061126159493e-12 1.824149753905147e-13
6.496522083828205 1.228173101300729e-20 2.11792186353319e-12 1.9349992162019157e-12 1.8292264733127435e-13
