Dust emission spectrum from A.P. Jones, M. Kohler, N. Ysard, M. Bocchio, and L. Verstraete (2017), A&A, 602A, 46J 
inside the DustPedia framework.

lambda    nu*dP/dnu     j_nu    j_nu(carb.) j_nu(sil)
 (um)   (erg s-1 H-1) (Jy cm2 sr-1 H-1)
0.9927057738263894 1.7337098619181762e-22 4.568423958908667e-15 4.5684239589077916e-15 8.770960302110687e-28
1.0001793341362166 1.762352530411882e-22 4.678860493554369e-15 4.678860493553314e-15 1.0567795195204237e-27
1.0077091589558085 1.790954353392575e-22 4.790591679765681e-15 4.790591679764409e-15 1.2716528499820157e-27
1.0114953028030835 1.80523642528629e-22 4.8469371839158e-15 4.846937183914407e-15 1.3942881880456014e-27
1.0152956718711033 1.8195040699106697e-22 4.903599580710729e-15 4.9035995807092005e-15 1.5282607774914458e-27
1.0229392996569957 1.8479765044870405e-22 5.0178276707068984e-15 5.0178276707050635e-15 1.8343190517302022e-27
1.0267826658714554 1.8621467640817734e-22 5.0753017486123084e-15 5.075301748610298e-15 2.0087205000859634e-27
1.0306404723013447 1.876296331231318e-22 5.133080264308915e-15 5.133080264306717e-15 2.1989967152814435e-27
1.03451277320114 1.8904238404558733e-22 5.191160731784355e-15 5.191160731781948e-15 2.40652280575279e-27
1.0383996230291617 1.9045279338485721e-22 5.249540633946229e-15 5.249540633943596e-15 2.6327864660038386e-27
1.0403485208654093 1.9115707773969978e-22 5.278842078091266e-15 5.27884207808851e-15 2.7534426887883243e-27
1.0423010764483396 1.9186072613358615e-22 5.308217423217519e-15 5.30821742321464e-15 2.879396618241857e-27
1.0462171883269815 1.9326604809321371e-22 5.36718852213276e-15 5.367188522129611e-15 3.1480926693513143e-27
1.0471985131304309 1.936169549999588e-22 5.381976977899161e-15 5.381976977895942e-15 3.2189346599363636e-27
1.048180758391296 1.9396768831735566e-22 5.3967836242231135e-15 5.396783624219822e-15 3.291304576295732e-27
1.0501480137395462 1.9466862589886092e-22 5.4264513239346885e-15 5.4264513239312475e-15 3.440754423272243e-27
1.0521189612883777 1.953688443013711e-22 5.456191290943938e-15 5.456191290940341e-15 3.596700863412339e-27
1.0531058218030118 1.9571814104517852e-22 5.471073242638226e-15 5.4710732426345495e-15 3.6771990608912534e-27
1.0540936079674168 1.9606549042837057e-22 5.4859238245109906e-15 5.485923824507232e-15 3.759440523709664e-27
1.058054026499678 1.9745291446692617e-22 5.545501482907025e-15 5.545501482902918e-15 4.10639004816318e-27
1.0590464539527713 1.9779926695586925e-22 5.5604395181044566e-15 5.560439518100258e-15 4.197808420209544e-27
1.06003981227728 1.9814541399061116e-22 5.575394916329867e-15 5.575394916325576e-15 4.2911757286090236e-27
1.0620293250338977 1.9883708363553008e-22 5.605357630627183e-15 5.605357630622697e-15 4.483916161656032e-27
1.0660195594769086 2.002178690053155e-22 5.665489526318953e-15 5.665489526314057e-15 4.894576652537384e-27
1.070024785945596 2.0159514262173557e-22 5.7258944030630606e-15 5.725894403057719e-15 5.341130975504496e-27
1.0740450607676866 2.0296877752560462e-22 5.786569468972468e-15 5.786569468966645e-15 5.826555108166985e-27
1.07808044048254 2.0433864777356194e-22 5.847511907790316e-15 5.847511907783962e-15 6.354057418631738e-27
1.0861967418109137 2.0706417486259532e-22 5.970117722006453e-15 5.9701177219989046e-15 7.549395825858053e-27
1.0902777775684922 2.0841407998697198e-22 6.0316155037849436e-15 6.031615503776719e-15 8.224971544370042e-27
1.0943741465085532 2.0975963097285698e-22 6.093364640835145e-15 6.093364640826188e-15 8.958139742653119e-27
1.1026131145906286 2.124371921607696e-22 6.217605160330258e-15 6.217605160319641e-15 1.0616199597587563e-26
1.1109141095355224 2.150959132485419e-22 6.342815440984737e-15 6.34281544097217e-15 1.2565144291416196e-26
1.1192775983109025 2.177323993706858e-22 6.468897997687186e-15 6.468897997672333e-15 1.485302100273721e-26
1.1277040513999907 2.2033440429332693e-22 6.595487315612643e-15 6.595487315595107e-15 1.7535290730786343e-26
1.1361939428280308 2.2291449643828493e-22 6.722955163719295e-15 6.72295516369862e-15 2.0675877094227122e-26
1.1447477501889525 2.254718152309784e-22 6.851276470027774e-15 6.851276470003425e-15 2.4348369063649678e-26
1.1533659546722406 2.280069137832848e-22 6.980468584305076e-15 6.980468584276439e-15 2.8637409339580616e-26
1.1707974979042381 2.330186369308708e-22 7.241722455960642e-15 7.241722455921173e-15 3.946845544611766e-26
1.1884924949847024 2.379306811096667e-22 7.506134195228036e-15 7.506134195173906e-15 5.41285110081845e-26
1.2064549276569216 2.427814543708782e-22 7.774922046435827e-15 7.774922046361954e-15 7.38738922645129e-26
1.2246888378427687 2.4751797675613465e-22 8.046405942574222e-15 8.046405942473883e-15 1.0033645666806866e-25
1.2431983285522175 2.5212916426416914e-22 8.320184078425376e-15 8.320184078289749e-15 1.356286848654953e-25
1.2619875648066055 2.5661328864207944e-22 8.596143385825385e-15 8.596143385642914e-15 1.8247124761855556e-25
1.3004222497298317 2.651257982584601e-22 9.151785102306899e-15 9.1517851019812e-15 3.256997882335028e-25
1.3400274889804893 2.7302216221877864e-22 9.711382105469454e-15 9.711382104898597e-15 5.708559729533258e-25
1.3808389325824078 2.802730654912886e-22 1.0272917966922852e-14 1.0272917965939927e-14 9.829263284689303e-25
1.4228933163050095 2.8691375214997877e-22 1.08366023572357e-14 1.0836602355572235e-14 1.663462733454623e-24
1.466228494730424 2.9310397394199436e-22 1.1407560877260972e-14 1.1407560874492633e-14 2.7683364746406726e-24
1.5108834753276823 2.987233670234591e-22 1.1980352597131547e-14 1.1980352592599135e-14 4.5324139656707215e-24
1.5568984535646726 3.0367452931419633e-22 1.2549837063330165e-14 1.2549837056022229e-14 7.307936189538498e-24
1.6043148490894465 3.0796645901883925e-22 1.3114823670157286e-14 1.3114823658531969e-14 1.162531054423713e-23
1.6531753430134553 3.11612157812395e-22 1.3674225764976693e-14 1.3674225746751603e-14 1.8225091953443787e-23
1.7035239163302658 3.146548889785652e-22 1.422827177987694e-14 1.4228271751712724e-14 2.816421241073252e-23
1.755405889504358 3.1734483884429007e-22 1.478694384829767e-14 1.4786943805372882e-14 4.292478489335308e-23
1.8088679632656115 3.1962018408956263e-22 1.5346540768117294e-14 1.5346540703572922e-14 6.454436998065786e-23
1.8639582606462262 3.2143903716849495e-22 1.590392190951698e-14 1.590392181372614e-14 9.579084154255733e-23
1.9207263702978936 3.2283170853279474e-22 1.645929073371966e-14 1.6459290593350112e-14 1.4036954532295732e-22
1.979223391128241 3.238688025288669e-22 1.701505524553107e-14 1.7015055042353002e-14 2.0317806522958228e-22
2.039501978296691 3.246348268904048e-22 1.7574730463896463e-14 1.7574730173296318e-14 2.9060014140130233e-22
2.1016163906111602 3.253665474933686e-22 1.8150800313498456e-14 1.815079990261875e-14 4.1087970623374844e-22
2.1656225393682647 3.2620124465113886e-22 1.875157752226312e-14 1.8751576947764344e-14 5.744987748150282e-22
2.231578038680979 3.271487295224234e-22 1.93787941691267e-14 1.9378793374504175e-14 7.946225289217069e-22
2.299542257339062 3.2829120062903836e-22 2.0038724296489523e-14 2.003872320888703e-14 1.0876024941205818e-21
2.369576372248914 3.2981044312349303e-22 2.0744575241771152e-14 2.0744573768218064e-14 1.473553088378066e-21
2.4417434235010123 3.3192112640418045e-22 2.151316733902007e-14 2.1513165362107526e-14 1.9769125495524904e-21
2.5161083711144245 3.349909044012651e-22 2.237338989437989e-14 2.237338726722669e-14 2.6271531962985923e-21
2.5927381535095444 3.3962143576563435e-22 2.337346963582229e-14 2.337346617637078e-14 3.459451512035866e-21
2.6717017477616296 3.465310772312497e-22 2.457534346479925e-14 2.4575338949607604e-14 4.515191652346767e-21
2.753070231689431 3.568013984509773e-22 2.607433682928797e-14 2.6074330986616977e-14 5.8426709961176185e-21
2.836916847834745 3.7288268220003185e-22 2.807942779222158e-14 2.807942029419147e-14 7.498030116262536e-21
2.9233170693905177 4.00171319639464e-22 3.1052124227356194e-14 3.1052114682878316e-14 9.544477880161415e-21
2.967498994190263 4.2334593211234634e-22 3.334689518860314e-14 3.334688446798809e-14 1.0720615043783866e-20
3.0123486681368425 4.504114634545758e-22 3.601505702005687e-14 3.601504499384785e-14 1.2026209026191533e-20
3.0578761833420214 5.109702308331985e-22 4.14748599576171e-14 4.147484648049775e-14 1.3477119349227075e-20
3.1040917844459814 5.890069158170949e-22 4.853157452526695e-14 4.8531559448843496e-14 1.5076423451207282e-20
3.127460860933648 6.715582816815207e-22 5.575001975539032e-14 5.575000381440726e-14 1.594098305452049e-20
3.1510058709225794 7.815462415545848e-22 6.536922322248633e-14 6.53692063741899e-14 1.6848296424015554e-20
3.162844764501044 8.839275973025675e-22 7.42102685509037e-14 7.421025123056254e-14 1.7320341152577715e-20
3.1747281389236908 1.0029885772233204e-21 8.452242745931929e-14 8.452240965565228e-14 1.7803666970037957e-20
3.1986289994194426 1.3350832313830762e-21 1.1335525143436258e-13 1.1335523262679277e-13 1.8807569837052236e-20
3.2227097969389145 2.1179090015742232e-21 1.8117485757065264e-13 1.8117483769137227e-13 1.987928037234833e-20
3.2348180950136065 2.860272014828978e-21 2.4559902242028396e-13 2.4559900196624816e-13 2.0454035803725126e-20
3.240889293275058 3.415284508533953e-21 2.9380590310046973e-13 2.9380588234259283e-13 2.0757876900897846e-20
3.2469718861334385 4.0573482768828405e-21 3.496956660119521e-13 3.496956449392045e-13 2.1072747600302004e-20
3.2714166318528037 7.482228282380547e-21 6.497349741085557e-13 6.497349517272883e-13 2.238126726747984e-20
3.2744851364798273 7.696328539598834e-21 6.689536920139355e-13 6.689536694773708e-13 2.253656470926354e-20
3.2775565192852394 7.916578348669035e-21 6.88742903077949e-13 6.88742880385147e-13 2.2692802018366632e-20
3.283707930232385 7.704768105100282e-21 6.715734631183779e-13 6.715734401449846e-13 2.2973393164179284e-20
3.2898708863219004 7.033050850718306e-21 6.141748728204636e-13 6.141748495905697e-13 2.322989368250996e-20
3.29141343181113 6.874643198755876e-21 6.006231023825021e-13 6.006230790881287e-13 2.3294373305795628e-20
3.292184975758714 6.796807295470418e-21 5.939619420497099e-13 5.939619187230432e-13 2.3326666437966454e-20
3.295272960557952 6.3054989501703534e-21 5.515441537579225e-13 5.515441303055066e-13 2.3452415813086166e-20
3.3076538914384823 4.603456961242429e-21 4.041788459231125e-13 4.041788219644471e-13 2.3958665367854792e-20
3.310756385682612 4.2570482107547745e-21 3.741150909361406e-13 3.7411506684958254e-13 2.40865581252393e-20
3.313861789986515 3.9374323043124546e-21 3.463513818153017e-13 3.463513576003158e-13 2.4214985930623982e-20
3.3200813396944477 3.489206728475101e-21 3.0749981447197884e-13 3.0749978998092653e-13 2.4491052313593498e-20
3.345076488085796 2.689615111994331e-21 2.3881721092362967e-13 2.388171851994176e-13 2.5724212107387526e-20
3.3482140837626964 2.71959882527887e-21 2.417060364829713e-13 2.4170601059117765e-13 2.5891793708681256e-20
3.3513546224236106 2.749914041381863e-21 2.446295613742243e-13 2.446295353139216e-13 2.6060302692304105e-20
3.3576445397418455 2.9714643496382285e-21 2.6483456977275587e-13 2.64834543359743e-13 2.6413012922035662e-20
3.3702598118196083 3.788636148623096e-21 3.389344498450392e-13 3.389344226900944e-13 2.715494483142214e-20
3.382922481734668 3.974755048640801e-21 3.569207927516516e-13 3.5692076487245486e-13 2.7879196736573536e-20
3.389271646505754 4.071177566653305e-21 3.662653681291443e-13 3.662653398816559e-13 2.8247488496388156e-20
3.395632727569191 4.175077357213423e-21 3.7631772139635965e-13 3.763176927689728e-13 2.862738685791348e-20
3.421196662673239 4.673964006294183e-21 4.244561557271968e-13 4.244561255196934e-13 3.020750341487111e-20
3.4276182099114902 4.5734270906721736e-21 4.1610567075540666e-13 4.1610564019094095e-13 3.056446583576755e-20
3.4340518103208963 4.1328758040037535e-21 3.7672863397043105e-13 3.7672860306655796e-13 3.0903873112879344e-20
3.4469541582030403 3.505450590770232e-21 3.2073679920256555e-13 3.2073676764310865e-13 3.155945705924419e-20
3.472904465399547 3.3296122370538532e-21 3.0694172443563446e-13 3.0694169136351625e-13 3.30721182402757e-20
3.4990501388274233 3.0606738642781707e-21 2.8427368138494006e-13 2.8427364675089024e-13 3.463404975749615e-20
3.5253949054701885 2.1035700423105063e-21 1.968494396513093e-13 1.9684940348362535e-13 3.6167683904620317e-20
3.5519380250092896 1.2040044715246185e-21 1.1351752465556441e-13 1.1351748693010687e-13 3.7725457538425523e-20
3.578680990867387 8.473195835891924e-22 8.04895804406252e-14 8.048954099664778e-14 3.9443977423761807e-20
3.605625307711299 7.030455145618651e-22 6.728735674291333e-14 6.728731547316302e-14 4.1269750296637794e-20
3.660119384959845 5.977912398479461e-22 5.80783448250091e-14 5.807829966065933e-14 4.516434975866894e-20
3.715437065384467 5.23253080636108e-22 5.1604923227641585e-14 5.16048738731118e-14 4.935452976507449e-20
3.8285932144167436 4.854202164719119e-22 4.933174954379297e-14 4.933169087398311e-14 5.866980986101067e-20
3.94519561050918 4.781760889525065e-22 5.0075561742055336e-14 5.007549242395978e-14 6.931809555225626e-20
4.06534921144712 4.835255695699e-22 5.2177916741095625e-14 5.21778352987833e-14 8.144231233144388e-20
4.189162171576248 4.962021173685324e-22 5.517663605127517e-14 5.5176540812220505e-14 9.523905466650047e-20
4.316745939156006 5.142543900083737e-22 5.892558868871233e-14 5.892547781278966e-14 1.1087592266347356e-19
4.448215356677963 5.370410884087125e-22 6.341072993769315e-14 6.34106015222025e-14 1.2841549068327214e-19
4.58368876423945 5.64664630791933e-22 6.870291110744522e-14 6.870276296125095e-14 1.481461942833634e-19
4.723288106065518 5.977787639853692e-22 7.4947017139282e-14 7.494684665410368e-14 1.7048517831342181e-19
4.867139040275056 6.376701170226514e-22 8.238331269014421e-14 8.238311729128252e-14 1.9539886167868836e-19
4.940699165968905 6.617445212560447e-22 8.67857055146694e-14 8.678549651024044e-14 2.0900442895931566e-19
5.015371051989984 6.867177608641396e-22 9.142201345777518e-14 9.142179003778357e-14 2.2341999160945958e-19
5.091171501069577 7.171541929977418e-22 9.69169418758005e-14 9.691670295293208e-14 2.389228684460121e-19
5.129500256944802 7.327934637208917e-22 9.977599694337372e-14 9.977574992544392e-14 2.4701792982687744e-19
5.168117569889187 7.491037613075675e-22 1.027646614074919e-13 1.0276440601297729e-13 2.553945146328112e-19
5.20702561229733 7.690740040292929e-22 1.062985348838662e-13 1.0629827048309461e-13 2.644007715825827e-19
5.246226572918644 7.895649750333514e-22 1.0995230819104645e-13 1.0995203450333512e-13 2.736877112927765e-19
5.265937586045735 8.000109980173625e-22 1.1182556415484973e-13 1.1182528571570949e-13 2.784391402077706e-19
5.285722656980489 8.1059361034175665e-22 1.1373050850132403e-13 1.1373022523730063e-13 2.832640233770168e-19
5.305582063971359 8.2131504332695435e-22 1.1566773915015836e-13 1.1566745098666071e-13 2.881634976616354e-19
5.3255160863122235 8.3282572427779075e-22 1.1772949065289582e-13 1.1772919749126741e-13 2.931616283896797e-19
5.365609099470188 8.614229231755048e-22 1.2268879115701233e-13 1.2268848758572855e-13 3.035712838019879e-19
5.406003951863644 8.911167222644994e-22 1.2787345084781745e-13 1.2787313653250288e-13 3.1431531459713743e-19
5.446702915881641 9.219599938283968e-22 1.3329541072942962e-13 1.3329508532478932e-13 3.2540464028467575e-19
5.487708281020852 9.552779311086615e-22 1.3915223771217546e-13 1.391519008287193e-13 3.368834560946729e-19
5.529022354014368 1.0014433510809791e-21 1.469752360389143e-13 1.4697488701288907e-13 3.4902602527324117e-19
5.570647458961463 1.050329650043817e-21 1.5531046977142746e-13 1.5531010819537076e-13 3.615760567470289e-19
5.612585937458331 1.1021319473833075e-21 1.6419730635068292e-13 1.641969318028547e-13 3.745478282723548e-19
5.654840148729818 1.1590532327942598e-21 1.739775250654252e-13 1.7397713706049719e-13 3.8800492800883347e-19
5.67608639626678 1.1977355624448111e-21 1.8045934424142952e-13 1.804589491240247e-13 3.9511740482328674e-19
5.686739436050992 1.217673084425079e-21 1.8380760193646142e-13 1.8380720321593638e-13 3.98720525079118e-19
5.6974124697621304 1.238020831629165e-21 1.8722983184269435e-13 1.8722942948740312e-13 4.0235529122535924e-19
5.718818669136295 1.2799864208674964e-21 1.943037228046369e-13 1.943033130836831e-13 4.0972095377173505e-19
5.740305295436557 1.326224522889972e-21 2.0207913670997069e-13 2.020787194389453e-13 4.172710253601409e-19
5.7835210386641895 1.4460301874824006e-21 2.2199291410874612e-13 2.2199248089598337e-13 4.332127627402642e-19
5.827062130521658 1.5839883574593752e-21 2.4500281084695237e-13 2.45002360960358e-13 4.498865943958081e-19
5.8489554468988025 1.6806578296610411e-21 2.60931823532873e-13 2.609313645127064e-13 4.590201665978577e-19
5.870931020387893 1.7843806261682928e-21 2.780762576307433e-13 2.780757892829385e-13 4.683478048236084e-19
5.892989160043636 1.8957239392085337e-21 2.96537874044074e-13 2.9653739616979534e-13 4.778742787536196e-19
5.915130176081913 2.022317973359213e-21 3.175288433768096e-13 3.1752835553852337e-13 4.878382862805409e-19
5.95966208400165 2.3760373530988403e-21 3.758757715384044e-13 3.75875260995636e-13 5.105427683447329e-19
6.004529249263818 2.8856054902496806e-21 4.599232381600936e-13 4.599227013385075e-13 5.368215860799399e-19
6.027089341400364 3.239698637322383e-21 5.183005568872664e-13 5.183000046068233e-13 5.522804432092452e-19
6.049734195844842 3.658083442625399e-21 5.874343450291643e-13 5.874337760828933e-13 5.689462710174501e-19
6.095279466722835 4.866339479482376e-21 7.873456965761686e-13 7.873450859550659e-13 6.106211026631945e-19
6.141167624020661 6.725449446816849e-21 1.096331007193306e-12 1.0963303409683516e-12 6.662249544031251e-19
6.164241091010745 7.912638909344212e-21 1.2947037220104033e-12 1.294703020665787e-12 7.013446163472287e-19
6.187401249150058 9.264940688024321e-21 1.5216695747049335e-12 1.5216688359585508e-12 7.387463827887341e-19
6.1990139391386085 9.925276914289146e-21 1.6331823520151267e-12 1.6331815940961188e-12 7.57919008047018e-19
6.204828454712694 1.0273108805127573e-20 1.6920028878664547e-12 1.6920021201166236e-12 7.677498317103517e-19
6.210648424152782 1.0527075917887812e-20 1.7354581015684892e-12 1.7354573254105266e-12 7.76157961950094e-19
6.233982942956859 1.1390032059527038e-20 1.8847770684115314e-12 1.88477626214789e-12 8.062636421837722e-19
6.239830258556775 1.1500429900077934e-20 1.9048302701608692e-12 1.904829459325472e-12 8.108353968830045e-19
6.245683058788269 1.1510158503781526e-20 1.908229823887826e-12 1.9082290084532104e-12 8.154346156296251e-19
6.257405133728602 1.1486811693008444e-20 1.907933391330312e-12 1.9079325676091253e-12 8.237211869793114e-19
6.269149208991335 1.1317563524077185e-20 1.8833497565594113e-12 1.883348928802539e-12 8.277568725708772e-19
6.280915325867298 1.0892608495205273e-20 1.8160352164798574e-12 1.816034389978616e-12 8.265012414211753e-19
6.304513850009849 9.844462453780076e-21 1.647453036509008e-12 1.6474522173916247e-12 8.191173834180007e-19
6.32820103803542 8.545109631238313e-21 1.4353814839488916e-12 1.4353806778723322e-12 8.060765594716935e-19
6.3519772230701035 7.353545097556554e-21 1.239867069344235e-12 1.239866275022109e-12 7.94322125617094e-19
6.375842739491607 6.351140425066611e-21 1.074876937684012e-12 1.0748761532694356e-12 7.844145765895759e-19
6.399797922933955 5.547931525349196e-21 9.42468375487193e-13 9.42467595466631e-13 7.800205623513535e-19
6.42384311029221 4.880209603831222e-21 8.321523307291366e-13 8.321515536960379e-13 7.77033098584478e-19
6.447978639727206 4.3938389751021525e-21 7.520334532552696e-13 7.520326744754201e-13 7.787798493145547e-19
6.472204850670314 3.988771073598526e-21 6.852685480372832e-13 6.852677664115673e-13 7.816257159127756e-19
6.496522083828205 3.725784685478351e-21 6.424925636162072e-13 6.424917751154271e-13 7.885007802279311e-19
