Dust emission spectrum from A.P. Jones, M. Kohler, N. Ysard, M. Bocchio, and L. Verstraete (2017), A&A, 602A, 46J 
inside the DustPedia framework.

lambda    nu*dP/dnu     j_nu    j_nu(carb.) j_nu(sil)
 (um)   (erg s-1 H-1) (Jy cm2 sr-1 H-1)
0.9927057738263894 2.5921684854370295e-20 6.83051119135724e-13 6.830510243504249e-13 9.478529931771595e-20
1.0001793341362166 2.6356373923317316e-20 6.99733989511935e-13 6.997338754752292e-13 1.1403670553620844e-19
1.0077091589558085 2.6792947099520478e-20 7.166797367460866e-13 7.166795997319609e-13 1.3701412592746514e-19
1.0114953028030835 2.7011923360831816e-20 7.252517947943374e-13 7.252516446853042e-13 1.5010903352425577e-19
1.0152956718711033 2.723135078595703e-20 7.338903083781591e-13 7.338901439779626e-13 1.6440019662247923e-19
1.0229392996569957 2.7671319939534224e-20 7.513619060655762e-13 7.513617090678978e-13 1.9699767820295404e-19
1.0267826658714554 2.789136343884333e-20 7.601822174426991e-13 7.601820018979555e-13 2.1554474360038858e-19
1.0306404723013447 2.811182335776798e-20 7.690695934836704e-13 7.690693577248512e-13 2.3575881901455324e-19
1.03451277320114 2.8332694313875695e-20 7.780243086247438e-13 7.780240508426815e-13 2.5778206219345053e-19
1.0383996230291617 2.855397115292305e-20 7.87046643757529e-13 7.870463619894791e-13 2.8176805016169516e-19
1.0403485208654093 2.8664760231642397e-20 7.915832584302229e-13 7.915829638818247e-13 2.945483982614667e-19
1.0423010764483396 2.877564895453863e-20 7.961368864960936e-13 7.961365786134583e-13 3.0788263556023016e-19
1.0462171883269815 2.899772303788514e-20 8.0529533144827e-13 8.052949951434078e-13 3.363048622271622e-19
1.0471985131304309 2.905330295247042e-20 8.075956344947104e-13 8.075952907014064e-13 3.4379330406902384e-19
1.048180758391296 2.910890728933166e-20 8.099002237994785e-13 8.0989987235834e-13 3.514411386622754e-19
1.0501480137395462 2.9220188967298175e-20 8.145222804911408e-13 8.14521913263197e-13 3.672279437366728e-19
1.0521189612883777 2.933156755655585e-20 8.191615404395913e-13 8.191611567477765e-13 3.8369181467020087e-19
1.0531058218030118 2.938721996825977e-20 8.214855913982768e-13 8.214851992114817e-13 3.9218679535481245e-19
1.0540936079674168 2.94426570479159e-20 8.238072564589185e-13 8.238068555955122e-13 4.0086340600611706e-19
1.058054026499678 2.9664635020604204e-20 8.331367401731178e-13 8.331363027320161e-13 4.374411019236087e-19
1.0590464539527713 2.9720186646155055e-20 8.35479842044062e-13 8.354793949717828e-13 4.470722791739891e-19
1.06003981227728 2.977576101587015e-20 8.378272464363053e-13 8.378267895303195e-13 4.569059855867363e-19
1.0620293250338977 2.988697777868014e-20 8.425349833393675e-13 8.425345061421318e-13 4.771972357275171e-19
1.0660195594769086 3.0109681993965985e-20 8.520023154031265e-13 8.520017950099558e-13 5.203931707812065e-19
1.070024785945596 3.0332744613662167e-20 8.615390745738301e-13 8.615385072633757e-13 5.673104546773437e-19
1.0740450607676866 3.055616286577335e-20 8.711456081255112e-13 8.711449898732422e-13 6.182522690601572e-19
1.07808044048254 3.0779934264496364e-20 8.808222727014291e-13 8.80821599156454e-13 6.735449750443121e-19
1.0861967418109137 3.122818861777514e-20 9.003776844394047e-13 9.003768858249279e-13 7.986144767903212e-19
1.0902777775684922 3.1451896488401224e-20 9.102347907336136e-13 9.102339215581391e-13 8.691754744518196e-19
1.0943741465085532 3.167593734454158e-20 9.201629297560844e-13 9.20161984096857e-13 9.456592273920782e-19
1.1026131145906286 3.212501468760686e-20 9.402339348666812e-13 9.402328165600671e-13 1.1183066141634363e-18
1.1109141095355224 3.2575417223432546e-20 9.605940728523287e-13 9.60592752109977e-13 1.3207423519295515e-18
1.1192775983109025 3.3026797951799423e-20 9.812365442989682e-13 9.812349865098627e-13 1.5577891057414617e-18
1.1277040513999907 3.347756083153355e-20 1.0021168892357014e-12 1.0021150542401142e-12 1.834995587067816e-18
1.1361939428280308 3.392961934346083e-20 1.023295089430412e-12 1.0232929306932029e-12 2.1587372091484365e-18
1.1447477501889525 3.438299257306157e-20 1.0447753203372043e-12 1.0447727840081108e-12 2.5363290935694885e-18
1.1533659546722406 3.4837861196507684e-20 1.0665667614699791e-12 1.0665637853125356e-12 2.976157443319413e-18
1.1707974979042381 3.575348806698133e-20 1.1111421851222654e-12 1.1111381028087745e-12 4.08231349073706e-18
1.1884924949847024 3.6675476289480777e-20 1.1570220596134883e-12 1.1570164881714898e-12 5.571441998584396e-18
1.2064549276569216 3.7610070515821276e-20 1.2044386470095237e-12 1.204431080919589e-12 7.56608993464853e-18
1.2246888378427687 3.8551565881206346e-20 1.2532485634677925e-12 1.2532383391423686e-12 1.0224325424229675e-17
1.2431983285522175 3.949938616364752e-20 1.3034674700385707e-12 1.3034537207307633e-12 1.3749307806962296e-17
1.2619875648066055 4.0455133633847484e-20 1.3551836354598462e-12 1.3551652346349326e-12 1.840082491365157e-17
1.3004222497298317 4.2385678850225943e-20 1.4630964877831705e-12 1.46306399605701e-12 3.249172616051613e-17
1.3400274889804893 4.4351021768776005e-20 1.5775632119543484e-12 1.577506893690154e-12 5.631826419438654e-17
1.3808389325824078 4.636076142314487e-20 1.6992724511333817e-12 1.6991765834756458e-12 9.586765773562661e-17
1.4228933163050095 4.8434175402842254e-20 1.8293368491686873e-12 1.8291765033779638e-12 1.6034579072259062e-16
1.466228494730424 5.060923374062428e-20 1.96970347103501e-12 1.969439823548207e-12 2.6364748680338466e-16
1.5108834753276823 5.2886717538818204e-20 2.121031006490315e-12 2.120604660392131e-12 4.263460981838559e-16
1.5568984535646726 5.527072820360717e-20 2.284151505539028e-12 2.2834727173335173e-12 6.787882055108377e-16
1.6043148490894465 5.778130509941813e-20 2.4606303888569636e-12 2.459564390360409e-12 1.0659984965545871e-15
1.6531753430134553 6.044083616328569e-20 2.652276615016788e-12 2.6506272792915698e-12 1.649335725218959e-15
1.7035239163302658 6.327583434785186e-20 2.861248306429583e-12 2.8587335703460552e-12 2.514736083528297e-15
1.755405889504358 6.634513839426284e-20 3.0914063062007607e-12 3.0876260345021367e-12 3.780271698623816e-15
1.8088679632656115 6.96640566011523e-20 3.3449148017586862e-12 3.3393100881142263e-12 5.604713644459133e-15
1.8639582606462262 7.324938784650184e-20 3.6241788007224265e-12 3.6159799116559204e-12 8.198889066506583e-15
1.9207263702978936 7.713100390807489e-20 3.9324563986492915e-12 3.920618094399471e-12 1.1838304249820387e-14
1.979223391128241 8.134674195664297e-20 4.273703727029626e-12 4.256825660116752e-12 1.6878066912872734e-14
2.039501978296691 8.593614814791946e-20 4.652318592160881e-12 4.628549799213619e-12 2.376879294726186e-14
2.1016163906111602 9.096702616282756e-20 5.074659148933941e-12 5.041582642693036e-12 3.30765062409059e-14
2.1656225393682647 9.649257852591596e-20 5.546845992224385e-12 5.5013464605701426e-12 4.5499531654241543e-14
2.231578038680979 1.0254234997294472e-19 6.0741397242933455e-12 6.012252438870039e-12 6.188728542330611e-14
2.299542257339062 1.0916266626808579e-19 6.663232424824176e-12 6.579973068460155e-12 8.325935636402012e-14
2.369576372248914 1.1641168019680594e-19 7.322117626091698e-12 7.2112923257698206e-12 1.1082530032187535e-13
2.4417434235010123 1.2435239735819295e-19 8.059788065787393e-12 7.913790271507443e-12 1.4599779427994953e-13
2.5161083711144245 1.3306815718187436e-19 8.887362982221495e-12 8.696952139873504e-12 1.904108423479904e-13
2.5927381535095444 1.4266538289100541e-19 9.818535121519843e-12 9.572607541428622e-12 2.459275800912199e-13
2.6717017477616296 1.532395069958303e-19 1.0867462586294794e-11 1.0552832139082096e-11 3.146304472126996e-13
2.753070231689431 1.64904482591111e-19 1.2050891735310422e-11 1.1652074592163811e-11 3.9881714314660666e-13
2.836916847834745 1.7789496711116524e-19 1.3396140722131856e-11 1.2895135470315829e-11 5.010052518160272e-13
2.9233170693905177 1.9266017736608363e-19 1.494986638879086e-11 1.43260885889723e-11 6.237777998185579e-13
2.967498994190263 2.0102778969120404e-19 1.5834928658414836e-11 1.514262002945727e-11 6.92308628957566e-13
3.0123486681368425 2.099218849885879e-19 1.6785426817593157e-11 1.6018043345065215e-11 7.673834725279389e-13
3.0578761833420214 2.219003846162842e-19 1.8011396400715346e-11 1.7161624031087053e-11 8.497723696282919e-13
3.1040917844459814 2.353078690244667e-19 1.938833157179581e-11 1.844920827777993e-11 9.391232940158792e-13
3.127460860933648 2.4565536153864437e-19 2.0393302610318817e-11 1.9406459476254778e-11 9.86843134064044e-13
3.1510058709225794 2.581281453820941e-19 2.1590067814701433e-11 2.055357129594063e-11 1.0364965187607936e-12
3.162844764501044 2.6834739612203272e-19 2.2529144232992185e-11 2.1466985608333692e-11 1.0621586246584952e-12
3.1747281389236908 2.7972195460691006e-19 2.3572330885855513e-11 2.248401196065245e-11 1.0883189252030645e-12
3.1986289994194426 3.095257027687547e-19 2.62802820363509e-11 2.513798818861607e-11 1.1422938477348309e-12
3.2227097969389145 3.7484612157167545e-19 3.2065916258054974e-11 3.0866517544626053e-11 1.1993987134289192e-12
3.2348180950136065 4.34845535525546e-19 3.733828037166061e-11 3.6108429321227063e-11 1.2298510504335538e-12
3.240889293275058 4.793106756695075e-19 4.1233550405212456e-11 3.998763634480171e-11 1.2459140604107468e-12
3.2469718861334385 5.307251678277417e-19 4.574226277055344e-11 4.447972828733116e-11 1.2625344832222795e-12
3.2714166318528037 7.98954605447908e-19 6.937889760822e-11 6.804775180877438e-11 1.3311457994455998e-12
3.2744851364798273 8.158823300014605e-19 7.09153064471255e-11 6.957609562623873e-11 1.3392108208867878e-12
3.2775565192852394 8.3324902218828065e-19 7.249272668731993e-11 7.114541241124727e-11 1.3473142760726518e-12
3.283707930232385 8.176014789225144e-19 7.126489067039273e-11 6.99031267528275e-11 1.3617639175652032e-12
3.2898708863219004 7.663370049388506e-19 6.692187253243917e-11 6.554699717212862e-11 1.3748753603105277e-12
3.29141343181113 7.542286387629223e-19 6.589536821365505e-11 6.45172014714584e-11 1.3781667421966571e-12
3.292184975758714 7.482762078608184e-19 6.539064156001546e-11 6.401082709714779e-11 1.3798144628676843e-12
3.295272960557952 7.110342314455376e-19 6.219440786124448e-11 6.080819136089352e-11 1.3862165003509626e-12
3.3076538914384823 5.811266293394115e-19 5.10223278634064e-11 4.9610416743789935e-11 1.411911119616467e-12
3.310756385682612 5.544458436102731e-19 4.8725442356370625e-11 4.730705859746431e-11 1.4183837589063199e-12
3.313861789986515 5.29735890872653e-19 4.659756501716952e-11 4.517268901105794e-11 1.4248760061115791e-12
3.3200813396944477 4.95489054639813e-19 4.3666885980477945e-11 4.2228027736393363e-11 1.4388582440845836e-12
3.345076488085796 4.377256002713715e-19 3.886667893130907e-11 3.7365461022447264e-11 1.5012179088618142e-12
3.3482140837626964 4.406470137107983e-19 3.916277731189756e-11 3.765310964008352e-11 1.5096676718140416e-12
3.3513546224236106 4.435916867661167e-19 3.946146611488886e-11 3.794331267168804e-11 1.5181534432008087e-12
3.3576445397418455 4.620727213643618e-19 4.118266819561742e-11 3.9646766036767656e-11 1.5359021588497707e-12
3.3702598118196083 5.275076645393024e-19 4.7191261724789216e-11 4.5618134098093005e-11 1.5731276266962128e-12
3.382922481734668 5.444993894506331e-19 4.889437244742099e-11 4.728512703448191e-11 1.6092454129390734e-12
3.389271646505754 5.532328041515239e-19 4.977184447404193e-11 4.8144304770759726e-11 1.6275397032821913e-12
3.395632727569191 5.627992338025795e-19 5.0727521228387474e-11 4.9081128068535415e-11 1.6463931598520624e-12
3.421196662673239 6.085975057019872e-19 5.526849528741689e-11 5.354412690523725e-11 1.7243683821796399e-12
3.4276182099114902 6.018401107170159e-19 5.4757423261033256e-11 5.301572428562762e-11 1.741698975405638e-12
3.4340518103208963 5.682397860450293e-19 5.179739448183028e-11 5.00393382584161e-11 1.7580562234141747e-12
3.4469541582030403 5.204045876361942e-19 4.761524871245988e-11 4.582586661838933e-11 1.7893820940705549e-12
3.472904465399547 5.100239607253253e-19 4.701677638806433e-11 4.515512567782211e-11 1.8616507102422136e-12
3.4990501388274233 4.927148399831046e-19 4.5763079519752074e-11 4.382763027911738e-11 1.935449240634697e-12
3.5253949054701885 4.2287203231678517e-19 3.9571833089207995e-11 3.756493896092889e-11 2.006894128279095e-12
3.5519380250092896 3.5651331065876503e-19 3.3613254344060585e-11 3.153475244785352e-11 2.0785018962070703e-12
3.578680990867387 3.330166387626535e-19 3.1634309005595726e-11 2.947734731948691e-11 2.1569616861088235e-12
3.605625307711299 3.264027040208303e-19 3.1239478429768895e-11 2.9000003998943305e-11 2.239474430825587e-12
3.660119384959845 3.2767861083413876e-19 3.183558085703261e-11 2.942330601354164e-11 2.4122748434909797e-12
3.715437065384467 3.3126162922745097e-19 3.2670100907508026e-11 3.007646343951417e-11 2.593637467993861e-12
3.8285932144167436 3.4754383627558823e-19 3.5319801081313995e-11 3.2339178132150134e-11 2.9806229491638658e-12
3.94519561050918 3.66431083384683e-19 3.8373400017624896e-11 3.497498264284547e-11 3.3984173747794248e-12
4.06534921144712 3.8637754382324973e-19 4.169453816097331e-11 3.784899366536496e-11 3.8455444956083454e-12
4.189162171576248 4.06834765938041e-19 4.5239173770991614e-11 4.0917320959599346e-11 4.3218528113922644e-12
4.316745939156006 4.274683229214258e-19 4.898124948143163e-11 4.415682467666402e-11 4.824424804767606e-12
4.448215356677963 4.479996926672372e-19 5.289723288783436e-11 4.755225681709711e-11 5.344976070737261e-12
4.58368876423945 4.68274840608011e-19 5.6975137088053063e-11 5.109201439972692e-11 5.883122688326156e-12
4.723288106065518 4.881976010745805e-19 6.120818633829633e-11 5.476689101917268e-11 6.4412953191236505e-12
4.867139040275056 5.075623518870727e-19 6.557413751877664e-11 5.857157094190015e-11 7.0025665768764844e-12
4.940699165968905 5.171270065026945e-19 6.781957486378725e-11 6.053367077808319e-11 7.285904085704035e-12
5.015371051989984 5.264104844842071e-19 7.008047430762503e-11 6.251049729826868e-11 7.569977009356347e-12
5.091171501069577 5.358247327385707e-19 7.241189549679441e-11 6.455058190682123e-11 7.861313589973185e-12
5.129500256944802 5.40408755918421e-19 7.358119995353273e-11 6.55743592163122e-11 8.006840737220535e-12
5.168117569889187 5.449525875012992e-19 7.475849278871039e-11 6.660461416313135e-11 8.153878625579063e-12
5.20702561229733 5.497971263124063e-19 7.599090426172136e-11 6.767528624055787e-11 8.315618021163494e-12
5.246226572918644 5.54562704714785e-19 7.722663915972807e-11 6.8748990965769e-11 8.477648193959046e-12
5.265937586045735 5.569152960308151e-19 7.78456387717803e-11 6.928689384648291e-11 8.558744925297422e-12
5.285722656980489 5.592474536890682e-19 7.846533265826305e-11 6.982545129914688e-11 8.639881359116168e-12
5.305582063971359 5.615589589125123e-19 7.908567571563348e-11 7.036462933281205e-11 8.721046382821449e-12
5.3255160863122235 5.639088995771478e-19 7.971500589685012e-11 7.091203559185041e-11 8.802970304999724e-12
5.365609099470188 5.690027622872521e-19 8.104063543222052e-11 7.206806568391447e-11 8.972569748306045e-12
5.406003951863644 5.740318054450449e-19 8.237240534789722e-11 7.323000174527069e-11 9.142403602626528e-12
5.446702915881641 5.789957479694639e-19 8.371022230119448e-11 7.439783969250907e-11 9.312382608685398e-12
5.487708281020852 5.840033702355483e-19 8.506987668543222e-11 7.558662898589512e-11 9.483247699537108e-12
5.529022354014368 5.899092606985518e-19 8.657709169382677e-11 7.691572968133377e-11 9.661362012492968e-12
5.570647458961463 5.95811547408691e-19 8.810164629687882e-11 7.826197876237113e-11 9.839667534507683e-12
5.612585937458331 6.017159892053162e-19 8.964457009909004e-11 7.962649650467731e-11 1.0018073594412698e-11
5.654840148729818 6.077900326301307e-19 9.12311899441413e-11 8.103369015386163e-11 1.0197499790279677e-11
5.67608639626678 6.115434507543555e-19 9.213947849474248e-11 8.184789635234333e-11 1.0291582142399126e-11
5.686739436050992 6.134345928027683e-19 9.259787613781653e-11 8.225923070177224e-11 1.033864543604427e-11
5.6974124697621304 6.153358484955485e-19 9.305919940700385e-11 8.267347785465533e-11 1.0385721552348508e-11
5.718818669136295 6.191702382029273e-19 9.399090519345183e-11 8.351099872662971e-11 1.0479906466822156e-11
5.740305295436557 6.232483489220758e-19 9.496543468495082e-11 8.439051714014098e-11 1.057491754480981e-11
5.7835210386641895 6.331888990746435e-19 9.720644154159446e-11 8.64352801968834e-11 1.0771161344711033e-11
5.827062130521658 6.439781584437042e-19 9.960708246354527e-11 8.863747289758882e-11 1.0969609565956469e-11
5.8489554468988025 6.512651041395524e-19 1.0111266447420345e-10 9.003525952782332e-11 1.1077404946380133e-11
5.870931020387893 6.58849963971513e-19 1.0267458054325959e-10 9.148918097347004e-11 1.1185399569789531e-11
5.892989160043636 6.667578572481118e-19 1.0429733644292382e-10 9.300375483278251e-11 1.1293581610141318e-11
5.915130176081913 6.755605120853049e-19 1.0607132550831061e-10 9.466539515600653e-11 1.1405930352304086e-11
5.95966208400165 6.996728404260208e-19 1.1068431579015557e-10 9.90188023921743e-11 1.1665513397981283e-11
6.004529249263818 7.332568683316202e-19 1.1687040187084892e-10 1.0491074665127407e-10 1.1959655219574831e-11
6.027089341400364 7.562478385333687e-19 1.2098769661507628e-10 1.0885630390831642e-10 1.2131392706759893e-11
6.049734195844842 7.828667118012456e-19 1.2571686821939832e-10 1.1340316869896684e-10 1.2313699520431475e-11
6.095279466722835 8.588094957344923e-19 1.38950429475016e-10 1.261825973026024e-10 1.2767832172413556e-11
6.141167624020661 9.73048895706225e-19 1.5861894202220904e-10 1.4525425459735812e-10 1.3364687424850987e-11
6.164241091010745 1.045589481894935e-18 1.7108433853915077e-10 1.573414768263193e-10 1.3742861712831408e-11
6.187401249150058 1.1262922786793793e-18 1.849817230785711e-10 1.7085123382153528e-10 1.4130489257035898e-11
6.1990139391386085 1.1653901402368403e-18 1.9176236861534014e-10 1.7743476984304245e-10 1.4327598772297698e-11
6.204828454712694 1.1858234189615965e-18 1.9530764128393543e-10 1.8088055924364142e-10 1.4427082040293996e-11
6.210648424152782 1.2005702223196634e-18 1.979219429097259e-10 1.8341088619869858e-10 1.4511056711027309e-11
6.233982942956859 1.2496091774035845e-18 2.0678034177058082e-10 1.9197983060648131e-10 1.4800511164099522e-11
6.239830258556775 1.2552704288235245e-18 2.079119764074786e-10 1.9307380918052096e-10 1.4838167226957625e-11
6.245683058788269 1.2549450861812292e-18 2.0805305504748185e-10 1.931771976127307e-10 1.4875857434751212e-11
6.257405133728602 1.2516875667493478e-18 2.0790246832092072e-10 1.929621050581214e-10 1.4940363262799318e-11
6.269149208991335 1.2396175065605206e-18 2.0628409323621656e-10 1.9132712461035674e-10 1.4956968625859747e-11
6.280915325867298 1.2122728072158947e-18 2.0211229576956107e-10 1.8719785701013866e-10 1.4914438759422413e-11
6.304513850009849 1.1460174678970459e-18 1.9178395633520796e-10 1.770079277457552e-10 1.4776028589452818e-11
6.32820103803542 1.0660430513965763e-18 1.7907066416949844e-10 1.6448979149354678e-10 1.4580872675951665e-11
6.3519772230701035 9.933605241716527e-19 1.6748860387300943e-10 1.5308466290053739e-10 1.4403940972472047e-11
6.375842739491607 9.317968509969297e-19 1.5769875624072363e-10 1.4345297170082836e-10 1.424578453989529e-11
6.399797922933955 8.835496291355014e-19 1.5009514443876184e-10 1.359404503314286e-10 1.4154694107333226e-11
6.42384311029221 8.430962980552318e-19 1.437611509360145e-10 1.296840959989128e-10 1.4077054937101733e-11
6.447978639727206 8.139999354617996e-19 1.3932126003790836e-10 1.2526975431762701e-10 1.4051505720281347e-11
6.472204850670314 7.89588966882278e-19 1.356509247830896e-10 1.2161468132912577e-10 1.4036243453963814e-11
6.496522083828205 7.738704992888878e-19 1.3345002005429513e-10 1.1938701900224247e-10 1.4063001052052684e-11
6.520930681187647 7.605439835911768e-19 1.3164469170054316e-10 1.1754873749217863e-10 1.4095954208364556e-11
6.57002334288761 7.466591308676503e-19 1.3021431362672752e-10 1.1599490399306986e-10 1.4219409633657644e-11
