Dust emission spectrum from A.P. Jones, M. Kohler, N. Ysard, M. Bocchio, and L. Verstraete (2017), A&A, 602A, 46J 
inside the DustPedia framework.

lambda    nu*dP/dnu     j_nu    j_nu(carb.) j_nu(sil)
 (um)   (erg s-1 H-1) (Jy cm2 sr-1 H-1)
0.9927057738263894 1.339115417224621e-21 3.528645184624129e-14 3.528645184624128e-14 2.0317501446324185e-29
1.0001793341362166 1.3612481152128388e-21 3.613970484501287e-14 3.613970484501284e-14 2.448673232212207e-29
1.0077091589558085 1.3833495146812993e-21 3.7002968069435104e-14 3.700296806943507e-14 2.9474568710008506e-29
1.0114953028030835 1.394385755942008e-21 3.7438310431421974e-14 3.743831043142194e-14 3.2322203383452103e-29
1.0152956718711033 1.4054109153217004e-21 3.787610310449111e-14 3.787610310449108e-14 3.543378361050209e-29
1.0229392996569957 1.4274128685739332e-21 3.875867345749373e-14 3.8758673457493694e-14 4.2544592160873055e-29
1.0267826658714554 1.4383629892822006e-21 3.9202743497196244e-14 3.92027434971962e-14 4.659791914681625e-29
1.0306404723013447 1.449297187255112e-21 3.9649167699089214e-14 3.964916769908917e-14 5.102124577036872e-29
1.03451277320114 1.4602144074203328e-21 4.00979268752675e-14 4.009792687526744e-14 5.584673967601178e-29
1.0383996230291617 1.4711136005434858e-21 4.054900159746355e-14 4.054900159746349e-14 6.11092143003138e-29
1.0403485208654093 1.4765561107244724e-21 4.0775401152391417e-14 4.077540115239136e-14 6.391597200595327e-29
1.0423010764483396 1.4819937234293851e-21 4.10023722016434e-14 4.100237220164332e-14 6.684633311336073e-29
1.0462171883269815 1.4928537391188527e-21 4.145801879260874e-14 4.145801879260868e-14 7.309882850845901e-29
1.0471985131304309 1.4955654803824943e-21 4.157228371017919e-14 4.157228371017911e-14 7.474756429575547e-29
1.048180758391296 1.4982758844677679e-21 4.1686689303810965e-14 4.1686689303810876e-14 7.643196782864792e-29
1.0501480137395462 1.5036926170810618e-21 4.191592124860266e-14 4.191592124860258e-14 7.991073630287977e-29
1.0521189612883777 1.5091038091776464e-21 4.2145712077120624e-14 4.2145712077120555e-14 8.354119576631927e-29
1.0531058218030118 1.5118031351198368e-21 4.2260700191207345e-14 4.226070019120727e-14 8.541538750308302e-29
1.0540936079674168 1.514487422968224e-21 4.237544617072205e-14 4.2375446170721955e-14 8.733028571938751e-29
1.058054026499678 1.525209366516532e-21 4.283578607383815e-14 4.283578607383806e-14 9.54099450495319e-29
1.0590464539527713 1.5278859720298893e-21 4.295120840830976e-14 4.295120840830966e-14 9.753921659263631e-29
1.06003981227728 1.5305609941285559e-21 4.3066765028442634e-14 4.3066765028442527e-14 9.971402602800086e-29
1.0620293250338977 1.5359062257819145e-21 4.3298279803758206e-14 4.3298279803758105e-14 1.042039886944072e-28
1.0660195594769086 1.5465770044481759e-21 4.376290619751958e-14 4.3762906197519463e-14 1.1377242109550698e-28
1.070024785945596 1.5572207137145366e-21 4.422964389435925e-14 4.4229643894359136e-14 1.2418000167981399e-28
1.0740450607676866 1.5678363724582929e-21 4.469847134033815e-14 4.469847134033801e-14 1.3549659736394453e-28
1.07808044048254 1.5784230073930187e-21 4.516936679295707e-14 4.516936679295692e-14 1.4779755923905336e-28
1.0861967418109137 1.5994866528555053e-21 4.6116734672533726e-14 4.611673467253355e-14 1.7568387373097825e-28
1.0902777775684922 1.609919233138362e-21 4.659192798800308e-14 4.6591927988002896e-14 1.9145117476655692e-28
1.0943741465085532 1.6203182339251768e-21 4.70690656143351e-14 4.706906561433488e-14 2.0856756977975738e-28
1.1026131145906286 1.641011799873675e-21 4.802908253153614e-14 4.802908253153588e-14 2.472935080755676e-28
1.1109141095355224 1.6615600456193178e-21 4.8996601350114e-14 4.899660135011371e-14 2.928404499077224e-28
1.1192775983109025 1.6819367429418532e-21 4.9970869104003077e-14 4.997086910400274e-14 3.463405975311171e-28
1.1277040513999907 1.7020472888503127e-21 5.0949062359051245e-14 5.0949062359050854e-14 4.091019293804653e-28
1.1361939428280308 1.7219887650146943e-21 5.193405294225566e-14 5.1934052942255175e-14 4.826332093006971e-28
1.1447477501889525 1.7417545192651684e-21 5.292564723524892e-14 5.292564723524836e-14 5.686727909528164e-28
1.1533659546722406 1.7613488188374255e-21 5.3923979285924865e-14 5.3923979285924215e-14 6.692218339471962e-28
1.1707974979042381 1.800086270300979e-21 5.594284361972437e-14 5.594284361972344e-14 9.233942606769823e-28
1.1884924949847024 1.838054438923988e-21 5.798614626895839e-14 5.798614626895713e-14 1.2678865694209585e-27
1.2064549276569216 1.8755499816147293e-21 6.006329824094596e-14 6.006329824094423e-14 1.7325214051801124e-27
1.2246888378427687 1.9121636017245656e-21 6.216132165321334e-14 6.216132165321098e-14 2.35610731574724e-27
1.2431983285522175 1.9478096230818584e-21 6.427711233274617e-14 6.427711233274299e-14 3.1889786463218025e-27
1.2619875648066055 1.9824746579734914e-21 6.640979704864273e-14 6.640979704863841e-14 4.296085465110463e-27
1.3004222497298317 2.0482856458451024e-21 7.070405891108378e-14 7.070405891107608e-14 7.689469847164462e-27
1.3400274889804893 2.1093385745484454e-21 7.502904790136217e-14 7.502904790134867e-14 1.3516498378627075e-26
1.3808389325824078 2.1654065555847024e-21 7.93691818782709e-14 7.936918187824754e-14 2.3344132679525315e-26
1.4228933163050095 2.216761450218697e-21 8.372607509002228e-14 8.372607508998263e-14 3.9632708912469807e-26
1.466228494730424 2.2646371063864235e-21 8.813932240004304e-14 8.813932239997685e-14 6.617827157324881e-26
1.5108834753276823 2.30810326049337e-21 9.256688275453191e-14 9.256688275442316e-14 1.0873378692556702e-25
1.5568984535646726 2.3464069661419555e-21 9.696903186397002e-14 9.696903186379404e-14 1.7597959313873926e-25
1.6043148490894465 2.379617339607619e-21 1.0133656084117135e-13 1.0133656084089027e-13 2.810677585501123e-25
1.6531753430134553 2.4078344523736336e-21 1.0566106321906935e-13 1.0566106321862684e-13 4.425445721353236e-25
1.7035239163302658 2.431392213423648e-21 1.099442927086534e-13 1.0994429270796627e-13 6.871407492816288e-25
1.755405889504358 2.452223413464542e-21 1.1426336741582536e-13 1.1426336741477258e-13 1.0528003223774546e-24
1.8088679632656115 2.4698501191895364e-21 1.185896806024627e-13 1.1858968060087019e-13 1.5924982805211546e-24
1.8639582606462262 2.4839483798635666e-21 1.2289895281111587e-13 1.228989528087363e-13 2.3795902205389195e-24
1.9207263702978936 2.4947521585149912e-21 1.2719274470339601e-13 1.2719274469988128e-13 3.514697660868045e-24
1.979223391128241 2.5028067879561717e-21 1.3148965085072906e-13 1.3148965084559404e-13 5.1349808451392e-24
2.039501978296691 2.508765076343725e-21 1.3581682050663797e-13 1.3581682049921162e-13 7.426368023059705e-24
2.1016163906111602 2.5144564903526604e-21 1.4027071315406661e-13 1.4027071314342565e-13 1.0640995118523895e-23
2.1656225393682647 2.5209417667947355e-21 1.4491555671321194e-13 1.4491555669809214e-13 1.511981516762865e-23
2.231578038680979 2.528296612126526e-21 1.4976472540921816e-13 1.4976472538789352e-13 2.1324649288986636e-23
2.299542257339062 2.5371561479327475e-21 1.5486669288774912e-13 1.548666928578653e-13 2.988381834384674e-23
2.369576372248914 2.5489250914282265e-21 1.603235114206873e-13 1.603235113790294e-13 4.165783765778475e-23
2.4417434235010123 2.565262288141896e-21 1.6626515302335113e-13 1.6626515296551983e-13 5.783134113007068e-23
2.5161083711144245 2.5890088479954602e-21 1.7291485719509883e-13 1.729148571150502e-13 8.004864320447431e-23
2.5927381535095444 2.624814167508469e-21 1.8064529438675482e-13 1.8064529427614937e-13 1.1060543215603125e-22
2.6717017477616296 2.6782292454636824e-21 1.8993506761535768e-13 1.8993506746264635e-13 1.5271131367038412e-22
2.753070231689431 2.757611801048924e-21 2.0152078791487188e-13 2.0152078770400916e-13 2.108626838728057e-22
2.836916847834745 2.881896155455017e-21 2.1701730561563e-13 2.170173053242377e-13 2.9139226647303767e-22
2.9233170693905177 3.0927823135742218e-21 2.39990863652603e-13 2.399908632494353e-13 4.031677538106174e-22
2.967498994190263 3.271869283364343e-21 2.5772464971792e-13 2.5772464924379273e-13 4.741272499276322e-22
3.0123486681368425 3.481021789068186e-21 2.7834371101435053e-13 2.7834371045633173e-13 5.580187330964738e-22
3.0578761833420214 3.948991374997314e-21 3.2053504170836344e-13 3.205350410506513e-13 6.577120924079457e-22
3.1040917844459814 4.552011113984804e-21 3.7506565828982275e-13 3.750656575141972e-13 7.75625577946487e-22
3.127460860933648 5.1899195810769444e-21 4.308458804937233e-13 4.30845879650439e-13 8.43284259146758e-22
3.1510058709225794 6.039834794348056e-21 5.051771576731494e-13 5.051771567558308e-13 9.17318732847769e-22
3.162844764501044 6.830978912806398e-21 5.734958170011766e-13 5.734958160431914e-13 9.579850523589535e-22
3.1747281389236908 7.751005602042794e-21 6.531817247102809e-13 6.531817237097702e-13 1.000510937399826e-21
3.1986289994194426 1.0317199400467484e-20 8.759818898533367e-13 8.759818887604961e-13 1.0928407234736902e-21
3.2227097969389145 1.6366340895162578e-20 1.4000457424893348e-12 1.4000457412846413e-12 1.2046930506569372e-21
3.2348180950136065 2.2102809835428768e-20 1.8978714122919955e-12 1.8978714110184536e-12 1.2735414563545728e-21
3.240889293275058 2.6391569368266438e-20 2.270381531350282e-12 2.27038153003583e-12 1.3144519518276974e-21
3.2469718861334385 3.135300833521081e-20 2.702260289985065e-12 2.702260288625051e-12 1.3600136081050836e-21
3.2714166318528037 5.781816269815204e-20 5.0207613328440036e-12 5.020761331278226e-12 1.565778369019244e-21
3.2744851364798273 5.947260311299105e-20 5.16927223434105e-12 5.169272232753049e-12 1.5880002872674246e-21
3.2775565192852394 6.11745637157825e-20 5.3221915772763955e-12 5.3221915756658255e-12 1.6105700901528661e-21
3.283707930232385 5.953788887013697e-20 5.189522341211929e-12 5.189522339572561e-12 1.6393683741703392e-21
3.2898708863219004 5.434736167365619e-20 4.745989280119657e-12 4.745989278464463e-12 1.6551931634905379e-21
3.29141343181113 5.3123304757357527e-20 4.641271290697608e-12 4.6412712890384384e-12 1.6591679304195094e-21
3.292184975758714 5.252184638992628e-20 4.589798787231623e-12 4.589798785570464e-12 1.6611581085690739e-21
3.295272960557952 4.872537626570177e-20 4.262025357767571e-12 4.2620253561012344e-12 1.6663355815741142e-21
3.3076538914384823 3.5573197898606787e-20 3.1232906473340672e-12 3.1232906456483677e-12 1.6856989153392676e-21
3.310756385682612 3.2896384832774234e-20 2.8909783009014997e-12 2.890978299210917e-12 1.6905830468691502e-21
3.313861789986515 3.042660483846765e-20 2.676438809680459e-12 2.6764388079849743e-12 1.6954847461765324e-21
3.3200813396944477 2.6963019603778046e-20 2.376220204467385e-12 2.3762202027540872e-12 1.713297990368567e-21
3.345076488085796 2.078435015762024e-20 1.84549101965093e-12 1.8454910178168543e-12 1.8340756516367295e-21
3.3482140837626964 2.1016054985026782e-20 1.8678149533389864e-12 1.867814951483982e-12 1.855004721699315e-21
3.3513546224236106 2.125032158250796e-20 1.890407034387828e-12 1.890407032511649e-12 1.876178825925846e-21
3.3576445397418455 2.2962350416062625e-20 2.0465411924425703e-12 2.0465411905159298e-12 1.926640699459018e-21
3.3702598118196083 2.927700709465687e-20 2.6191447010141493e-12 2.619144698968738e-12 2.0454103285695773e-21
3.382922481734668 3.071528977890974e-20 2.758138663471608e-12 2.758138661325373e-12 2.146234089949369e-21
3.389271646505754 3.1460420680425775e-20 2.8303512616096017e-12 2.83035125941104e-12 2.1985620034351453e-21
3.395632727569191 3.226333974344621e-20 2.9080339016745184e-12 2.9080338994199593e-12 2.254558854431538e-21
3.421196662673239 3.6118666531602267e-20 3.2800403095426694e-12 3.280040307044603e-12 2.4980656137184672e-21
3.4276182099114902 3.534180263126417e-20 3.2155152357367063e-12 3.215515233193025e-12 2.5436821109487944e-21
3.4340518103208963 3.1937465910652813e-20 2.911231422280242e-12 2.9112314197000837e-12 2.5801584067769786e-21
3.4469541582030403 2.7089061129512448e-20 2.478556903058044e-12 2.478556900418084e-12 2.6399606522134685e-21
3.472904465399547 2.573032528614929e-20 2.3719610126759444e-12 2.3719610098261525e-12 2.8497913737867306e-21
3.4990501388274233 2.3652152976317594e-20 2.196798776155552e-12 2.196798773086219e-12 3.06933284604301e-21
3.5253949054701885 1.62561374761303e-20 1.5212289054830286e-12 1.5212289022354634e-12 3.247564839433843e-21
3.5519380250092896 9.30466377186781e-21 8.772744820434363e-13 8.772744786241102e-13 3.419326168940883e-21
3.578680990867387 6.548338021601461e-21 6.220474424885204e-13 6.220474388255712e-13 3.6629491401147206e-21
3.605625307711299 5.433445061827243e-21 5.200262979361047e-13 5.200262939833741e-13 3.9527306810277254e-21
3.660119384959845 4.620091664561465e-21 4.4886451813145096e-13 4.4886451350283335e-13 4.628617597918436e-21
3.715437065384467 4.044083010958567e-21 3.9884063951046557e-13 3.988406340938917e-13 5.416573834023912e-21
3.8285932144167436 3.751734906708972e-21 3.8127717077309213e-13 3.812771633435521e-13 7.42953995854899e-21
3.94519561050918 3.69576664970758e-21 3.8702811647707105e-13 3.870281063169385e-13 1.016013246561576e-20
4.06534921144712 3.737118314247639e-21 4.032776351949425e-13 4.0327762135475016e-13 1.3840192477211644e-20
4.189162171576248 3.8350921107595784e-21 4.264542093062771e-13 4.264541905356956e-13 1.8770581513369186e-20
4.316745939156006 3.974609045951361e-21 4.554286407479215e-13 4.554286154117336e-13 2.533618801652257e-20
4.448215356677963 4.1507138457742735e-21 4.900924722592719e-13 4.900924382367443e-13 3.402252771264432e-20
4.58368876423945 4.364198689873847e-21 5.309933335564521e-13 5.309932881040456e-13 4.5452406561749826e-20
4.723288106065518 4.620116709147265e-21 5.792510324010409e-13 5.792509719848775e-13 6.04161634501377e-20
4.867139040275056 4.928412451901503e-21 6.367225517588104e-13 6.367224718625195e-13 7.989629086851581e-20
4.940699165968905 5.114470223827591e-21 6.707466287233611e-13 6.707465369965491e-13 9.172681207202646e-20
5.015371051989984 5.3074739768483385e-21 7.065784300199806e-13 7.065783248580406e-13 1.0516194011096784e-19
5.091171501069577 5.5427025666194984e-21 7.490464222742177e-13 7.490463017845991e-13 1.204896185498176e-19
5.129500256944802 5.663570687790046e-21 7.711428111874547e-13 7.711426822857364e-13 1.289017183858579e-19
5.168117569889187 5.789624930252983e-21 7.942409000794471e-13 7.942407622169578e-13 1.378624891001107e-19
5.20702561229733 5.943967442309937e-21 8.215529678609213e-13 8.215528203663875e-13 1.4749453404407357e-19
5.246226572918644 6.1023342894931715e-21 8.497916722493951e-13 8.497915145079329e-13 1.57741462165773e-19
5.265937586045735 6.183067522028511e-21 8.642693857608208e-13 8.642692226543986e-13 1.6310642186359435e-19
5.285722656980489 6.264856353957765e-21 8.789920001009706e-13 8.789918314625537e-13 1.686384167835288e-19
5.305582063971359 6.347718029028164e-21 8.93964136108124e-13 8.939639617660089e-13 1.7434211525957977e-19
5.3255160863122235 6.436679902844002e-21 9.098987031346713e-13 9.098985228890346e-13 1.8024563677775851e-19
5.365609099470188 6.65770054115283e-21 9.482278789010226e-13 9.482276861075028e-13 1.9279351971213887e-19
5.406003951863644 6.88719639887062e-21 9.882987808288975e-13 9.882985746903371e-13 2.0613856029791732e-19
5.446702915881641 7.125576101564626e-21 1.0302036959302715e-12 1.0302034756042207e-12 2.2032605111343603e-19
5.487708281020852 7.383082465892292e-21 1.0754696752494924e-12 1.0754694397842067e-12 2.354652854252852e-19
5.529022354014368 7.739890264287108e-21 1.1359326488921944e-12 1.1359323967764046e-12 2.5211579005016637e-19
5.570647458961463 8.117727395972115e-21 1.2003546270375394e-12 1.2003543571962501e-12 2.6984128935734045e-19
5.612585937458331 8.518101899138085e-21 1.269039873474131e-12 1.269039584770284e-12 2.8870384726800735e-19
5.654840148729818 8.958041297932521e-21 1.344630091485033e-12 1.3446297825939625e-12 3.088910708344486e-19
5.67608639626678 9.257017145001351e-21 1.3947279316051764e-12 1.3947276115990045e-12 3.200061716513736e-19
5.686739436050992 9.41111430975697e-21 1.4206065445251104e-12 1.4206062188243743e-12 3.2570073660453887e-19
5.6974124697621304 9.568382102033412e-21 1.4470568880596847e-12 1.4470565565712404e-12 3.314884446099321e-19
5.718818669136295 9.892734236382323e-21 1.501730846131341e-12 1.5017305027825457e-12 3.4334879509908817e-19
5.740305295436557 1.0250109448004824e-20 1.5618270003949954e-12 1.5618266446119284e-12 3.557830674082404e-19
5.7835210386641895 1.1176096132889799e-20 1.7157416009545731e-12 1.715741217542781e-12 3.8341179167901676e-19
5.827062130521658 1.2242385882813624e-20 1.893586489217181e-12 1.8935860757958236e-12 4.1342135712793886e-19
5.8489554468988025 1.2989557332643276e-20 2.0167037108172046e-12 2.0167032797653887e-12 4.310518163240499e-19
5.870931020387893 1.3791244766837133e-20 2.149215070254829e-12 2.149214620869798e-12 4.493850306162808e-19
5.892989160043636 1.465183203899727e-20 2.2919070830054867e-12 2.291906614558751e-12 4.684467357832375e-19
5.915130176081913 1.5630295363389617e-20 2.4541489883171076e-12 2.4541484993814684e-12 4.889356385381954e-19
5.95966208400165 1.836425461671818e-20 2.9051219938879087e-12 2.905121455057369e-12 5.388305393533416e-19
6.004529249263818 2.230280719135018e-20 3.5547407080302046e-12 3.5547401060321103e-12 6.019980945935866e-19
6.027089341400364 2.5039669304477655e-20 4.005951169430427e-12 4.005950527169937e-12 6.422604891492815e-19
6.049734195844842 2.8273457097658725e-20 4.540300956052884e-12 4.540300268688188e-12 6.873646963873266e-19
6.095279466722835 3.761235302079974e-20 6.085462063197513e-12 6.085461253467712e-12 8.097298021917205e-19
6.141167624020661 5.1981883988320955e-20 8.473686655349782e-12 8.473685667718163e-12 9.876316216653128e-19
6.164241091010745 6.115799371348534e-20 1.0006962657935917e-11 1.000696155324161e-11 1.1046943032265837e-18
6.187401249150058 7.161031136754159e-20 1.1761244428038677e-11 1.176124319402372e-11 1.234014957298861e-18
6.1990139391386085 7.671424404083222e-20 1.2623159091440017e-11 1.262315779081705e-11 1.3006229697262377e-18
6.204828454712694 7.94027397150797e-20 1.3077800250238365e-11 1.307779891496647e-11 1.3352718955621302e-18
6.210648424152782 8.136573301740405e-20 1.3413679321450624e-11 1.3413677957369547e-11 1.3640810757681466e-18
6.233982942956859 8.803581729414178e-20 1.456781585580153e-11 1.4567814389337137e-11 1.466464393170212e-18
6.239830258556775 8.888913067272487e-20 1.4722815430799148e-11 1.4722813950160657e-11 1.4806384961710873e-18
6.245683058788269 8.896434534116941e-20 1.4749094635569204e-11 1.474909314063009e-11 1.4949391162609708e-18
6.257405133728602 8.878393101168704e-20 1.474680974302623e-11 1.4746808223065747e-11 1.5199604826095227e-18
6.269149208991335 8.747580482640293e-20 1.45568023872062e-11 1.4556800859154407e-11 1.5280517929646246e-18
6.280915325867298 8.419124763429994e-20 1.4036515742814627e-11 1.4036514227726498e-11 1.515088125960895e-18
6.304513850009849 7.608989957390663e-20 1.2733507460589104e-11 1.2733505991043129e-11 1.4695459737222527e-18
6.32820103803542 6.604688183363191e-20 1.109435400453925e-11 1.1094352605076295e-11 1.3994629565713434e-18
6.3519772230701035 5.683696936700258e-20 9.583171885746579e-12 9.58317055260655e-12 1.3331400262874513e-18
6.375842739491607 4.908911107208324e-20 8.307917925187075e-12 8.307916650309675e-12 1.274877402118601e-18
6.399797922933955 4.288088336036429e-20 7.284494463466657e-12 7.284493227905079e-12 1.2355615784416307e-18
6.42384311029221 3.771986393468649e-20 6.431828801655056e-12 6.431827599344994e-12 1.2023100618117088e-18
6.447978639727206 3.396055809020793e-20 5.812565257802031e-12 5.812564071026165e-12 1.1867758650595876e-18
6.472204850670314 3.0829659921110096e-20 5.2965176243024355e-12 5.296516448631128e-12 1.1756713071629399e-18
6.496522083828205 2.879695223610196e-20 4.9658875185727955e-12 4.965886338550137e-12 1.1800226588235494e-18
