Dust emission spectrum from A.P. Jones, M. Kohler, N. Ysard, M. Bocchio, and L. Verstraete (2017), A&A, 602A, 46J 
inside the DustPedia framework.

lambda    nu*dP/dnu     j_nu    j_nu(carb.) j_nu(sil)
 (um)   (erg s-1 H-1) (Jy cm2 sr-1 H-1)
0.9927057738263894 7.9828026237590275e-25 2.103513832774223e-17 2.1035138327721918e-17 2.0317495493895765e-29
1.0001793341362166 8.11380215611474e-25 2.154129080626624e-17 2.1541290806241757e-17 2.4486723855846238e-29
1.0077091589558085 8.2445904963795865e-25 2.2053307254991594e-17 2.2053307254962116e-17 2.94745566985431e-29
1.0114953028030835 8.309889360475765e-25 2.2311488496100297e-17 2.2311488496067982e-17 3.232218908997361e-29
1.0152956718711033 8.375116150040808e-25 2.2571104248071323e-17 2.2571104248035883e-17 3.5433766612141836e-29
1.0229392996569957 8.50526363800832e-25 2.309442091164566e-17 2.309442091160312e-17 4.254456816549906e-29
1.0267826658714554 8.570025595790613e-25 2.3357700225855185e-17 2.3357700225808593e-17 4.65978906642901e-29
1.0306404723013447 8.634686859003505e-25 2.3622356429888544e-17 2.362235642983753e-17 5.10212119827103e-29
1.03451277320114 8.699241194721612e-25 2.3888378002823732e-17 2.3888378002767892e-17 5.584669962009177e-29
1.0383996230291617 8.763682406282795e-25 2.4155753285180775e-17 2.4155753285119666e-17 6.110916684282094e-29
1.0403485208654093 8.795858664255165e-25 2.428994488660293e-17 2.428994488653901e-17 6.391592036163828e-29
1.0423010764483396 8.828004334471842e-25 2.4424470481705318e-17 2.4424470481638465e-17 6.684627692158058e-29
1.0462171883269815 8.892200858677644e-25 2.4694517664155398e-17 2.4694517664082305e-17 7.309876201618505e-29
1.0471985131304309 8.908229681865018e-25 2.4762235859791154e-17 2.4762235859716406e-17 7.474749495258152e-29
1.048180758391296 8.924250192430376e-25 2.483003623684925e-17 2.483003623677282e-17 7.64318955151391e-29
1.0501480137395462 8.9562658980234e-25 2.4965882774089362e-17 2.496588277400946e-17 7.991065767067204e-29
1.0521189612883777 8.988247221736692e-25 2.51020557486845e-17 2.5102055748600958e-17 8.354111027650896e-29
1.0531058218030118 9.004200001246589e-25 2.5170194972785778e-17 2.5170194972700368e-17 8.541529836856052e-29
1.0540936079674168 9.0200628024417e-25 2.523818817803547e-17 2.5238188177948148e-17 8.733019278848798e-29
1.058054026499678 9.083420044681743e-25 2.551095255476082e-17 2.5510952554665415e-17 9.540983528817322e-29
1.0590464539527713 9.09923540241733e-25 2.557934055813502e-17 2.5579340558037483e-17 9.753910217842152e-29
1.06003981227728 9.115040994760428e-25 2.564780693169798e-17 2.5647806931598257e-17 9.97139067682816e-29
1.0620293250338977 9.146622516159265e-25 2.578497399881313e-17 2.578497399870892e-17 1.0420385913430627e-28
1.0660195594769086 9.209664346072819e-25 2.6060239854117825e-17 2.6060239854004053e-17 1.1377226825935018e-28
1.070024785945596 9.272539709737419e-25 2.63367373517466e-17 2.6336737351622424e-17 1.2417982149651337e-28
1.0740450607676866 9.335242829536315e-25 2.6614453612711186e-17 2.6614453612575693e-17 1.354963850702221e-28
1.07808044048254 9.397767975845976e-25 2.6893375650751443e-17 2.6893375650603633e-17 1.4779730926522065e-28
1.0861967418109137 9.522150309626223e-25 2.745446350284035e-17 2.745446350266466e-17 1.7568352777939669e-28
1.0902777775684922 9.5837430626884e-25 2.7735867579012028e-17 2.7735867578820575e-17 1.9145076815651882e-28
1.0943741465085532 9.645131029253448e-25 2.801840377831324e-17 2.8018403778104675e-17 2.0856709216452483e-28
1.1026131145906286 9.767270880336735e-25 2.858681816033712e-17 2.8586818160089827e-17 2.4729285027712416e-28
1.1109141095355224 9.888526960910076e-25 2.9159597013719404e-17 2.9159597013426564e-17 2.9283954612361934e-28
1.1192775983109025 1.0008743729753125e-24 2.9736292099797223e-17 2.973629209945088e-17 3.463393587397223e-28
1.1277040513999907 1.01273586849084e-24 3.031522288187466e-17 3.0315222881465545e-17 4.091002354556621e-28
1.1361939428280308 1.0244950509607324e-24 3.0898099509504967e-17 3.089809950902233e-17 4.826308984911286e-28
1.1447477501889525 1.0361480264822204e-24 3.148480703023143e-17 3.1484807029662756e-17 5.686696460000557e-28
1.1533659546722406 1.0476974159218984e-24 3.207542603138629e-17 3.2075426030717073e-17 6.692175637212125e-28
1.1707974979042381 1.0705234389862572e-24 3.326958620069043e-17 3.326958619976705e-17 9.233864423134432e-28
1.1884924949847024 1.0928862118710412e-24 3.447790141296396e-17 3.447790141169608e-17 1.2678723853868605e-27
1.2064549276569216 1.1149629129453687e-24 3.570597991218344e-17 3.570597991045095e-17 1.732495903137951e-27
1.2246888378427687 1.1365104413947208e-24 3.694610181161106e-17 3.6946101809254983e-17 2.3560618726794553e-27
1.2431983285522175 1.1574785776960222e-24 3.819643340892755e-17 3.819643340573865e-17 3.188898381025175e-27
1.2619875648066055 1.1778598826026766e-24 3.9456461872426033e-17 3.9456461868130076e-17 4.295944922739926e-27
1.3004222497298317 1.216522339326299e-24 4.199271098777238e-17 4.199271098008333e-17 7.689049886984951e-27
1.3400274889804893 1.252350040966267e-24 4.454601662658443e-17 4.4546016613069146e-17 1.35152847783162e-26
1.3808389325824078 1.2852139392092406e-24 4.7107264282777374e-17 4.7107264259436656e-17 2.3340737749108452e-26
1.4228933163050095 1.3152815491966525e-24 4.9677587880146244e-17 4.9677587840522746e-17 3.962350660958934e-26
1.466228494730424 1.343291233484435e-24 5.2280684958905575e-17 5.228068489275151e-17 6.615407621918945e-26
1.5108834753276823 1.3686958075570755e-24 5.489178344545694e-17 5.489178333678493e-17 1.0867202979207214e-25
1.5568984535646726 1.3910543288640804e-24 5.74875515997653e-17 5.748755142393887e-17 1.7582644547397626e-25
1.6043148490894465 1.4104138566518222e-24 6.00628038873662e-17 6.006280360666772e-17 2.806984547945737e-25
1.6531753430134553 1.4268396932745608e-24 6.261285898868209e-17 6.261285854700421e-17 4.416778898272841e-25
1.7035239163302658 1.4405357660871373e-24 6.513909399296594e-17 6.513909330780626e-17 6.85159670315355e-25
1.755405889504358 1.452654162077484e-24 6.768761579316336e-17 6.768761474477814e-17 1.0483852181424956e-24
1.8088679632656115 1.4629165323902617e-24 7.024183490986566e-17 7.024183332696746e-17 1.5828982173099646e-24
1.8639582606462262 1.4711365046019684e-24 7.278779918434454e-17 7.278779682513412e-17 2.359210451999397e-24
1.9207263702978936 1.4774580555150143e-24 7.532689955741261e-17 7.532689608498339e-17 3.472429225756698e-24
1.979223391128241 1.4822098495574164e-24 7.787067565250238e-17 7.787067060323454e-17 5.049267846962629e-24
2.039501978296691 1.4857839592666344e-24 8.043577105332385e-17 8.043576379701427e-17 7.256309589911282e-24
2.1016163906111602 1.4892691297336497e-24 8.307991954029644e-17 8.307990922968222e-17 1.03106142290925e-23
2.1656225393682647 1.493298746555135e-24 8.584181596202625e-17 8.584180147114665e-17 1.4490879592482185e-23
2.231578038680979 1.4979225713010496e-24 8.873008075839841e-17 8.873006060757477e-17 2.0150823661967513e-23
2.299542257339062 1.5035216080899805e-24 9.177417768310636e-17 9.177414994839282e-17 2.773471356071743e-23
2.369576372248914 1.5109326946556574e-24 9.503536841554807e-17 9.503533061995499e-17 3.779559312172042e-23
2.4417434235010123 1.5211435339251163e-24 9.859154114869629e-17 9.859149013459384e-17 5.101410245079415e-23
2.5161083711144245 1.5358426043184509e-24 1.0257593549959906e-16 1.0257586727727491e-16 6.822232414544867e-23
2.5927381535095444 1.5577913526561455e-24 1.0721051454885616e-16 1.0721042412078763e-16 9.042806852053754e-23
2.6717017477616296 1.590287692531225e-24 1.1278026364636126e-16 1.1278014481009804e-16 1.18836263231387e-22
2.753070231689431 1.6382944883630889e-24 1.1972330405822205e-16 1.1972314918061757e-16 1.5487760449596764e-22
2.836916847834745 1.7130501242566754e-24 1.2899893066827286e-16 1.2899873042323848e-16 2.0024503432257023e-22
2.9233170693905177 1.8393019337746045e-24 1.4272445159398927e-16 1.4272419470292981e-16 2.568910594687774e-22
2.967498994190263 1.9461633272434747e-24 1.532989916063932e-16 1.5329870185249869e-16 2.8975389451864568e-22
3.0123486681368425 2.0709083004335983e-24 1.6559054681108705e-16 1.6559022040060724e-16 3.264104797203794e-22
3.0578761833420214 2.349224714703377e-24 1.9068384060734426e-16 1.9068347326974376e-16 3.6733760046364032e-22
3.1040917844459814 2.7078034562669467e-24 2.2311107341633136e-16 2.2311066071230276e-16 4.1270402854910704e-22
3.127460860933648 3.0866923473216007e-24 2.562445643751288e-16 2.562441270469173e-16 4.373282116029041e-22
3.1510058709225794 3.591461571362571e-24 3.0039304224199834e-16 3.0039257899771467e-16 4.632442835140954e-22
3.162844764501044 4.061092847593832e-24 3.4094963405349157e-16 3.4094915729960157e-16 4.767538900732755e-22
3.1747281389236908 4.607268178709824e-24 3.88257153933594e-16 3.8825666332704343e-16 4.906065506713313e-22
3.1986289994194426 6.1307379483846126e-24 5.205303499298639e-16 5.205298304909422e-16 5.194389217796037e-22
3.2227097969389145 9.721279790529788e-24 8.31599223642081e-16 8.31598673367859e-16 5.502742216547556e-22
3.2348180950136065 1.3126113067266363e-23 1.1270818022849798e-15 1.1270812354722592e-15 5.668127200575108e-22
3.240889293275058 1.567158688516144e-23 1.3481760381330055e-15 1.3481754625876414e-15 5.75545364083494e-22
3.2469718861334385 1.8616291139568306e-23 1.6045051803453363e-15 1.6045045957574778e-15 5.84587858460361e-22
3.2714166318528037 3.432361787154389e-23 2.98056329310286e-15 2.980562670907327e-15 6.221955338160646e-22
3.2744851364798273 3.5305469647740656e-23 3.0687001142980202e-15 3.068699487614217e-15 6.266838038359999e-22
3.2775565192852394 3.63155188970663e-23 3.1594528355994467e-15 3.1594522043988415e-15 6.3120060573248525e-22
3.283707930232385 3.534399841202838e-23 3.0807015980537956e-15 3.080700958672328e-15 6.393814679014612e-22
3.2898708863219004 3.2263299452778757e-23 2.8174555052669815e-15 2.817454858343862e-15 6.469231188189014e-22
3.29141343181113 3.1536799138443644e-23 2.7553037430617164e-15 2.755303094241687e-15 6.488200298662121e-22
3.292184975758714 3.1179823385027496e-23 2.724754086066246e-15 2.724753436296029e-15 6.497702160866518e-22
3.295272960557952 2.8926571594714037e-23 2.5302171291129114e-15 2.530216475629154e-15 6.534837590549265e-22
3.3076538914384823 2.1120801604023487e-23 1.8543849305330087e-15 1.8543842620746624e-15 6.684583462211925e-22
3.310756385682612 1.9532165116945087e-23 1.716512796459508e-15 1.7165121242137808e-15 6.722457271947442e-22
3.313861789986515 1.806641199663736e-23 1.5891896738457154e-15 1.5891889977949905e-15 6.760507247666853e-22
3.3200813396944477 1.6010870897508204e-23 1.4110198144293507e-15 1.411019130234031e-15 6.841953196581224e-22
3.345076488085796 1.234417256908832e-23 1.0960679284418978e-15 1.0960672080049575e-15 7.204369399853173e-22
3.3482140837626964 1.2481696188330258e-23 1.1093185091211247e-15 1.109317783771624e-15 7.253495005694286e-22
3.3513546224236106 1.2620739655824946e-23 1.1227281870495408e-15 1.1227274567583562e-15 7.3029118488768765e-22
3.3576445397418455 1.3636764140067503e-23 1.2153894979648727e-15 1.2153887573523852e-15 7.40612487428458e-22
3.3702598118196083 1.7384190861795354e-23 1.5552037552841097e-15 1.5552029929878485e-15 7.622962614198339e-22
3.382922481734668 1.8237623391037043e-23 1.6376825537616311e-15 1.6376817701845661e-15 7.835770661012905e-22
3.389271646505754 1.8679752556715314e-23 1.680532557161561e-15 1.6805317627505318e-15 7.9441102911603225e-22
3.395632727569191 1.915614255603586e-23 1.7266257126892203e-15 1.7266249071063154e-15 8.055829048224382e-22
3.421196662673239 2.1443424984990636e-23 1.9473392868444727e-15 1.947338434732557e-15 8.521119155266532e-22
3.4276182099114902 2.098241078573366e-23 1.909049809030622e-15 1.9090489463044804e-15 8.627261417004987e-22
3.4340518103208963 1.896236914833564e-23 1.7284979672447579e-15 1.7284970943700913e-15 8.72874666630036e-22
3.4469541582030403 1.608552873349422e-23 1.4717711363685863e-15 1.4717702437847491e-15 8.925838371693182e-22
3.472904465399547 1.5279548365791603e-23 1.4085516841275055e-15 1.4085507463521246e-15 9.37775381042353e-22
3.4990501388274233 1.404670070270423e-23 1.3046497265437624e-15 1.3046487419104494e-15 9.84633312972903e-22
3.5253949054701885 9.658545223335654e-24 9.03834517899931e-16 9.038334868435828e-16 1.0310563482912535e-21
3.5519380250092896 5.534533685488074e-24 5.21814145178279e-16 5.218130666820377e-16 1.0784962412153232e-21
3.578680990867387 3.8997329294590906e-24 3.704480262252917e-16 3.70446895473424e-16 1.1307518677267625e-21
3.605625307711299 3.2388109056963294e-24 3.099813885737409e-16 3.099802022103093e-16 1.1863634316973147e-21
3.660119384959845 2.7573145501157345e-24 2.678866041485813e-16 2.6788529854718293e-16 1.3056013983105285e-21
3.715437065384467 2.416767779878811e-24 2.383495106957953e-16 2.3834807579766323e-16 1.434898132023193e-21
3.8285932144167436 2.245688393117802e-24 2.2822233933287504e-16 2.282206134442424e-16 1.7258886326081408e-21
3.94519561050918 2.2150051134371145e-24 2.319597902937073e-16 2.319577261200157e-16 2.0641736915610048e-21
4.06534921144712 2.2422355219440792e-24 2.419627538663434e-16 2.419602976938617e-16 2.4561724817703544e-21
4.189162171576248 2.303254052360711e-24 2.561170259705769e-16 2.5611411563167207e-16 2.9103389049340695e-21
4.316745939156006 2.3891331183960383e-24 2.737576541736343e-16 2.7375421946885787e-16 3.4347047763090776e-21
4.448215356677963 2.4969549924922865e-24 2.9482611687060315e-16 2.9482208256978312e-16 4.034300819964699e-21
4.58368876423945 2.627214155341593e-24 3.1965391620422695e-16 3.1964919431548067e-16 4.7218887462557855e-21
4.723288106065518 2.7829399054700067e-24 3.48913439818945e-16 3.4890792456530072e-16 5.51525364430275e-21
4.867139040275056 2.970068935275143e-24 3.837158293515644e-16 3.837094115069164e-16 6.417844647948848e-21
4.940699165968905 3.082705687873937e-24 4.042871220277293e-16 4.0428020427253125e-16 6.917755198105407e-21
5.015371051989984 3.199559803573503e-24 4.2595403248806253e-16 4.259465799948825e-16 7.452493180071216e-21
5.091171501069577 3.341585202909905e-24 4.515851988952594e-16 4.515771665882653e-16 8.032306994153335e-21
5.129500256944802 3.414567495284004e-24 4.649220999358745e-16 4.649137627179329e-16 8.33721794158187e-21
5.168117569889187 3.4906561586889665e-24 4.788603618963355e-16 4.78851707919855e-16 8.653976480511367e-21
5.20702561229733 3.583578061416702e-24 4.953087681742157e-16 4.952997742240677e-16 8.993950148116931e-21
5.246226572918644 3.678915786875685e-24 5.123141162516423e-16 5.12304770120302e-16 9.346131340089754e-21
5.265937586045735 3.727514901854666e-24 5.210321580934828e-16 5.210226311596567e-16 9.526933826039367e-21
5.285722656980489 3.776747569325674e-24 5.298973691137937e-16 5.298876581626571e-16 9.710951136526205e-21
5.305582063971359 3.8266240947312744e-24 5.389125174453772e-16 5.389026192056046e-16 9.898239772437593e-21
5.3255160863122235 3.880133483206689e-24 5.485014755509656e-16 5.484913859869155e-16 1.0089564050256797e-20
5.365609099470188 4.012790793181906e-24 5.715246696321911e-16 5.715141815838915e-16 1.0488048299331135e-20
5.406003951863644 4.1505068354788464e-24 5.95589352729711e-16 5.955784516076038e-16 1.0901122107452719e-20
5.446702915881641 4.293524522215372e-24 6.20750486459935e-16 6.207391571421184e-16 1.1329317816525878e-20
5.487708281020852 4.447937036075037e-24 6.479165608425421e-16 6.479047866969869e-16 1.17741455551673e-20
5.529022354014368 4.661430258064562e-24 6.841273764696214e-16 6.841151326509909e-16 1.2243818630594342e-20
5.570647458961463 4.8874311286263205e-24 7.226961787956622e-16 7.2268344768153505e-16 1.2731114127158759e-20
5.612585937458331 5.12683408537597e-24 7.638035980394547e-16 7.637903613403513e-16 1.3236699103513048e-20
5.654840148729818 5.389768021547821e-24 8.090210824959679e-16 8.090073198806104e-16 1.3762615357447274e-20
5.67608639626678 5.568235329746512e-24 8.38949871486609e-16 8.389358326252228e-16 1.403886138602517e-20
5.686739436050992 5.660206146629848e-24 8.54407419844767e-16 8.543932408832639e-16 1.417896150346797e-20
5.6974124697621304 5.75405970519166e-24 8.702047683625414e-16 8.701904479658186e-16 1.432039672270682e-20
5.718818669136295 5.947595622585506e-24 9.028533056012454e-16 9.028386982768767e-16 1.460732436864931e-20
5.740305295436557 6.160768563265071e-24 9.387270188773445e-16 9.387121177488494e-16 1.490112849526061e-20
5.7835210386641895 6.712749378010064e-24 1.0305336700477866e-15 1.0305181532671445e-15 1.5516780641961833e-20
5.827062130521658 7.348064192703539e-24 1.1365590997043559e-15 1.1365429394774025e-15 1.616022695313538e-20
5.8489554468988025 7.793046027511992e-24 1.2099153527547167e-15 1.209898846731449e-15 1.6506023267942247e-20
5.870931020387893 8.270373067826041e-24 1.288847434333358e-15 1.2888305752864162e-15 1.6859046941863877e-20
5.892989160043636 8.782642995451691e-24 1.3738214876616773e-15 1.373804268207367e-15 1.7219454310696856e-20
5.915130176081913 9.364960698488541e-24 1.4704142365509966e-15 1.4703966427170432e-15 1.7593833953096045e-20
5.95966208400165 1.0991619135480029e-23 1.738812446536896e-15 1.7387940227037668e-15 1.8423833129438867e-20
6.004529249263818 1.3334237515052202e-23 2.125282100079442e-15 2.1252627462639974e-15 1.9353815444683808e-20
6.027089341400364 1.4961877100243075e-23 2.3936637635975126e-15 2.3936438827696805e-15 1.988082783302972e-20
6.049734195844842 1.6884692754213443e-23 2.7114330727162013e-15 2.711412632900257e-15 2.0439815943959272e-20
6.095279466722835 2.243716792629804e-23 3.6302045273682145e-15 3.63018275513668e-15 2.1772231533389176e-20
6.141167624020661 3.0979481714309415e-23 5.050036679147217e-15 5.050013224780705e-15 2.3454366513354422e-20
6.164241091010745 3.6434895068220484e-23 5.961651327242623e-15 5.9616268445055755e-15 2.4482737049952324e-20
6.187401249150058 4.264811046097067e-23 7.004505942601228e-15 7.004480385227735e-15 2.555737349581373e-20
6.1990139391386085 4.5682312622309506e-23 7.516923448914894e-15 7.516897341220673e-15 2.61076942223657e-20
6.204828454712694 4.72804898349914e-23 7.787197318558196e-15 7.787170930910969e-15 2.6387647228161845e-20
6.210648424152782 4.8447644800657706e-23 7.986914726086992e-15 7.986888091750168e-15 2.6634336825612264e-20
6.233982942956859 5.2413916127319864e-23 8.673245752612916e-15 8.673218218656674e-15 2.753395624098217e-20
6.239830258556775 5.292158911114127e-23 8.76546753119504e-15 8.765439844538464e-15 2.768665657608276e-20
6.245683058788269 5.296684370147499e-23 8.781191918004718e-15 8.781164077804162e-15 2.7840200555421766e-20
6.257405133728602 5.286073446170918e-23 8.78004820355209e-15 8.780020077834343e-15 2.8125717743753615e-20
6.269149208991335 5.2084412347796775e-23 8.667339494678155e-15 8.66731118533775e-15 2.8309340408556777e-20
6.280915325867298 5.0133392655649704e-23 8.358329102193328e-15 8.35830073671233e-15 2.836548099522828e-20
6.304513850009849 4.532041354811781e-23 7.584289468951295e-15 7.584261107312127e-15 2.836163916496355e-20
6.32820103803542 3.9353307010312277e-23 6.6104486252884464e-15 6.610420393352736e-15 2.8231935711983106e-20
6.3519772230701035 3.38810342503086e-23 5.712615899539427e-15 5.712587758243823e-15 2.8141295605191645e-20
6.375842739491607 2.927697184250414e-23 4.954880499024997e-15 4.954852406375011e-15 2.8092649986292756e-20
6.399797922933955 2.558848849875679e-23 4.346906784340333e-15 4.3468785879834416e-15 2.8196356891407115e-20
6.42384311029221 2.2521831763997967e-23 3.840325788463527e-15 3.840297454674153e-15 2.833378937172438e-20
6.447978639727206 2.0288606075672497e-23 3.472523816935987e-15 3.4724952205996818e-15 2.8596336304340104e-20
6.472204850670314 1.8428586280747904e-23 3.166020393242299e-15 3.1659915049840726e-15 2.8888258227661156e-20
6.496522083828205 1.7221597969649806e-23 2.9697767217236206e-15 2.9697474353854547e-15 2.92863381669542e-20
6.520930681187647 1.62054346456066e-23 2.8050441444829695e-15 2.805014437546474e-15 2.9706936494453415e-20
6.57002334288761 1.5170946120885433e-23 2.6457512598869233e-15 2.6457205452061856e-15 3.071468073758504e-20
